-7.98
-8.91
-10.5
-12.72
-15.37
-18.01
-20.11
-21.12
-20.67
-18.61
-15.13
-10.65
-5.74
-0.93
3.36
6.93
9.74
11.79
13.05
13.48
13.05
11.92
10.44
9.06
8.17
7.9
8.06
8.27
8.23
7.84
7.26
6.72
6.34
5.99
5.39
4.25
2.48
0.25
-2.11
-4.34
-6.34
-8.19
-10.05
-12.04
-14.12
-16.22
-18.22
-20.05
-21.74
-23.33
-24.91
-26.5
-28.12
-29.73
-31.15
-32.11
-32.24
-31.16
-28.61
-24.59
-19.38
-13.49
-7.58
-2.25
2.01
5
6.77
7.56
7.74
7.64
7.54
7.54
7.66
7.88
8.12
8.32
8.43
8.39
8.2
7.89
7.53
7.23
7.01
6.88
6.75
6.51
6.09
5.56
5.11
5.06
5.8
7.62
10.65
14.77
19.57
24.46
28.77
32.02
34.05
35.15
36.01
37.46
40.2
44.47
49.99
56.03
61.66
65.96
68.3
68.35
66.11
61.86
56.04
49.17
41.74
34.18
26.82
19.96
13.85
8.69
4.59
1.46
-0.96
-3.06
-5.22
-7.6
-10.2
-12.81
-15.2
-17.22
-18.9
-20.4
-21.88
-23.45
-25.08
-26.69
-28.21
-29.67
-31.17
-32.85
-34.75
-36.86
-39.11
-41.48
-43.98
-46.59
-49.12
-51.18
-52.18
-51.55
-49.01
-44.72
-39.27
-33.48
-28.11
-23.59
-20
-17.07
-14.46
-11.88
-9.25
-6.64
-4.18
-1.99
-0.06
1.69
3.41
5.2
7.06
8.91
10.56
11.88
12.8
13.36
13.74
14.06
14.44
14.85
15.2
15.33
15.11
14.49
13.5
12.25
10.9
9.6
8.39
7.26
6.1
4.81
3.25
1.33
-1.03
-3.89
-7.2
-10.71
-13.94
-16.26
-17.09
-16.16
-13.62
-9.97
-5.85
-1.84
1.72
4.72
7.24
9.39
11.3
13.01
14.56
15.97
17.23
18.31
19.13
19.62
19.71
19.37
18.68
17.74
16.76
15.92
15.31
14.9
14.48
13.7
12.28
10.11
7.27
4.06
0.82
-2.2
-4.88
-7.25
-9.41
-11.44
-13.35
-15.12
-16.75
-18.31
-19.97
-21.91
-24.35
-27.4
-31.09
-35.26
-39.55
-43.4
-46.2
-47.35
-46.48
-43.54
-38.79
-32.72
-25.98
-19.27
-13.23
-8.39
-5.11
-3.48
-3.38
-4.55
-6.61
-9.24
-12.06
-14.64
-16.46
-16.97
-15.65
-12.26
-6.79
0.44
8.9
17.94
26.82
34.87
41.52
46.5
49.92
52.25
54.18
56.3
58.81
61.45
63.55
64.35
63.34
60.52
56.42
51.91
47.84
44.77
42.8
41.63
40.81
39.88
38.56
36.77
34.56
31.98
29.11
26.01
22.83
19.8
17.16
15.12
13.71
12.75
11.88
10.67
8.7
5.76
1.85
-2.72
-7.45
-11.75
-15.03
-16.91
-17.25
-16.2
-14.12
-11.48
-8.71
-6.11
-3.79
-1.69
0.25
2.08
3.77
5.23
6.43
7.48
8.57
9.94
11.71
13.79
15.89
17.61
18.64
18.81
18.21
17
15.34
13.23
10.49
6.83
1.94
-4.37
-12.08
-20.89
-30.27
-39.58
-48.25
-55.84
-62.16
-67.09
-70.53
-72.27
-72.05
-69.64
-65.05
-58.59
-50.78
-42.23
-33.41
-24.59
-15.82
-7.11
1.45
9.65
17.15
23.65
28.94
32.95
35.75
37.42
38.05
37.69
36.43
34.48
32.16
29.89
27.97
26.55
25.52
24.63
23.61
22.31
20.79
19.19
17.65
16.15
14.56
12.66
10.24
7.15
3.28
-1.46
-7.13
-13.66
-20.7
-27.63
-33.65
-38.14
-40.85
-42.03
-42.28
-42.33
-42.71
-43.59
-44.81
-46.01
-46.87
-47.22
-47.06
-46.54
-45.82
-44.98
-44.06
-43.04
-41.92
-40.74
-39.58
-38.48
-37.4
-36.25
-34.88
-33.24
-31.39
-29.47
-27.65
-26.09
-24.84
-23.89
-23.22
-22.73
-22.33
-21.89
-21.33
-20.63
-19.91
-19.35
-19.22
-19.74
-21.05
-23.09
-25.53
-27.83
-29.32
-29.41
-27.8
-24.6
-20.3
-15.64
-11.29
-7.66
-4.83
-2.6
-0.68
1.2
3.17
5.21
7.18
8.99
10.55
11.91
13.17
14.45
15.79
17.16
18.4
19.36
19.92
20.04
19.73
19
17.9
16.45
14.74
12.86
10.92
8.93
6.81
4.44
1.74
-1.27
-4.47
-7.62
-10.52
-12.91
-14.5
-14.96
-14.01
-11.48
-7.46
-2.33
3.33
8.91
13.89
17.96
21.02
23.13
24.49
25.37
26.07
26.83
27.82
29.04
30.35
31.47
32.15
32.22
31.81
31.24
30.98
31.36
32.33
33.43
33.9
33.04
30.58
26.74
22.16
17.56
13.45
9.92
6.77
3.65
0.23
-3.66
-7.96
-12.45
-16.79
-20.57
-23.42
-25.15
-25.74
-25.35
-24.2
-22.48
-20.35
-17.93
-15.4
-12.96
-10.86
-9.26
-8.21
-7.6
-7.21
-6.83
-6.33
-5.72
-5.13
-4.69
-4.45
-4.4
-4.38
-4.23
-3.82
-3.11
-2.18
-1.18
-0.27
0.4
0.75
0.76
0.43
-0.23
-1.18
-2.42
-3.93
-5.72
-7.85
-10.35
-13.18
-16.17
-18.92
-20.89
-21.49
-20.36
-17.42
-13.06
-7.92
-2.76
1.83
5.56
8.43
10.63
12.45
14.07
15.58
17
18.3
19.47
20.47
21.27
21.79
21.99
21.86
21.52
21.15
20.97
21.15
21.81
22.97
24.57
26.48
28.51
30.46
32.13
33.44
34.37
34.98
35.36
35.56
35.5
34.99
33.76
31.51
28.07
23.4
17.65
11.1
4.12
-2.93
-9.69
-15.75
-20.65
-23.89
-25.09
-24.13
-21.33
-17.37
-13.19
-9.58
-7.01
-5.49
-4.68
-4.11
-3.4
-2.4
-1.18
0.09
1.21
2.09
2.69
2.97
2.91
2.44
1.54
0.23
-1.36
-3.05
-4.65
-6
-7.08
-7.96
-8.77
-9.65
-10.66
-11.75
-12.77
-13.58
-14.11
-14.49
-15
-15.94
-17.51
-19.7
-22.15
-24.33
-25.63
-25.54
-23.86
-20.69
-16.44
-11.66
-6.91
-2.58
1.13
4.21
6.73
8.78
10.44
11.75
12.72
13.32
13.5
13.23
12.48
11.3
9.81
8.24
6.8
5.69
4.99
4.64
4.48
4.32
3.94
3.14
1.84
0.03
-2.13
-4.4
-6.53
-8.37
-9.88
-11.22
-12.6
-14.21
-16.04
-17.93
-19.56
-20.6
-20.85
-20.21
-18.67
-16.28
-13.08
-9.19
-4.89
-0.58
3.29
6.39
8.68
10.37
11.82
13.28
14.77
16.11
17.07
17.58
17.8
18.02
18.52
19.34
20.36
21.32
22.01
22.35
22.4
22.23
21.86
21.25
20.3
18.97
17.38
15.75
14.32
13.24
12.39
11.46
10
7.74
4.7
1.36
-1.56
-3.28
-3.27
-1.43
1.94
6.24
10.83
15.18
19.02
22.28
25.06
27.5
29.71
31.71
33.47
34.89
35.9
36.47
36.62
36.36
35.67
34.47
32.69
30.28
27.24
23.68
19.72
15.46
10.94
6.11
0.88
-4.82
-10.87
-16.98
-22.71
-27.62
-31.46
-34.36
-36.72
-39.09
-41.91
-45.23
-48.71
-51.68
-53.43
-53.42
-51.48
-47.85
-43.13
-38.05
-33.32
-29.41
-26.41
-24.08
-22
-19.76
-17.17
-14.33
-11.5
-9.01
-7.03
-5.6
-4.61
-3.95
-3.5
-3.18
-2.87
-2.46
-1.84
-0.99
0.03
1.05
1.93
2.58
2.98
3.15
3.09
2.76
2.07
0.97
-0.49
-2.17
-3.82
-5.18
-5.99
-6
-5.09
-3.19
-0.36
3.23
7.34
11.65
15.92
19.95
23.63
26.93
29.83
32.28
34.23
35.62
36.42
36.71
36.64
36.42
36.27
36.39
36.92
37.94
39.35
40.92
42.29
43.06
42.91
41.67
39.34
36.04
31.95
27.24
22.09
16.65
11.03
5.27
-0.71
-7.14
-14.26
-22.21
-30.8
-39.46
-47.25
-53.08
-56.08
-55.9
-52.85
-47.77
-41.78
-35.85
-30.6
-26.13
-22.21
-18.48
-14.69
-10.72
-6.58
-2.3
2.14
6.8
11.62
16.39
20.75
24.35
27.07
29.11
31.03
33.49
36.97
41.53
46.79
52.06
56.65
60.08
62.14
62.89
62.44
60.87
58.18
54.36
49.58
44.24
38.94
34.33
30.88
28.66
27.31
26.19
24.67
22.38
19.38
16.06
12.91
10.26
8.16
6.34
4.46
2.22
-0.43
-3.34
-6.25
-8.96
-11.4
-13.68
-15.96
-18.37
-20.88
-23.28
-25.3
-26.69
-27.42
-27.62
-27.57
-27.51
-27.59
-27.74
-27.82
-27.68
-27.28
-26.65
-25.87
-24.94
-23.76
-22.14
-19.95
-17.18
-13.96
-10.53
-7.18
-4.07
-1.22
1.52
4.33
7.3
10.24
12.63
13.83
13.29
10.88
7.07
2.82
-0.69
-2.47
-1.96
0.83
5.47
11.2
17.1
22.09
25.23
25.82
23.88
20.21
16.33
13.88
14.06
17.07
22.08
27.66
32.32
35.14
35.87
34.87
32.72
29.94
26.78
23.21
19.05
14.14
8.44
2.06
-4.77
-11.84
-19.01
-26.25
-33.62
-41.06
-48.48
-55.69
-62.56
-69.2
-75.88
-82.94
-90.59
-98.71
-106.87
-114.5
-121.07
-126.19
-129.7
-131.45
-131.21
-128.57
-123.07
-114.37
-102.59
-88.37
-72.89
-57.5
-43.35
-31
-20.3
-10.59
-0.95
9.32
20.49
32.36
44.33
55.72
65.9
74.53
81.61
87.36
92.09
95.95
98.78
100.1
99.26
95.75
89.5
80.98
71.09
60.83
51
41.97
33.79
26.33
19.54
13.55
8.51
4.45
1.11
-1.99
-5.33
-9.19
-13.49
-17.89
-22.01
-25.69
-28.95
-31.99
-34.92
-37.62
-39.82
-41.15
-41.41
-40.65
-39.18
-37.43
-35.8
-34.56
-33.77
-33.38
-33.21
-33.13
-33.02
-32.8
-32.39
-31.64
-30.36
-28.34
-25.52
-22.01
-18.14
-14.31
-10.84
-7.88
-5.33
-2.98
-0.67
1.62
3.77
5.54
6.79
7.47
7.67
7.55
7.22
6.73
6.04
5.09
3.89
2.53
1.18
0.01
-0.9
-1.61
-2.27
-3.12
-4.31
-5.91
-7.88
-10.12
-12.49
-14.84
-17.05
-19
-20.56
-21.62
-22.09
-21.91
-21.15
-19.97
-18.62
-17.32
-16.24
-15.35
-14.48
-13.4
-11.9
-9.91
-7.49
-4.77
-1.92
0.96
3.79
6.53
9.1
11.4
13.32
14.82
15.91
16.74
17.45
18.16
18.91
19.63
20.25
20.73
21.15
21.68
22.46
23.5
24.62
25.51
25.86
25.55
24.59
23.17
21.45
19.47
17.16
14.4
11.09
7.31
3.23
-0.9
-4.84
-8.38
-11.33
-13.47
-14.57
-14.45
-13.12
-10.77
-7.81
-4.75
-2.02
0.17
1.82
3.11
4.17
5.01
5.52
5.53
5
4.02
2.86
1.77
0.94
0.43
0.22
0.29
0.74
1.66
3.14
5.13
7.49
9.96
12.25
14.04
15
14.81
13.26
10.33
6.19
1.26
-3.96
-8.99
-13.48
-17.2
-20
-21.86
-22.76
-22.76
-21.99
-20.68
-19.09
-17.49
-16.09
-14.97
-14.11
-13.41
-12.74
-11.94
-10.89
-9.52
-7.81
-5.8
-3.6
-1.35
0.78
2.68
4.29
5.68
6.94
8.12
9.17
9.86
9.86
8.87
6.72
3.52
-0.36
-4.34
-7.77
-10.15
-11.29
-11.32
-10.68
-9.87
-9.33
-9.26
-9.62
-10.21
-10.85
-11.41
-11.81
-12
-11.87
-11.27
-10.1
-8.41
-6.41
-4.43
-2.79
-1.66
-1.09
-0.95
-1.05
-1.21
-1.25
-0.91
0.11
2.12
5.31
9.58
14.5
19.37
23.46
26.24
27.59
27.79
27.37
26.79
26.31
25.85
25.13
23.87
21.97
19.56
16.87
14.06
11.16
8.07
4.72
1.22
-2.11
-4.9
-6.91
-8.15
-8.88
-9.43
-10.04
-10.76
-11.49
-12.02
-12.15
-11.73
-10.61
-8.77
-6.35
-3.74
-1.46
-0.08
0.02
-1.23
-3.68
-7.04
-10.97
-15.11
-19.02
-22.18
-24.19
-24.88
-24.53
-23.69
-22.94
-22.48
-21.97
-20.75
-18.23
-14.3
-9.49
-4.76
-1.03
1.19
1.92
1.57
0.62
-0.6
-1.89
-3.1
-4
-4.28
-3.71
-2.28
-0.35
1.46
2.49
2.35
1.07
-0.9
-2.94
-4.5
-5.4
-5.86
-6.33
-7.26
-8.89
-11.01
-13.21
-14.93
-15.76
-15.52
-14.34
-12.51
-10.41
-8.43
-6.89
-6.04
-5.99
-6.67
-7.88
-9.33
-10.74
-11.9
-12.8
-13.54
-14.34
-15.42
-16.93
-18.89
-21.19
-23.58
-25.75
-27.41
-28.36
-28.55
-28.12
-27.35
-26.6
-26.29
-26.72
-28.05
-30.22
-32.85
-35.36
-37.04
-37.25
-35.61
-32.08
-26.98
-20.83
-14.26
-7.82
-1.83
3.56
8.41
12.85
16.92
20.57
23.67
26.04
27.57
28.28
28.28
27.77
27.03
26.29
25.76
25.5
25.43
25.38
25.16
24.56
23.4
21.56
18.96
15.61
11.57
7.03
2.28
-2.39
-6.77
-10.85
-14.81
-19.03
-23.86
-29.52
-35.88
-42.35
-48.02
-51.92
-53.33
-52.07
-48.61
-43.82
-38.66
-33.85
-29.61
-25.74
-21.71
-16.94
-11.01
-3.8
4.56
13.72
23.22
32.59
41.43
49.42
56.33
62.05
66.59
70.07
72.75
74.96
77.04
79.2
81.43
83.49
84.95
85.28
83.96
80.57
74.87
66.8
56.53
44.53
31.57
18.68
6.95
-2.81
-10.24
-15.54
-19.24
-21.88
-23.58
-23.96
-22.32
-17.96
-10.68
-0.97
10.06
21.02
30.6
37.87
42.32
43.77
42.2
37.62
30.2
20.35
8.88
-3.17
-14.63
-24.61
-32.64
-38.72
-43.14
-46.27
-48.32
-49.26
-48.95
-47.34
-44.57
-41.16
-37.76
-34.98
-33.1
-32.05
-31.41
-30.63
-29.26
-27.09
-24.13
-20.55
-16.61
-12.63
-8.92
-5.72
-3.03
-0.53
2.47
6.75
12.99
21.39
31.64
42.95
54.37
65.08
74.6
82.73
89.45
94.74
98.47
100.46
100.59
98.89
95.58
90.93
85.17
78.32
70.22
60.63
49.39
36.55
22.42
7.64
-6.97
-20.5
-32.1
-41.19
-47.62
-51.69
-54.04
-55.44
-56.53
-57.61
-58.61
-59.14
-58.78
-57.22
-54.41
-50.56
-46.03
-41.21
-36.37
-31.68
-27.24
-23.2
-19.79
-17.36
-16.27
-16.64
-18.3
-20.72
-23.13
-24.72
-24.94
-23.56
-20.68
-16.66
-11.81
-6.4
-0.57
5.53
11.67
17.51
22.68
26.88
29.95
31.86
32.72
32.68
31.96
30.84
29.67
28.79
28.44
28.66
29.33
30.26
31.33
32.56
34.07
35.9
38.03
40.27
42.45
44.43
46.21
47.79
49.05
49.66
49.16
47.18
43.56
38.52
32.59
26.42
20.59
15.5
11.29
7.9
5.21
3.13
1.58
0.55
0.11
0.37
1.44
3.48
6.62
10.86
16.07
21.94
28.07
34.05
39.53
44.35
48.49
52.03
55.08
57.74
60.05
62.08
63.88
65.58
67.24
68.88
70.45
71.82
72.86
73.52
73.8
73.75
73.38
72.61
71.36
69.52
67.06
63.88
59.71
53.95
45.82
34.6
20.01
2.45
-16.99
-36.88
-55.8
-72.71
-87.03
-98.6
-107.55
-114.21
-119.09
-122.78
-125.88
-128.79
-131.57
-133.82
-134.89
-134.03
-130.72
-124.91
-117.03
-107.9
-98.44
-89.39
-81.17
-73.78
-66.99
-60.49
-54.15
-48.02
-42.28
-37.12
-32.63
-28.73
-25.24
-21.96
-18.74
-15.5
-12.27
-9.08
-5.99
-3.02
-0.19
2.46
4.84
6.83
8.33
9.27
9.66
9.59
9.26
8.88
8.62
8.56
8.63
8.7
8.63
8.37
7.96
7.56
7.37
7.5
7.94
8.58
9.25
9.9
10.6
11.53
12.84
14.54
16.53
18.64
20.74
22.81
24.91
27.1
29.35
31.61
33.85
36.14
38.68
41.64
45
48.4
51.2
52.7
52.45
50.43
47.25
43.91
41.54
41.03
42.7
46.27
50.93
55.69
59.67
62.19
62.84
61.33
57.41
50.94
42
31.04
18.8
6.22
-5.92
-17.15
-27.41
-36.99
-46.29
-55.74
-65.64
-75.98
-86.4
-96.08
-103.87
-108.6
-109.43
-106.15
-99.33
-90.13
-79.9
-69.8
-60.47
-52.02
-44.12
-36.22
-27.7
-17.96
-6.69
6.06
19.68
33.04
44.8
53.79
59.53
62.29
62.98
62.62
61.88
60.73
58.68
55.16
49.96
43.36
35.87
27.85
19.3
9.94
-0.36
-11.28
-21.9
-31.11
-38.05
-42.62
-45.51
-47.82
-50.38
-53.25
-55.48
-55.41
-51.41
-42.61
-29.31
-12.79
5.26
23.36
40.62
56.75
71.61
84.91
96.12
104.72
110.46
113.69
115.07
115.29
114.54
112.43
108.13
100.85
90.28
76.79
61.44
45.55
30.35
16.5
4.08
-7.35
-18.33
-29.23
-40.04
-50.43
-59.91
-68.08
-74.81
-80.28
-84.9
-89.14
-93.3
-97.37
-100.92
-103.25
-103.56
-101.31
-96.35
-88.99
-79.92
-69.92
-59.73
-49.89
-40.81
-32.75
-25.89
-20.26
-15.75
-12.07
-8.82
-5.68
-2.38
1.06
4.45
7.45
9.65
10.74
10.56
9.2
6.96
4.32
1.8
-0.14
-1.12
-0.9
0.66
3.59
7.81
13.05
18.94
25.07
31.08
36.72
41.68
45.45
47.2
45.95
41.06
32.79
22.5
12.42
4.92
1.47
2.04
5.03
7.93
8.33
4.82
-2.59
-12.72
-23.73
-33.93
-42.2
-48.14
-51.89
-53.9
-54.67
-54.73
-54.72
-55.17
-56.18
-56.75
-54.59
-46.9
-31.79
-9.86
15.22
37.7
52.07
55.35
48.36
34.96
19.97
7.06
-2.33
-8.54
-12.41
-14.2
-13.46
-9.77
-3.55
3.67
9.77
13
12.68
9.44
4.76
0.19
-3.24
-5.37
-6.72
-8.09
-10.06
-12.7
-15.47
-17.43
-17.8
-16.23
-13.08
-9.23
-5.7
-3.2
-1.9
-1.44
-1.22
-0.76
0.07
1.07
1.85
2.1
1.69
0.77
-0.32
-1.12
-1.23
-0.37
1.44
3.87
6.34
8.18
8.9
8.34
6.7
4.47
2.22
0.38
-0.79
-1.26
-1.18
-0.8
-0.4
-0.24
-0.45
-1.01
-1.86
-2.92
-4.18
-5.71
-7.59
-9.85
-12.35
-14.87
-17.18
-19.1
-20.6
-21.73
-22.58
-23.21
-23.7
-24.14
-24.66
-25.34
-26.12
-26.77
-26.92
-26.13
-24.15
-21
-16.97
-12.59
-8.41
-4.87
-2.17
-0.24
1.22
2.53
3.92
5.39
6.74
7.67
7.92
7.46
6.42
5.04
3.52
2
0.55
-0.78
-1.93
-2.81
-3.39
-3.71
-3.88
-4.05
-4.34
-4.7
-5
-5
-4.5
-3.4
-1.83
-0.09
1.41
2.28
2.29
1.3
-0.58
-3.13
-5.95
-8.47
-10.03
-10.07
-8.3
-4.84
-0.18
4.98
10.02
14.55
18.46
21.75
24.47
26.59
28.04
28.8
28.87
28.34
27.27
25.67
23.53
20.84
17.64
13.97
9.88
5.37
0.49
-4.59
-9.48
-13.66
-16.68
-18.41
-19.13
-19.44
-19.98
-21.07
-22.6
-24.12
-25.18
-25.52
-25.31
-24.9
-24.71
-24.94
-25.55
-26.37
-27.26
-28.06
-28.7
-28.95
-28.45
-26.79
-23.69
-19.17
-13.62
-7.65
-1.91
3.11
7.21
10.37
12.71
14.33
15.3
15.71
15.69
15.44
15.19
15.06
15.01
14.85
14.29
13.11
11.28
9.03
6.79
5.05
4.24
4.6
6.09
8.47
11.28
13.91
15.79
16.48
15.8
13.86
11.03
7.8
4.61
1.82
-0.32
-1.69
-2.23
-2.08
-1.6
-1.34
-1.9
-3.74
-6.92
-11.06
-15.45
-19.18
-21.47
-21.78
-19.98
-16.34
-11.44
-6.01
-0.71
4.04
8.1
11.6
14.72
17.55
20.01
21.92
23.18
23.88
24.25
24.58
24.99
25.39
25.54
25.14
24.05
22.33
20.09
17.5
14.58
11.32
7.65
3.66
-0.43
-4.3
-7.64
-10.29
-12.28
-13.85
-15.24
-16.61
-17.94
-19.1
-19.92
-20.35
-20.56
-20.78
-21.35
-22.49
-24.34
-26.92
-30.1
-33.55
-36.74
-39.02
-39.8
-38.79
-36.16
-32.46
-28.42
-24.61
-21.28
-18.37
-15.63
-12.92
-10.3
-7.93
-5.92
-4.19
-2.44
-0.32
2.38
5.61
9.04
12.25
14.92
16.93
18.43
19.66
20.83
22.05
23.27
24.34
25.13
25.58
25.71
25.6
25.37
25.07
24.71
24.28
23.76
23.12
22.33
21.32
19.97
18.16
15.72
12.58
8.68
4.02
-1.34
-7.3
-13.68
-20.2
-26.44
-31.81
-35.58
-37.07
-35.82
-31.78
-25.5
-17.98
-10.47
-4.01
0.78
3.89
5.8
7.1
8.36
9.88
11.72
13.73
15.75
17.57
18.96
19.67
19.43
18.09
15.65
12.38
8.7
5.05
1.69
-1.31
-4.06
-6.57
-8.66
-9.95
-10.03
-8.75
-6.42
-3.79
-1.7
-0.82
-1.33
-2.91
-5
-7.03
-8.7
-9.97
-10.93
-11.64
-12.05
-12.06
-11.59
-10.73
-9.68
-8.64
-7.61
-6.34
-4.37
-1.21
3.37
9.22
15.78
22.29
28.02
32.49
35.57
37.34
37.97
37.55
36
33.2
29.11
23.85
17.82
11.47
5.25
-0.52
-5.67
-10.06
-13.49
-15.74
-16.56
-15.92
-13.98
-11.16
-7.91
-4.58
-1.4
1.46
3.85
5.52
6.28
6.1
5.25
4.2
3.43
3.14
3.19
3.14
2.53
1.15
-0.88
-3.14
-5.22
-6.89
-8.23
-9.47
-10.79
-12.11
-13.15
-13.52
-12.98
-11.63
-9.8
-7.96
-6.42
-5.24
-4.3
-3.41
-2.51
-1.73
-1.31
-1.45
-2.15
-3.24
-4.36
-5.14
-5.39
-5.1
-4.48
-3.77
-3.15
-2.63
-2.13
-1.57
-0.95
-0.36
0.07
0.31
0.39
0.41
0.41
0.36
0.11
-0.43
-1.29
-2.38
-3.56
-4.63
-5.49
-6.11
-6.53
-6.86
-7.28
-7.92
-8.81
-9.76
-10.41
-10.28
-8.97
-6.27
-2.24
2.77
8.26
13.66
18.5
22.52
25.7
28.23
30.26
31.84
32.7
32.41
30.59
27.23
22.78
18.08
14.03
11.24
9.86
9.61
9.98
10.56
11.16
11.82
12.69
13.93
15.62
17.67
19.92
22.07
23.8
24.94
25.42
25.38
24.98
24.34
23.39
21.91
19.55
15.9
10.61
3.33
-6.09
-17.55
-30.45
-43.69
-55.76
-65.08
-70.52
-71.72
-69.2
-64.12
-57.85
-51.52
-45.76
-40.69
-36.1
-31.74
-27.44
-23.21
-19.12
-15.22
-11.47
-7.81
-4.2
-0.73
2.39
4.92
6.73
7.91
8.73
9.58
10.72
12.21
13.76
14.97
15.45
15.01
13.74
11.92
9.89
7.96
6.29
4.96
4.07
3.71
4.01
5.08
6.81
8.94
11
12.45
12.83
11.91
9.74
6.67
3.28
0.12
-2.44
-4.36
-6
-7.88
-10.41
-13.6
-16.99
-19.77
-21.26
-21.18
-19.87
-18.07
-16.56
-15.82
-15.83
-16.23
-16.56
-16.53
-16.08
-15.33
-14.37
-13.23
-11.82
-10.1
-8.11
-6
-4.02
-2.38
-1.23
-0.56
-0.29
-0.24
-0.25
-0.12
0.26
0.93
1.79
2.65
3.23
3.37
3.05
2.43
1.79
1.42
1.55
2.4
4.15
6.99
11.06
16.35
22.61
29.4
36.21
42.69
48.75
54.44
59.77
64.48
67.96
69.38
67.99
63.37
55.53
44.98
32.51
19.13
5.89
-6.19
-16.25
-23.74
-28.52
-30.91
-31.54
-31.15
-30.41
-29.83
-29.78
-30.54
-32.31
-35.16
-38.89
-43.06
-46.98
-50.01
-51.65
-51.68
-50.11
-47.12
-43
-38.11
-33
-28.31
-24.7
-22.51
-21.61
-21.29
-20.51
-18.24
-13.88
-7.46
0.43
8.88
16.97
24.01
29.64
33.76
36.47
37.99
38.59
38.56
38.08
37.26
36.04
34.27
31.79
28.59
24.78
20.68
16.7
13.23
10.56
8.76
7.63
6.77
5.7
4.05
1.72
-1.06
-3.85
-6.21
-7.85
-8.8
-9.35
-9.94
-10.95
-12.56
-14.72
-17.08
-19.15
-20.34
-20.22
-18.53
-15.36
-11.09
-6.23
-1.36
3.06
6.71
9.46
11.29
12.33
12.77
12.85
12.81
12.76
12.73
12.63
12.34
11.75
10.81
9.52
7.98
6.35
4.81
3.61
2.88
2.65
2.75
2.95
2.94
2.53
1.66
0.39
-1.18
-2.99
-5.07
-7.55
-10.62
-14.44
-18.97
-23.98
-28.94
-33.14
-35.85
-36.55
-35.07
-31.65
-26.85
-21.32
-15.66
-10.21
-5.11
-0.37
4.08
8.3
12.32
16.14
19.73
22.95
25.6
27.51
28.56
28.85
28.62
28.19
27.87
27.76
27.84
27.97
28.03
27.99
27.91
27.89
27.96
28.09
28.16
28.07
27.74
27.15
26.17
24.65
22.4
19.33
15.65
11.78
8.28
5.56
3.72
2.47
1.33
-0.21
-2.4
-5.29
-8.72
-12.49
-16.53
-20.77
-25.17
-29.55
-33.59
-36.93
-39.28
-40.54
-40.82
-40.42
-39.65
-38.77
-37.89
-37.04
-36.18
-35.26
-34.32
-33.42
-32.65
-32.06
-31.67
-31.49
-31.54
-31.88
-32.62
-33.86
-35.46
-37.06
-37.97
-37.39
-34.72
-29.79
-23.01
-15.2
-7.32
-0.1
6.11
11.28
15.55
19.08
21.91
24.05
25.54
26.49
27.06
27.39
27.53
27.4
26.9
26
24.81
23.62
22.75
22.39
22.42
22.42
21.79
19.98
16.82
12.59
7.91
3.49
-0.18
-2.99
-5.17
-7.15
-9.29
-11.79
-14.62
-17.6
-20.43
-22.73
-24.15
-24.37
-23.22
-20.7
-17
-12.41
-7.25
-1.74
3.9
9.49
14.73
19.15
22.12
22.97
21.25
17.24
12.15
7.97
6.86
10.21
17.99
28.61
39.56
48.42
53.74
55.31
53.85
50.37
45.65
40.13
34.04
27.63
21.2
15.02
9.2
3.68
-1.61
-6.68
-11.38
-15.45
-18.61
-20.64
-21.48
-21.28
-20.45
-19.67
-19.75
-21.29
-24.43
-28.6
-32.68
-35.29
-35.31
-32.29
-26.57
-19.18
-11.43
-4.47
1.04
5.04
7.89
10.15
12.22
14.3
16.34
18.18
19.62
20.57
20.98
20.95
20.62
20.2
19.88
19.82
20.07
20.59
21.3
22.05
22.71
23.15
23.35
23.33
23.19
23.03
22.93
22.87
22.68
22.14
21.02
19.24
16.88
14.17
11.41
8.79
6.34
3.85
0.94
-2.76
-7.42
-12.82
-18.3
-22.87
-25.57
-25.81
-23.6
-19.63
-14.9
-10.42
-6.82
-4.21
-2.3
-0.6
1.33
3.74
6.73
10.24
14.08
17.93
21.42
24.17
25.96
26.77
26.8
26.46
26.2
26.37
27.17
28.6
30.48
32.4
33.88
34.4
33.48
30.91
26.67
21.04
14.47
7.54
0.82
-5.26
-10.51
-14.98
-18.85
-22.32
-25.43
-28.04
-29.88
-30.7
-30.45
-29.34
-27.83
-26.39
-25.4
-24.92
-24.69
-24.27
-23.14
-20.9
-17.39
-12.75
-7.31
-1.59
3.88
8.62
12.26
14.61
15.62
15.44
14.27
12.31
9.67
6.37
2.43
-1.98
-6.55
-10.78
-14.14
-16.2
-16.83
-16.12
-14.38
-11.91
-8.98
-5.76
-2.39
0.95
4.07
6.78
9.05
10.98
12.82
14.77
16.91
19.13
21.13
22.57
23.22
23.03
22.12
20.67
18.77
16.38
13.41
9.73
5.35
0.44
-4.79
-10.06
-15.1
-19.66
-23.4
-25.91
-26.79
-25.82
-23.03
-18.8
-13.72
-8.47
-3.61
0.45
3.57
5.75
7.11
7.83
8.05
7.94
7.62
7.26
7.04
7.13
7.65
8.57
9.71
10.78
11.52
11.72
11.29
10.17
8.37
5.93
3.03
-0.01
-2.82
-5.06
-6.62
-7.62
-8.37
-9.16
-10.14
-11.26
-12.27
-12.88
-12.8
-11.93
-10.35
-8.33
-6.24
-4.38
-2.87
-1.59
-0.28
1.31
3.21
5.15
6.69
7.38
7.02
5.71
3.82
1.75
-0.19
-1.88
-3.39
-4.86
-6.35
-7.79
-8.98
-9.75
-10.03
-9.91
-9.66
-9.51
-9.55
-9.73
-9.9
-9.89
-9.65
-9.36
-9.38
-10.1
-11.84
-14.65
-18.27
-22.1
-25.35
-27.21
-27.12
-24.89
-20.84
-15.65
-10.2
-5.25
-1.3
1.52
3.35
4.5
5.2
5.58
5.68
5.47
5
4.38
3.81
3.41
3.21
3.09
2.9
2.56
2.1
1.7
1.52
1.61
1.8
1.76
1.13
-0.25
-2.27
-4.61
-6.87
-8.79
-10.29
-11.47
-12.5
-13.55
-14.76
-16.24
-18.05
-20.13
-22.29
-24.13
-25.11
-24.67
-22.48
-18.53
-13.23
-7.23
-1.3
3.96
8.17
11.28
13.41
14.78
15.55
15.85
15.75
15.34
14.76
14.17
13.72
13.45
13.33
13.22
12.98
12.47
11.66
10.58
9.31
7.92
6.42
4.75
2.87
0.79
-1.37
-3.49
-5.47
-7.35
-9.3
-11.53
-14.2
-17.33
-20.68
-23.87
-26.31
-27.42
-26.7
-23.95
-19.37
-13.56
-7.36
-1.58
3.2
6.82
9.47
11.46
13.09
14.48
15.63
16.51
17.11
17.45
17.54
17.35
16.79
15.86
14.62
13.28
12.1
11.25
10.71
10.33
9.82
8.93
7.53
5.63
3.38
0.97
-1.39
-3.52
-5.34
-6.89
-8.34
-9.93
-11.94
-14.54
-17.64
-20.92
-23.8
-25.61
-25.78
-24.09
-20.64
-15.92
-10.6
-5.33
-0.63
3.26
6.31
8.65
10.47
11.97
13.31
14.51
15.54
16.25
16.54
16.38
15.9
15.35
14.99
14.95
15.17
15.42
15.44
15.04
14.2
13.04
11.75
10.43
9.11
7.74
6.25
4.58
2.74
0.79
-1.22
-3.19
-5.05
-6.76
-8.36
-9.96
-11.74
-13.92
-16.6
-19.68
-22.83
-25.45
-26.86
-26.49
-24.06
-19.74
-14.04
-7.71
-1.53
3.88
8.17
11.21
13.09
14.04
14.37
14.38
14.34
14.44
14.72
15.11
15.51
15.76
15.81
15.64
15.36
15.08
14.87
14.74
14.61
14.34
13.8
12.97
11.92
10.81
9.8
8.98
8.38
7.94
7.54
7.06
6.39
5.45
4.22
2.75
1.21
-0.19
-1.24
-1.9
-2.3
-2.72
-3.49
-4.82
-6.67
-8.68
-10.28
-10.86
-10
-7.62
-4.04
0.16
4.28
7.78
10.37
12.03
12.99
13.47
13.67
13.6
13.18
12.35
11.15
9.7
8.19
6.74
5.36
3.89
2.13
-0.03
-2.55
-5.26
-7.97
-10.58
-13.12
-15.68
-18.3
-20.88
-23.12
-24.72
-25.45
-25.31
-24.56
-23.54
-22.6
-21.9
-21.43
-21.04
-20.63
-20.24
-20.01
-20.14
-20.75
-21.85
-23.33
-25.09
-26.89
-28.41
-29.14
-28.45
-25.84
-21.09
-14.55
-7.05
0.34
6.72
11.59
14.94
17.04
18.23
18.74
18.72
18.28
17.58
16.78
16.06
15.46
15.01
14.69
14.53
14.59
14.94
15.56
16.37
17.2
17.92
18.4
18.53
18.24
17.46
16.22
14.65
12.94
11.32
9.93
8.82
7.96
7.27
6.66
6.05
5.35
4.51
3.43
2.12
0.6
-1.06
-2.81
-4.71
-6.92
-9.59
-12.84
-16.58
-20.47
-23.96
-26.4
-27.22
-26.14
-23.3
-19.16
-14.37
-9.58
-5.24
-1.55
1.49
3.96
5.95
7.47
8.53
9.14
9.35
9.26
8.95
8.53
8.02
7.43
6.72
5.9
5.01
4.18
3.53
3.12
2.97
2.95
2.93
2.67
2.02
0.84
-0.86
-2.93
-5.09
-6.99
-8.37
-9.14
-9.48
-9.74
-10.29
-11.42
-13.2
-15.48
-17.97
-20.28
-21.97
-22.61
-21.87
-19.58
-15.81
-10.91
-5.44
-0.06
4.66
8.33
10.85
12.37
13.21
13.69
14
14.18
14.21
14.04
13.72
13.39
13.16
13.03
12.88
12.55
11.97
11.2
10.45
9.85
9.4
8.84
7.87
6.17
3.7
0.67
-2.52
-5.46
-7.93
-9.98
-11.93
-14.17
-17.01
-20.45
-24.19
-27.64
-30.1
-30.95
-29.81
-26.67
-21.88
-16.12
-10.17
-4.76
-0.33
3.03
5.53
7.57
9.51
11.55
13.77
16.1
18.49
20.84
23.05
24.91
26.21
26.73
26.38
25.25
23.56
21.54
19.4
17.17
14.77
12.1
9.1
5.84
2.46
-0.83
-3.87
-6.57
-8.94
-11.06
-13.13
-15.41
-18.17
-21.56
-25.41
-29.22
-32.16
-33.35
-32.18
-28.51
-22.87
-16.21
-9.6
-3.85
0.67
4.04
6.56
8.55
10.09
11.1
11.41
10.97
9.9
8.45
6.89
5.38
3.94
2.52
1.12
-0.19
-1.25
-1.9
-2.1
-1.96
-1.76
-1.77
-2.27
-3.39
-5.04
-7.07
-9.19
-11.16
-12.88
-14.38
-15.8
-17.37
-19.25
-21.51
-24.06
-26.62
-28.77
-29.97
-29.71
-27.61
-23.61
-18
-11.43
-4.79
1.04
5.42
8.05
9.06
8.89
8.2
7.58
7.48
7.99
8.95
10.06
11.07
11.87
12.46
12.89
13.14
13.17
12.94
12.55
12.21
12.1
12.22
12.39
12.37
12.05
11.68
11.8
13
15.68
19.78
24.87
30.32
35.54
40.08
43.73
46.37
47.93
48.35
47.53
45.4
41.97
37.38
31.99
26.36
21.06
16.56
13.07
10.46
8.37
6.31
3.82
0.54
-3.71
-9
-15.17
-21.87
-28.57
-34.64
-39.5
-42.74
-44.21
-44.02
-42.53
-40.19
-37.55
-35.03
-32.92
-31.3
-30.04
-29
-28.11
-27.49
-27.42
-28.14
-29.71
-31.86
-33.99
-35.34
-35.23
-33.26
-29.43
-24.11
-17.93
-11.6
-5.74
-0.72
3.3
6.45
8.96
11.12
13.12
14.97
16.55
17.67
18.2
18.13
17.58
16.73
15.74
14.76
13.83
12.98
12.19
11.42
10.59
9.61
8.37
6.74
4.66
2.15
-0.64
-3.49
-6.15
-8.41
-10.26
-11.9
-13.64
-15.78
-18.47
-21.6
-24.74
-27.3
-28.67
-28.36
-26.19
-22.29
-17.08
-11.18
-5.2
0.4
5.35
9.64
13.38
16.69
19.62
22.14
24.19
25.7
26.71
27.34
27.71
27.95
28.07
28.03
27.8
27.41
26.98
26.62
26.37
26.18
25.86
25.19
24.04
22.38
20.32
18
15.59
13.19
10.83
8.48
6.1
3.65
1.12
-1.44
-3.92
-6.16
-8.09
-9.81
-11.6
-13.84
-16.88
-20.71
-24.9
-28.64
-30.98
-31.17
-28.95
-24.62
-18.88
-12.63
-6.6
-1.22
3.33
7.05
9.96
12.05
13.27
13.69
13.47
12.87
12.15
11.53
11.1
10.91
10.96
11.24
11.75
12.52
13.55
14.83
16.25
17.64
18.75
19.35
19.31
18.68
17.72
16.72
15.88
15.17
14.31
12.98
10.96
8.31
5.33
2.43
-0.02
-1.85
-3.09
-3.97
-4.88
-6.27
-8.52
-11.77
-15.76
-19.85
-23.13
-24.81
-24.52
-22.44
-19.18
-15.49
-11.9
-8.58
-5.4
-2.18
1.2
4.71
8.2
11.56
14.78
17.95
21.17
24.43
27.59
30.38
32.48
33.6
33.66
32.72
30.97
28.68
26
23.02
19.79
16.36
12.86
9.52
6.57
4.19
2.52
1.59
1.34
1.59
2.03
2.23
1.78
0.43
-1.77
-4.5
-7.29
-9.84
-12.09
-14.28
-16.78
-19.86
-23.58
-27.73
-31.85
-35.4
-37.78
-38.43
-37.02
-33.46
-28.02
-21.2
-13.64
-5.88
1.63
8.56
14.56
19.17
21.88
22.27
20.26
16.2
10.98
5.84
2.14
0.89
2.42
6.21
11.11
15.76
19.17
21
21.58
21.51
21.27
20.91
20.12
18.56
16.13
13.18
10.27
7.97
6.52
5.81
5.49
5.13
4.47
3.52
2.45
1.55
0.98
0.71
0.49
-0.05
-1.26
-3.34
-6.32
-10.05
-14.23
-18.4
-22.04
-24.57
-25.62
-25.07
-23.16
-20.43
-17.44
-14.75
-12.64
-11.25
-10.56
-10.51
-11.02
-11.89
-12.85
-13.54
-13.68
-13.18
-12.15
-10.93
-9.91
-9.44
-9.62
-10.32
-11.16
-11.67
-11.46
-10.4
-8.7
-6.79
-5.19
-4.22
-3.95
-4.2
-4.64
-4.99
-5.02
-4.67
-3.93
-2.93
-1.86
-1
-0.56
-0.55
-0.73
-0.73
-0.21
1
2.74
4.7
6.48
7.83
8.61
8.8
8.44
7.56
6.24
4.62
2.92
1.37
0.22
-0.41
-0.45
0.02
0.82
1.72
2.49
3.01
3.27
3.4
3.51
3.67
3.86
3.98
4
3.95
3.94
4.15
4.72
5.71
7.11
8.84
10.74
12.63
14.32
15.68
16.61
17.06
17.01
16.46
15.47
14.13
12.58
10.97
9.37
7.82
6.23
4.58
2.84
1.08
-0.61
-2.1
-3.24
-3.94
-4.09
-3.67
-2.71
-1.26
0.61
2.88
5.54
8.64
12.18
16.14
20.39
24.72
28.79
32.15
34.34
34.96
33.86
31.13
27.15
22.45
17.5
12.7
8.31
4.47
1.25
-1.32
-3.3
-4.87
-6.23
-7.59
-9.03
-10.56
-12.19
-14.03
-16.28
-19.16
-22.74
-26.89
-31.31
-35.64
-39.65
-43.27
-46.54
-49.5
-52.09
-54.2
-55.73
-56.65
-56.9
-56.34
-54.71
-51.71
-47.19
-41.36
-34.78
-28.21
-22.34
-17.49
-13.63
-10.4
-7.41
-4.43
-1.47
1.28
3.6
5.39
6.69
7.62
8.29
8.7
8.78
8.38
7.41
5.88
3.94
1.82
-0.24
-2.04
-3.49
-4.59
-5.44
-6.22
-7.19
-8.67
-10.9
-13.95
-17.59
-21.2
-23.97
-25.08
-23.99
-20.65
-15.54
-9.5
-3.44
1.95
6.35
9.79
12.55
14.91
17.08
19.14
21.11
22.94
24.61
26.03
27.04
27.41
26.93
25.5
23.27
20.61
18
15.81
14.19
13.02
11.98
10.82
9.39
7.79
6.2
4.78
3.53
2.35
1.06
-0.45
-2.15
-3.95
-5.72
-7.43
-9.14
-10.91
-12.7
-14.42
-15.96
-17.26
-18.44
-19.77
-21.54
-23.92
-26.76
-29.54
-31.48
-31.77
-29.88
-25.75
-19.88
-13.11
-6.41
-0.53
4.16
7.7
10.41
12.72
14.9
17.03
19.01
20.66
21.84
22.55
22.93
23.14
23.29
23.37
23.26
22.85
22.12
21.19
20.28
19.56
19.03
18.49
17.65
16.29
14.43
12.27
10.15
8.34
6.87
5.59
4.23
2.55
0.48
-1.88
-4.35
-6.8
-9.13
-11.31
-13.31
-15.03
-16.39
-17.35
-17.98
-18.41
-18.88
-19.62
-20.81
-22.46
-24.29
-25.77
-26.21
-25.02
-21.91
-17.13
-11.36
-5.52
-0.42
3.4
5.85
7.08
7.41
7.13
6.5
5.75
5.05
4.56
4.33
4.27
4.24
4.08
3.75
3.28
2.86
2.68
2.88
3.49
4.37
5.31
6.11
6.65
6.92
7
6.9
6.64
6.14
5.41
4.55
3.75
3.28
3.22
3.49
3.85
4.03
3.89
3.48
3.04
2.87
3.19
4.1
5.53
7.33
9.28
11.13
12.63
13.55
13.74
13.15
11.92
10.32
8.75
7.54
6.89
6.73
6.7
6.37
5.46
3.98
2.29
0.88
0.17
0.26
0.91
1.72
2.35
2.63
2.56
2.23
1.67
0.86
-0.2
-1.42
-2.59
-3.48
-3.96
-4.05
-3.93
-3.82
-3.9
-4.22
-4.76
-5.42
-6.08
-6.66
-7.1
-7.39
-7.6
-7.81
-8.12
-8.54
-9.02
-9.44
-9.73
-9.87
-9.97
-10.2
-10.65
-11.36
-12.24
-13.17
-14.02
-14.81
-15.62
-16.67
-18.13
-20.09
-22.35
-24.38
-25.43
-24.78
-22.02
-17.29
-11.27
-4.97
0.66
4.99
7.9
9.62
10.55
11.03
11.27
11.38
11.41
11.46
11.57
11.75
11.96
12.17
12.34
12.44
12.53
12.62
12.73
12.89
13.12
13.43
13.77
14
13.9
13.33
12.26
10.88
9.47
8.31
7.52
7.02
6.59
6.03
5.22
4.16
2.92
1.53
0.08
-1.38
-2.74
-3.87
-4.67
-5.15
-5.45
-5.78
-6.35
-7.31
-8.74
-10.65
-12.93
-15.3
-17.28
-18.28
-17.74
-15.42
-11.48
-6.54
-1.46
2.98
6.23
8.19
9.08
9.25
9.07
8.79
8.48
8.12
7.63
6.95
6.04
4.93
3.73
2.58
1.57
0.73
-0
-0.71
-1.45
-2.14
-2.66
-2.84
-2.61
-2.09
-1.48
-1.05
-0.95
-1.17
-1.55
-1.91
-2.11
-2.14
-2.14
-2.21
-2.43
-2.74
-2.99
-3.03
-2.74
-2.13
-1.29
-0.35
0.49
1.05
1.14
0.59
-0.69
-2.68
-5.23
-8.14
-11.18
-14.12
-16.82
-19.13
-20.87
-21.76
-21.57
-20.19
-17.71
-14.45
-10.82
-7.19
-3.69
-0.28
3.22
6.9
10.67
14.24
17.29
19.54
20.9
21.44
21.35
20.87
20.23
19.59
19.05
18.65
18.36
18.1
17.78
17.34
16.77
16.08
15.34
14.61
13.96
13.4
12.9
12.35
11.68
10.84
9.9
8.96
8.19
7.65
7.33
7.13
6.9
6.56
6.07
5.44
4.77
4.18
3.79
3.73
4.09
4.91
6.12
7.65
9.42
11.38
13.47
15.58
17.53
19.04
19.86
19.82
18.95
17.41
15.44
13.23
10.87
8.36
5.66
2.82
-0.02
-2.57
-4.55
-5.71
-6
-5.53
-4.58
-3.44
-2.38
-1.53
-0.94
-0.64
-0.67
-1.13
-2.17
-3.85
-6.16
-8.95
-11.99
-14.99
-17.59
-19.49
-20.43
-20.3
-19.16
-17.23
-14.85
-12.43
-10.24
-8.47
-7.14
-6.13
-5.3
-4.42
-3.34
-1.97
-0.41
1.12
2.28
2.73
2.21
0.65
-1.78
-4.79
-7.96
-10.91
-13.33
-14.99
-15.78
-15.68
-14.81
-13.33
-11.48
-9.48
-7.47
-5.55
-3.68
-1.85
-0.03
1.77
3.52
5.19
6.79
8.31
9.69
10.85
11.64
11.95
11.67
10.81
9.48
7.85
6.16
4.59
3.23
2.04
0.86
-0.49
-2.09
-3.92
-5.81
-7.54
-8.94
-9.98
-10.7
-11.23
-11.63
-11.91
-12.02
-11.94
-11.63
-11.13
-10.49
-9.67
-8.6
-7.16
-5.25
-2.87
-0.16
2.7
5.48
8
10.14
11.89
13.33
14.61
15.92
17.37
18.93
20.42
21.54
21.96
21.46
19.99
17.66
14.61
10.98
6.88
2.43
-2.14
-6.58
-10.67
-14.32
-17.6
-20.68
-23.61
-26.31
-28.47
-29.84
-30.33
-30.14
-29.7
-29.42
-29.46
-29.67
-29.67
-29.1
-27.8
-25.83
-23.45
-20.95
-18.49
-16.15
-13.84
-11.48
-9
-6.39
-3.61
-0.65
2.48
5.78
9.21
12.77
16.41
20.1
23.75
27.2
30.23
32.64
34.24
34.94
34.73
33.6
31.47
28.13
23.28
16.75
8.51
-1.1
-11.62
-22.48
-33.21
-43.37
-52.41
-59.62
-64.06
-64.99
-62.11
-55.97
-47.81
-39.22
-31.55
-25.44
-20.75
-16.84
-13.07
-9.15
-5.32
-2.07
0.2
1.5
2.21
2.85
3.8
5.12
6.53
7.7
8.48
9.01
9.67
10.8
12.47
14.45
16.3
17.62
18.23
18.21
17.85
17.43
17.14
16.95
16.76
16.41
15.78
14.84
13.65
12.34
11.02
9.76
8.56
7.3
5.83
4.04
1.95
-0.28
-2.37
-4.05
-5.16
-5.71
-5.84
-5.81
-5.82
-5.98
-6.23
-6.4
-6.28
-5.71
-4.63
-3.07
-1.17
0.96
3.17
5.36
7.37
9.06
10.32
11.07
11.36
11.3
11.05
10.73
10.45
10.25
10.16
10.15
10.16
10.06
9.74
9.15
8.35
7.47
6.72
6.26
6.16
6.45
7.05
7.87
8.85
9.95
11.16
12.53
14.08
15.83
17.72
19.61
21.3
22.55
23.1
22.72
21.21
18.49
14.61
9.81
4.51
-0.84
-5.85
-10.27
-13.98
-16.9
-18.97
-20.14
-20.37
-19.79
-18.63
-17.15
-15.67
-14.39
-13.43
-12.86
-12.61
-12.54
-12.43
-12.03
-11.19
-9.93
-8.48
-7.15
-6.2
-5.71
-5.51
-5.33
-4.9
-4.12
-3.1
-2.09
-1.38
-1.13
-1.27
-1.59
-1.81
-1.78
-1.52
-1.25
-1.23
-1.62
-2.39
-3.29
-4.04
-4.38
-4.26
-3.76
-3.07
-2.32
-1.56
-0.75
0.16
1.2
2.32
3.42
4.42
5.27
5.94
6.43
6.74
6.95
7.2
7.69
8.64
10.16
12.19
14.54
16.92
19.13
21.01
22.53
23.64
24.33
24.5
24.02
22.74
20.54
17.46
13.72
9.75
6.11
3.28
1.5
0.7
0.59
0.77
0.97
0.99
0.72
0
-1.34
-3.44
-6.19
-9.27
-12.24
-14.69
-16.43
-17.55
-18.26
-18.76
-19.18
-19.47
-19.51
-19.19
-18.41
-17.2
-15.67
-13.98
-12.32
-10.83
-9.58
-8.57
-7.76
-7.09
-6.55
-6.1
-5.67
-5.21
-4.65
-4.01
-3.38
-2.9
-2.59
-2.42
-2.21
-1.8
-1.15
-0.42
0.13
0.22
-0.26
-1.19
-2.3
-3.27
-3.92
-4.27
-4.5
-4.78
-5.25
-5.91
-6.7
-7.59
-8.55
-9.59
-10.62
-11.44
-11.82
-11.58
-10.71
-9.35
-7.76
-6.14
-4.6
-3.14
-1.61
0.11
2.12
4.45
7.06
9.82
12.61
15.31
17.83
20.12
22.23
24.26
26.28
28.33
30.37
32.28
33.88
34.97
35.34
34.81
33.3
30.8
27.38
23.19
18.41
13.3
8.25
3.68
0.03
-2.41
-3.6
-3.82
-3.47
-3.04
-2.76
-2.67
-2.56
-2.22
-1.58
-0.78
-0.1
0.16
-0.18
-1.13
-2.66
-4.75
-7.4
-10.57
-14.06
-17.49
-20.31
-22.11
-22.74
-22.39
-21.5
-20.53
-19.71
-19.03
-18.3
-17.35
-16.1
-14.62
-13
-11.32
-9.58
-7.79
-5.96
-4.17
-2.48
-0.9
0.53
1.84
2.96
3.79
4.22
4.23
3.89
3.36
2.82
2.37
2.03
1.78
1.57
1.44
1.42
1.52
1.66
1.71
1.5
0.92
0.02
-1.04
-2.01
-2.67
-2.89
-2.64
-1.96
-0.97
0.21
1.41
2.46
3.25
3.72
3.95
4.08
4.27
4.6
5.12
5.79
6.59
7.5
8.47
9.45
10.29
10.87
11.15
11.18
11.11
11.1
11.26
11.61
12.09
12.58
12.95
13.08
12.82
12.11
10.89
9.24
7.26
5.13
3.01
1.02
-0.71
-2.14
-3.27
-4.09
-4.64
-4.95
-5.04
-4.91
-4.55
-3.96
-3.15
-2.21
-1.27
-0.49
-0.03
0.04
-0.28
-0.84
-1.45
-1.91
-2.07
-1.92
-1.55
-1.09
-0.63
-0.16
0.34
0.9
1.44
1.75
1.67
1.14
0.31
-0.52
-1.08
-1.36
-1.51
-1.89
-2.72
-4.05
-5.73
-7.48
-9.11
-10.51
-11.65
-12.46
-12.86
-12.8
-12.32
-11.6
-10.85
-10.2
-9.62
-8.99
-8.23
-7.39
-6.65
-6.21
-6.13
-6.27
-6.38
-6.26
-5.88
-5.36
-4.86
-4.48
-4.19
-3.88
-3.51
-3.14
-2.92
-2.95
-3.24
-3.66
-4.05
-4.28
-4.34
-4.3
-4.22
-4.2
-4.26
-4.44
-4.77
-5.31
-6.03
-6.84
-7.6
-8.15
-8.42
-8.38
-8.13
-7.79
-7.48
-7.25
-7.1
-6.95
-6.68
-6.17
-5.46
-4.71
-4.15
-4
-4.34
-5
-5.74
-6.29
-6.5
-6.35
-5.96
-5.42
-4.86
-4.32
-3.85
-3.52
-3.35
-3.31
-3.19
-2.64
-1.32
0.98
4.13
7.71
11.08
13.73
15.38
16.1
16.25
16.15
15.98
15.69
15.12
14.15
12.8
11.28
9.81
8.57
7.66
7.18
7.25
8.05
9.66
12.1
15.16
18.54
21.93
25.12
28.02
30.56
32.58
33.75
33.6
31.73
28.03
22.82
16.82
10.9
5.72
1.61
-1.54
-4.07
-6.36
-8.58
-10.75
-12.7
-14.31
-15.58
-16.55
-17.35
-18.01
-18.51
-18.76
-18.63
-18.05
-17.01
-15.59
-13.92
-12.2
-10.55
-9.09
-7.82
-6.71
-5.72
-4.77
-3.85
-2.98
-2.19
-1.55
-1.02
-0.52
0.1
0.98
2.21
3.71
5.32
6.8
7.97
8.74
9.16
9.41
9.68
10.1
10.65
11.19
11.5
11.42
10.94
10.25
9.62
9.25
9.14
9.13
8.96
8.45
7.6
6.58
5.55
4.62
3.74
2.74
1.49
-0.08
-1.92
-3.9
-5.88
-7.75
-9.49
-11.09
-12.58
-13.99
-15.33
-16.63
-17.91
-19.22
-20.68
-22.3
-24.06
-25.77
-27.09
-27.74
-27.54
-26.58
-25.11
-23.44
-21.78
-20.14
-18.43
-16.51
-14.4
-12.16
-9.94
-7.87
-6.01
-4.38
-2.99
-1.88
-1.09
-0.61
-0.37
-0.25
-0.15
0.01
0.29
0.74
1.39
2.25
3.27
4.37
5.43
6.31
6.83
6.86
6.3
5.21
3.83
2.59
1.94
2.18
3.29
4.98
6.76
8.21
9.05
9.19
8.66
7.46
5.57
2.93
-0.41
-4.22
-8.17
-11.83
-14.95
-17.44
-19.38
-20.91
-22.17
-23.2
-24.04
-24.76
-25.45
-26.18
-26.82
-27.08
-26.56
-25.05
-22.75
-20.24
-18.33
-17.7
-18.63
-20.96
-24.31
-28.34
-32.83
-37.69
-42.64
-47.12
-50.17
-50.82
-48.34
-42.56
-34.03
-23.89
-13.6
-4.64
1.8
5
4.64
0.79
-6.15
-15.38
-25.64
-35.27
-42.61
-46.71
-47.91
-48.05
-49.93
-56.17
-68.03
-84.61
-103.02
-119.19
-129.2
-130.44
-122.17
-105.58
-83.28
-58.65
-34.98
-14.77
0.83
12.09
20.43
27.67
35.17
43.36
51.76
59.53
66.13
71.73
77.05
82.82
89.22
95.56
100.29
101.5
97.5
87.4
71.53
51.62
30.58
11.79
-1.75
-8.5
-8.72
-4.29
2.14
8.25
12.66
14.9
14.96
12.75
8.01
0.69
-8.59
-18.36
-26.75
-32.03
-33.21
-30.05
-22.83
-12.1
1.36
16.25
30.58
42.01
48.63
49.9
47.04
42.54
39.02
38
39.47
42.18
44.68
46.08
46.3
45.73
44.56
42.51
38.97
33.53
26.38
18.4
10.8
4.6
0.15
-2.99
-5.79
-9.23
-13.92
-19.84
-26.49
-33.16
-39.22
-44.18
-47.74
-49.6
-49.5
-47.25
-42.87
-36.63
-28.93
-20.11
-10.3
0.58
12.58
25.4
38.27
50.06
59.61
66.14
69.53
70.23
69.12
67.12
64.92
62.87
61.03
59.32
57.74
56.24
54.82
53.29
51.32
48.42
44.15
38.34
31.25
23.54
16.09
9.64
4.57
0.77
-2.32
-5.47
-9.41
-14.61
-21.07
-28.37
-35.64
-41.78
-45.65
-46.45
-43.93
-38.59
-31.61
-24.55
-18.85
-15.46
-14.54
-15.59
-17.69
-19.86
-21.38
-21.87
-21.26
-19.73
-17.55
-15.05
-12.56
-10.33
-8.5
-7.13
-6.12
-5.37
-4.75
-4.18
-3.61
-3.01
-2.39
-1.81
-1.4
-1.31
-1.61
-2.34
-3.4
-4.73
-6.31
-8.26
-10.65
-13.41
-16.14
-18.07
-18.32
-16.11
-11.09
-3.49
5.93
16.08
25.87
34.43
41.22
46.05
49.03
50.38
50.39
49.31
47.38
44.83
41.86
38.65
35.4
32.27
29.36
26.74
24.39
22.26
20.24
18.3
16.4
14.61
13
11.6
10.33
9.01
7.46
5.46
2.94
-0.07
-3.41
-6.75
-9.59
-11.24
-11
-8.29
-2.92
4.8
14
23.55
32.34
39.62
45.19
49.34
52.68
55.8
59.06
62.44
65.6
68.07
69.42
69.39
67.92
65.06
60.91
55.59
49.31
42.42
35.39
28.74
22.82
17.72
13.25
9.08
4.84
0.34
-4.43
-9.44
-14.65
-20.12
-25.94
-32.03
-38.04
-43.27
-46.84
-48.01
-46.44
-42.41
-36.71
-30.39
-24.4
-19.25
-15.04
-11.47
-8.13
-4.65
-0.9
3.01
6.72
9.73
11.47
11.51
9.71
6.35
2.09
-2.18
-5.54
-7.35
-7.34
-5.67
-2.84
0.47
3.57
5.93
7.3
7.67
7.21
6.15
4.57
2.45
-0.26
-3.53
-7.08
-10.42
-12.88
-13.81
-12.67
-9.19
-3.4
4.4
13.69
23.87
34.39
44.9
55.27
65.43
75.19
83.93
90.59
93.85
92.64
86.65
76.65
64.31
51.74
40.8
32.59
27.26
24.26
22.76
22.07
21.78
21.71
21.71
21.52
20.73
18.91
15.74
11.11
5.18
-1.67
-8.9
-15.84
-21.87
-26.51
-29.54
-31.08
-31.53
-31.44
-31.43
-32.14
-34.1
-37.66
-42.78
-48.9
-54.89
-59.35
-61.04
-59.32
-54.46
-47.49
-39.78
-32.57
-26.58
-21.94
-18.36
-15.53
-13.25
-11.53
-10.41
-9.92
-9.9
-10.08
-10.18
-9.98
-9.42
-8.48
-7.21
-5.68
-3.92
-2
-0.07
1.62
2.8
3.26
2.93
1.89
0.36
-1.41
-3.18
-4.75
-6.01
-6.95
-7.62
-8.13
-8.63
-9.22
-9.8
-10.1
-9.74
-8.46
-6.31
-3.77
-1.52
-0.17
0.22
0.35
1.55
5.28
12.54
23.29
36.43
50.15
62.4
71.45
76.25
76.42
72.3
64.76
55.04
44.57
34.58
25.91
18.74
12.82
7.66
2.85
-1.77
-6.15
-10.19
-13.81
-16.89
-19.21
-20.34
-19.82
-17.34
-12.96
-7.15
-0.68
5.63
11.12
15.39
18.24
19.6
19.49
18.06
15.55
12.42
9.16
6.26
4.04
2.58
1.7
0.98
-0.19
-2.49
-6.56
-12.81
-21.22
-31.26
-41.89
-51.68
-59.17
-63.18
-63.21
-59.57
-53.29
-45.87
-38.77
-33.03
-29.08
-26.74
-25.46
-24.66
-23.91
-23
-21.85
-20.43
-18.77
-16.9
-14.98
-13.28
-12.14
-11.82
-12.42
-13.8
-15.64
-17.5
-18.94
-19.62
-19.42
-18.44
-16.97
-15.36
-13.91
-12.73
-11.75
-10.81
-9.75
-8.52
-7.16
-5.73
-4.31
-2.88
-1.37
0.29
2.23
4.64
7.71
11.48
15.74
20.03
23.79
26.62
28.43
29.44
30.01
30.45
30.89
31.41
32.11
33.12
34.48
35.96
37.01
37.01
35.57
32.77
29.19
25.65
22.85
21.15
20.59
20.94
21.94
23.28
24.62
25.54
25.62
24.56
22.38
19.39
16.12
13.1
10.63
8.69
6.99
5.11
2.72
-0.32
-3.92
-7.82
-11.75
-15.47
-18.85
-21.85
-24.42
-26.53
-28.12
-29.24
-30.02
-30.8
-31.88
-33.5
-35.66
-38.06
-40.28
-41.89
-42.72
-42.85
-42.6
-42.37
-42.46
-43.01
-44.01
-45.32
-46.74
-47.94
-48.55
-48.14
-46.38
-43.12
-38.51
-32.95
-27.03
-21.33
-16.32
-12.19
-8.92
-6.32
-4.17
-2.3
-0.62
0.8
1.87
2.53
2.81
2.85
2.83
2.91
3.13
3.41
3.59
3.57
3.3
2.86
2.35
1.88
1.44
0.96
0.33
-0.52
-1.58
-2.68
-3.7
-4.5
-5.08
-5.52
-5.99
-6.67
-7.66
-8.95
-10.44
-11.95
-13.32
-14.46
-15.34
-16.09
-16.84
-17.74
-18.88
-20.31
-22.03
-24
-26.08
-27.98
-29.26
-29.44
-28.12
-25.2
-20.95
-15.95
-10.86
-6.19
-2.21
1.11
3.92
6.38
8.53
10.39
11.95
13.21
14.21
14.98
15.5
15.8
15.88
15.82
15.73
15.7
15.8
16.09
16.54
17.07
17.57
17.83
17.64
16.8
15.26
13.04
10.34
7.33
4.11
0.7
-2.94
-6.81
-10.8
-14.69
-18.19
-21.06
-23.18
-24.59
-25.44
-25.94
-26.28
-26.65
-27.19
-28.02
-29.16
-30.61
-32.18
-33.6
-34.54
-34.67
-33.85
-32.1
-29.65
-26.79
-23.72
-20.42
-16.68
-12.19
-6.8
-0.66
5.77
11.87
17.1
21.2
24.23
26.49
28.34
30.04
31.68
33.22
34.48
35.3
35.56
35.27
34.51
33.48
32.37
31.29
30.25
29.2
28.09
26.91
25.69
24.49
23.33
22.24
21.2
20.29
19.61
19.25
19.23
19.46
19.7
19.64
19
17.56
15.25
12.22
8.69
4.94
1.13
-2.69
-6.57
-10.45
-14.1
-17.11
-19.04
-19.64
-18.95
-17.36
-15.4
-13.51
-11.87
-10.38
-8.89
-7.26
-5.65
-4.33
-3.57
-3.4
-3.5
-3.29
-2.19
0.1
3.51
7.53
11.53
15.04
17.91
20.41
23.1
26.53
31.04
36.58
42.78
49.01
54.67
59.4
63.24
66.57
70.08
74.49
80.31
87.6
95.88
104.12
110.83
114.22
112.47
104.26
89.19
68.22
43.63
18.56
-3.92
-21.65
-33.88
-41.16
-44.71
-45.74
-45.04
-43.12
-40.49
-38.09
-37.09
-38.51
-42.57
-48.43
-54.27
-58
-58.03
-53.9
-46.4
-37.12
-27.68
-19.04
-11.31
-3.91
3.74
11.59
18.75
23.81
25.52
23.39
17.98
10.6
2.74
-4.46
-10.46
-15.15
-18.54
-20.48
-20.71
-19.05
-15.57
-10.8
-5.51
-0.56
3.39
6
7.25
7.3
6.34
4.44
1.57
-2.34
-7.26
-12.95
-18.97
-24.72
-29.63
-33.36
-35.96
-37.79
-39.41
-41.36
-43.97
-47.32
-51.24
-55.39
-59.31
-62.53
-64.6
-65.14
-63.98
-61.22
-57.2
-52.47
-47.6
-42.97
-38.77
-34.98
-31.56
-28.54
-26.05
-24.19
-22.9
-21.93
-20.85
-19.28
-17.12
-14.62
-12.27
-10.64
-10.09
-10.73
-12.45
-15.05
-18.3
-21.94
-25.57
-28.58
-30.33
-30.36
-28.6
-25.49
-21.78
-18.23
-15.26
-12.83
-10.52
-7.85
-4.5
-0.53
3.67
7.58
10.7
12.76
13.71
13.73
13.11
12.23
11.48
11.18
11.61
12.89
14.98
17.7
20.72
23.69
26.3
28.31
29.48
29.69
28.82
26.9
24.09
20.73
17.25
14.06
11.42
9.3
7.38
5.09
1.83
-2.86
-8.97
-15.93
-22.69
-27.96
-30.61
-30.08
-26.56
-20.82
-13.94
-6.92
-0.38
5.39
10.36
14.58
18.05
20.77
22.9
24.77
26.84
29.5
32.9
36.8
40.65
43.77
45.6
45.92
44.85
42.79
40.21
37.47
34.79
32.24
29.78
27.39
25.02
22.62
20.18
17.68
15.13
12.64
10.33
8.35
6.76
5.51
4.38
3.13
1.51
-0.61
-3.2
-6.14
-9.26
-12.41
-15.42
-18
-19.75
-20.18
-18.83
-15.53
-10.39
-3.81
3.64
11.35
18.76
25.32
30.45
33.62
34.35
32.42
27.92
21.21
12.85
3.42
-6.5
-16.38
-25.64
-33.66
-39.84
-43.74
-45.18
-44.38
-41.82
-37.99
-33.21
-27.52
-20.74
-12.83
-4.1
4.7
12.53
18.5
22.11
23.43
22.89
21.03
18.25
14.8
10.81
6.42
1.8
-2.86
-7.48
-12.1
-16.82
-21.66
-26.43
-30.67
-33.77
-35.16
-34.54
-32
-28.02
-23.3
-18.51
-14.18
-10.46
-7.25
-4.24
-1.17
2.05
5.24
8.01
9.9
10.57
10.03
8.62
6.98
5.77
5.43
6.09
7.52
9.34
11.14
12.67
13.73
14.2
13.97
12.95
11.22
9.03
6.85
5.11
4.11
3.76
3.66
3.22
1.97
-0.23
-3.21
-6.52
-9.71
-12.49
-14.74
-16.54
-18.04
-19.42
-20.85
-22.43
-24.16
-25.85
-27.08
-27.32
-26.15
-23.42
-19.38
-14.63
-9.9
-5.74
-2.45
-0.03
1.72
2.98
3.9
4.5
4.73
4.59
4.12
3.46
2.79
2.29
2.1
2.24
2.66
3.24
3.86
4.41
4.76
4.75
4.2
3.04
1.33
-0.64
-2.47
-3.83
-4.54
-4.72
-4.67
-4.67
-4.85
-5.11
-5.22
-4.99
-4.44
-3.77
-3.3
-3.32
-3.97
-5.25
-7.06
-9.28
-11.81
-14.53
-17.25
-19.66
-21.41
-22.14
-21.63
-19.85
-16.97
-13.33
-9.36
-5.45
-1.92
1.04
3.4
5.23
6.69
7.93
9.06
10.18
11.34
12.62
14.13
15.93
18.01
20.29
22.58
24.74
26.73
28.68
30.79
33.21
35.89
38.52
40.63
41.72
41.42
39.58
36.28
31.76
26.33
20.32
13.99
7.58
1.24
-4.98
-11.06
-16.98
-22.69
-28.05
-32.84
-36.88
-40.03
-42.31
-43.77
-44.44
-44.3
-43.19
-40.94
-37.46
-32.86
-27.43
-21.63
-15.9
-10.56
-5.68
-1.12
3.46
8.42
13.99
20.16
26.68
33.16
39.25
44.75
49.65
54.08
58.08
61.54
64.13
65.58
65.87
65.38
64.85
64.95
66.01
67.7
69.13
69.25
67.33
63.21
57.39
50.67
43.79
37.04
30.31
23.19
15.31
6.62
-2.5
-11.31
-18.92
-24.51
-27.62
-28.26
-26.94
-24.63
-22.44
-21.34
-21.86
-23.95
-27.08
-30.44
-33.27
-35.12
-35.83
-35.46
-34.12
-31.85
-28.73
-24.89
-20.66
-16.53
-13.04
-10.5
-8.95
-8.01
-7.08
-5.57
-3.04
0.55
4.89
9.43
13.54
16.69
18.56
19.1
18.52
17.1
15.26
13.37
11.78
10.71
10.15
9.86
9.4
8.28
6.12
2.83
-1.39
-6.09
-10.68
-14.53
-17.09
-18.07
-17.5
-15.93
-14.27
-13.64
-14.98
-18.75
-24.66
-31.84
-39.09
-45.26
-49.6
-51.85
-52.21
-51.19
-49.51
-47.82
-46.66
-46.28
-46.63
-47.35
-47.89
-47.67
-46.23
-43.36
-39.09
-33.68
-27.48
-20.83
-14.01
-7.18
-0.45
6.04
12.06
17.3
21.4
24.08
25.2
24.82
23.2
20.68
17.7
14.65
11.82
9.32
7.04
4.72
2.07
-1.09
-4.63
-8.11
-10.84
-12.09
-11.38
-8.65
-4.38
0.55
5.02
8.02
8.94
7.66
4.59
0.5
-3.76
-7.47
-10.18
-11.75
-12.27
-11.89
-10.77
-8.95
-6.44
-3.27
0.48
4.64
9
13.37
17.58
21.6
25.41
29.02
32.42
35.48
38.04
39.97
41.23
41.93
42.28
42.44
42.38
41.87
40.54
38.11
34.61
30.48
26.4
23.12
21.11
20.5
20.94
21.84
22.51
22.33
20.93
18.24
14.49
10.16
5.77
1.72
-1.81
-4.85
-7.56
-10.06
-12.4
-14.57
-16.49
-18.11
-19.3
-19.91
-19.73
-18.64
-16.66
-14.09
-11.35
-8.95
-7.23
-6.39
-6.47
-7.45
-9.39
-12.3
-16.22
-20.97
-26.15
-31.18
-35.35
-38.07
-39.02
-38.3
-36.33
-33.84
-31.52
-29.9
-29.11
-29.02
-29.35
-29.88
-30.49
-31.21
-32.01
-32.73
-33.08
-32.77
-31.64
-29.81
-27.56
-25.23
-23.05
-21.05
-19.11
-17.09
-14.93
-12.71
-10.58
-8.7
-7.16
-5.98
-5.11
-4.49
-4.11
-3.94
-3.94
-3.97
-3.88
-3.44
-2.53
-1.09
0.77
2.83
4.8
6.39
7.39
7.64
7.13
5.96
4.41
2.84
1.66
1.24
1.75
3.18
5.34
7.92
10.57
12.96
14.89
16.28
17.13
17.57
17.73
17.76
17.79
17.84
17.9
17.91
17.86
17.8
17.86
18.12
18.56
19.05
19.34
19.24
18.68
17.8
16.75
15.65
14.43
12.87
10.79
8.26
5.65
3.51
2.36
2.36
3.35
4.81
6.21
7.17
7.63
7.86
8.24
9.18
10.86
13.26
16.11
19.02
21.49
23.06
23.34
22.11
19.32
15.17
10.09
4.7
-0.31
-4.32
-6.97
-8.21
-8.32
-7.8
-7.24
-7.11
-7.73
-9.19
-11.4
-14.12
-16.99
-19.58
-21.49
-22.5
-22.71
-22.48
-22.27
-22.39
-22.81
-23.21
-23.13
-22.3
-20.74
-18.74
-16.66
-14.72
-12.92
-11.16
-9.37
-7.67
-6.25
-5.3
-4.88
-4.84
-4.87
-4.67
-3.96
-2.66
-0.83
1.3
3.46
5.35
6.78
7.71
8.23
8.5
8.69
8.84
8.89
8.67
7.9
6.35
3.84
0.39
-3.82
-8.39
-12.84
-16.7
-19.69
-21.72
-22.91
-23.49
-23.56
-23.04
-21.69
-19.19
-15.36
-10.35
-4.63
1.05
5.88
9.25
10.85
10.76
9.3
6.92
4.04
0.97
-2.05
-4.8
-7.06
-8.64
-9.46
-9.57
-9.2
-8.7
-8.38
-8.49
-9.16
-10.37
-12.02
-13.91
-15.72
-17.16
-18
-18.23
-18.05
-17.83
-17.95
-18.66
-19.93
-21.39
-22.5
-22.66
-21.45
-18.77
-14.89
-10.29
-5.45
-0.69
3.99
8.83
14.14
20.12
26.69
33.55
40.22
46.23
51.18
54.86
57.26
58.57
59.09
59.17
59.06
58.81
58.32
57.35
55.67
53.14
49.78
45.74
41.26
36.53
31.74
27.05
22.58
18.44
14.64
11.08
7.56
3.81
-0.38
-5.03
-9.97
-14.85
-19.25
-22.79
-25.32
-26.89
-27.71
-28.1
-28.33
-28.64
-29.13
-29.8
-30.55
-31.18
-31.48
-31.2
-30.21
-28.46
-26.05
-23.18
-20.1
-17.07
-14.23
-11.63
-9.23
-6.86
-4.35
-1.5
1.85
5.81
10.39
15.53
21.09
26.88
32.66
38.18
43.26
47.82
51.91
55.66
59.3
63.07
67.13
71.48
75.88
79.95
83.15
85.06
85.43
84.27
81.86
78.67
75.14
71.65
68.38
65.31
62.29
59.14
55.74
52.1
48.23
44.17
39.87
35.3
30.48
25.54
20.68
16.02
11.48
6.72
1.29
-5.07
-12.25
-19.66
-26.42
-31.77
-35.22
-36.78
-36.81
-35.78
-34.16
-32.21
-30.15
-28.17
-26.53
-25.51
-25.31
-25.96
-27.27
-28.92
-30.6
-32.12
-33.4
-34.49
-35.43
-36.15
-36.49
-36.27
-35.35
-33.78
-31.78
-29.69
-27.8
-26.23
-24.92
-23.66
-22.25
-20.64
-18.97
-17.53
-16.58
-16.25
-16.47
-17.01
-17.67
-18.34
-19.1
-20.17
-21.76
-24.02
-26.94
-30.4
-34.23
-38.31
-42.5
-46.64
-50.59
-54.15
-57.2
-59.79
-62.1
-64.3
-66.33
-67.78
-67.81
-65.44
-59.87
-50.9
-39.05
-25.48
-11.55
1.56
13.22
23.43
32.58
41.21
49.66
58.06
66.31
74.17
81.35
87.51
92.18
94.85
95.11
92.79
88.2
82
75.05
68.09
61.52
55.35
49.29
43.12
36.83
30.69
25.17
20.65
17.23
14.62
12.26
9.55
6.12
1.82
-3.34
-9.37
-16.41
-24.63
-34.03
-44.26
-54.6
-64.22
-72.45
-79.03
-84.16
-88.31
-91.95
-95.42
-98.8
-101.96
-104.52
-105.95
-105.58
-102.82
-97.27
-89.01
-78.52
-66.61
-54.04
-41.33
-28.68
-16.05
-3.43
9.05
21.11
32.51
43.18
53.33
63.25
73.14
82.96
92.35
100.77
107.69
112.74
115.8
116.96
116.55
114.98
112.7
110.02
107.03
103.48
98.95
92.96
85.24
75.85
65.23
54.06
43.16
33.27
24.85
18.08
12.78
8.51
4.71
0.78
-3.74
-9.15
-15.46
-22.43
-29.61
-36.41
-42.21
-46.49
-48.89
-49.29
-47.8
-44.73
-40.49
-35.55
-30.35
-25.37
-21.08
-18.02
-16.73
-17.63
-20.86
-26.11
-32.68
-39.6
-46.04
-51.53
-56.07
-59.94
-63.44
-66.62
-69.22
-70.79
-70.89
-69.38
-66.53
-62.91
-59.17
-55.83
-53.08
-50.72
-48.35
-45.55
-42.06
-37.94
-33.42
-28.91
-24.78
-21.29
-18.49
-16.26
-14.27
-12.12
-9.44
-6.04
-2.01
2.26
6.21
9.37
11.46
12.51
12.78
12.55
12.06
11.31
10.24
8.75
6.84
4.64
2.37
0.28
-1.45
-2.69
-3.42
-3.67
-3.63
-3.61
-4.02
-5.14
-7.02
-9.35
-11.59
-13.14
-13.64
-13.04
-11.54
-9.39
-6.67
-3.3
0.81
5.54
10.41
14.67
17.59
18.84
18.72
18.01
17.69
18.41
20.21
22.48
24.32
24.93
24.03
21.92
19.3
16.83
14.86
13.23
11.5
9.21
6.22
2.73
-0.78
-3.79
-5.98
-7.26
-7.8
-7.94
-8.01
-8.34
-9.11
-10.38
-12.01
-13.67
-14.91
-15.27
-14.43
-12.31
-9.13
-5.33
-1.47
1.89
4.37
5.87
6.52
6.67
6.69
6.9
7.37
8.03
8.68
9.12
9.19
8.85
8.13
7.11
5.89
4.57
3.2
1.8
0.37
-1.07
-2.52
-3.97
-5.47
-7.1
-8.96
-11.07
-13.36
-15.62
-17.58
-19.02
-19.91
-20.39
-20.72
-21.16
-21.78
-22.41
-22.68
-22.17
-20.62
-18.08
-14.88
-11.47
-8.26
-5.45
-3.01
-0.79
1.39
3.57
5.7
7.65
9.34
10.71
11.76
12.54
13.15
13.73
14.52
15.7
17.31
19.1
20.53
20.89
19.49
15.98
10.57
4.13
-2.06
-6.56
-8.3
-6.94
-2.94
2.64
8.67
14.38
19.61
24.71
30.11
36
42.15
48.02
53.07
56.96
59.63
61.15
61.61
61.02
59.37
56.84
53.76
50.55
47.53
44.6
41.24
36.69
30.29
21.86
11.89
1.5
-7.92
-15.17
-19.58
-21.18
-20.56
-18.58
-16.09
-13.69
-11.67
-10.1
-8.9
-7.94
-7.09
-6.24
-5.25
-3.98
-2.3
-0.18
2.3
4.92
7.35
9.21
10.11
9.79
8.14
5.24
1.35
-3.14
-7.74
-12.03
-15.64
-18.4
-20.31
-21.45
-21.98
-22.01
-21.61
-20.82
-19.7
-18.42
-17.19
-16.22
-15.62
-15.32
-15.12
-14.72
-13.91
-12.58
-10.8
-8.77
-6.73
-4.85
-3.22
-1.85
-0.7
0.31
1.27
2.24
3.32
4.56
5.97
7.46
8.94
10.33
11.57
12.62
13.43
13.93
13.99
13.57
12.78
11.84
11
10.41
10.06
9.8
9.45
8.9
8.16
7.26
6.27
5.2
4.01
2.6
0.83
-1.46
-4.38
-7.95
-12.02
-16.28
-20.4
-24.05
-26.98
-28.95
-29.65
-28.73
-25.89
-21.05
-14.54
-7.14
0.15
6.35
10.79
13.34
14.34
14.43
14.29
14.4
15.01
16.15
17.72
19.57
21.47
23.1
23.99
23.63
21.61
17.89
12.96
7.71
3.27
0.55
0.06
1.84
5.64
11.17
18.26
26.79
36.44
46.5
55.94
63.56
68.41
70.04
68.54
64.43
58.51
51.73
45.19
39.99
37.03
36.61
38.25
40.75
42.56
42.4
39.63
34.43
27.43
19.26
10.22
0.27
-10.8
-22.96
-35.79
-48.53
-60.27
-70.24
-78.02
-83.51
-86.9
-88.5
-88.76
-88.19
-87.38
-86.83
-86.87
-87.49
-88.3
-88.63
-87.77
-85.16
-80.59
-74.3
-66.95
-59.43
-52.72
-47.52
-44.01
-41.7
-39.59
-36.62
-32.22
-26.61
-20.74
-15.75
-12.44
-10.93
-10.73
-11.16
-11.7
-12.12
-12.33
-12.14
-11.27
-9.55
-7.21
-5.01
-3.94
-4.68
-7.2
-10.63
-13.62
-15.01
-14.31
-11.95
-9.06
-6.87
-6.21
-7.19
-9.26
-11.52
-13.19
-13.8
-13.27
-11.74
-9.36
-6.21
-2.3
2.21
7.01
11.51
15.03
16.96
16.87
14.72
10.83
5.96
1.11
-2.64
-4.45
-3.89
-1.06
3.43
8.68
13.71
17.7
20.2
21.15
20.85
19.82
18.66
17.83
17.56
17.8
18.26
18.51
18.08
16.7
14.29
11.11
7.61
4.36
1.89
0.56
0.49
1.51
3.23
5.09
6.52
7.06
6.59
5.36
3.95
3.01
3.06
4.23
6.32
8.89
11.53
13.92
15.95
17.58
18.92
20.11
21.41
23.14
25.59
28.86
32.72
36.62
39.88
41.92
42.58
42.12
41.07
40.01
39.33
39.21
39.62
40.33
40.9
40.56
38.37
33.44
25.41
14.81
3.08
-7.82
-16.09
-20.73
-21.79
-20.12
-16.98
-13.57
-10.81
-9.32
-9.39
-10.95
-13.44
-15.79
-16.72
-15.12
-10.6
-3.6
4.66
12.66
19.1
23.3
25.26
25.5
24.73
23.61
22.57
21.76
21.08
20.29
19.03
17.02
14.08
10.3
6.06
1.96
-1.34
-3.32
-3.73
-2.75
-0.83
1.49
3.76
5.77
7.48
8.97
10.3
11.42
12.18
12.38
11.92
10.84
9.4
8.04
7.28
7.5
8.77
10.76
12.84
14.43
15.31
15.79
16.66
18.75
22.59
28.1
34.68
41.36
46.96
50.31
50.38
46.61
39.19
29.27
18.73
9.57
3.07
-0.77
-3.27
-6.27
-11.21
-18.3
-26.38
-33.45
-37.55
-37.61
-33.71
-26.97
-19.01
-11.4
-5.43
-1.98
-1.58
-4.53
-10.69
-19.36
-29.19
-38.35
-44.89
-47.45
-45.58
-40
-32.29
-24.34
-17.75
-13.4
-11.37
-11.15
-11.9
-12.81
-13.27
-12.87
-11.39
-8.76
-5.13
-0.87
3.41
6.99
9.23
9.78
8.71
6.45
3.65
1
-0.96
-1.99
-2.14
-1.78
-1.5
-2.07
-4.18
-8.28
-14.43
-22.22
-30.89
-39.51
-47.22
-53.39
-57.68
-60.09
-60.98
-60.93
-60.71
-61
-62.21
-64.33
-66.91
-69.28
-70.79
-70.98
-69.68
-66.9
-62.72
-57.2
-50.53
-43.15
-35.77
-29.13
-23.66
-19.18
-14.96
-10.06
-3.86
3.53
11.31
18.34
23.71
27.13
28.94
29.83
30.47
31.23
32.24
33.51
35.09
37.02
39.21
41.38
43.05
43.8
43.48
42.37
41.01
40.02
39.77
40.18
40.83
41.12
40.52
38.82
36.16
32.88
29.38
25.86
22.26
18.35
13.84
8.67
3.13
-2.21
-6.67
-9.7
-11.11
-11.07
-10.02
-8.48
-6.86
-5.36
-3.98
-2.52
-0.72
1.6
4.51
7.94
11.78
15.99
20.58
25.54
30.74
35.73
39.84
42.36
42.84
41.26
37.98
33.63
28.78
23.8
18.91
14.22
9.93
6.29
3.53
1.67
0.5
-0.4
-1.38
-2.59
-3.93
-5.08
-5.77
-5.92
-5.73
-5.61
-5.88
-6.65
-7.7
-8.75
-9.59
-10.35
-11.42
-13.33
-16.48
-21.02
-26.72
-33.13
-39.7
-45.9
-51.29
-55.54
-58.54
-60.32
-61.11
-61.23
-60.92
-60.3
-59.23
-57.45
-54.71
-50.88
-46.04
-40.37
-34.06
-27.19
-19.76
-11.84
-3.77
3.78
9.9
13.79
15.14
14.26
12.07
9.75
8.28
8.12
9.17
10.84
12.47
13.47
13.47
12.3
10.02
6.79
2.99
-0.87
-4.15
-6.31
-7.02
-6.31
-4.59
-2.51
-0.85
-0.21
-0.93
-3.01
-6.18
-10.04
-14.21
-18.47
-22.76
-27.13
-31.64
-36.31
-41.01
-45.45
-49.19
-51.64
-52.17
-50.23
-45.51
-38.17
-28.8
-18.33
-7.82
1.86
10.18
17.06
22.71
27.46
31.56
35.09
38.01
40.28
41.85
42.79
43.12
42.81
41.76
39.86
37.08
33.48
29.26
24.64
19.94
15.42
11.32
7.8
4.95
2.78
1.26
0.43
0.34
1.09
2.71
5.04
7.81
10.71
13.57
16.37
19.15
21.91
24.51
26.7
28.3
29.29
29.93
30.59
31.61
33.14
34.98
36.72
37.86
38.04
37.25
35.82
34.28
33.1
32.4
31.89
31.01
29.23
26.32
22.47
18.16
13.99
10.4
7.67
5.92
5.15
5.29
6.17
7.55
9.14
10.73
12.27
13.83
15.6
17.66
19.9
21.93
23.14
22.73
19.96
14.39
6.12
-4.12
-15.08
-25.32
-33.62
-39.36
-42.6
-43.98
-44.35
-44.49
-44.81
-45.4
-46.15
-46.89
-47.49
-47.83
-47.84
-47.35
-46.27
-44.56
-42.34
-39.85
-37.32
-34.88
-32.5
-30.04
-27.36
-24.47
-21.62
-19.18
-17.53
-16.89
-17.2
-18.14
-19.27
-20.13
-20.4
-19.93
-18.72
-16.9
-14.75
-12.71
-11.31
-11.1
-12.36
-14.99
-18.39
-21.6
-23.66
-23.94
-22.37
-19.41
-15.82
-12.33
-9.42
-7.21
-5.61
-4.48
-3.72
-3.28
-3.12
-3.14
-3.3
-3.55
-3.97
-4.66
-5.7
-7.01
-8.36
-9.4
-9.84
-9.6
-8.79
-7.66
-6.53
-5.63
-5.15
-5.21
-5.89
-7.21
-9.09
-11.35
-13.78
-16.2
-18.55
-20.95
-23.55
-26.46
-29.55
-32.45
-34.54
-35.16
-33.79
-30.27
-24.86
-18.15
-10.95
-3.96
2.32
7.7
12.31
16.41
20.26
24
27.55
30.76
33.37
35.15
35.98
35.82
34.78
33.05
30.87
28.45
26
23.69
21.56
19.58
17.61
15.45
12.9
9.89
6.51
2.99
-0.32
-3.14
-5.32
-6.93
-8.17
-9.37
-10.78
-12.49
-14.38
-16.13
-17.27
-17.35
-15.91
-12.67
-7.59
-0.84
7.15
15.81
24.57
32.98
40.84
48.09
54.78
60.98
66.7
71.9
76.51
80.44
83.46
85.26
85.38
83.38
78.99
72.34
63.98
54.81
45.86
37.96
31.53
26.53
22.57
19.18
16.01
12.97
10.14
7.64
5.42
3.21
0.64
-2.57
-6.43
-10.5
-14.05
-16.26
-16.51
-14.59
-10.81
-5.91
-0.76
3.9
7.71
10.75
13.54
16.88
21.58
28.2
36.78
46.64
56.48
64.76
70.27
72.6
72.33
70.69
69.07
68.34
68.59
69.18
69.23
68.06
65.52
61.99
58.01
54.04
50.17
46.23
42.04
37.65
33.44
29.94
27.5
25.98
24.67
22.54
18.67
12.71
5.03
-3.43
-11.59
-18.62
-24.28
-28.82
-32.76
-36.63
-40.71
-45.01
-49.37
-53.6
-57.56
-61.22
-64.59
-67.61
-70.11
-71.78
-72.29
-71.46
-69.37
-66.38
-63
-59.7
-56.69
-53.87
-50.9
-47.43
-43.27
-38.46
-33.31
-28.24
-23.77
-20.43
-18.77
-19.28
-22.23
-27.56
-34.69
-42.55
-49.81
-55.3
-58.34
-58.97
-57.86
-56.04
-54.53
-54.06
-55.08
-57.7
-61.77
-66.78
-71.9
-76.13
-78.63
-79.14
-77.98
-75.94
-73.95
-72.81
-73.07
-74.96
-78.2
-81.73
-83.66
-81.64
-73.77
-59.52
-40.33
-19.14
0.61
16.34
27.15
33.82
38.23
42.64
49.21
59.68
74.99
94.83
117.24
138.75
155.19
162.91
160.16
147.67
128.31
106.07
84.66
66.53
52.46
41.78
33.12
25.1
16.94
8.52
0.37
-6.81
-12.45
-16.26
-18.27
-18.57
-17.25
-14.42
-10.36
-5.61
-1.01
2.53
4.38
4.45
3.24
1.62
0.37
-0.09
0.09
0.3
-0.17
-1.74
-4.41
-7.75
-11.19
-14.32
-17.02
-19.38
-21.54
-23.37
-24.54
-24.57
-23.11
-20.17
-16.09
-11.52
-7.12
-3.43
-0.75
0.85
1.47
1.4
1
0.72
0.95
1.96
3.81
6.33
9.24
12.21
14.95
17.28
19.13
20.58
21.8
23.03
24.47
26.14
27.86
29.16
29.54
28.62
26.35
23.02
19.15
15.22
11.49
8.05
4.86
2.02
-0.27
-1.79
-2.48
-2.58
-2.5
-2.75
-3.61
-5.13
-7.2
-9.62
-12.13
-14.39
-15.87
-15.95
-14.08
-10.05
-4.21
2.63
9.45
15.42
20.12
23.59
26.14
28.04
29.42
30.22
30.28
29.45
27.67
24.89
21.19
16.73
11.95
7.55
4.27
2.6
2.43
3.06
3.53
3.13
1.89
0.51
0.05
1.3
4.33
8.39
12.23
14.63
14.75
12.37
7.84
1.86
-4.66
-10.76
-15.58
-18.56
-19.6
-19.16
-18.05
-17.23
-17.43
-18.9
-21.33
-23.97
-25.87
-26.11
-24.08
-19.64
-13.16
-5.52
2.02
8.06
11.43
11.57
8.74
3.88
-1.66
-6.61
-10.21
-12.24
-12.97
-12.83
-12.22
-11.35
-10.38
-9.41
-8.68
-8.37
-8.62
-9.43
-10.64
-12.05
-13.45
-14.77
-16.01
-17.24
-18.47
-19.65
-20.65
-21.3
-21.53
-21.37
-21.01
-20.65
-20.48
-20.57
-20.94
-21.59
-22.53
-23.79
-25.26
-26.6
-27.34
-26.91
-24.96
-21.49
-16.83
-11.54
-6.19
-1.21
3.17
6.83
9.75
11.87
13.29
14.24
15.18
16.63
18.95
22.22
26.12
30.07
33.5
36.01
37.57
38.45
39.13
40.01
41.25
42.6
43.45
43.06
40.83
36.56
30.54
23.5
16.32
9.73
4.13
-0.52
-4.56
-8.46
-12.56
-16.98
-21.57
-25.93
-29.51
-31.73
-32.19
-30.79
-27.81
-23.86
-19.77
-16.35
-14.22
-13.61
-14.34
-15.9
-17.69
-19.17
-20.06
-20.35
-20.23
-19.97
-19.77
-19.68
-19.61
-19.4
-18.94
-18.27
-17.53
-16.92
-16.62
-16.75
-17.35
-18.37
-19.69
-21.06
-22.08
-22.23
-21.02
-18.23
-14.16
-9.58
-5.63
-3.37
-3.32
-5.26
-8.27
-11.18
-12.97
-13.18
-11.96
-9.91
-7.73
-6.04
-5.2
-5.33
-6.37
-8.06
-10.14
-12.25
-14.14
-15.64
-16.72
-17.39
-17.66
-17.47
-16.68
-15.25
-13.18
-10.66
-7.9
-5.18
-2.7
-0.55
1.21
2.56
3.46
3.92
3.96
3.67
3.16
2.57
1.9
1.08
-0.04
-1.62
-3.6
-5.77
-7.67
-8.77
-8.66
-7.21
-4.56
-1.17
2.43
5.76
8.48
10.52
11.92
12.84
13.47
13.96
14.41
14.84
15.24
15.5
15.55
15.31
14.74
13.91
12.9
11.83
10.79
9.84
8.99
8.24
7.55
6.84
5.99
4.86
3.34
1.43
-0.77
-3.07
-5.27
-7.31
-9.3
-11.47
-14.1
-17.27
-20.8
-24.24
-26.99
-28.49
-28.38
-26.61
-23.41
-19.27
-14.82
-10.67
-7.31
-5
-3.64
-2.98
-2.63
-2.37
-2.12
-2.02
-2.22
-2.74
-3.39
-3.84
-3.75
-2.92
-1.33
0.96
3.9
7.48
11.75
16.66
21.99
27.32
32.21
36.39
39.79
42.6
44.99
46.94
48.12
48.05
46.31
42.86
38.08
32.58
26.97
21.5
16.08
10.39
4.23
-2.17
-8.26
-13.21
-16.35
-17.37
-16.35
-13.69
-9.93
-5.53
-0.88
3.67
7.73
10.94
13.06
14.05
14.18
13.88
13.59
13.54
13.72
13.91
13.8
13.21
12.08
10.49
8.6
6.59
4.64
2.95
1.73
1.12
1.14
1.62
2.23
2.59
2.4
1.59
0.29
-1.27
-2.87
-4.44
-5.98
-7.56
-9.16
-10.7
-12.01
-12.95
-13.51
-13.79
-13.97
-14.26
-14.78
-15.48
-16.14
-16.37
-15.74
-13.85
-10.48
-5.68
0.26
6.86
13.57
19.94
25.69
30.74
35.09
38.82
41.91
44.34
46.02
46.85
46.76
45.68
43.54
40.21
35.59
29.66
22.57
14.68
6.55
-1.2
-8.03
-13.61
-17.79
-20.62
-22.27
-22.94
-22.92
-22.52
-22.03
-21.7
-21.69
-22.02
-22.62
-23.36
-24.12
-24.89
-25.67
-26.48
-27.31
-28.11
-28.76
-29.17
-29.27
-28.98
-28.25
-26.94
-24.98
-22.32
-18.98
-15.11
-10.83
-6.25
-1.47
3.39
8.11
12.33
15.7
17.97
19.12
19.33
18.89
18.06
16.97
15.68
14.22
12.7
11.35
10.42
10.09
10.38
11.11
11.92
12.47
12.56
12.17
11.51
10.9
10.56
10.61
10.97
11.46
11.86
11.96
11.62
10.78
9.41
7.59
5.47
3.2
1.02
-0.91
-2.51
-3.85
-5.1
-6.45
-7.94
-9.38
-10.32
-10.25
-8.82
-6.1
-2.57
1
3.84
5.42
5.63
4.74
3.32
2.06
1.6
2.38
4.55
7.84
11.71
15.48
18.59
20.74
21.9
22.31
22.26
22.05
21.82
21.6
21.34
20.9
20.11
18.87
17.09
14.83
12.25
9.63
7.22
5.18
3.53
2.14
0.87
-0.38
-1.58
-2.65
-3.54
-4.32
-5.18
-6.37
-8.12
-10.54
-13.63
-17.26
-21.2
-25.08
-28.39
-30.64
-31.41
-30.52
-28.14
-24.72
-20.85
-17.09
-13.84
-11.31
-9.56
-8.57
-8.27
-8.56
-9.29
-10.28
-11.28
-12.06
-12.4
-12.16
-11.33
-10.01
-8.38
-6.65
-4.96
-3.38
-1.91
-0.55
0.71
1.81
2.71
3.37
3.82
4.08
4.17
4.04
3.6
2.78
1.62
0.29
-0.96
-1.9
-2.45
-2.71
-2.95
-3.48
-4.54
-6.26
-8.6
-11.34
-14.12
-16.46
-17.81
-17.7
-15.87
-12.44
-7.91
-3.07
1.25
4.51
6.48
7.28
7.19
6.49
5.35
3.9
2.3
0.78
-0.41
-1.07
-1.16
-0.82
-0.3
0.25
0.73
1.19
1.72
2.41
3.23
4.13
5.01
5.84
6.64
7.48
8.4
9.36
10.22
10.78
10.86
10.35
9.25
7.69
5.82
3.82
1.83
0.01
-1.51
-2.65
-3.38
-3.76
-3.95
-4.12
-4.44
-5.06
-6.06
-7.51
-9.36
-11.44
-13.37
-14.68
-14.94
-13.89
-11.61
-8.47
-5.06
-1.9
0.64
2.48
3.75
4.66
5.42
6.09
6.63
6.97
7.07
6.97
6.78
6.67
6.72
6.93
7.22
7.44
7.53
7.49
7.39
7.34
7.39
7.54
7.69
7.72
7.54
7.1
6.45
5.68
4.91
4.2
3.58
2.99
2.35
1.54
0.53
-0.61
-1.75
-2.71
-3.36
-3.68
-3.78
-3.86
-4.17
-4.87
-6.04
-7.6
-9.3
-10.75
-11.54
-11.34
-9.97
-7.6
-4.59
-1.4
1.54
4.04
6.06
7.74
9.15
10.34
11.25
11.78
11.91
11.73
11.39
11.12
11.07
11.28
11.66
12.06
12.32
12.44
12.52
12.7
13.1
13.67
14.2
14.42
14.08
13.11
11.59
9.76
7.9
6.29
5.13
4.45
4.16
4.06
3.96
3.7
3.23
2.61
1.95
1.35
0.78
0.15
-0.76
-2.19
-4.31
-7.09
-10.2
-13.04
-14.87
-15.09
-13.48
-10.29
-6.16
-1.79
2.29
5.92
9.21
12.33
15.36
18.2
20.64
22.46
23.54
23.82
23.33
22.09
20.2
17.84
15.3
12.94
11.11
10.04
9.76
10.06
10.54
10.69
10.06
8.37
5.67
2.36
-0.93
-3.58
-5.18
-5.7
-5.44
-4.84
-4.28
-3.86
-3.47
-2.87
-1.91
-0.73
0.3
0.68
0.05
-1.67
-4.21
-7
-9.4
-10.89
-11.19
-10.32
-8.52
-6.09
-3.27
-0.18
3.22
6.95
10.91
14.71
17.77
19.49
19.47
17.76
14.83
11.44
8.26
5.73
3.97
2.92
2.53
2.93
4.41
7.33
12.08
18.98
28.22
39.67
52.62
65.6
76.52
83.24
84.42
80.29
72.7
64.42
58.02
54.71
53.86
53.53
51.5
46.43
38.48
29.23
20.86
15.22
13.15
14.2
17
19.71
20.62
18.57
13.15
4.69
-5.95
-17.6
-29.08
-39.29
-47.28
-52.12
-53.01
-49.43
-41.54
-30.41
-17.93
-6.42
2.09
6.44
6.62
3.52
-1.59
-7.62
-13.97
-20.45
-27.02
-33.49
-39.42
-44.2
-47.23
-48.22
-47.26
-44.75
-41.25
-37.25
-32.99
-28.6
-24.23
-20.27
-17.3
-15.93
-16.4
-18.42
-21.23
-23.95
-25.98
-27.13
-27.53
-27.24
-26.04
-23.46
-19.21
-13.6
-7.72
-3.24
-1.75
-4.07
-9.9
-17.96
-26.51
-34.06
-39.87
-44.07
-47.36
-50.59
-54.32
-58.6
-63.04
-66.88
-69.14
-68.77
-64.88
-56.92
-45.08
-30.37
-14.43
0.93
14.21
24.73
32.56
38.31
42.6
45.72
47.58
47.84
46.39
43.58
40.3
37.75
37.01
38.49
41.67
45.13
47.03
45.81
40.81
32.45
21.97
10.79
-0.03
-10.1
-19.57
-28.64
-37.24
-44.9
-50.9
-54.63
-55.91
-55.04
-52.74
-49.83
-47.02
-44.73
-43.09
-42.04
-41.45
-41.2
-41.15
-41.11
-40.76
-39.74
-37.75
-34.73
-30.94
-26.87
-23.06
-19.84
-17.18
-14.9
-12.87
-11.34
-10.84
-11.86
-14.39
-17.63
-20.03
-19.77
-15.4
-6.26
7.3
24.06
42.2
59.68
74.52
85.16
90.76
91.43
88.17
82.5
75.89
69.12
62.16
54.39
45.22
34.74
23.89
14.28
7.56
4.68
5.49
8.77
12.7
15.5
16.19
14.8
12.2
9.58
7.79
6.76
5.19
1.02
-7.86
-22.41
-41.81
-63.42
-83.65
-99.1
-107.62
-108.7
-103.22
-92.74
-78.87
-62.97
-46.19
-29.63
-14.32
-1.01
10.13
19.56
28.18
36.9
46.15
55.65
64.46
71.24
74.75
74.34
70.26
63.56
55.75
48.28
42.09
37.58
34.69
33.21
32.8
33.03
33.13
32
28.31
21.04
9.95
-4.11
-19.3
-33.26
-43.83
-49.59
-50.22
-46.52
-39.95
-32.28
-24.96
-18.92
-14.46
-11.46
-9.62
-8.75
-8.79
-9.73
-11.54
-13.98
-16.67
-19.28
-21.66
-23.94
-26.45
-29.52
-33.25
-37.43
-41.52
-44.83
-46.75
-46.94
-45.55
-43.12
-40.45
-38.23
-36.84
-36.24
-36.13
-36.18
-36.27
-36.55
-37.3
-38.69
-40.68
-43
-45.31
-47.33
-48.78
-49.4
-48.8
-46.53
-42.2
-35.71
-27.34
-17.63
-7.24
3.24
13.46
23.24
32.46
40.95
48.45
54.65
59.18
61.72
62.08
60.26
56.6
51.69
46.33
41.23
36.87
33.39
30.67
28.43
26.43
24.53
22.79
21.44
20.9
21.67
24.12
28.17
33.17
37.94
41.18
41.83
39.45
34.22
26.77
17.95
8.68
-0.11
-7.46
-12.6
-15.18
-15.45
-14.2
-12.43
-10.93
-10.04
-9.59
-9.16
-8.46
-7.44
-6.32
-5.42
-5.05
-5.32
-6.2
-7.48
-8.88
-10.04
-10.68
-10.64
-9.93
-8.71
-7.16
-5.45
-3.7
-2
-0.45
0.87
1.89
2.64
3.22
3.78
4.39
5.01
5.46
5.52
5.02
3.92
2.32
0.41
-1.61
-3.69
-5.83
-8.12
-10.6
-13.15
-15.49
-17.24
-18.03
-17.66
-16.13
-13.66
-10.59
-7.29
-4.08
-1.19
1.24
3.23
4.83
6.18
7.47
8.87
10.58
12.84
15.92
20.06
25.41
31.93
39.36
47.22
54.82
61.39
66.2
68.81
69.24
67.98
65.88
63.82
62.48
62.12
62.62
63.6
64.63
65.23
64.86
62.95
58.91
52.29
42.93
30.97
16.82
1.09
-15.5
-31.95
-46.99
-59.22
-67.32
-70.39
-68.18
-61.12
-50.2
-36.79
-22.4
-8.52
3.49
12.66
18.56
21.44
22.11
21.72
21.39
21.89
23.43
25.53
27.16
26.97
23.72
16.68
5.9
-7.76
-22.79
-37.22
-48.9
-55.89
-57.11
-52.95
-45.63
-38.69
-35.75
-39.01
-48.28
-61.11
-73.87
-83.32
-87.58
-86.21
-79.54
-68
-51.93
-31.99
-9.66
12.74
32.59
47.76
57.32
61.51
61.37
58.2
53.11
46.83
39.83
32.47
25.1
18.2
12.33
7.98
5.43
4.6
4.99
5.85
6.37
5.99
4.59
2.38
-0.11
-2.34
-3.91
-4.64
-4.59
-3.98
-3.1
-2.22
-1.52
-1.01
-0.54
0.14
1.23
2.76
4.38
5.45
5.2
3.08
-0.78
-5.54
-9.77
-12.12
-11.88
-9.43
-6.06
-3.52
-3.22
-5.75
-10.84
-17.72
-25.58
-33.85
-42.07
-49.64
-55.65
-59.07
-59.19
-56.18
-51.17
-45.92
-42.1
-40.57
-41.08
-42.55
-43.57
-43.11
-40.8
-36.89
-31.89
-26.21
-20.03
-13.36
-6.22
1.14
8.25
14.54
19.71
23.8
27.26
30.78
34.86
39.71
45.04
50.25
54.6
57.53
58.73
58.23
56.34
53.48
50.11
46.57
43.06
39.61
36.19
32.69
29.1
25.46
21.88
18.59
15.78
13.67
12.35
11.81
11.84
12.11
12.33
12.26
11.87
11.21
10.41
9.56
8.67
7.66
6.45
4.93
3.04
0.78
-1.88
-4.93
-8.36
-12.16
-16.23
-20.43
-24.49
-28.17
-31.24
-33.58
-35.21
-36.24
-36.86
-37.21
-37.44
-37.57
-37.6
-37.46
-37.08
-36.37
-35.25
-33.7
-31.79
-29.67
-27.58
-25.72
-24.18
-22.78
-21.22
-19.04
-15.92
-11.76
-6.76
-1.34
4.01
8.88
12.97
16.14
18.32
19.44
19.48
18.44
16.38
13.49
10.03
6.3
2.65
-0.68
-3.51
-5.8
-7.62
-9.03
-10.09
-10.73
-10.91
-10.58
-9.81
-8.81
-7.78
-6.89
-6.13
-5.46
-4.85
-4.43
-4.41
-5.04
-6.38
-8.26
-10.38
-12.34
-13.81
-14.52
-14.21
-12.63
-9.63
-5.23
0.3
6.33
12.1
16.88
20.15
21.75
21.76
20.43
18.02
14.75
10.72
6.09
1.08
-3.94
-8.48
-12.06
-14.35
-15.26
-14.96
-13.81
-12.25
-10.64
-9.26
-8.29
-7.81
-7.83
-8.34
-9.27
-10.56
-12.09
-13.75
-15.46
-17.17
-18.86
-20.57
-22.31
-24.1
-25.9
-27.61
-29.07
-30.03
-30.21
-29.31
-27.17
-23.8
-19.46
-14.65
-9.93
-5.79
-2.49
-0.06
1.73
3.15
4.43
5.73
7.04
8.3
9.38
10.2
10.7
10.93
11.03
11.13
11.31
11.56
11.79
11.89
11.82
11.61
11.33
11
10.54
9.82
8.71
7.23
5.51
3.83
2.45
1.52
1.03
0.88
0.92
1.04
1.17
1.24
1.15
0.7
-0.27
-1.75
-3.47
-4.78
-4.89
-3
1.35
8.21
17.11
27.25
37.65
47.33
55.5
61.63
65.57
67.47
67.77
66.94
65.37
63.18
60.26
56.36
51.3
45.2
38.49
31.94
26.31
22.14
19.52
18.12
17.32
16.61
15.78
15.06
14.93
15.91
18.31
22.17
27.21
32.9
38.46
42.91
45.19
44.48
40.49
33.72
25.37
16.94
9.67
4.07
-0.23
-4.2
-9.04
-15.59
-24.12
-34.28
-45.27
-56.09
-65.71
-73.21
-77.89
-79.49
-78.17
-74.62
-69.86
-64.93
-60.62
-57.19
-54.43
-51.75
-48.58
-44.59
-39.87
-34.84
-30.01
-25.82
-22.38
-19.59
-17.17
-14.89
-12.63
-10.35
-8.2
-6.36
-5.04
-4.42
-4.55
-5.31
-6.38
-7.36
-7.89
-7.85
-7.35
-6.75
-6.3
-6.11
-6.01
-5.81
-5.46
-5.17
-5.37
-6.39
-8.31
-10.85
-13.45
-15.62
-17.17
-18.31
-19.49
-21.18
-23.61
-26.69
-30.1
-33.32
-35.8
-37.05
-36.66
-34.41
-30.42
-25.08
-19.04
-12.97
-7.41
-2.59
1.47
4.9
7.76
9.98
11.43
12.07
12.05
11.74
11.61
12.02
13.01
14.29
15.35
15.73
15.21
13.96
12.37
10.88
9.74
8.87
7.99
6.79
5.14
3.22
1.43
0.25
0.15
1.42
4.24
8.55
14
19.85
25.11
28.79
30.32
29.87
28.3
26.82
26.42
27.49
29.64
32.11
34.16
35.48
36.31
37.17
38.62
40.87
43.64
46.17
47.49
46.64
43.08
36.97
29.16
21.06
14.12
9.36
7.05
6.69
7.3
7.83
7.49
5.87
2.96
-1.02
-5.65
-10.41
-14.74
-18.14
-20.3
-21.13
-20.83
-19.75
-18.32
-16.9
-15.71
-14.83
-14.27
-14.05
-14.11
-14.48
-15.11
-15.95
-16.93
-17.96
-18.91
-19.7
-20.23
-20.5
-20.56
-20.47
-20.3
-20.03
-19.6
-18.92
-17.9
-16.58
-15.04
-13.5
-12.12
-10.93
-9.78
-8.37
-6.27
-3.13
1.29
6.98
13.71
21.04
28.43
35.26
40.97
45.16
47.65
48.61
48.43
47.64
46.68
45.8
44.97
44.05
42.86
41.36
39.65
37.92
36.35
35.03
33.97
33.12
32.5
32.22
32.46
33.39
35.14
37.59
40.38
43
44.85
45.43
44.46
41.86
37.74
32.32
25.89
18.85
11.61
4.57
-1.99
-7.9
-13.06
-17.4
-20.73
-22.83
-23.52
-22.82
-21.05
-18.76
-16.5
-14.63
-13.21
-12.01
-10.72
-9.07
-6.97
-4.48
-1.73
1.2
4.3
7.55
10.87
13.92
16.19
17.07
16.05
12.99
8.13
2.04
-4.52
-10.83
-16.32
-20.62
-23.47
-24.8
-24.7
-23.55
-21.99
-20.8
-20.61
-21.66
-23.69
-26.08
-28.12
-29.35
-29.61
-29.12
-28.23
-27.25
-26.38
-25.67
-25.08
-24.56
-24.05
-23.37
-22.28
-20.57
-18.12
-15.04
-11.57
-7.83
-3.56
2.03
10.06
21.37
35.93
52.49
68.8
82.33
91.11
94.3
92.31
86.42
78.29
69.51
61.44
55.11
51.19
49.94
51.15
54.2
58.19
62.1
64.98
65.98
64.39
59.72
51.83
40.99
27.87
13.47
-1.08
-14.74
-26.68
-36.41
-43.82
-49.05
-52.44
-54.3
-54.88
-54.38
-53.01
-51.09
-49.11
-47.57
-46.83
-46.95
-47.66
-48.5
-49.09
-49.27
-49.2
-49.24
-49.67
-50.49
-51.27
-51.35
-50.05
-47.03
-42.41
-36.71
-30.7
-25.09
-20.34
-16.64
-13.92
-11.94
-10.43
-9.16
-8.04
-7.15
-6.74
-7.08
-8.34
-10.38
-12.79
-14.97
-16.42
-16.95
-16.74
-16.26
-15.99
-16.19
-16.71
-17.03
-16.47
-14.51
-10.93
-5.91
0.13
6.73
13.55
20.44
27.24
33.67
39.31
43.74
46.68
47.97
47.38
44.53
39.04
30.85
20.7
10.12
1
-5.2
-8.18
-8.91
-9.08
-10.15
-12.66
-16.16
-19.62
-22.18
-23.45
-23.53
-22.64
-20.93
-18.42
-15.12
-11.05
-6.19
-0.38
6.63
14.92
24.12
33.29
41.22
46.9
49.94
50.7
49.87
48.13
45.76
42.72
38.91
34.41
29.52
24.57
19.53
13.94
7
-2.04
-13.46
-26.77
-40.75
-53.75
-64.2
-71.17
-74.69
-75.61
-75.26
-74.8
-74.8
-75.12
-75.22
-74.46
-72.51
-69.4
-65.4
-60.8
-55.79
-50.45
-44.85
-39.09
-33.3
-27.6
-22.03
-16.56
-11.14
-5.75
-0.51
4.34
8.51
11.75
13.95
15.23
15.89
16.22
16.4
16.37
15.91
14.81
13.03
10.81
8.58
6.68
5.2
3.93
2.54
0.76
-1.39
-3.63
-5.52
-6.69
-6.85
-5.96
-4.11
-1.54
1.35
4.05
5.99
6.72
6.05
4.14
1.47
-1.29
-3.59
-5.17
-6.08
-6.71
-7.46
-8.6
-10.13
-11.82
-13.31
-14.3
-14.62
-14.25
-13.22
-11.63
-9.56
-7.24
-5.03
-3.35
-2.54
-2.74
-3.77
-5.23
-6.64
-7.63
-8.03
-7.93
-7.51
-6.98
-6.51
-6.21
-6.13
-6.26
-6.55
-6.9
-7.23
-7.56
-8
-8.77
-10.05
-11.81
-13.75
-15.26
-15.66
-14.4
-11.33
-6.68
-1.04
4.86
10.31
14.85
18.25
20.55
21.99
22.85
23.42
23.86
24.24
24.47
24.46
24.04
23.09
21.49
19.19
16.27
13.05
10.01
7.64
6.31
6.05
6.64
7.69
8.85
9.87
10.61
10.98
10.88
10.23
9
7.26
5.19
3.01
0.91
-1.05
-2.85
-4.53
-6.09
-7.53
-8.83
-9.96
-10.91
-11.64
-12.11
-12.22
-11.85
-10.79
-8.9
-6.17
-2.82
0.73
3.95
6.41
7.99
8.85
9.37
9.92
10.68
11.61
12.54
13.33
13.93
14.44
14.96
15.46
15.84
15.93
15.63
15
14.23
13.59
13.28
13.36
13.72
14.17
14.51
14.56
14.25
13.6
12.72
11.7
10.61
9.47
8.26
6.96
5.59
4.21
2.87
1.6
0.39
-0.81
-2.03
-3.23
-4.36
-5.41
-6.43
-7.58
-9.06
-10.96
-13.14
-15.23
-16.68
-17.03
-16.01
-13.68
-10.43
-6.75
-3.13
0.11
2.85
5.11
7
8.61
10.04
11.35
12.58
13.72
14.72
15.51
16
16.1
15.76
15.02
13.99
12.91
12.03
11.52
11.44
11.68
12
12.19
12.11
11.73
11.15
10.45
9.72
8.92
8.02
6.99
5.86
4.74
3.71
2.83
2.07
1.33
0.47
-0.6
-1.92
-3.39
-4.88
-6.16
-7.08
-7.61
-7.79
-7.8
-7.86
-8.18
-8.89
-10.05
-11.51
-13
-14.09
-14.35
-13.41
-11.09
-7.53
-3.15
1.49
5.78
9.31
11.95
13.85
15.32
16.71
18.26
20.05
21.95
23.79
25.33
26.47
27.24
27.78
28.33
29.11
30.23
31.67
33.22
34.66
35.84
36.77
37.64
38.81
40.68
43.57
47.54
52.23
56.93
60.77
63.08
63.65
62.92
61.76
61.24
62.11
64.53
68.04
71.77
74.81
76.57
76.94
76.3
75.32
74.78
75.29
77.21
80.48
84.7
89.16
92.98
95.32
95.55
93.45
89.14
83.04
75.64
67.39
58.67
49.77
40.88
32.16
23.63
15.21
6.74
-1.92
-10.87
-20.03
-29.27
-38.42
-47.31
-55.77
-63.56
-70.31
-75.6
-78.95
-80.01
-78.67
-75.16
-70.08
-64.13
-57.86
-51.41
-44.47
-36.59
-27.48
-17.37
-7.03
2.52
10.41
16.22
20
22.02
22.44
21.17
18.02
12.94
6.24
-1.36
-9.07
-16.32
-22.95
-29.12
-35.07
-40.74
-45.83
-49.81
-52.27
-53.03
-52.08
-49.55
-45.65
-40.78
-35.7
-31.55
-29.42
-29.91
-32.75
-36.82
-40.6
-42.87
-43.13
-41.69
-39.26
-36.54
-34
-31.84
-30.17
-29.13
-28.8
-29.14
-29.9
-30.76
-31.46
-31.91
-32.14
-32.12
-31.74
-30.87
-29.52
-27.98
-26.71
-26.06
-26.13
-26.7
-27.33
-27.74
-27.86
-27.91
-28.09
-28.43
-28.64
-28.25
-26.81
-24.08
-20.14
-15.37
-10.27
-5.45
-1.53
0.96
1.71
0.72
-1.59
-4.54
-7.38
-9.57
-11
-11.92
-12.84
-14.2
-16.18
-18.58
-21.02
-23.06
-24.48
-25.33
-25.87
-26.41
-27.12
-28.01
-28.93
-29.75
-30.37
-30.83
-31.19
-31.57
-32.06
-32.7
-33.51
-34.36
-35.03
-35.17
-34.44
-32.55
-29.42
-25.22
-20.26
-14.95
-9.7
-4.87
-0.72
2.58
5.03
6.8
8.19
9.57
11.19
13.14
15.28
17.35
19.12
20.46
21.39
21.99
22.33
22.36
21.93
20.92
19.28
17.04
14.37
11.39
8.21
4.91
1.56
-1.67
-4.62
-7.19
-9.4
-11.44
-13.55
-15.88
-18.33
-20.58
-22.11
-22.43
-21.26
-18.64
-14.88
-10.49
-5.98
-1.73
2.07
5.43
8.51
11.44
14.28
16.96
19.3
21.19
22.65
23.78
24.75
25.62
26.24
26.39
25.92
24.9
23.55
22.16
20.77
19.12
16.78
13.43
9.14
4.36
-0.33
-4.52
-8.25
-11.88
-15.81
-20.16
-24.64
-28.7
-31.85
-33.94
-35.18
-36
-36.73
-37.41
-37.81
-37.54
-36.3
-33.93
-30.54
-26.38
-21.83
-17.28
-13.03
-9.21
-5.8
-2.65
0.41
3.43
6.32
8.92
11.09
12.77
13.99
14.78
15.12
14.94
14.24
13.13
11.82
10.52
9.31
8.12
6.79
5.17
3.23
1.02
-1.34
-3.73
-5.98
-7.86
-9.16
-9.69
-9.53
-8.96
-8.45
-8.36
-8.88
-9.89
-11.15
-12.46
-13.81
-15.37
-17.31
-19.62
-22.02
-23.99
-25.02
-24.7
-22.93
-19.84
-15.76
-11.12
-6.28
-1.53
2.96
7.09
10.83
14.14
17.02
19.49
21.64
23.61
25.55
27.53
29.48
31.2
32.45
33.07
33.11
32.76
32.27
31.77
31.25
30.45
29.09
26.96
24.02
20.42
16.34
11.94
7.28
2.42
-2.53
-7.33
-11.75
-15.67
