1.69
-0.67
-3.7
-7.27
-11.07
-14.6
-17.22
-18.29
-17.39
-14.47
-9.95
-4.62
0.65
5.12
8.44
10.58
11.7
12.04
11.73
10.82
9.35
7.46
5.39
3.43
1.85
0.73
-0.03
-0.76
-1.77
-3.2
-5.01
-6.96
-8.84
-10.6
-12.37
-14.27
-16.25
-17.86
-18.42
-17.28
-14.21
-9.51
-3.98
1.48
6.16
9.71
12.13
13.57
14.22
14.2
13.59
12.51
11.12
9.6
8.14
6.86
5.85
5.11
4.56
4.06
3.4
2.42
1
-0.9
-3.26
-6.03
-9.11
-12.17
-14.73
-16.12
-15.75
-13.33
-9.12
-3.86
1.51
6.12
9.53
11.69
12.89
13.4
13.36
12.77
11.54
9.7
7.45
5.11
3.05
1.53
0.56
0.04
-0.3
-0.74
-1.52
-2.87
-4.95
-7.76
-11.11
-14.55
-17.4
-18.95
-18.71
-16.58
-12.9
-8.33
-3.62
0.59
3.95
6.33
7.81
8.54
8.72
8.5
8.01
7.33
6.5
5.57
4.59
3.67
2.88
2.24
1.7
1.19
0.66
0.11
-0.49
-1.24
-2.4
-4.17
-6.59
-9.32
-11.65
-12.69
-11.74
-8.62
-3.69
2.16
7.94
12.81
16.28
18.25
18.88
18.47
17.33
15.75
13.9
11.9
9.78
7.54
5.17
2.73
0.38
-1.7
-3.28
-4.27
-4.72
-4.88
-5.09
-5.74
-7.15
-9.45
-12.55
-16.16
-19.73
-22.57
-23.97
-23.4
-20.69
-16.14
-10.54
-4.82
0.15
3.84
6.16
7.32
7.65
7.41
6.75
5.73
4.37
2.76
1.03
-0.59
-1.94
-2.89
-3.42
-3.55
-3.34
-2.91
-2.34
-1.77
-1.34
-1.27
-1.79
-3.05
-5.01
-7.28
-9.2
-9.97
-8.95
-5.98
-1.5
3.59
8.24
11.72
13.73
14.51
14.53
14.24
13.81
13.27
12.57
11.72
10.83
9.99
9.23
8.53
7.81
7.07
6.32
5.57
4.77
3.8
2.55
0.97
-0.92
-3.03
-5.2
-7.2
-8.72
-9.36
-8.76
-6.71
-3.3
1.01
5.56
9.66
12.79
14.76
15.66
15.78
15.41
14.68
13.56
11.89
9.59
6.76
3.72
0.9
-1.3
-2.75
-3.59
-4.15
-4.78
-5.73
-7.05
-8.74
-10.75
-13.02
-15.4
-17.55
-18.88
-18.79
-16.84
-13.06
-8
-2.57
2.29
5.97
8.35
9.72
10.52
11.03
11.23
10.89
9.72
7.65
4.88
1.81
-1.08
-3.45
-5.09
-6.05
-6.51
-6.81
-7.34
-8.48
-10.48
-13.28
-16.43
-19.17
-20.64
-20.14
-17.5
-13.07
-7.66
-2.27
2.3
5.58
7.56
8.41
8.48
7.98
7.03
5.68
3.92
1.84
-0.43
-2.7
-4.77
-6.51
-7.92
-9.08
-10.19
-11.42
-12.93
-14.82
-17.1
-19.62
-22.06
-23.87
-24.49
-23.4
-20.4
-15.73
-10.04
-4.17
1.12
5.32
8.25
9.98
10.68
10.49
9.48
7.73
5.36
2.6
-0.21
-2.72
-4.66
-5.89
-6.5
-6.69
-6.75
-7.04
-7.86
-9.47
-11.9
-14.89
-17.86
-20.01
-20.54
-18.9
-15.06
-9.51
-3.11
3.18
8.56
12.61
15.23
16.62
17.04
16.74
15.88
14.5
12.61
10.26
7.65
5.05
2.82
1.16
0.05
-0.75
-1.63
-2.91
-4.79
-7.25
-10.14
-13.16
-15.79
-17.43
-17.42
-15.3
-11.08
-5.27
1.27
7.58
12.96
17.07
19.87
21.46
21.92
21.29
19.68
17.3
14.5
11.63
9
6.73
4.81
3.13
1.55
-0.08
-1.87
-3.94
-6.39
-9.28
-12.49
-15.67
-18.24
-19.54
-19.02
-16.52
-12.36
-7.24
-1.97
2.82
6.77
9.8
11.94
13.12
13.24
12.23
10.18
7.4
4.4
1.67
-0.44
-1.84
-2.72
-3.44
-4.4
-5.85
-7.96
-10.68
-13.83
-17.07
-19.9
-21.78
-22.16
-20.71
-17.43
-12.7
-7.16
-1.46
3.87
8.59
12.57
15.74
17.94
18.95
18.61
17.03
14.55
11.78
9.3
7.55
6.68
6.52
6.69
6.7
6.06
4.43
1.69
-1.98
-6.02
-9.6
-11.85
-12.06
-9.94
-5.71
0
6.33
12.44
17.77
22
25.03
26.88
27.52
26.96
25.22
22.47
19.01
15.32
11.85
8.97
6.84
5.33
4.15
2.93
1.33
-0.91
-3.85
-7.32
-10.86
-13.77
-15.25
-14.68
-11.88
-7.2
-1.44
4.39
9.41
13.06
15.12
15.58
14.58
12.31
9.05
5.22
1.4
-1.86
-4.14
-5.31
-5.56
-5.33
-5.2
-5.66
-6.99
-9.3
-12.43
-16.06
-19.69
-22.71
-24.45
-24.32
-22.02
-17.66
-11.79
-5.25
1.11
6.63
10.99
14.15
16.16
17.08
16.93
15.8
13.93
11.74
9.63
7.95
6.79
6.11
5.67
5.14
4.17
2.41
-0.32
-3.96
-8.11
-12.04
-14.88
-15.91
-14.81
-11.79
-7.51
-2.78
1.65
5.34
8.1
10.01
11.18
11.66
11.45
10.51
8.85
6.68
4.33
2.17
0.5
-0.52
-1
-1.18
-1.42
-2.07
-3.35
-5.29
-7.7
-10.1
-11.87
-12.34
-11.01
-7.79
-3.04
2.49
7.93
12.55
15.9
17.89
18.62
18.31
17.19
15.46
13.37
11.22
9.31
7.88
7.08
6.83
6.95
7.12
6.94
6.12
4.46
1.99
-0.99
-3.94
-6.18
-7.13
-6.45
-4.2
-0.81
3.06
6.77
9.8
11.93
13.12
13.42
12.85
11.4
9.11
6.2
3.09
0.35
-1.61
-2.62
-2.89
-2.91
-3.21
-4.21
-6.08
-8.79
-12.12
-15.74
-19.16
-21.78
-22.99
-22.34
-19.73
-15.48
-10.25
-4.77
0.37
4.84
8.48
11.18
12.82
13.24
12.41
10.49
7.87
5.03
2.44
0.4
-1.06
-2.1
-3.03
-4.18
-5.75
-7.84
-10.28
-12.73
-14.7
-15.68
-15.28
-13.36
-10.08
-5.86
-1.24
3.24
7.23
10.52
13.01
14.63
15.26
14.8
13.29
10.99
8.39
6.04
4.33
3.41
3.18
3.35
3.64
3.72
3.3
2.07
-0.17
-3.34
-6.99
-10.26
-12.19
-12.06
-9.77
-5.91
-1.54
2.29
4.89
6.14
6.34
5.85
4.92
3.57
1.76
-0.36
-2.48
-4.12
-4.97
-5.01
-4.59
-4.22
-4.27
-4.86
-5.82
-6.89
-7.88
-8.67
-9.18
-9.16
-8.21
-5.95
-2.29
2.45
7.51
12.03
15.39
17.34
18.07
17.92
17.13
15.78
13.81
11.24
8.26
5.23
2.51
0.35
-1.21
-2.3
-3.14
-3.91
-4.71
-5.58
-6.39
-6.91
-6.8
-5.67
-3.32
0.23
4.6
9.19
13.41
16.77
19.01
20.09
20.05
18.92
16.73
13.59
9.79
5.77
2.05
-0.94
-3.06
-4.42
-5.35
-6.21
-7.33
-8.88
-10.89
-13.28
-15.82
-18.11
-19.62
-19.81
-18.32
-15.13
-10.67
-5.65
-0.9
2.93
5.53
6.88
7.2
6.76
5.74
4.27
2.45
0.41
-1.61
-3.35
-4.6
-5.31
-5.69
-6.1
-6.99
-8.63
-11.06
-13.96
-16.79
-18.92
-19.83
-19.23
-17.13
-13.83
-9.75
-5.42
-1.25
2.44
5.46
7.7
9.04
9.39
8.68
7
4.61
1.9
-0.69
-2.82
-4.27
-5.06
-5.35
-5.46
-5.76
-6.54
-7.92
-9.7
-11.39
-12.3
-11.81
-9.62
-5.89
-1.2
3.63
7.88
11.11
13.22
14.4
14.87
14.82
14.28
13.19
11.52
9.37
6.97
4.65
2.76
1.51
0.92
0.77
0.63
0.07
-1.21
-3.24
-5.68
-7.96
-9.41
-9.49
-7.96
-4.94
-0.87
3.61
7.9
11.56
14.37
16.3
17.36
17.53
16.76
15.02
12.44
9.35
6.24
3.58
1.65
0.43
-0.32
-0.94
-1.73
-2.9
-4.56
-6.74
-9.31
-11.97
-14.17
-15.27
-14.75
-12.45
-8.66
-4.09
0.45
4.27
7.08
8.84
9.72
9.88
9.36
8.19
6.41
4.22
1.9
-0.22
-1.89
-3.03
-3.72
-4.22
-4.81
-5.77
-7.29
-9.43
-12.06
-14.9
-17.45
-19.13
-19.32
-17.66
-14.2
-9.43
-4.18
0.61
4.23
6.37
7.14
6.88
5.97
4.7
3.23
1.66
0.09
-1.28
-2.28
-2.83
-2.96
-2.84
-2.74
-2.89
-3.39
-4.24
-5.33
-6.53
-7.68
-8.58
-8.97
-8.54
-7.02
-4.32
-0.6
3.69
7.95
11.6
14.23
15.69
16.02
15.42
14.09
12.2
9.92
7.43
4.95
2.73
0.95
-0.29
-1.04
-1.46
-1.8
-2.3
-3.13
-4.46
-6.31
-8.55
-10.79
-12.37
-12.59
-10.97
-7.5
-2.76
2.32
6.77
9.94
11.71
12.33
12.16
11.43
10.15
8.28
5.83
3.01
0.16
-2.34
-4.23
-5.45
-6.15
-6.63
-7.24
-8.31
-10
-12.34
-15.17
-18.05
-20.42
-21.62
-21.13
-18.73
-14.62
-9.38
-3.86
1.18
5.18
7.97
9.61
10.3
10.18
9.38
8.01
6.26
4.42
2.76
1.42
0.42
-0.35
-1.04
-1.77
-2.62
-3.68
-5.1
-7.06
-9.64
-12.68
-15.69
-17.95
-18.72
-17.52
-14.32
-9.58
-4.04
1.52
6.47
10.52
13.57
15.69
16.94
17.31
16.77
15.39
13.38
11.04
8.66
6.5
4.65
3.11
1.76
0.46
-0.93
-2.55
-4.52
-6.96
-9.88
-13.1
-16.19
-18.51
-19.32
-18.05
-14.53
-9.08
-2.5
4.18
9.92
14.01
16.16
16.49
15.45
13.55
11.24
8.87
6.62
4.58
2.77
1.18
-0.23
-1.5
-2.73
-3.95
-5.22
-6.58
-8.13
-10.02
-12.44
-15.43
-18.76
-21.78
-23.58
-23.28
-20.43
-15.21
-8.4
-1.15
5.46
10.72
14.32
16.35
17.04
16.65
15.38
13.44
11.08
8.58
6.21
4.19
2.56
1.23
-0.03
-1.45
-3.19
-5.29
-7.76
-10.57
-13.7
-17
-20.08
-22.27
-22.77
-20.96
-16.69
-10.46
-3.29
3.62
9.35
13.46
16.02
17.36
17.82
17.59
16.65
14.93
12.46
9.44
6.24
3.24
0.74
-1.27
-3
-4.8
-6.99
-9.71
-12.95
-16.57
-20.31
-23.77
-26.39
-27.49
-26.46
-22.96
-17.16
-9.71
-1.56
6.28
13.04
18.25
21.7
23.37
23.33
21.79
19.08
15.63
11.93
8.38
5.25
2.61
0.42
-1.49
-3.24
-4.98
-6.85
-9.04
-11.76
-15.16
-19.13
-23.13
-26.29
-27.5
-25.9
-21.23
-14.01
-5.4
3.26
10.82
16.69
20.8
23.35
24.64
24.78
23.84
21.87
19.07
15.81
12.53
9.55
7.01
4.8
2.71
0.57
-1.69
-4.09
-6.67
-9.62
-13.13
-17.24
-21.59
-25.38
-27.45
-26.76
-22.77
-15.73
-6.63
3.12
12.15
19.48
24.62
27.52
28.44
27.81
26.06
23.64
20.9
18.08
15.35
12.79
10.44
8.29
6.3
4.39
2.46
0.42
-1.87
-4.54
-7.76
-11.69
-16.29
-21.15
-25.46
-28.07
-27.92
-24.38
-17.59
-8.44
1.7
11.33
19.28
24.88
28
28.94
28.19
26.28
23.64
20.54
17.15
13.6
10.05
6.68
3.63
0.97
-1.41
-3.66
-5.96
-8.44
-11.22
-14.4
-18.11
-22.31
-26.65
-30.33
-32.27
-31.41
-27.17
-19.76
-10.15
0.19
9.78
17.58
23.14
26.48
27.89
27.69
26.11
23.39
19.79
15.68
11.47
7.54
4.15
1.39
-0.81
-2.61
-4.28
-6.08
-8.33
-11.29
-15.14
-19.72
-24.52
-28.6
-30.78
-30.01
-25.74
-18.24
-8.53
1.85
11.35
18.84
23.87
26.6
27.53
27.15
25.83
23.69
20.85
17.4
13.63
9.87
6.43
3.5
1.05
-1.05
-3.02
-5.03
-7.23
-9.85
-13.16
-17.32
-22.17
-27.03
-30.68
-31.75
-29.22
-22.88
-13.55
-2.77
7.71
16.53
23.01
27.09
29.11
29.45
28.39
26.1
22.78
18.74
14.4
10.18
6.38
3.14
0.42
-1.96
-4.18
-6.39
-8.75
-11.43
-14.64
-18.47
-22.73
-26.73
-29.39
-29.49
-26.14
-19.26
-9.78
0.69
10.32
17.73
22.37
24.46
24.66
23.63
21.76
19.26
16.24
12.95
9.73
6.92
4.69
3
1.61
0.32
-1.03
-2.46
-4.03
-5.9
-8.31
-11.39
-14.93
-18.26
-20.32
-19.99
-16.55
-9.99
-1.05
8.93
18.46
26.32
31.78
34.66
35.21
33.88
31.16
27.56
23.49
19.37
15.5
12.06
9.08
6.5
4.1
1.71
-0.78
-3.41
-6.25
-9.41
-13.08
-17.29
-21.74
-25.66
-27.89
-27.3
-23.23
-15.82
-6.12
4.29
13.83
21.39
26.51
29.36
30.38
30.04
28.63
26.33
23.27
19.66
15.8
11.99
8.46
5.26
2.28
-0.61
-3.55
-6.52
-9.38
-12.02
-14.41
-16.73
-19.27
-22.14
-25.08
-27.29
-27.68
-25.25
-19.63
-11.27
-1.38
8.54
17.14
23.59
27.61
29.35
29.16
27.48
24.78
21.56
18.27
15.24
12.59
10.26
8.07
5.83
3.42
0.85
-1.77
-4.29
-6.58
-8.61
-10.5
-12.52
-14.98
-18.11
-21.76
-25.44
-28.22
-29.13
-27.39
-22.75
-15.64
-6.99
2.01
10.34
17.27
22.51
26
27.83
28.08
26.88
24.48
21.28
17.79
14.44
11.47
8.87
6.49
4.15
1.79
-0.51
-2.61
-4.39
-5.9
-7.28
-8.78
-10.66
-13.2
-16.55
-20.65
-25.01
-28.73
-30.59
-29.5
-24.93
-17.22
-7.51
2.56
11.47
18.18
22.37
24.27
24.42
23.39
21.61
19.31
16.63
13.69
10.63
7.66
4.96
2.64
0.67
-1.07
-2.78
-4.6
-6.58
-8.69
-10.94
-13.47
-16.48
-20.03
-23.82
-27.04
-28.58
-27.34
-22.77
-15.17
-5.66
4.14
12.68
18.93
22.59
24.02
23.89
22.84
21.27
19.27
16.83
13.87
10.43
6.66
2.79
-0.99
-4.44
-7.42
-9.84
-11.67
-13.02
-14.19
-15.65
-17.86
-21.12
-25.21
-29.32
-32.2
-32.48
-29.28
-22.52
-13.09
-2.51
7.53
15.72
21.38
24.46
25.36
24.62
22.77
20.25
17.47
14.76
12.35
10.32
8.56
6.84
4.88
2.52
-0.2
-3.07
-5.86
-8.37
-10.6
-12.82
-15.36
-18.51
-22.19
-25.84
-28.56
-29.29
-27.24
-22.22
-14.7
-5.78
3.22
11.11
17.11
20.93
22.68
22.77
21.61
19.64
17.24
14.74
12.38
10.29
8.4
6.57
4.59
2.36
-0.03
-2.38
-4.43
-6.03
-7.24
-8.33
-9.66
-11.59
-14.24
-17.39
-20.42
-22.38
-22.3
-19.51
-13.94
-6.23
2.46
10.87
17.91
22.96
25.85
26.71
25.82
23.59
20.52
17.23
14.29
12.05
10.52
9.37
8.14
6.43
4.16
1.48
-1.22
-3.64
-5.57
-7.02
-8.09
-8.97
-9.95
-11.35
-13.48
-16.45
-19.93
-23.1
-24.75
-23.71
-19.39
-12.11
-2.98
6.41
14.66
20.94
25.15
27.59
28.6
28.32
26.71
23.78
19.88
15.71
12.06
9.48
8.02
7.21
6.39
4.99
2.88
0.32
-2.2
-4.27
-5.76
-6.84
-7.84
-9.14
-10.99
-13.54
-16.79
-20.6
-24.59
-28.11
-30.31
-30.33
-27.64
-22.23
-14.69
-6.06
2.55
10.19
16.28
20.53
22.83
23.25
22.01
19.52
16.35
13.15
10.41
8.25
6.53
4.87
3.03
0.96
-1.16
-3.08
-4.62
-5.8
-6.79
-7.83
-9.17
-10.97
-13.4
-16.57
-20.39
-24.42
-27.78
-29.32
-27.96
-23.24
-15.51
-6
3.65
11.92
17.87
21.3
22.54
22.18
20.7
18.46
15.7
12.67
9.64
6.85
4.37
2.19
0.18
-1.75
-3.59
-5.28
-6.74
-8.01
-9.22
-10.59
-12.39
-14.84
-18.04
-21.86
-25.8
-28.97
-30.33
-28.98
-24.57
-17.45
-8.65
0.53
8.88
15.56
20.22
22.85
23.63
22.85
20.86
18.12
15.12
12.27
9.74
7.5
5.4
3.36
1.39
-0.37
-1.82
-2.93
-3.83
-4.72
-5.83
-7.35
-9.52
-12.5
-16.36
-20.87
-25.35
-28.72
-29.78
-27.67
-22.26
-14.24
-4.91
4.29
12.24
18.41
22.75
25.48
26.81
26.85
25.67
23.47
20.64
17.69
15.08
13.04
11.48
10.11
8.6
6.76
4.65
2.48
0.49
-1.14
-2.41
-3.52
-4.71
-6.3
-8.55
-11.61
-15.52
-20.09
-24.86
-29.05
-31.69
-31.85
-28.93
-22.94
-14.55
-4.87
4.78
13.3
19.98
24.61
27.3
28.35
28.08
26.85
24.98
22.82
20.67
18.69
16.9
15.21
13.48
11.69
10
8.63
7.76
7.37
7.15
6.62
5.37
3.21
0.3
-2.98
-6.2
-9.07
-11.48
-13.59
-15.67
-18.1
-21.2
-25.06
-29.37
-33.29
-35.63
-35.23
-31.4
-24.26
-14.73
-4.26
5.71
14.11
20.41
24.57
26.78
27.39
26.77
25.32
23.43
21.46
19.69
18.27
17.23
16.5
15.98
15.54
15.07
14.5
13.8
12.97
12.05
11.05
9.98
8.85
7.61
6.19
4.5
2.44
0
-2.71
-5.45
-7.98
-10.12
-11.83
-13.28
-14.67
-16.2
-17.97
-20.09
-22.64
-25.78
-29.56
-33.72
-37.57
-39.98
-39.77
-36.15
-29.08
-19.42
-8.65
1.59
10.01
15.94
19.38
20.76
20.66
19.63
18.07
16.27
14.44
12.77
11.35
10.23
9.38
8.69
8.05
7.37
6.6
5.74
4.85
3.91
2.87
1.65
0.15
-1.62
-3.63
-5.82
-8.1
-10.49
-13.08
-16
-19.38
-23.19
-27.08
-30.42
-32.26
-31.74
-28.27
-21.94
-13.46
-4.15
4.64
11.81
16.87
19.92
21.43
21.93
21.74
21
19.69
17.87
15.71
13.47
11.41
9.71
8.4
7.43
6.73
6.18
5.64
4.89
3.75
2.12
0.04
-2.34
-4.76
-7.04
-9.05
-10.79
-12.39
-14.02
-15.93
-18.39
-21.49
-25
-28.25
-30.2
-29.78
-26.31
-19.82
-11.11
-1.54
7.49
14.87
20.1
23.19
24.53
24.56
23.68
22.16
20.25
18.21
16.31
14.8
13.83
13.4
13.33
13.37
13.24
12.75
11.9
10.8
9.67
8.64
7.72
6.79
5.64
4.1
2.08
-0.28
-2.74
-5.06
-7.07
-8.81
-10.48
-12.3
-14.49
-17.18
-20.42
-24.23
-28.49
-32.91
-36.82
-39.27
-39.26
-36.15
-29.91
-21.29
-11.59
-2.22
5.77
11.89
16.16
18.92
20.59
21.47
21.72
21.49
20.9
20.05
19.07
18.03
17
16.03
15.12
14.35
13.72
13.25
12.9
12.53
11.98
11.1
9.84
8.27
6.58
4.98
3.6
2.44
1.35
0.12
-1.46
-3.47
-5.86
-8.42
-10.94
-13.2
-15.13
-16.8
-18.39
-20.24
-22.6
-25.63
-29.13
-32.53
-34.88
-35.15
-32.59
-27.03
-19.02
-9.66
-0.28
8.04
14.62
19.25
22.01
23.14
22.95
21.79
20.09
18.3
16.72
15.45
14.41
13.48
12.59
11.89
11.52
11.53
11.81
12.07
11.98
11.32
10.11
8.5
6.68
4.8
2.92
1.09
-0.68
-2.34
-3.87
-5.29
-6.73
-8.33
-10.2
-12.37
-14.71
-17.04
-19.11
-20.86
-22.41
-24.11
-26.38
-29.43
-33.04
-36.41
-38.42
-37.95
-34.38
-27.83
-19.14
-9.59
-0.48
7.2
12.97
16.75
18.8
19.47
19.12
18.06
16.57
14.87
13.16
11.55
10.11
8.88
7.84
7.03
6.44
6.05
5.77
5.44
4.85
3.81
2.23
0.15
-2.3
-4.91
-7.53
-10.05
-12.41
-14.65
-16.86
-19.29
-22.16
-25.58
-29.37
-32.9
-35.18
-35.18
-32.18
-26.13
-17.75
-8.29
0.87
8.67
14.59
18.68
21.25
22.65
23.12
22.72
21.51
19.64
17.35
14.94
12.7
10.79
9.24
8.05
7.2
6.63
6.27
5.96
5.52
4.75
3.53
1.85
-0.22
-2.56
-5.04
-7.55
-10.05
-12.54
-15.15
-18.15
-21.8
-26.17
-30.87
-35
-37.3
-36.68
-32.6
-25.38
-16.08
-6.1
3.34
11.4
17.74
22.36
25.32
26.78
26.92
26.04
24.54
22.82
21.17
19.76
18.63
17.73
16.98
16.33
15.73
15.19
14.68
14.25
13.89
13.55
13.12
12.45
11.43
9.98
8.19
6.21
4.26
2.47
0.89
-0.68
-2.49
-4.84
-7.76
-11.03
-14.2
-16.81
-18.63
-19.77
-20.72
-22.15
-24.68
-28.57
-33.52
-38.65
-42.62
-44.04
-41.94
-36.07
-27.08
-16.31
-5.32
4.55
12.52
18.4
22.4
24.8
25.83
25.69
24.61
22.95
21.21
19.79
18.96
18.71
18.85
19.14
19.37
19.45
19.41
19.3
19.15
18.91
18.46
17.65
16.37
14.57
12.39
10.07
7.92
6.14
4.64
3.13
1.18
-1.52
-4.93
-8.73
-12.42
-15.58
-18.08
-20.03
-21.69
-23.38
-25.36
-27.89
-31.17
-35.15
-39.32
-42.67
-43.85
-41.67
-35.66
-26.39
-15.3
-4.19
5.4
12.73
17.85
21.26
23.53
24.9
25.39
24.89
23.5
21.57
19.66
18.25
17.6
17.58
17.81
17.81
17.33
16.35
15.15
14.06
13.27
12.68
11.93
10.6
8.42
5.45
2.04
-1.29
-4.13
-6.32
-8
-9.52
-11.29
-13.66
-16.79
-20.77
-25.42
-30.32
-34.64
-37.28
-37.15
-33.55
-26.64
-17.38
-7.39
1.78
9.07
14.22
17.63
19.92
21.55
22.65
23.11
22.83
21.91
20.68
19.48
18.6
18.09
17.85
17.74
17.67
17.6
17.5
17.34
16.96
16.23
15.07
13.47
11.56
9.51
7.43
5.4
3.41
1.39
-0.79
-3.23
-5.98
-9.05
-12.34
-15.65
-18.77
-21.52
-23.91
-26.14
-28.59
-31.6
-35.19
-38.94
-41.86
-42.75
-40.58
-34.96
-26.4
-16.09
-5.58
3.82
11.34
16.83
20.56
22.95
24.33
24.9
24.83
24.29
23.51
22.72
22.08
21.61
21.23
20.82
20.32
19.78
19.35
19.13
19.09
19.03
18.63
17.62
15.93
13.7
11.25
8.88
6.74
4.77
2.81
0.7
-1.65
-4.11
-6.52
-8.72
-10.67
-12.5
-14.41
-16.61
-19.28
-22.46
-26.08
-29.85
-33.31
-35.81
-36.61
-35.05
-30.82
-24.08
-15.55
-6.33
2.42
9.78
15.24
18.78
20.73
21.57
21.74
21.55
21.18
20.7
20.19
19.77
19.52
19.54
19.77
20.03
20.15
20.05
19.81
19.63
19.67
19.85
19.85
19.27
17.82
15.5
12.65
9.7
6.97
4.51
2.11
-0.53
-3.53
-6.75
-9.87
-12.58
-14.73
-16.4
-17.83
-19.25
-20.86
-22.82
-25.28
-28.39
-32.1
-36.01
-39.29
-40.86
-39.76
-35.62
-28.79
-20.25
-11.24
-2.81
4.44
10.32
14.86
18.14
20.24
21.24
21.38
21.03
20.59
20.32
20.28
20.37
20.43
20.34
20.11
19.77
19.37
18.98
18.66
18.47
18.43
18.47
18.41
18.04
17.23
15.98
14.45
12.88
11.45
10.18
8.96
7.59
5.96
4.1
2.18
0.4
-1.1
-2.38
-3.61
-5.09
-7.01
-9.45
-12.22
-15
-17.44
-19.31
-20.59
-21.44
-22.09
-22.84
-23.93
-25.59
-27.99
-31.06
-34.38
-37.17
-38.41
-37.19
-33.07
-26.32
-17.83
-8.84
-0.51
6.37
11.5
14.93
16.89
17.67
17.55
16.82
15.79
14.83
14.2
14.04
14.32
14.87
15.47
15.94
16.27
16.5
16.78
17.15
17.58
17.91
17.94
17.53
16.62
15.28
13.67
11.98
10.33
8.75
7.2
5.6
3.91
2.14
0.4
-1.25
-2.76
-4.15
-5.53
-6.98
-8.56
-10.25
-11.96
-13.6
-15.12
-16.54
-17.93
-19.4
-21.07
-23.1
-25.58
-28.53
-31.7
-34.57
-36.33
-36.1
-33.28
-27.8
-20.26
-11.75
-3.54
3.39
8.52
11.87
13.74
14.52
14.54
14.04
13.2
12.24
11.39
10.82
10.62
10.77
11.19
11.77
12.37
12.87
13.13
13.04
12.59
11.8
10.74
9.47
7.99
6.26
4.33
2.27
0.24
-1.65
-3.38
-5.01
-6.67
-8.44
-10.27
-12.01
-13.56
-14.94
-16.31
-18
-20.32
-23.38
-26.98
-30.51
-33.07
-33.74
-31.87
-27.34
-20.69
-12.89
-5.09
1.74
7.08
10.87
13.35
14.89
15.8
16.27
16.39
16.27
16.03
15.79
15.64
15.57
15.48
15.3
15
14.67
14.41
14.28
14.2
13.98
13.41
12.36
10.86
9.1
7.34
5.8
4.53
3.46
2.38
1.04
-0.73
-2.97
-5.56
-8.26
-10.76
-12.85
-14.46
-15.71
-16.8
-18.04
-19.74
-22.17
-25.41
-29.24
-32.97
-35.63
-36.14
-33.8
-28.55
-21.07
-12.54
-4.27
2.74
8.04
11.66
13.99
15.43
16.33
16.84
17.05
17
16.78
16.5
16.28
16.2
16.24
16.32
16.3
16.13
15.87
15.69
15.75
16.09
16.55
16.83
16.61
15.76
14.39
12.79
11.19
9.67
8.08
6.22
3.98
1.5
-0.88
-2.85
-4.24
-5.18
-5.94
-6.84
-8.09
-9.69
-11.48
-13.29
-14.92
-16.27
-17.33
-18.23
-19.26
-20.84
-23.4
-27.07
-31.58
-36.03
-39.15
-39.74
-37.06
-31.21
-23.07
-14.01
-5.42
1.73
7.09
10.8
13.23
14.78
15.72
16.14
16.13
15.87
15.57
15.49
15.76
16.32
16.95
17.39
17.48
17.24
16.84
16.49
16.3
16.27
16.25
16.11
15.73
15.04
14.01
12.62
10.91
8.97
6.98
5.1
3.45
2.02
0.71
-0.62
-2.11
-3.8
-5.67
-7.65
-9.69
-11.73
-13.65
-15.39
-16.9
-18.24
-19.57
-21.14
-23.18
-25.79
-28.92
-32.15
-34.85
-36.18
-35.36
-31.93
-25.99
-18.19
-9.61
-1.43
5.44
10.54
13.9
15.83
16.7
16.8
16.33
15.43
14.29
13.1
12.03
11.21
10.67
10.37
10.26
10.27
10.31
10.32
10.25
10.07
9.77
9.33
8.67
7.73
6.43
4.85
3.1
1.31
-0.4
-2.05
-3.73
-5.56
-7.57
-9.68
-11.73
-13.6
-15.31
-17.05
-19.12
-21.8
-25.11
-28.71
-31.87
-33.66
-33.25
-30.22
-24.72
-17.46
-9.46
-1.78
4.84
10.06
13.88
16.51
18.2
19.14
19.44
19.23
18.66
17.93
17.27
16.84
16.69
16.72
16.78
16.69
16.41
16.03
15.75
15.72
15.96
16.28
16.32
15.74
14.35
12.21
9.6
6.89
4.43
2.39
0.74
-0.74
-2.4
-4.52
-7.21
-10.32
-13.47
-16.19
-18.18
-19.46
-20.4
-21.58
-23.53
-26.52
-30.4
-34.6
-38.22
-40.25
-39.82
-36.45
-30.28
-22.02
-12.85
-4.04
3.42
9.06
12.94
15.44
17.08
18.16
18.85
19.19
19.21
19.01
18.77
18.69
18.84
19.2
19.62
19.95
20.14
20.21
20.27
20.38
20.56
20.66
20.48
19.8
18.51
16.71
14.66
12.69
11.06
9.84
8.85
7.84
6.56
4.97
3.21
1.47
-0.1
-1.52
-2.96
-4.65
-6.7
-9.05
-11.54
-13.93
-16.12
-18.07
-19.88
-21.68
-23.69
-26.1
-29.1
-32.68
-36.57
-40.1
-42.33
-42.27
-39.26
-33.28
-24.97
-15.51
-6.22
1.87
8.17
12.61
15.46
17.1
17.87
18.05
17.8
17.26
16.62
16.08
15.88
16.15
16.88
17.9
18.96
19.81
20.38
20.73
21.03
21.36
21.67
21.76
21.43
20.52
19.06
17.18
15.04
12.75
10.34
7.84
5.29
2.79
0.46
-1.63
-3.47
-5.15
-6.85
-8.7
-10.77
-13.01
-15.23
-17.21
-18.8
-20.05
-21.22
-22.73
-24.94
-28
-31.67
-35.28
-37.87
-38.47
-36.4
-31.51
-24.27
-15.63
-6.74
1.41
8.19
13.4
17.09
19.4
20.46
20.36
19.27
17.49
15.44
13.47
11.82
10.53
9.54
8.76
8.19
7.89
7.87
8.08
8.34
8.42
8.13
7.39
6.19
4.61
2.7
0.51
-1.87
-4.27
-6.47
-8.22
-9.39
-10.07
-10.59
-11.44
-13.08
-15.84
-19.72
-24.35
-28.99
-32.72
-34.59
-33.95
-30.63
-24.97
-17.76
-9.96
-2.41
4.34
10
14.51
17.88
20.16
21.47
21.99
21.93
21.53
20.92
20.2
19.36
18.44
17.44
16.36
15.2
13.97
12.7
11.43
10.2
8.92
7.43
5.52
3.06
0.17
-2.88
-5.68
-7.98
-9.77
-11.29
-12.96
-15.16
-18.1
-21.81
-26.07
-30.41
-34.13
-36.39
-36.34
-33.5
-27.92
-20.33
-11.86
-3.74
3.15
8.45
12.27
14.99
16.95
18.31
19.07
19.22
18.86
18.21
17.53
16.98
16.57
16.12
15.47
14.52
13.41
12.35
11.53
10.91
10.26
9.25
7.61
5.3
2.48
-0.58
-3.6
-6.43
-9.03
-11.44
-13.77
-16.19
-18.92
-22.08
-25.61
-29.06
-31.63
-32.4
-30.65
-26.2
-19.51
-11.57
-3.5
3.72
9.55
13.89
16.97
19.14
20.77
22.1
23.26
24.24
24.94
25.22
25.05
24.53
23.92
23.46
23.31
23.41
23.6
23.68
23.61
23.43
23.2
22.92
22.45
21.56
20.15
18.28
16.22
14.32
12.83
11.72
10.76
9.54
7.77
5.4
2.67
-0.05
-2.41
-4.26
-5.75
-7.19
-8.87
-10.97
-13.41
-15.94
-18.3
-20.33
-22.05
-23.68
-25.53
-27.93
-31.1
-35
-39.27
-43.16
-45.71
-45.92
-43.16
-37.33
-29.02
-19.3
-9.45
-0.6
6.55
11.76
15.25
17.41
18.71
19.51
20.04
20.42
20.73
21.05
21.48
22.09
22.86
23.69
24.42
24.92
25.11
25.03
24.77
24.37
23.77
22.91
21.71
20.2
18.49
16.72
14.96
13.22
11.5
9.79
8.12
6.52
5.02
3.58
2.11
0.52
-1.29
-3.36
-5.73
-8.35
-11.12
-13.85
-16.29
-18.24
-19.67
-20.77
-21.96
-23.74
-26.45
-30.1
-34.2
-37.86
-39.95
-39.49
-35.97
-29.56
-21.07
-11.72
-2.79
4.77
10.49
14.43
16.92
18.37
19.08
19.22
18.9
18.29
17.62
17.13
16.96
17.09
17.33
17.46
17.37
17.08
16.72
16.48
16.4
16.41
16.32
15.92
15.07
13.68
11.83
9.66
7.37
5.16
3.18
1.52
0.15
-1.04
-2.24
-3.6
-5.21
-7.02
-8.92
-10.75
-12.44
-14.04
-15.69
-17.55
-19.77
-22.43
-25.58
-29.14
-32.85
-36.17
-38.31
-38.39
-35.79
-30.4
-22.8
-14.07
-5.5
1.86
7.45
11.26
13.65
15.09
16
16.61
17.02
17.25
17.32
17.33
17.39
17.61
18.02
18.56
19.08
19.44
19.58
19.48
19.22
18.86
18.34
17.58
16.44
14.87
12.94
10.86
8.84
7.06
5.53
4.17
2.84
1.4
-0.18
-1.87
-3.58
-5.26
-6.88
-8.48
-10.12
-11.85
-13.63
-15.35
-16.92
-18.3
-19.59
-21.05
-22.96
-25.57
-28.84
-32.46
-35.75
-37.88
-38.04
-35.68
-30.7
-23.54
-15.05
-6.35
1.51
7.77
12.16
14.82
16.24
16.91
17.25
17.52
17.83
18.21
18.65
19.13
19.56
19.85
19.91
19.74
19.44
19.17
19.09
19.24
19.54
19.77
19.66
19.01
17.71
15.83
13.58
11.2
8.92
6.85
4.97
3.23
1.53
-0.11
-1.64
-2.99
-4.19
-5.39
-6.77
-8.51
-10.61
-12.82
-14.82
-16.29
-17.16
-17.62
-18.08
-18.99
-20.73
-23.42
-26.9
-30.73
-34.17
-36.34
-36.43
-33.92
-28.83
-21.8
-13.84
-6.09
0.54
5.61
9.1
11.28
12.51
13.11
13.31
13.29
13.21
13.24
13.47
13.98
14.68
15.46
16.08
16.37
16.26
15.85
15.36
15.03
14.97
15.07
15.05
14.56
13.37
11.48
9.1
6.61
4.38
2.58
1.19
-0.01
-1.3
-2.83
-4.6
-6.46
-8.19
-9.67
-10.93
-12.19
-13.69
-15.59
-17.92
-20.57
-23.36
-26.05
-28.33
-29.78
-29.88
-28.15
-24.41
-18.87
-12.2
-5.35
0.8
5.7
9.21
11.5
12.83
13.39
13.28
12.6
11.55
10.5
9.8
9.68
10.08
10.69
11.12
11.11
10.57
9.65
8.55
7.42
6.32
5.17
3.91
2.49
0.91
-0.86
-2.86
-5.11
-7.56
-10.02
-12.21
-13.88
-14.9
-15.43
-15.83
-16.55
-18.03
-20.45
-23.61
-26.95
-29.63
-30.76
-29.68
-26.2
-20.65
-13.79
-6.59
0.11
5.75
10.1
13.24
15.36
16.68
17.42
17.74
17.78
17.69
17.6
17.6
17.7
17.82
17.82
17.58
17.02
16.21
15.3
14.45
13.76
13.2
12.58
11.69
10.37
8.6
6.54
4.41
2.41
0.67
-0.85
-2.25
-3.7
-5.31
-7.06
-8.85
-10.54
-12.04
-13.39
-14.7
-16.15
-17.91
-20.12
-22.85
-26.08
-29.56
-32.83
-35.13
-35.67
-33.84
-29.51
-23.14
-15.67
-8.15
-1.48
3.88
7.88
10.73
12.78
14.32
15.53
16.45
17.06
17.33
17.29
17.06
16.86
16.83
17.05
17.41
17.7
17.7
17.36
16.79
16.15
15.56
14.97
14.23
13.15
11.67
9.89
8.05
6.41
5.14
4.26
3.64
2.98
1.97
0.38
-1.82
-4.41
-7.01
-9.22
-10.8
-11.8
-12.53
-13.39
-14.68
-16.55
-18.97
-21.85
-25.12
-28.6
-31.97
-34.62
-35.76
-34.67
-31.05
-25.19
-17.95
-10.47
-3.77
1.5
5.25
7.78
9.54
10.94
12.21
13.41
14.48
15.36
16.04
16.54
16.9
17.15
17.26
17.24
17.1
16.93
16.87
17.04
17.43
17.88
18.13
17.97
17.25
16.03
14.53
12.98
11.56
10.31
9.14
7.98
6.78
5.55
4.32
3.09
1.79
0.31
-1.44
-3.49
-5.79
-8.21
-10.54
-12.61
-14.3
-15.59
-16.64
-17.71
-19.15
-21.24
-24.07
-27.39
-30.65
-33.01
-33.65
-31.96
-27.81
-21.62
-14.27
-6.84
-0.34
4.67
8.05
10.13
11.37
12.19
12.82
13.24
13.39
13.23
12.82
12.36
12.04
11.94
12.03
12.19
12.3
12.35
12.44
12.66
13
13.26
13.16
12.45
11.1
9.26
7.31
5.61
4.36
3.53
2.87
2.1
0.96
-0.61
-2.55
-4.7
-6.88
-8.93
-10.78
-12.48
-14.16
-16.05
-18.33
-21.09
-24.13
-26.97
-28.87
-29.11
-27.22
-23.15
-17.38
-10.68
-3.91
2.21
7.25
11.03
13.59
15.07
15.65
15.58
15.1
14.5
13.95
13.57
13.38
13.33
13.36
13.36
13.27
13
12.57
12.04
11.54
11.16
10.91
10.67
10.2
9.33
7.96
6.23
4.34
2.49
0.75
-0.97
-2.82
-4.88
-7.13
-9.41
-11.5
-13.32
-14.91
-16.49
-18.35
-20.74
-23.73
-27.15
-30.51
-33.09
-34.1
-32.9
-29.26
-23.52
-16.49
-9.19
-2.54
2.88
6.99
10.02
12.32
14.15
15.57
16.61
17.24
17.57
17.79
18.06
18.43
18.87
19.27
19.47
19.44
19.14
18.64
18
17.3
16.58
15.86
15.18
14.47
13.69
12.76
11.67
10.43
9.13
7.84
6.61
5.43
4.23
2.9
1.39
-0.33
-2.25
-4.33
-6.5
-8.67
-10.71
-12.53
-14.11
-15.54
-16.98
-18.67
-20.81
-23.49
-26.65
-30
-33.04
-35.08
-35.44
-33.6
-29.41
-23.26
-15.97
-8.6
-2.07
3.05
6.67
9.07
10.7
11.95
13.07
14.08
14.98
15.71
16.28
16.79
17.3
17.85
18.39
18.84
19.1
19.14
19.02
18.79
18.52
18.19
17.68
16.88
15.76
14.43
13.07
11.86
10.89
10.13
9.41
8.55
7.42
6
4.38
2.74
1.24
-0.03
-1.13
-2.21
-3.47
-5.04
-6.93
-9
-11.03
-12.83
-14.28
-15.41
-16.34
-17.34
-18.68
-20.63
-23.32
-26.52
-29.71
-32.06
-32.71
-31.07
-27.05
-21.17
-14.32
-7.52
-1.56
3.12
6.48
8.77
10.29
11.36
12.16
12.83
13.41
13.94
14.41
14.79
15.03
15.05
14.79
14.29
13.62
12.92
12.38
12.09
12.06
12.18
12.23
11.97
11.2
9.86
8.11
6.16
4.33
2.76
1.5
0.41
-0.7
-2.01
-3.58
-5.34
-7.15
-8.85
-10.34
-11.63
-12.83
-14.11
-15.66
-17.68
-20.22
-23.19
-26.27
-28.9
-30.33
-29.94
-27.34
-22.58
-16.26
-9.28
-2.68
2.79
6.76
9.38
11.02
12.15
13.09
13.92
14.62
15.11
15.42
15.67
16
16.49
17.09
17.62
17.9
17.81
17.32
16.53
15.52
14.38
13.11
11.67
10.05
8.27
6.43
4.61
2.95
1.51
0.33
-0.63
-1.45
-2.26
-3.15
-4.22
-5.47
-6.86
-8.29
-9.65
-10.88
-11.95
-12.92
-13.94
-15.22
-16.99
-19.4
-22.46
-25.91
-29.19
-31.58
-32.26
-30.71
-26.81
-21.01
-14.16
-7.25
-1.09
3.91
7.66
10.36
12.22
13.42
14.12
14.52
14.84
15.31
16.05
17.02
18.02
18.83
19.34
19.56
19.6
19.62
19.69
19.78
19.78
19.51
18.86
17.78
16.32
14.58
12.66
10.69
8.76
7.02
5.59
4.51
3.72
3.09
2.43
1.6
0.59
-0.56
-1.78
-3.08
-4.52
-6.23
-8.23
-10.45
-12.69
-14.72
-16.41
-17.72
-18.77
-19.74
-20.84
-22.26
-24.18
-26.62
-29.39
-32.09
-34.03
-34.47
-32.79
-28.72
-22.53
-14.97
-7.05
0.17
5.95
10.01
12.45
13.69
14.23
14.45
14.53
14.49
14.25
13.82
13.33
12.96
12.89
13.17
13.68
14.26
14.71
14.88
14.78
14.46
14.01
13.49
12.92
12.25
11.46
10.52
9.52
8.6
7.9
7.5
7.32
7.14
6.67
5.75
4.41
2.89
1.48
0.38
-0.42
-1.13
-2.02
-3.3
-5.01
-7.03
-9.18
-11.3
-13.29
-15.1
-16.73
-18.21
-19.66
-21.31
-23.37
-25.97
-28.88
-31.54
-33.12
-32.78
-30.09
-25.12
-18.56
-11.42
-4.73
0.8
4.81
7.36
8.73
9.33
9.51
9.51
9.49
9.49
9.52
9.61
9.79
10.14
10.61
11.14
11.55
11.76
11.77
11.72
11.75
11.92
12.17
12.26
11.97
11.17
9.92
8.42
6.88
5.48
4.29
3.28
2.35
1.42
0.37
-0.89
-2.41
-4.18
-6.12
-8.1
-9.96
-11.6
-12.98
-14.2
-15.44
-16.97
-19.04
-21.75
-24.96
-28.21
-30.71
-31.64
-30.39
-26.89
-21.65
-15.6
-9.72
-4.77
-1.01
1.7
3.71
5.33
6.74
8.01
9.18
10.31
11.5
12.79
14.1
15.23
16.03
16.42
16.51
16.47
16.47
16.54
16.59
16.47
16.09
15.51
14.85
14.25
13.72
13.12
12.29
11.13
9.7
8.2
6.87
5.84
5.07
4.36
3.43
2.12
0.39
-1.65
-3.86
-6.09
-8.28
-10.42
-12.46
-14.38
-16.13
-17.8
-19.58
-21.8
-24.67
-28.11
-31.63
-34.37
-35.39
-33.97
-29.92
-23.65
-16.02
-8.09
-0.84
5.06
9.34
12.08
13.63
14.44
14.94
15.36
15.77
16.09
16.19
16.05
15.79
15.56
15.53
15.73
16.06
16.42
16.69
16.79
16.74
16.51
16.08
15.48
14.7
13.74
12.6
11.23
9.66
7.95
6.22
4.59
3.11
1.71
0.23
-1.44
-3.36
-5.47
-7.62
-9.68
-11.6
-13.37
-15.06
-16.74
-18.44
-20.21
-22.13
-24.38
-27.14
-30.51
-34.29
-37.96
-40.68
-41.53
-39.86
-35.54
-29.05
-21.3
-13.38
-6.2
-0.31
4.11
7.21
9.23
10.49
11.31
11.96
12.71
13.71
15.04
16.62
18.31
19.95
21.39
22.53
23.33
23.75
23.86
23.73
23.45
23.04
22.51
21.78
20.81
19.55
18.05
16.38
14.64
12.86
11.05
9.17
7.21
5.19
3.16
1.19
-0.73
-2.67
-4.73
-6.98
-9.43
-11.93
-14.23
-16.1
-17.41
-18.26
-18.92
-19.8
-21.26
-23.54
-26.62
-30.29
-34.04
-37.18
-38.85
-38.26
-34.94
-28.96
-21.07
-12.45
-4.41
2.09
6.68
9.57
11.34
12.61
13.77
14.94
16.02
16.9
17.53
18.02
18.52
19.15
19.88
20.59
21.1
21.31
21.26
21.12
21.09
21.18
21.26
21.03
20.22
18.75
16.71
14.4
12.1
10.03
8.27
6.8
5.54
4.37
3.14
1.69
-0.06
-2.11
-4.36
-6.61
-8.73
-10.65
-12.41
-14.16
-16.15
-18.59
-21.63
-25.21
-28.97
-32.19
-33.92
-33.32
-29.9
-23.81
-15.83
-7.16
0.95
7.56
12.28
15.24
16.91
17.85
18.5
19.13
19.81
20.54
21.29
22.04
22.79
23.47
23.97
24.15
23.95
23.41
22.71
22.11
21.8
21.78
21.9
21.85
21.31
20.16
18.48
16.57
14.7
13.06
11.61
10.19
8.61
6.8
4.89
3.13
1.76
0.85
0.23
-0.39
-1.44
-3.2
-5.77
-8.96
-12.44
-15.79
-18.61
-20.77
-22.31
-23.54
-24.91
-26.88
-29.68
-33.19
-36.84
-39.7
-40.75
-39.22
-34.84
-28.05
-19.79
-11.24
-3.52
2.66
7.09
9.95
11.64
12.66
13.34
13.94
14.57
15.27
16.03
16.82
17.59
18.25
18.74
18.98
19.01
18.92
18.85
18.91
19.14
19.5
19.84
19.96
19.69
18.94
17.77
16.35
14.92
13.64
12.59
11.69
10.77
9.65
8.27
6.69
5.08
3.64
2.45
1.46
0.47
-0.77
-2.42
-4.49
-6.82
-9.15
-11.27
-13.05
-14.53
-15.85
-17.17
-18.63
-20.36
-22.47
-25.12
-28.37
-32.03
-35.56
-38.07
-38.57
-36.38
-31.36
-24.13
-15.8
-7.65
-0.72
4.44
7.78
9.67
10.63
11.15
11.61
12.19
12.92
13.74
14.55
15.24
15.78
16.16
16.4
16.49
16.48
16.39
16.27
16.14
16.02
15.84
15.55
15.07
14.38
13.51
12.52
11.52
10.55
9.62
8.67
7.63
6.4
4.98
3.42
1.87
0.54
-0.44
-1.09
-1.58
-2.2
-3.24
-4.84
-6.97
-9.45
-11.97
-14.25
-16.12
-17.54
-18.67
-19.75
-21.13
-23.09
-25.73
-28.79
-31.64
-33.43
-33.35
-30.96
-26.42
-20.41
-13.91
-7.89
-2.98
0.57
2.88
4.21
4.81
4.91
4.68
4.3
3.9
3.55
3.2
2.72
2.05
1.16
0.13
-0.92
-1.86
-2.71
-3.53
-4.4
-5.38
-6.37
-7.26
-7.88
-8.1
-7.83
-7.04
-5.71
-3.92
-1.85
0.26
2.14
3.6
4.66
5.56
6.65
8.24
10.42
13.1
16.02
18.83
21.15
22.64
23.04
22.26
20.54
18.48
16.99
16.95
18.87
22.65
27.64
32.82
37.33
40.58
42.39
42.83
42.03
40.07
37.1
33.33
29.09
24.79
20.82
17.4
14.57
12.26
10.33
8.66
7.09
5.47
3.71
1.73
-0.41
-2.58
-4.6
-6.36
-7.86
-9.24
-10.7
-12.34
-14.17
-16.04
-17.75
-19.19
-20.39
-21.52
-22.78
-24.26
-25.89
-27.44
-28.66
-29.35
-29.55
-29.41
-29.24
-29.35
-30
-31.34
-33.32
-35.67
-37.88
-39.29
-39.27
-37.4
-33.63
-28.32
-22.16
-15.94
-10.31
-5.74
-2.41
-0.28
0.85
1.29
1.37
1.44
1.72
2.3
3.08
3.88
4.46
4.7
4.55
4.06
3.37
2.66
2.09
1.79
1.77
1.89
1.84
1.29
-0.01
-2.04
-4.51
-6.97
-9
-10.36
-11.1
-11.51
-11.98
-12.88
-14.41
-16.54
-18.98
-21.19
-22.54
-22.47
-20.68
-17.3
-12.78
-7.8
-2.99
1.26
4.79
7.62
9.8
11.33
12.17
12.32
11.89
11.09
10.21
9.45
8.96
8.77
8.8
9.02
9.33
9.68
9.97
10.06
9.81
9.03
7.65
5.63
3.12
0.31
-2.53
-5.12
-7.25
-8.9
-10.18
-11.44
-13.1
-15.43
-18.39
-21.49
-23.88
-24.65
-23.22
-19.56
-14.21
-8.12
-2.23
2.78
6.64
9.44
11.43
12.94
14.17
15.27
16.24
17.01
17.45
17.4
16.81
15.74
14.4
13.01
11.81
10.9
10.29
9.88
9.49
8.97
8.1
6.72
4.72
2.13
-0.88
-4.02
-7.06
-9.89
-12.58
-15.29
-18.1
-20.88
-23.19
-24.45
-24.07
-21.76
-17.6
-12.05
-5.84
0.28
5.68
9.99
13.07
15.05
16.22
16.87
17.26
17.48
17.54
17.37
16.9
16.1
15.02
13.74
12.31
10.83
9.35
7.94
6.63
5.47
4.45
3.52
2.58
1.5
0.17
-1.55
-3.69
-6.29
-9.31
-12.69
-16.17
-19.35
-21.7
-22.59
-21.57
-18.47
-13.53
-7.32
-0.61
5.82
11.35
15.63
18.59
20.41
21.37
21.84
22.05
22.18
22.26
22.23
22
21.49
20.7
19.67
18.56
17.58
16.9
16.65
16.81
17.23
17.68
17.97
17.98
17.68
17.12
16.29
15.23
13.9
12.38
10.74
9.14
7.67
6.43
5.44
4.61
3.86
3.03
2.02
0.77
-0.66
-2.21
-3.77
-5.26
-6.66
-8
-9.36
-10.75
-12.17
-13.54
-14.76
-15.78
-16.62
-17.35
-18.15
-19.2
-20.72
-22.85
-25.63
-28.82
-31.87
-33.97
-34.26
-32.15
-27.57
-21.02
-13.5
-6.11
0.22
5
8.19
10.03
10.93
11.25
11.3
11.33
11.54
12.07
12.9
13.9
14.84
15.45
15.58
15.27
14.68
14.07
13.62
13.41
13.39
13.36
13.11
12.49
11.49
10.25
9
7.98
7.29
6.86
6.49
5.92
4.99
3.72
2.29
0.94
-0.14
-0.88
-1.37
-1.74
-2.2
-2.87
-3.83
-5.05
-6.47
-7.95
-9.41
-10.81
-12.15
-13.53
-15.09
-16.99
-19.26
-21.74
-24.02
-25.47
-25.42
-23.42
-19.47
-14.06
-8.07
-2.43
2.19
5.49
7.55
8.61
8.9
8.64
8.04
7.34
6.89
6.89
7.38
8.11
8.69
8.82
8.39
7.64
6.91
6.52
6.54
6.78
6.96
6.81
6.26
5.41
4.43
3.43
2.39
1.26
-0.04
-1.41
-2.69
-3.73
-4.48
-5.02
-5.53
-6.22
-7.19
-8.52
-10.22
-12.24
-14.47
-16.63
-18.3
-18.95
-18.2
-15.94
-12.44
-8.26
-4.07
-0.45
2.28
4.06
5.06
5.48
5.56
5.46
5.33
5.23
5.21
5.27
5.34
5.35
5.25
5.02
4.67
4.23
3.73
3.19
2.62
2.07
1.54
1.02
0.45
-0.29
-1.3
-2.58
-4.05
-5.54
-6.9
-8.04
-9
-9.89
-10.88
-12.17
-13.85
-15.84
-17.79
-19.14
-19.26
-17.78
-14.74
-10.64
-6.28
-2.44
0.43
2.3
3.41
4.13
4.67
5.09
5.38
5.49
5.5
5.55
5.76
6.18
6.79
7.44
7.96
8.19
8.09
7.77
7.43
7.29
7.49
7.92
8.29
8.3
7.76
6.7
5.4
4.13
3.05
2.05
0.92
-0.53
-2.25
-3.97
-5.38
-6.24
-6.61
-6.8
-7.19
-8.1
-9.64
-11.74
-14.15
-16.52
-18.45
-19.46
-19.16
-17.32
-13.99
-9.55
-4.66
-0
3.84
6.58
8.2
8.93
9.08
9.01
8.98
9.14
9.49
9.94
10.35
10.55
10.5
10.17
9.67
9.09
8.58
8.19
7.97
7.89
7.91
7.94
7.92
7.78
7.46
6.97
6.28
5.45
4.6
3.86
3.31
2.94
2.58
2.02
1.09
-0.21
-1.69
-3.07
-4.08
-4.67
-4.94
-5.17
-5.6
-6.37
-7.47
-8.72
-9.93
-11
-11.9
-12.7
-13.54
-14.58
-15.98
-17.85
-20.15
-22.67
-24.91
-26.22
-25.94
-23.7
-19.58
-14.15
-8.34
-3.04
1.15
4.11
6.12
7.57
8.81
9.93
10.84
11.41
11.62
11.61
11.57
11.66
11.9
12.17
12.32
12.28
12.09
11.89
11.83
11.95
12.12
12.16
11.9
11.27
10.39
9.43
8.53
7.74
6.95
6.02
4.88
3.58
2.25
1.06
0.12
-0.64
-1.32
-2.03
-2.85
-3.76
-4.79
-5.96
-7.31
-8.85
-10.53
-12.2
-13.68
-14.87
-15.81
-16.7
-17.85
-19.5
-21.65
-23.99
-25.96
-26.87
-26.18
-23.69
-19.6
-14.46
-8.97
-3.77
0.64
3.96
6.12
7.15
7.27
6.8
6.13
5.62
5.49
5.8
6.41
7.2
8
8.76
9.44
10.04
10.51
10.8
10.91
10.87
10.74
10.53
10.21
9.77
9.19
8.54
7.88
7.31
6.83
6.39
5.84
5.05
3.94
2.52
0.96
-0.53
-1.72
-2.56
-3.15
-3.78
-4.7
-6.07
-7.8
-9.64
-11.28
-12.58
-13.61
-14.62
-15.9
-17.65
-19.83
-22.26
-24.62
-26.5
-27.49
-27.22
-25.4
-22.01
-17.33
-11.91
-6.49
-1.69
2.08
4.74
6.43
7.4
7.85
7.95
7.82
7.58
7.43
7.5
7.83
8.34
8.87
9.24
9.31
9.09
8.69
8.28
7.97
7.75
7.54
7.22
6.68
5.93
5.07
4.13
3.14
2.02
0.64
-1.06
-3.03
-5.1
-7.04
-8.68
-10
-11.09
-12.18
-13.55
-15.39
-17.88
-20.97
-24.39
-27.63
-29.96
-30.65
-29.18
-25.48
-19.92
-13.33
-6.64
-0.72
3.89
7.04
8.91
9.85
10.31
10.63
11.05
11.67
12.47
13.35
14.15
14.73
15.01
14.99
14.78
14.56
14.51
14.79
15.37
16.07
16.57
16.57
15.87
14.48
12.58
10.44
8.32
6.37
4.67
3.16
1.82
0.52
-0.87
-2.49
-4.43
-6.67
-9.06
-11.35
-13.4
-15.21
-17.03
-19.2
-22
-25.51
-29.41
-33.05
-35.54
-36.08
-34.17
-29.85
-23.7
-16.65
-9.67
-3.5
1.52
5.38
8.25
10.29
11.67
12.55
13.17
13.79
14.64
15.76
16.96
17.98
18.55
18.63
18.32
17.92
17.66
17.69
17.98
18.39
18.78
18.97
18.84
18.3
17.3
15.89
14.17
12.3
10.49
8.85
7.35
5.9
4.35
2.64
0.87
-0.83
-2.33
-3.7
-5.08
-6.66
-8.52
-10.6
-12.7
-14.63
-16.31
-17.83
-19.48
-21.61
-24.47
-28.16
-32.4
-36.58
-39.77
-40.97
-39.46
-35.04
-28.14
-19.72
-10.97
-2.92
3.76
8.91
12.69
15.45
17.52
19.11
20.28
21.02
21.34
21.32
21.14
20.99
21.06
21.36
21.81
22.23
22.47
22.41
22.01
21.37
20.61
19.87
19.26
18.74
18.14
17.21
15.76
13.78
11.49
9.21
7.2
5.53
4.04
2.52
0.75
-1.31
-3.59
-5.93
-8.25
-10.53
-12.78
-15.03
-17.21
-19.29
-21.32
-23.51
-26.17
-29.56
-33.64
-37.86
-41.25
-42.6
-40.97
-36.01
-28.19
-18.62
-8.74
0.18
7.33
12.42
15.58
17.2
17.78
17.74
17.48
17.28
17.3
17.63
18.18
18.82
19.39
19.71
19.71
19.43
19.03
18.75
18.75
19.01
19.3
19.27
18.58
17.11
15
12.56
10.11
7.8
5.59
3.31
0.84
-1.83
-4.57
-7.22
-9.71
-12.01
-14.16
-16.26
-18.43
-20.85
-23.79
-27.44
-31.7
-36.06
-39.58
-41.11
-39.76
-35.21
-27.91
-18.94
-9.66
-1.26
5.51
10.45
13.73
15.76
16.9
17.47
17.64
17.57
17.39
17.25
17.24
17.38
17.64
17.93
18.19
18.35
18.35
18.1
17.52
16.6
15.41
14.11
12.87
11.69
10.42
8.78
6.49
3.52
0.08
-3.43
-6.64
-9.38
-11.69
-13.79
-15.91
-18.21
-20.85
-23.96
-27.69
-32.04
-36.64
-40.69
-43.07
-42.71
-39.02
-32.22
-23.31
-13.71
-4.79
2.51
7.92
11.69
14.35
16.42
18.25
19.97
21.62
23.13
24.48
25.65
26.57
27.23
27.6
27.69
27.55
27.29
26.97
26.65
26.3
25.82
25.09
24.04
22.68
21.07
19.35
17.59
15.82
14.01
12.12
10.14
8.14
6.2
4.37
2.63
0.83
-1.16
-3.41
-5.84
-8.3
-10.62
-12.72
-14.68
-16.66
-18.9
-21.65
-25.11
-29.39
-34.41
-39.79
-44.74
-48.18
-48.99
-46.42
-40.39
-31.6
-21.35
-11.07
-1.93
5.43
10.92
14.84
17.61
19.6
21.03
22.1
22.97
23.81
24.78
25.88
27.03
28.03
28.68
28.91
28.78
28.45
28.12
27.85
27.65
27.36
26.87
26.02
24.78
23.17
21.31
19.37
17.55
16.03
14.9
14.12
13.47
12.67
11.46
9.7
7.51
5.15
2.96
1.18
-0.15
-1.26
-2.45
-4.09
-6.33
-9.07
-12.05
-14.91
-17.39
-19.36
-20.93
-22.32
-23.86
-25.9
-28.66
-32.25
-36.46
-40.74
-44.2
-45.77
-44.53
-40.02
-32.51
-22.95
-12.78
-3.45
3.98
9.12
12.21
13.88
14.84
15.6
16.4
17.26
18.19
19.2
20.37
21.71
23.07
24.2
24.76
24.65
23.93
22.98
22.21
21.89
22.01
22.3
22.43
22.12
21.33
20.13
18.67
17.06
15.32
13.46
11.5
9.55
7.69
6.01
4.53
3.22
2.04
0.93
-0.19
-1.46
-3.04
-5.01
-7.35
-9.93
-12.55
-15.03
-17.34
-19.54
-21.81
-24.37
-27.33
-30.7
-34.17
-37.23
-39.19
-39.32
-37.1
-32.42
-25.67
-17.67
-9.49
-2.1
3.8
7.99
10.6
12.07
12.84
13.32
13.76
14.28
14.95
15.75
16.59
17.32
17.74
17.7
17.26
16.59
15.97
15.61
15.49
15.45
15.2
14.55
13.46
12.05
10.46
8.73
6.82
4.62
2.11
-0.58
-3.2
-5.43
-7.1
-8.19
-8.91
-9.59
-10.57
-12.15
-14.48
-17.57
-21.2
-24.94
-28.11
-29.92
-29.74
-27.23
-22.56
-16.35
-9.5
-2.91
2.78
7.25
10.53
12.81
14.34
15.24
15.62
15.54
15.16
14.68
14.33
14.28
14.51
14.82
14.95
14.72
14.1
13.26
12.41
11.72
11.17
10.62
9.87
8.77
7.28
5.46
3.37
1.09
-1.27
-3.61
-5.8
-7.78
-9.6
-11.4
-13.39
-15.78
-18.67
-22.03
-25.64
-29.06
-31.67
-32.85
-32.03
-28.99
-23.93
-17.48
-10.58
-4.14
1.2
5.23
8.06
10.03
11.46
12.56
13.47
14.24
14.97
15.7
16.52
17.37
18.14
18.71
18.99
19.03
18.95
18.89
18.85
18.73
18.39
17.68
16.6
15.26
13.83
12.44
11.13
9.9
8.68
7.37
5.91
4.28
2.51
0.64
-1.28
-3.25
-5.3
-7.47
-9.73
-11.98
-14.06
-15.83
-17.27
-18.52
-19.83
-21.55
-23.91
-26.98
-30.54
-34.1
-36.93
-38.25
-37.43
-34.2
-28.81
-21.94
-14.54
-7.54
-1.55
3.16
6.69
9.31
11.32
12.92
14.2
15.19
15.9
16.39
16.75
17.03
17.28
17.45
17.47
17.32
17.08
16.89
16.92
17.21
17.67
18.05
18.12
17.68
16.74
15.4
13.89
12.36
10.93
9.66
8.54
7.55
6.63
5.73
4.82
3.84
2.75
1.51
0.1
-1.52
-3.33
-5.28
-7.24
-9.12
-10.87
-12.5
-14.09
-15.7
-17.34
-19
-20.76
-22.74
-25.14
-27.98
-30.94
-33.3
-34.15
-32.69
-28.65
-22.49
-15.25
-8.2
-2.34
1.83
4.42
5.92
6.89
7.74
8.67
9.72
10.85
12
13.07
13.92
14.46
14.66
14.61
14.48
14.43
14.54
14.73
14.89
14.89
14.72
14.39
13.96
13.4
12.61
11.51
10.07
8.38
6.65
5.07
3.76
2.77
2.06
1.57
1.18
0.77
0.18
-0.75
-2.09
-3.8
-5.68
-7.49
-9.02
-10.21
-11.21
-12.32
-13.84
-16.04
-18.91
-22.15
-25.14
-27.06
-27.19
-25.14
-21.04
-15.53
-9.54
-3.96
0.64
4.05
6.4
7.94
8.91
9.49
9.81
10.05
10.4
10.97
11.77
12.65
13.43
13.91
14.05
13.89
13.62
13.35
13.18
13.04
12.87
12.51
11.89
11
9.89
8.68
7.5
6.42
5.5
4.69
3.89
2.99
1.93
0.75
-0.4
-1.34
-1.96
-2.31
-2.59
-3.11
-4.11
-5.66
-7.64
-9.8
-11.87
-13.64
-15.03
-16.12
-17.05
-18.11
-19.55
-21.52
-23.89
-26.18
-27.65
-27.53
-25.37
-21.24
-15.8
-9.99
-4.72
-0.56
2.42
4.47
5.96
7.16
8.21
9.11
9.88
10.59
11.28
12
12.7
13.29
13.68
13.88
13.95
13.99
14.1
14.26
14.41
14.42
14.19
13.62
12.73
11.59
10.35
9.2
8.25
7.53
6.91
6.27
5.52
4.66
3.77
2.96
2.21
1.46
0.59
-0.44
-1.58
-2.74
-3.87
-4.98
-6.21
-7.64
-9.23
-10.82
-12.16
-13.13
-13.8
-14.49
-15.61
-17.5
-20.13
-23.1
-25.67
-27.02
-26.54
-24.07
-19.89
-14.69
-9.25
-4.27
-0.21
2.77
4.68
5.66
5.92
5.72
5.39
5.3
5.74
6.83
8.41
10.09
11.37
11.96
11.81
11.2
10.56
10.21
10.24
10.48
10.63
10.41
9.76
8.78
7.72
6.78
6.06
5.52
5.02
4.4
3.56
2.48
1.24
-0.03
-1.16
-2.05
-2.69
-3.15
-3.58
-4.1
-4.84
-5.84
-7.04
-8.3
-9.48
-10.43
-11.14
-11.73
-12.41
-13.41
-14.9
-16.87
-19.12
-21.33
-23.05
-23.88
-23.48
-21.67
-18.53
-14.32
-9.57
-4.9
-0.91
1.95
3.54
4.02
3.81
3.43
3.32
3.66
4.44
5.4
6.31
6.98
7.38
7.57
7.62
7.59
7.52
7.43
7.35
7.28
7.19
7
6.59
5.87
4.84
3.56
2.18
0.8
-0.47
-1.54
-2.39
-2.98
-3.4
-3.77
-4.27
-5.06
-6.21
-7.77
-9.66
-11.85
-14.23
-16.62
-18.72
-20.1
-20.3
-18.97
-16.07
-11.91
-7.12
-2.45
1.49
4.33
6.09
6.98
7.37
7.56
7.72
7.95
8.26
8.64
9.09
9.6
10.1
10.51
10.75
10.73
10.48
10.09
9.73
9.51
9.51
9.69
9.94
10.06
9.92
9.44
8.62
7.57
6.42
5.32
4.29
3.31
2.26
1.02
-0.39
-1.89
-3.29
-4.5
-5.54
-6.61
-7.84
-9.32
-10.91
-12.37
-13.58
-14.58
-15.63
-17.04
-19.01
-21.48
-24.12
-26.42
-27.84
-27.97
-26.56
-23.65
-19.47
-14.53
-9.42
-4.76
-0.95
1.85
3.77
5.08
6.07
6.95
7.78
8.63
9.52
10.53
11.72
13.02
14.28
15.22
15.65
15.49
14.88
14.09
13.36
12.87
12.64
12.59
12.54
12.4
12.06
11.47
10.61
9.55
8.42
7.36
6.52
5.95
5.55
5.17
4.61
3.8
2.74
1.53
0.3
-0.85
-1.89
-2.87
-3.85
-4.92
-6.16
-7.59
-9.24
-11.07
-13
-14.92
-16.78
-18.55
-20.35
-22.27
-24.37
-26.44
-28.04
-28.57
-27.46
-24.51
-19.95
-14.51
-9.07
-4.41
-0.93
1.4
2.94
4.1
5.16
6.23
7.25
8.18
9.02
9.81
10.62
11.4
12.04
12.39
12.38
12.11
11.82
11.78
12.14
12.85
13.69
14.35
14.62
14.46
13.99
13.37
12.73
12.07
11.31
10.37
9.26
8.06
6.93
5.91
4.98
4.01
2.91
1.7
0.56
-0.35
-1.02
-1.62
-2.49
-3.92
-5.93
-8.23
-10.36
-11.95
-12.92
-13.52
-14.17
-15.29
-17.03
-19.35
-22.02
-24.73
-27.12
-28.75
-29.13
-27.82
-24.64
-19.8
-13.92
-7.86
-2.48
1.71
4.57
6.33
7.38
8.1
8.71
9.3
9.84
10.25
10.46
10.42
10.15
9.76
9.4
9.18
9.17
9.32
9.53
9.66
9.6
9.33
8.86
8.25
7.57
6.92
6.39
6.04
5.91
5.94
6
5.99
5.8
5.41
4.85
4.16
3.36
2.47
1.49
0.39
-0.83
-2.17
-3.64
-5.25
-6.98
-8.82
-10.74
-12.77
-14.99
-17.39
-19.86
-22.04
-23.37
-23.24
-21.23
-17.35
-12.07
-6.28
-0.89
3.36
6.22
7.82
8.56
8.84
8.94
8.97
9
9.15
9.55
10.29
11.3
12.34
13.1
13.36
13.07
12.39
11.6
10.93
10.51
10.34
10.31
10.32
10.25
9.98
9.39
8.41
7.03
5.35
3.53
1.76
0.16
-1.23
-2.42
-3.52
-4.62
-5.83
-7.18
-8.64
-10.12
-11.46
-12.58
-13.58
-14.65
-16.12
-18.23
-20.96
-23.99
-26.71
-28.37
-28.4
-26.51
-22.83
-17.9
-12.42
-7.12
-2.51
1.11
3.74
5.52
6.67
7.46
8.11
8.85
9.83
11.09
12.53
13.88
14.88
15.32
15.21
14.68
14.02
13.47
13.17
13.13
13.24
13.35
13.36
13.16
12.65
11.75
10.47
8.93
7.38
6.09
5.25
4.84
4.67
4.46
3.96
3.08
1.87
0.45
-1.11
-2.77
-4.52
-6.28
-7.9
-9.22
-10.19
-11.03
-12.09
-13.77
-16.31
-19.65
-23.37
-26.76
-29.11
-29.81
-28.6
-25.54
-21.04
-15.74
-10.3
-5.32
-1.16
2.07
4.53
6.42
7.96
9.28
10.45
11.47
12.38
13.25
14.05
14.76
15.25
15.4
15.23
14.87
14.61
14.62
14.94
15.35
15.57
15.38
14.77
13.9
12.97
12.09
11.26
10.36
9.36
8.3
7.27
6.29
5.27
4.07
2.65
1.13
-0.24
-1.24
-1.84
-2.22
-2.69
-3.54
-4.86
-6.53
-8.36
-10.12
-11.75
-13.28
-14.88
-16.77
-19.1
-21.95
-25.07
-27.95
-29.86
-30.09
-28.17
-24.12
-18.51
-12.21
-6.25
-1.41
1.92
3.82
4.69
5.11
5.56
6.29
7.37
8.69
10.09
11.43
12.65
13.67
14.41
14.79
14.78
14.46
14.02
13.66
13.54
13.64
13.81
13.86
13.64
13.06
12.16
10.97
9.55
7.96
6.29
4.72
3.42
2.52
1.99
1.63
1.19
0.42
-0.74
-2.23
-3.86
-5.42
-6.77
-7.89
-8.83
-9.69
-10.61
-11.75
-13.29
-15.39
-18.04
-21.04
-23.83
-25.7
-25.91
-24.07
-20.23
-14.98
-9.21
-3.8
0.61
3.79
5.82
7.01
7.65
8.03
8.36
8.8
9.47
10.33
11.26
12.06
12.55
12.71
12.61
12.46
12.37
12.39
12.4
12.25
11.82
11.1
10.19
9.21
8.26
7.33
6.32
5.17
3.83
2.33
0.74
-0.89
-2.5
-4.07
-5.61
-7.12
-8.66
-10.32
-12.21
-14.41
-16.96
-19.68
-22.16
-23.85
-24.17
-22.74
-19.53
-15.02
-9.94
-5.13
-1.21
1.62
3.51
4.87
6.06
7.3
8.57
9.78
10.82
11.69
12.41
12.95
13.25
13.18
12.71
11.93
11.08
10.41
10.11
10.16
10.42
10.67
10.69
10.37
9.68
8.68
7.48
6.25
5.15
4.29
3.74
3.46
3.33
3.16
2.76
1.98
0.79
-0.75
-2.44
-4.08
-5.54
-6.78
-7.89
-9
-10.24
-11.68
-13.39
-15.49
-18.07
-21.03
-23.96
-26.12
-26.69
-25.09
-21.35
-16.08
-10.26
-4.85
-0.38
3.05
5.67
7.79
9.6
11.13
12.3
13.1
13.62
14.03
14.47
15.04
15.68
16.28
16.64
16.62
16.19
15.45
14.64
14.01
13.71
13.73
13.89
13.95
13.71
13.07
12.07
10.87
9.64
8.51
7.51
6.57
5.64
4.61
3.53
2.47
1.53
0.79
0.17
-0.52
-1.53
-3.03
-5.02
-7.35
-9.72
-11.9
-13.73
-15.26
-16.62
-18.02
-19.68
-21.77
-24.29
-27.08
-29.79
-31.83
-32.62
-31.7
-28.91
-24.54
-19.16
-13.47
-8.1
-3.47
0.25
3.05
5.06
6.5
7.58
8.5
9.38
10.29
11.19
12.03
12.73
13.24
13.55
13.64
13.58
13.45
13.39
13.49
13.79
14.19
14.51
14.58
14.32
13.78
13.13
12.53
12.04
11.61
11.08
10.29
9.17
7.74
6.1
4.39
2.72
1.15
-0.3
-1.63
-2.93
-4.3
-5.93
-7.91
-10.2
-12.57
-14.64
-16.09
-16.75
-16.78
-16.57
-16.64
-17.32
-18.71
-20.64
-22.68
-24.35
-25.16
-24.71
-22.74
-19.22
-14.42
-8.88
-3.3
1.67
5.56
8.29
10.04
11.17
12.03
12.81
13.59
14.29
14.91
15.44
15.92
16.34
16.64
16.73
16.54
16.16
15.75
15.48
15.4
15.37
15.19
14.6
13.54
12.07
10.36
8.57
6.79
5.06
3.41
1.85
0.38
-1.07
-2.68
-4.57
-6.73
-8.99
-11.07
-12.73
-13.91
-14.78
-15.6
-16.72
-18.33
-20.5
-23.06
-25.71
-28
-29.48
-29.69
-28.32
-25.31
-20.89
-15.51
-9.82
-4.45
0.12
3.65
6.18
7.93
9.16
10.03
10.57
10.76
10.57
10.06
9.39
8.71
8.1
7.54
6.93
6.11
5.02
3.74
2.42
1.31
0.65
0.58
1.13
2.11
3.2
4.03
4.37
4.21
3.71
3.15
2.7
2.36
1.95
1.27
0.2
-1.14
-2.52
-3.66
-4.46
-5.04
-5.65
-6.56
-7.94
-9.78
-11.99
-14.43
-16.88
-19.12
-20.85
-21.68
-21.21
-19.25
-15.9
-11.6
-7
-2.74
0.79
3.49
5.52
7.13
8.51
9.74
10.79
11.67
12.31
12.7
12.75
12.45
11.81
10.99
10.25
9.82
9.85
10.25
10.84
11.41
11.82
12.05
12.09
11.93
11.46
10.57
9.25
7.67
6.07
4.73
3.75
3.07
2.49
1.83
0.98
-0.04
-1.12
-2.18
-3.24
-4.35
-5.58
-6.92
-8.27
-9.53
-10.67
-11.79
-13.14
-14.97
-17.49
-20.66
-24.18
-27.45
-29.7
-30.2
-28.46
-24.49
-18.8
-12.32
-6.12
-1.06
2.44
4.5
5.6
6.29
7
7.89
8.93
9.98
10.89
11.65
12.3
12.9
13.45
13.88
14.08
13.97
13.61
13.19
12.94
13.04
13.49
14.05
14.35
14.05
13.09
11.69
10.22
9.08
8.43
8.15
7.98
7.66
7.08
6.28
5.43
4.63
3.88
3.06
2.04
0.72
-0.88
-2.65
-4.48
-6.31
-8.09
-9.78
-11.39
-12.93
-14.48
-16.15
-18.11
-20.42
-23.03
-25.64
-27.75
-28.73
-28.06
-25.5
-21.26
-15.94
-10.36
-5.3
-1.25
1.7
3.8
5.37
6.75
8.13
9.59
11.15
12.79
14.49
16.14
17.61
18.79
19.6
20.08
20.33
20.46
20.56
20.67
20.73
20.69
20.41
19.77
18.65
16.96
14.76
12.18
9.46
6.85
4.58
2.8
1.53
0.67
-0
-0.7
-1.58
-2.7
-3.96
-5.22
-6.39
-7.49
-8.61
-9.9
-11.44
-13.26
-15.31
-17.52
-19.83
-22.24
-24.71
-27.08
-29.02
-30.04
-29.6
-27.38
-23.44
-18.29
-12.81
-7.88
-4.11
-1.64
-0.15
0.84
1.77
2.78
3.77
4.52
4.9
5.04
5.17
5.55
6.2
6.92
7.41
7.45
7.05
6.47
6.04
6.01
6.34
6.7
6.67
5.91
4.32
2.13
-0.29
-2.59
-4.6
-6.31
-7.84
-9.35
-10.89
-12.44
-13.85
-15.01
-15.89
-16.59
-17.32
-18.31
-19.76
-21.69
-23.98
-26.32
-28.24
-29.19
-28.63
-26.26
-22.07
-16.47
-10.15
-3.87
1.76
6.4
10.05
12.93
15.23
17.14
18.74
20.14
21.47
22.86
24.36
25.88
27.23
28.18
28.62
28.6
28.31
27.92
27.56
27.18
26.66
25.83
24.64
23.13
21.38
19.53
17.63
15.72
13.82
11.97
10.19
8.47
6.8
5.09
3.27
1.26
-1
-3.54
-6.28
-9.09
-11.77
-14.1
-16
-17.52
-18.89
-20.42
-22.42
-25.04
-28.24
-31.78
-35.21
-37.92
-39.22
-38.49
-35.41
-30.16
-23.43
-16.25
-9.7
-4.48
-0.75
1.8
3.72
5.47
7.26
9.02
10.58
11.82
12.81
13.67
14.52
15.39
16.12
16.57
16.67
16.49
16.24
16.14
16.32
16.74
17.22
17.45
17.16
16.26
14.86
13.26
11.8
10.68
9.95
9.46
9.02
8.46
7.72
6.81
5.8
4.72
3.6
2.48
1.35
0.18
-1.13
-2.65
-4.47
-6.51
-8.64
-10.67
-12.49
-14.09
-15.55
-17
-18.62
-20.6
-23.09
-26.15
-29.59
-32.86
-35.19
-35.7
-33.82
-29.49
-23.25
-16.06
-9
-2.94
1.67
4.8
6.76
7.97
8.84
9.68
10.67
11.85
13.18
14.6
16
17.3
18.35
19.05
19.3
19.11
18.6
18.02
17.63
17.63
18.02
18.6
19.03
18.98
18.26
16.94
15.3
13.72
12.47
11.65
11.12
10.58
9.71
8.35
6.48
4.3
2.08
0.09
-1.48
-2.6
-3.39
-4.09
-4.99
-6.31
-8.12
-10.27
-12.46
-14.41
-16.01
-17.38
-18.82
-20.71
-23.26
-26.48
-30.07
-33.47
-35.95
-36.77
-35.4
-31.69
-26
-19.08
-11.92
-5.39
-0.1
3.75
6.28
7.79
8.6
8.97
9.09
9.19
9.5
10.2
11.38
12.96
14.71
16.3
17.44
17.93
17.82
17.32
16.75
16.38
16.34
16.57
16.81
16.77
16.18
15
13.32
11.37
9.42
7.6
5.91
4.2
2.33
0.23
-1.99
-4.17
-6.12
-7.78
-9.22
-10.6
-12.09
-13.85
-16.03
-18.72
-21.97
-25.62
-29.25
-32.14
-33.47
-32.62
-29.39
-24.15
-17.64
-10.77
-4.28
1.28
5.69
8.86
10.83
11.78
12.01
11.9
11.9
12.31
13.24
14.56
15.95
17.03
17.6
17.62
17.28
16.89
16.72
16.9
17.31
17.69
17.7
17.13
15.92
14.16
12.07
9.84
7.62
5.47
3.47
1.63
-0.01
-1.45
-2.76
-4.09
-5.59
-7.42
-9.57
-11.91
-14.2
-16.22
-17.91
-19.52
-21.47
-24.19
-27.84
-32.06
-36.02
-38.6
-38.83
-36.23
-31.04
-24.09
-16.51
-9.32
-3.15
1.77
5.56
8.43
10.59
12.16
13.29
14.16
15.02
16.09
17.45
18.92
20.18
20.87
20.81
20.16
19.26
18.55
18.29
18.46
18.81
19.05
18.98
18.56
17.87
16.99
15.84
14.29
12.22
9.68
6.96
4.48
2.57
1.3
0.44
-0.42
-1.68
-3.53
-5.88
-8.49
-11.02
-13.24
-15.08
-16.69
-18.37
-20.46
-23.28
-26.92
-31.2
-35.55
-39.13
-40.97
-40.29
-36.75
-30.64
-22.79
-14.31
-6.32
0.45
5.7
9.53
12.27
14.24
15.72
16.87
17.87
18.88
20.02
21.29
22.59
23.71
24.41
24.57
24.18
23.4
22.46
21.56
20.84
20.31
19.9
19.47
18.85
17.95
16.73
15.3
13.85
12.59
11.69
11.18
10.88
10.53
9.81
8.53
6.72
4.58
2.44
0.54
-1.08
-2.52
-4.01
-5.73
-7.75
-10.03
-12.47
-14.93
-17.3
-19.52
-21.6
-23.7
-26.04
-28.92
-32.4
-36.21
-39.59
-41.52
-41.09
-37.86
-32.07
-24.61
-16.66
-9.27
-3.09
1.7
5.24
7.79
9.6
10.89
11.83
12.65
13.56
14.72
16.09
17.53
18.78
19.63
20.02
19.98
19.72
19.39
19.16
19.1
19.22
19.44
19.64
19.63
19.21
18.27
16.79
14.88
12.77
10.72
8.92
7.45
6.22
5.01
3.59
1.74
-0.57
-3.25
-6.08
-8.8
-11.17
-13.08
-14.6
-15.91
-17.33
-19.2
-21.82
-25.23
-29.14
-32.88
-35.54
-36.19
-34.3
-29.92
-23.66
-16.49
-9.42
-3.17
1.9
5.8
8.66
10.66
11.99
12.8
13.26
13.61
14.01
14.53
15.16
15.74
16.16
16.33
16.25
15.97
15.57
15.1
14.63
14.21
13.78
13.21
12.28
10.78
8.62
5.9
2.9
-0.01
-2.57
-4.65
-6.35
-7.89
-9.51
-11.39
-13.66
-16.43
-19.79
-23.72
-27.9
-31.72
-34.25
-34.64
-32.35
-27.5
-20.86
-13.55
-6.62
-0.71
4.07
7.95
11.19
13.89
16
17.41
18.23
18.72
19.24
20.03
21.11
22.26
23.24
23.9
24.23
24.36
24.39
24.35
24.11
23.53
22.52
21.15
19.62
18.12
16.8
15.61
14.4
12.99
11.25
9.21
7.03
4.9
3
1.46
0.27
-0.69
-1.68
-2.99
-4.85
-7.26
-10
-12.71
-15.04
-16.88
-18.43
-20.1
-22.38
-25.6
-29.78
-34.49
-38.98
-42.27
-43.4
-41.75
-37.22
-30.34
-22.11
-13.72
-6.23
-0.28
3.97
6.79
8.63
10.03
11.37
12.87
14.59
16.47
18.37
20.16
21.7
22.91
23.72
24.08
24.05
23.76
23.41
23.26
23.47
24
24.66
25.09
24.94
24
22.31
20.12
17.85
15.92
14.57
13.79
13.38
13.05
12.57
11.83
10.84
9.7
8.43
7.05
5.52
3.85
2.11
0.37
-1.31
-3
-4.86
-7.01
-9.49
-12.2
-14.91
-17.43
-19.66
-21.66
-23.56
-25.58
-27.93
-30.77
-34.12
-37.76
-41.22
-43.7
-44.32
-42.34
-37.5
-30.21
-21.49
-12.66
-4.95
0.9
4.74
6.93
8.07
8.77
9.45
10.32
11.54
13.16
15.13
17.27
19.27
20.74
21.46
21.41
20.85
20.2
19.8
19.85
20.27
20.83
21.22
21.16
20.54
19.39
17.86
16.18
14.58
13.21
12.17
11.37
10.64
9.79
8.63
7.13
5.4
3.7
2.26
1.18
0.31
-0.69
-2.16
-4.27
-6.86
-9.59
-12.03
-14.01
-15.57
-16.97
-18.54
-20.51
-23
-25.94
-29.23
-32.6
-35.59
-37.57
-37.82
-35.75
-31.15
-24.43
-16.46
-8.38
-1.29
4.11
7.61
9.46
10.15
10.28
10.3
10.55
11.15
12.12
13.34
14.64
15.86
16.86
17.58
18
18.16
18.1
17.84
17.41
16.85
16.26
15.67
15.08
14.36
13.41
12.11
10.47
8.6
6.65
4.75
2.98
1.35
-0.18
-1.59
-2.81
-3.83
-4.68
-5.48
-6.4
-7.56
-8.97
-10.55
-12.17
-13.73
-15.29
-16.95
-18.93
-21.38
-24.28
-27.35
-30.05
-31.73
-31.76
-29.77
-25.73
-20.05
-13.45
-6.8
-0.89
3.77
7.05
9.09
10.25
10.9
11.31
11.61
11.83
11.99
12.14
12.38
12.77
13.29
13.8
14.08
13.98
13.46
12.65
11.73
10.89
10.14
9.44
8.63
7.58
6.18
4.37
2.15
-0.42
-3.15
-5.8
-8.09
-9.84
-11.08
-12.04
-13.03
-14.36
-16.23
-18.64
-21.48
-24.47
-27.2
-29.09
-29.57
-28.24
-24.98
-20.12
-14.29
-8.29
-2.82
1.65
4.93
7.14
8.55
9.53
10.39
11.36
12.48
13.66
14.72
15.51
15.95
16.07
15.93
15.59
15.17
14.77
14.53
14.56
14.86
15.28
15.48
15.11
13.86
11.75
9.04
6.22
3.8
2.14
1.25
0.84
0.49
-0.24
-1.59
-3.58
-6
-8.53
-10.88
-12.83
-14.34
-15.57
-16.87
-18.62
-21.1
-24.32
-27.85
-30.97
-32.8
-32.67
-30.29
-25.93
-20.19
-13.87
-7.68
-2.18
2.3
5.61
7.77
9.01
9.64
10.11
10.79
11.87
13.3
14.81
16.1
16.95
17.33
17.38
17.29
17.25
17.3
17.41
17.47
17.35
17.03
16.51
15.87
15.14
14.36
13.49
12.5
11.44
10.43
9.57
8.9
8.33
7.65
6.69
5.42
3.94
2.47
1.14
-0.02
-1.17
-2.5
-4.15
-6.07
-8.07
-9.92
-11.47
-12.72
-13.8
-14.93
-16.28
-17.99
-20.15
-22.81
-25.91
-29.18
-32.12
-33.97
-33.97
-31.63
-27
-20.76
-14
-7.88
-3.16
-0.01
1.95
3.35
4.75
6.39
8.15
9.78
11.03
11.9
12.51
13.08
13.72
14.41
15
15.31
15.27
14.92
14.44
14.04
13.91
14.11
14.54
14.98
15.16
14.85
14
12.71
11.22
9.77
8.52
7.45
6.44
5.34
4.11
2.83
1.68
0.79
0.18
-0.31
-0.93
-1.9
-3.26
-4.9
-6.6
-8.1
-9.3
-10.2
-10.9
-11.63
-12.62
-14.09
-16.24
-19.11
-22.53
-26.04
-28.96
-30.5
-30.08
-27.46
-22.93
-17.19
-11.1
-5.49
-0.88
2.57
4.95
6.48
7.42
7.94
8.19
8.3
8.39
8.54
8.82
9.2
9.62
10.02
10.34
10.53
10.6
10.55
10.48
10.46
10.6
10.85
11.12
11.24
11.04
10.5
9.73
8.89
8.12
7.46
6.83
6.08
5.15
4.05
2.9
1.81
0.85
-0.01
-0.86
-1.79
-2.87
-4.13
-5.53
-7.05
-8.61
-10.17
-11.7
-13.18
-14.65
-16.2
-17.93
-19.86
-21.85
-23.59
-24.63
-24.49
-22.9
-19.8
-15.45
-10.37
-5.21
-0.55
3.19
5.84
7.47
8.29
8.6
8.6
8.5
8.39
8.36
8.45
8.69
9.07
9.42
9.6
9.43
8.88
8.11
7.4
7.04
7.16
7.65
8.16
8.24
7.62
6.23
4.3
2.12
-0.06
-2.14
-4.13
-6.07
-7.88
-9.41
-10.61
-11.56
-12.59
-14.05
-16.18
-18.92
-21.82
-24.17
-25.26
-24.64
-22.25
-18.42
-13.74
-8.83
-4.22
-0.21
3.08
5.62
7.43
8.56
9.13
9.34
9.47
9.73
10.21
10.79
11.27
11.45
11.25
10.77
10.26
9.92
9.79
9.77
9.6
9.08
8.12
6.87
5.54
4.36
3.42
2.62
1.72
0.49
-1.22
-3.34
-5.69
-8.02
-10.13
-11.97
-13.63
-15.34
-17.26
-19.49
-21.93
-24.32
-26.25
-27.27
-26.93
-24.98
-21.36
-16.39
-10.68
-4.99
-0.07
3.64
6.03
7.34
8.02
8.54
9.23
10.22
11.46
12.78
14.03
15.07
15.84
16.34
16.54
16.44
16.01
15.27
14.36
13.49
12.9
12.71
12.86
13.1
13.15
12.76
11.91
10.72
9.41
8.15
7.01
5.98
4.97
3.89
2.66
1.28
-0.24
-1.82
-3.32
-4.64
-5.74
-6.72
-7.69
-8.82
-10.12
-11.5
-12.85
-14.12
-15.47
-17.2
-19.61
-22.75
-26.34
-29.73
-32.09
-32.71
-31.22
-27.74
-22.77
-17.05
-11.3
-6.1
-1.78
1.55
3.95
5.61
6.75
7.61
8.36
9.16
10.06
11.05
12.05
12.97
13.79
14.51
15.18
15.77
16.25
16.5
16.43
16.03
15.4
14.7
14.08
13.58
13.15
12.65
12
11.15
10.12
8.99
7.81
6.61
5.44
4.33
3.31
2.34
1.27
-0.03
-1.7
-3.73
-5.98
-8.2
-10.17
-11.8
-13.17
-14.52
-16.08
-18.04
-20.44
-23.18
-26.02
-28.52
-30.15
-30.35
-28.76
-25.32
-20.4
-14.7
-9.04
-4.09
-0.17
2.72
4.79
6.27
7.31
8.02
8.5
8.9
9.4
10.15
11.1
12.12
12.97
13.45
13.49
13.19
12.77
12.46
12.4
12.6
12.91
13.1
12.94
12.33
11.25
9.83
8.25
6.66
5.17
3.76
2.38
0.92
-0.68
-2.36
-4
-5.43
-6.59
-7.52
-8.42
-9.52
-11.09
-13.21
-15.85
-18.78
-21.62
-23.83
-24.89
-24.34
-22.08
-18.3
-13.5
-8.34
-3.39
0.91
4.34
6.81
8.36
9.13
9.38
9.49
9.79
10.46
11.51
12.75
13.93
14.88
15.58
16.05
16.36
16.48
16.37
16.06
15.59
15.11
14.71
14.36
13.93
13.21
12.08
10.55
8.82
7.12
5.63
4.44
3.49
2.66
1.85
0.96
-0.14
-1.5
-3.18
-5.09
-7.09
-9
-10.69
-12.16
-13.52
-15.05
-16.99
-19.52
-22.54
-25.63
-28.09
-29.13
-28.12
-24.91
-19.88
-13.86
-7.82
-2.57
1.5
4.37
6.29
7.54
8.4
9.03
9.56
10.08
10.64
11.26
11.89
12.52
13.13
13.76
14.39
14.97
15.42
15.68
15.73
15.61
15.39
15.14
14.89
14.63
14.29
13.81
13.16
12.32
11.27
10.05
8.7
7.28
5.92
4.7
3.72
2.96
2.4
1.95
1.56
1.14
0.61
-0.14
-1.21
-2.69
-4.56
-6.66
-8.73
-10.5
-11.8
-12.67
-13.32
-14.09
-15.31
-17.19
-19.75
-22.8
-25.9
-28.47
-29.85
-29.49
-27.14
-22.93
-17.4
-11.32
-5.51
-0.63
3.01
5.41
6.83
7.63
8.12
8.49
8.84
9.2
9.59
10.05
10.61
11.26
11.89
12.34
12.46
12.2
11.65
11.05
10.61
10.51
10.75
11.23
11.76
12.17
12.35
12.26
11.91
11.33
10.55
9.63
8.62
7.56
6.5
5.48
4.48
3.49
2.47
1.37
0.16
-1.16
-2.54
-3.94
-5.27
-6.51
-7.63
-8.69
-9.72
-10.79
-11.92
-13.07
-14.26
-15.48
-16.83
-18.39
-20.17
-22.03
-23.59
-24.32
-23.78
-21.72
-18.26
-13.84
-9.03
-4.4
-0.36
2.85
5.15
6.58
7.22
7.25
6.88
6.41
6.1
6.12
6.54
7.31
8.27
9.25
10.08
10.67
10.98
11.01
10.87
10.64
10.43
10.27
10.15
9.95
9.53
8.78
7.72
6.46
5.2
4.08
3.19
2.45
1.77
1.03
0.15
-0.86
-1.97
-3.15
-4.41
-5.74
-7.12
-8.47
-9.71
-10.83
-11.92
-13.21
-14.91
-17.13
-19.68
-22.07
-23.67
-23.87
-22.33
-19.14
-14.74
-9.78
-4.92
-0.69
2.57
4.75
5.9
6.25
6.21
6.17
6.43
7.06
7.91
8.67
9.09
9.09
8.8
8.45
8.23
8.23
8.4
8.66
8.96
9.3
9.7
10.11
10.37
10.22
9.43
7.93
5.84
3.54
1.44
-0.12
-1.08
-1.6
-2.04
-2.74
-3.89
-5.49
-7.35
-9.21
-10.84
-12.1
-12.96
-13.57
-14.16
-15.09
-16.68
-19.01
-21.84
-24.51
-26.16
-26.05
-23.81
-19.69
-14.39
-8.84
-3.84
0.13
2.99
4.9
6.16
7.06
7.78
8.47
9.2
9.97
10.71
11.27
11.54
11.45
11.03
10.4
9.74
9.2
8.84
8.65
8.53
8.41
8.2
7.87
7.42
6.81
6.06
5.17
4.21
3.28
2.47
1.77
1.08
0.23
-0.96
-2.55
-4.5
-6.64
-8.77
-10.72
-12.38
-13.72
-14.78
-15.74
-16.81
-18.27
-20.24
-22.64
-25.04
-26.82
-27.3
-25.99
-22.81
-18.06
-12.4
-6.62
-1.45
2.64
5.49
7.17
7.96
8.17
8.1
7.99
8.04
8.38
9.06
10
11.07
12.06
12.78
13.11
13.01
12.55
11.79
10.84
9.8
8.77
7.87
7.09
6.36
5.52
4.39
2.91
1.13
-0.79
-2.68
-4.4
-5.9
-7.21
-8.39
-9.48
-10.57
-11.77
-13.24
-15.14
-17.52
-20.17
-22.61
-24.22
-24.39
-22.79
-19.48
-14.89
-9.66
-4.48
0.06
3.58
5.94
7.2
7.64
7.65
7.64
7.93
8.57
9.41
10.15
10.58
10.62
10.42
10.24
10.23
10.38
10.57
10.59
10.32
9.75
8.91
7.81
6.42
4.69
2.64
0.41
-1.78
-3.74
-5.46
-7.12
-9.01
-11.4
-14.3
-17.4
-20.15
-21.88
-22.11
-20.67
-17.7
-13.62
-8.89
-4.01
0.61
4.61
7.73
9.8
10.85
11.1
10.89
10.59
10.47
10.63
11
11.44
11.82
12.03
12.01
11.71
11.15
10.39
9.55
8.73
7.98
7.33
6.66
5.86
4.8
3.42
1.7
-0.27
-2.42
-4.64
-6.86
-9.09
-11.36
-13.75
-16.22
-18.55
-20.32
-20.93
-19.9
-17.02
-12.56
-7.18
-1.67
3.25
7.19
10.06
12.03
13.25
13.9
14.04
13.81
13.42
13.13
13.18
13.63
14.39
15.19
15.78
15.98
15.79
15.36
14.86
14.43
14.05
13.64
13.05
12.21
11.17
10.02
8.87
7.73
6.47
4.92
2.99
0.74
-1.67
-3.99
-6.05
-7.75
-9.12
-10.24
-11.29
-12.47
-14.05
-16.2
-19.03
-22.32
-25.56
-28.05
-29.02
-27.93
-24.7
-19.68
-13.66
-7.51
-1.99
2.48
5.81
8.21
9.91
11.05
11.67
11.75
11.37
10.79
10.34
10.29
10.75
11.55
12.36
12.91
13.02
12.75
12.28
11.79
11.31
10.76
9.98
8.85
7.35
5.57
3.65
1.7
-0.19
-1.97
-3.61
-5.16
-6.72
-8.45
-10.56
-13.17
-16.21
-19.41
-22.28
-24.28
-24.86
-23.71
-20.71
-16.12
-10.44
-4.38
1.29
5.92
9.19
11.1
11.97
12.32
12.58
12.96
13.46
13.92
14.17
14.18
14.07
13.99
14.09
14.32
14.55
14.58
14.3
13.75
13.04
12.3
11.57
10.75
9.74
8.44
6.86
5.1
3.3
1.53
-0.18
-1.91
-3.76
-5.77
-7.9
-9.99
-11.9
-13.58
-15.22
-17.1
-19.55
-22.58
-25.77
-28.29
-29.17
-27.7
-23.77
-17.97
-11.37
-5.11
0
3.74
6.34
8.27
9.92
11.41
12.64
13.5
13.99
14.29
14.66
15.33
16.29
17.35
18.22
18.68
18.69
18.39
18
17.77
17.78
17.97
18.1
17.91
17.18
15.86
14.06
12.01
9.98
8.14
6.63
5.4
4.34
3.3
2.05
0.45
-1.59
-3.99
-6.51
-8.87
-10.81
-12.29
-13.48
-14.68
-16.21
-18.3
-21.01
-24.19
-27.51
-30.38
-32.13
-32.08
-29.79
-25.28
-19.11
-12.21
-5.6
-0.06
4.13
7.07
9.14
10.67
11.84
12.66
13.11
13.22
13.17
13.15
13.32
13.71
14.19
14.62
14.91
15.07
15.23
15.52
16
16.56
16.96
16.98
16.48
15.58
14.54
13.64
13.02
12.62
12.2
11.55
10.56
9.3
7.94
6.64
5.42
4.2
2.83
1.22
-0.59
-2.51
-4.39
-6.18
-7.9
-9.59
-11.29
-12.96
-14.57
-16.13
-17.81
-19.85
-22.49
-25.67
-28.97
-31.59
-32.64
-31.46
-27.93
-22.54
-16.21
-9.95
-4.56
-0.43
2.42
4.21
5.28
5.95
6.5
7.13
7.96
8.99
10.11
11.16
11.94
12.38
12.47
12.31
12.07
11.88
11.83
11.95
12.17
12.39
12.45
12.22
11.61
10.63
9.41
8.16
7.08
6.3
5.8
5.4
4.8
3.74
2.09
-0.02
-2.24
-4.17
-5.58
-6.47
-7.13
-7.9
-9.11
-10.87
-13.13
-15.66
-18.11
-20.07
-21.06
-20.66
-18.61
-14.96
-10.17
-4.97
-0.17
3.58
6.01
7.2
7.52
7.4
7.21
7.09
7.05
6.95
6.65
6.11
5.42
4.76
4.34
4.27
4.51
4.89
5.14
5.06
4.59
3.81
2.9
2.01
1.2
0.4
-0.54
-1.7
-3.13
-4.73
-6.42
-8.17
-10.03
-12.02
-14.08
-15.91
-17.08
-17.1
-15.68
-12.82
-8.91
-4.5
-0.21
3.46
6.25
8.09
9.08
9.43
9.36
9.09
8.72
8.26
7.66
6.88
5.96
5.03
4.25
3.73
3.42
3.2
2.97
2.67
2.38
2.16
2.01
1.75
1.17
0.09
-1.5
-3.35
-5.18
-6.67
-7.76
-8.63
-9.63
-11.1
-13.2
-15.76
-18.36
-20.37
-21.18
-20.36
-17.83
-13.88
-9.13
-4.33
-0.1
3.2
5.53
7.11
8.26
9.16
9.86
10.33
10.53
10.55
10.57
10.75
11.1
11.53
11.82
11.87
11.72
11.48
11.36
11.41
11.59
11.73
11.71
11.42
10.85
10.01
8.9
7.54
5.99
4.39
2.92
1.73
0.85
0.18
-0.44
-1.22
-2.27
-3.6
-5.15
-6.79
-8.43
-10.03
-11.63
-13.32
-15.24
-17.48
-20.03
-22.69
-25.14
-26.93
-27.59
-26.78
-24.3
-20.26
-15.03
-9.28
-3.77
0.76
3.89
5.58
6.16
6.21
6.3
6.82
7.84
9.25
10.77
12.15
13.16
13.69
13.73
13.4
12.9
12.49
12.35
12.61
13.19
13.92
14.49
14.68
14.29
13.33
11.93
10.32
8.77
7.49
6.55
5.92
5.43
4.9
4.23
3.39
2.45
1.49
0.56
-0.36
-1.3
-2.28
-3.29
-4.32
-5.37
-6.51
-7.84
-9.35
-10.98
-12.56
-13.9
-14.92
-15.78
-16.81
-18.37
-20.61
-23.35
-26
-27.79
-27.98
-26.17
-22.47
-17.44
-11.89
-6.61
-2.2
1.06
3.22
4.51
5.27
5.83
6.39
7.02
7.68
8.3
8.82
9.28
9.68
10.03
10.29
10.42
10.36
10.22
10.08
10.06
10.15
10.23
10.13
9.76
9.13
8.36
7.6
6.95
6.4
5.89
5.33
4.64
3.75
2.59
1.1
-0.72
-2.72
-4.67
-6.32
-7.47
-8.12
-8.48
-8.9
-9.7
-11.12
-13.18
-15.71
-18.27
-20.3
-21.2
-20.53
-18.15
-14.32
-9.61
-4.77
-0.49
2.8
4.95
6.06
6.36
6.15
5.71
5.31
5.12
5.23
5.57
6.02
6.44
6.77
7.06
7.35
7.65
7.86
7.86
7.5
6.81
5.94
5.12
4.47
3.92
3.23
2.14
0.54
-1.39
-3.24
-4.55
-5.11
-5.06
-4.92
-5.28
-6.62
-9.01
-12.19
-15.57
-18.45
-20.23
-20.54
-19.29
-16.69
-13.16
-9.2
-5.33
-1.91
0.83
2.83
4.19
5.1
5.86
6.73
7.91
9.37
10.91
12.23
13.05
13.25
12.83
11.96
10.86
9.81
9.08
8.89
9.33
10.21
11.15
11.7
11.49
10.45
8.81
6.96
5.28
4.01
3.12
2.46
1.82
1.02
-0.04
-1.35
-2.86
-4.45
-5.96
-7.3
-8.43
-9.4
-10.36
-11.51
-13.06
-15.15
-17.75
-20.62
-23.25
-24.94
-25.04
-23.15
-19.39
-14.35
-8.97
-4.18
-0.56
1.79
3.19
4.14
5.04
6.05
7.13
8.13
9
9.78
10.57
11.4
12.19
12.76
12.97
12.77
12.25
11.59
10.98
10.55
10.35
10.32
10.36
10.36
10.2
9.86
9.31
8.58
7.67
6.62
5.46
4.22
2.99
1.87
0.95
0.29
-0.14
-0.49
-0.96
-1.72
-2.89
-4.47
-6.33
-8.25
-10
-11.44
-12.58
-13.64
-14.9
-16.61
-18.74
-20.99
-22.76
-23.42
-22.57
-20.14
-16.48
-12.17
-7.89
-4.16
-1.25
0.8
2.18
3.13
3.92
4.68
5.46
6.18
6.74
7.12
7.38
7.69
8.14
8.73
9.31
9.69
9.83
9.8
9.8
9.98
10.38
10.83
11.08
10.88
10.13
8.89
7.39
5.86
4.48
3.32
2.34
1.35
0.25
-1.04
-2.43
-3.79
-4.93
-5.79
-6.41
-6.9
-7.43
-8.17
-9.31
-11.02
-13.36
-16.18
-19.04
-21.29
-22.19
-21.28
-18.51
-14.31
-9.42
-4.62
-0.51
2.6
4.68
5.92
6.58
6.98
7.38
7.94
8.68
9.45
10.06
10.32
10.19
9.79
9.3
8.9
8.63
8.4
8.08
7.53
6.79
5.97
5.21
4.64
4.23
3.88
3.39
2.61
1.48
0.02
-1.66
-3.39
-4.98
-6.31
-7.3
-8.02
-8.7
-9.61
-11.05
-13.15
-15.79
-18.53
-20.71
-21.66
-20.92
-18.42
-14.49
-9.83
-5.17
-1.15
1.9
3.99
5.38
6.4
7.33
8.3
9.3
10.21
10.95
11.41
11.57
11.45
11.13
10.7
10.28
9.94
9.73
9.66
9.71
9.84
10.02
10.2
10.29
10.17
9.7
8.81
7.59
6.19
4.88
3.86
3.15
2.62
2.03
1.12
-0.24
-1.99
-3.95
-5.86
-7.53
-8.94
-10.2
-11.57
-13.3
-15.53
-18.21
-21.06
-23.6
-25.27
-25.57
-24.22
-21.21
-16.87
-11.82
-6.73
-2.2
1.4
3.99
5.71
6.84
7.69
8.43
9.17
9.9
10.56
11.13
11.59
12
12.39
12.8
13.2
13.54
13.74
13.72
13.44
12.94
12.26
11.55
10.89
10.3
9.69
8.94
7.94
6.69
5.38
4.21
3.39
2.91
2.54
1.95
0.9
-0.65
-2.46
-4.22
-5.64
-6.64
-7.34
-7.95
-8.66
-9.57
-10.71
-12.14
-13.99
-16.33
-19.05
-21.73
-23.72
-24.3
-23.02
-19.88
-15.37
-10.29
-5.44
-1.41
1.53
3.43
4.49
5.03
5.31
5.59
6.02
6.66
7.44
8.24
8.87
9.28
9.48
9.54
9.55
9.54
9.55
9.58
9.65
9.76
9.88
9.94
9.88
9.62
9.18
8.58
7.85
7.04
6.11
5.05
3.85
2.53
1.14
-0.26
-1.63
-2.94
-4.13
-5.15
-5.97
-6.68
-7.51
-8.79
-10.77
-13.48
-16.62
-19.52
-21.38
-21.53
-19.74
-16.24
-11.73
-7.02
-2.78
0.59
3.07
4.77
5.92
6.66
7.1
7.35
7.56
7.89
8.46
9.3
10.25
11.07
11.53
11.56
11.21
10.68
10.18
9.81
9.54
9.23
8.72
7.93
6.87
5.7
4.59
3.7
3.07
2.57
1.98
1.09
-0.23
-1.89
-3.68
-5.34
-6.7
-7.77
-8.7
-9.7
-10.98
-12.62
-14.65
-16.95
-19.29
-21.29
-22.45
-22.3
-20.58
-17.39
-13.2
-8.66
-4.41
-0.86
1.84
3.8
5.18
6.21
7.04
7.8
8.6
9.49
10.45
11.44
12.38
13.2
13.85
14.24
14.36
14.19
13.76
13.17
12.53
11.94
11.41
10.91
10.34
9.67
8.89
8.05
7.2
6.37
5.53
4.67
3.73
2.73
1.68
0.61
-0.48
-1.6
-2.79
-4.09
-5.49
-6.96
-8.36
-9.58
-10.56
-11.35
-12.2
-13.41
-15.24
-17.72
-20.58
-23.2
-24.88
-25.01
-23.31
-19.9
-15.3
-10.22
-5.38
-1.32
1.74
3.82
5.17
6.1
6.94
7.87
8.96
10.12
11.19
11.97
12.36
12.42
12.32
12.26
12.42
12.85
13.46
14.06
14.45
14.43
13.98
13.15
12.09
10.98
9.99
9.18
8.52
7.91
7.19
6.23
4.99
3.53
2.02
0.65
-0.43
-1.22
-1.85
-2.56
-3.55
-4.88
-6.43
-7.95
-9.21
-10.14
-10.84
-11.53
-12.46
-13.78
-15.57
-17.8
-20.27
-22.61
-24.27
-24.64
-23.25
-20.02
-15.3
-9.88
-4.62
-0.25
2.89
4.84
5.83
6.21
6.25
6.18
6.19
6.42
6.92
7.62
8.38
9.01
9.39
9.52
9.47
9.38
9.33
9.41
9.61
9.96
10.36
10.67
10.7
10.24
9.22
7.73
6.02
4.43
3.19
2.32
1.63
0.83
-0.28
-1.69
-3.22
-4.61
-5.7
-6.53
-7.31
-8.32
-9.75
-11.65
-13.92
-16.39
-18.81
-20.93
-22.42
-22.95
-22.23
-20.15
-16.85
-12.69
-8.21
-3.95
-0.31
2.51
4.51
5.79
6.53
6.87
6.96
6.94
6.96
7.09
7.38
7.81
8.28
8.66
8.87
8.9
8.85
8.9
9.18
9.71
10.39
10.98
11.27
11.11
10.54
9.74
8.93
8.25
7.71
7.16
6.43
5.41
4.11
2.63
1.08
-0.47
-2.06
-3.75
-5.57
-7.51
-9.49
-11.43
-13.33
-15.28
-17.48
-20.06
-22.95
-25.79
-27.96
-28.74
-27.57
-24.26
-19.19
-13.15
-7.16
-2.07
1.6
3.82
4.92
5.38
5.68
6.09
6.74
7.59
8.54
9.45
10.2
10.74
11.03
11.14
11.17
11.25
11.48
11.86
12.31
12.69
12.86
12.77
12.47
12.04
11.57
11.04
10.34
9.32
7.89
6.19
4.44
2.95
1.88
1.12
0.37
-0.69
-2.28
-4.33
-6.52
-8.5
-9.98
-10.89
-11.39
-11.79
-12.49
-13.85
-16.1
-19.19
-22.73
-26.02
-28.24
-28.71
-27.15
-23.77
-19.12
-13.92
-8.84
-4.32
-0.58
2.33
4.47
5.97
7.01
7.83
8.66
9.58
10.53
11.34
11.82
11.92
11.8
11.72
11.93
12.54
13.43
14.38
15.15
15.58
15.66
15.45
14.99
14.32
13.46
12.46
11.4
10.3
9.11
7.75
6.2
4.54
2.96
1.63
0.63
-0.17
-1.02
-2.15
-3.66
-5.49
-7.46
-9.35
-11.05
-12.52
-13.76
-14.85
-15.89
-17.06
-18.58
-20.63
-23.15
-25.78
-27.82
-28.53
-27.29
-23.96
-18.93
-12.97
-6.97
-1.68
2.48
5.42
7.29
8.35
8.91
9.18
9.34
9.46
9.58
9.69
9.77
9.83
9.9
10.02
10.24
10.61
11.17
11.9
12.69
13.37
13.76
13.69
13.08
11.96
10.45
8.7
6.87
5.12
3.53
2.15
0.89
-0.39
-1.83
-3.48
-5.23
-6.87
-8.22
-9.26
-10.17
-11.27
-12.87
-15.11
-17.91
-20.97
-23.8
-25.81
-26.44
-25.31
-22.35
-17.86
-12.44
-6.84
-1.73
2.48
5.7
8.01
9.65
10.76
11.43
11.7
11.65
11.43
11.22
11.19
11.4
11.8
12.26
12.61
12.8
12.8
12.66
12.42
12.04
11.46
10.65
9.65
8.58
7.58
6.65
5.73
4.64
3.19
1.33
-0.93
-3.39
-5.85
-8.11
-10.05
-11.65
-13
-14.32
-15.87
-17.92
-20.6
-23.8
-27.09
-29.8
-31.18
-30.64
-27.91
-23.19
-17.06
-10.32
-3.83
1.73
5.96
8.72
10.17
10.62
10.55
10.37
10.4
10.78
11.42
12.14
12.73
13.06
13.11
12.99
12.8
12.66
12.67
12.86
13.21
13.61
13.85
13.72
13.04
11.81
10.22
8.56
7.08
5.89
4.93
3.98
2.81
1.29
-0.6
-2.74
-5
-7.3
-9.61
-12
-14.54
-17.3
-20.3
-23.55
-26.91
-30.16
-32.84
-34.37
-34.14
-31.77
-27.26
-21.06
-13.99
-7
-0.9
3.79
6.97
8.86
9.86
10.41
10.86
11.43
12.22
13.28
14.56
15.98
17.36
18.45
18.98
18.81
17.97
16.73
15.51
14.66
14.38
14.56
14.91
15.04
14.63
13.58
12
10.13
8.23
6.4
4.62
2.73
0.62
-1.77
-4.3
-6.76
-8.92
-10.68
-12.08
-13.31
-14.75
-16.74
-19.56
-23.19
-27.28
-31.08
-33.69
-34.25
-32.29
-27.85
-21.52
-14.22
-6.96
-0.58
4.42
7.92
10.1
11.37
12.17
12.88
13.7
14.64
15.57
16.33
16.84
17.13
17.32
17.51
17.69
17.77
17.66
17.36
16.97
16.65
16.49
16.4
16.13
15.42
14.13
12.32
10.29
8.37
6.79
5.48
4.25
2.74
0.76
-1.7
-4.4
-7.02
-9.27
-11.04
-12.45
-13.81
-15.48
-17.8
-20.89
-24.64
-28.62
-32.14
-34.39
-34.64
-32.47
-27.95
-21.6
-14.26
-6.9
-0.33
4.92
8.7
11.1
12.46
13.09
13.28
13.21
12.99
12.71
12.45
12.35
12.48
12.86
13.45
14.08
14.6
14.89
14.9
14.65
14.24
13.73
13.17
12.52
11.66
10.45
8.76
6.58
4.06
1.4
-1.14
-3.39
-5.35
-7.17
-9.13
-11.53
-14.56
-18.18
-22.08
-25.66
-28.17
-28.89
-27.4
-23.63
-18.04
-11.36
-4.52
1.68
6.78
10.64
13.37
15.19
16.29
16.78
16.71
16.22
15.55
14.98
14.78
15.03
15.61
16.24
16.58
16.38
15.6
14.39
13.01
11.74
10.69
9.8
8.82
7.49
5.64
3.3
0.73
-1.74
-3.84
-5.48
-6.78
-8
-9.41
-11.28
-13.78
-17.04
-21.04
-25.46
-29.71
-32.88
-34.07
-32.63
-28.46
-22.08
-14.48
-6.82
-0.04
5.26
9.02
11.47
13.03
14.1
14.99
15.81
16.61
17.37
18.08
18.76
19.39
19.97
20.38
20.51
20.29
19.74
18.99
18.16
17.34
16.53
15.62
14.52
13.18
11.6
9.84
7.93
5.92
3.81
1.6
-0.69
-3.02
-5.32
-7.49
-9.51
-11.36
-13.18
-15.18
-17.62
-20.72
-24.41
-28.26
-31.56
-33.4
-33.05
-30.23
-25.23
-18.79
-11.88
-5.36
0.23
4.71
8.21
10.97
13.17
14.9
16.19
17.06
17.65
18.14
18.74
19.54
20.48
21.35
21.9
21.96
21.54
20.79
19.95
19.18
18.56
18
17.38
16.58
15.49
14.07
12.29
10.24
8.06
5.97
4.15
2.72
1.57
0.46
-0.9
-2.7
-4.89
-7.26
-9.51
-11.42
-12.93
-14.22
-15.59
-17.41
-19.97
-23.36
-27.35
-31.37
-34.58
-36.06
-35.1
-31.46
-25.48
-18.05
-10.24
-3.09
2.75
7.05
9.92
11.71
12.76
13.39
13.8
14.14
14.54
15.11
15.91
16.93
18.06
19.11
19.93
20.37
20.44
20.18
19.74
19.23
18.71
18.15
17.48
16.65
15.59
14.32
12.89
11.34
9.69
7.98
6.26
4.62
3.17
1.93
0.81
-0.38
-1.88
-3.76
-5.98
-8.31
-10.51
-12.45
-14.13
-15.74
-17.46
-19.46
-21.82
-24.51
-27.36
-30.01
-31.87
-32.27
-30.63
-26.8
-21.15
-14.5
-7.82
-1.92
2.74
6.09
8.31
9.7
10.58
11.21
11.84
12.59
13.45
14.2
14.57
14.36
13.52
12.2
10.67
9.28
8.29
7.87
8.06
8.75
9.63
10.28
10.26
9.28
7.35
4.73
1.86
-0.84
-3.16
-5.04
-6.61
-8.1
-9.69
-11.57
-13.87
-16.59
-19.52
-22.23
-24.1
-24.48
-22.91
-19.31
-14.07
-7.98
-1.96
3.17
6.95
9.3
10.41
10.64
10.35
9.84
9.37
9.15
9.31
9.84
10.58
11.24
11.49
11.14
10.22
8.97
7.76
6.85
6.3
5.99
5.62
4.91
3.74
2.1
0.15
-1.94
-4.02
-6
-7.88
-9.77
-11.8
-14.14
-16.9
-20
-23.12
-25.67
-26.95
-26.42
-23.89
-19.64
-14.29
-8.64
-3.39
1.04
4.46
6.95
8.61
9.67
10.31
10.79
11.28
12.02
13.08
14.43
15.95
17.39
18.52
19.2
19.38
19.14
18.63
17.97
17.24
16.49
15.68
14.83
13.88
12.8
11.49
9.95
8.22
6.42
4.68
3.1
1.66
0.26
-1.23
-2.9
-4.75
-6.69
-8.63
-10.45
-12.12
-13.67
-15.23
-17.02
-19.24
-22.02
