2023-01-28 10:28:50.094266,0.01836697384715082
2023-01-28 10:28:50.099266,0.0257740180323345
2023-01-28 10:28:50.104266,0.018318891525268544
2023-01-28 10:28:50.109266,0.013625198711772351
2023-01-28 10:28:50.114266,0.01973728463053701
2023-01-28 10:28:50.119266,0.025258724235577745
2023-01-28 10:28:50.124266,0.023391446098685216
2023-01-28 10:28:50.129266,0.021653647834593632
2023-01-28 10:28:50.134266,0.02478579804301262
2023-01-28 10:28:50.139266,0.026580265777695906
2023-01-28 10:28:50.144266,0.0235356893390417
2023-01-28 10:28:50.149266,0.022036075296690636
2023-01-28 10:28:50.154266,0.026636919006705236
2023-01-28 10:28:50.159266,0.03278205111341896
2023-01-28 10:28:50.164266,0.03596464917063712
2023-01-28 10:28:50.169266,0.03820164050032046
2023-01-28 10:28:50.174266,0.040892958641052225
2023-01-28 10:28:50.179266,0.040141604303292444
2023-01-28 10:28:50.184266,0.03401736542582513
2023-01-28 10:28:50.189266,0.027279832714740264
2023-01-28 10:28:50.194266,0.024617513641715005
2023-01-28 10:28:50.199266,0.02531993049244794
2023-01-28 10:28:50.204266,0.028055310249328586
2023-01-28 10:28:50.209266,0.03478708744123883
2023-01-28 10:28:50.214266,0.04622995853424072
2023-01-28 10:28:50.219266,0.05872820090785175
2023-01-28 10:28:50.224266,0.06923675537109372
2023-01-28 10:28:50.229266,0.07896891477619113
2023-01-28 10:28:50.234266,0.08916636556386939
2023-01-28 10:28:50.239266,0.09753476608538894
2023-01-28 10:28:50.244266,0.10166744887828819
2023-01-28 10:28:50.249266,0.10204923457283445
2023-01-28 10:28:50.254266,0.0990710705518722
2023-01-28 10:28:50.259266,0.09082208112853622
2023-01-28 10:28:50.264266,0.07649700343608852
2023-01-28 10:28:50.269266,0.0588206996127826
2023-01-28 10:28:50.274266,0.04082083702087398
2023-01-28 10:28:50.279266,0.02308663755679457
2023-01-28 10:28:50.284266,0.00605821609497074
2023-01-28 10:28:50.289266,-0.008038877696145665
2023-01-28 10:28:50.294266,-0.0176457576453685
2023-01-28 10:28:50.299266,-0.023794104416470802
2023-01-28 10:28:50.304266,-0.027887027710676075
2023-01-28 10:28:50.309266,-0.02970102756235125
2023-01-28 10:28:50.314266,-0.028584202751517195
2023-01-28 10:28:50.319266,-0.023876867939095735
2023-01-28 10:28:50.324266,-0.012573203071951795
2023-01-28 10:28:50.329266,0.011092500943619812
2023-01-28 10:28:50.334266,0.05159100145101542
2023-01-28 10:28:50.339266,0.10777731497597076
2023-01-28 10:28:50.344266,0.17172157764434803
2023-01-28 10:28:50.349266,0.22953857233992922
2023-01-28 10:28:50.354266,0.26410937309265126
2023-01-28 10:28:50.359266,0.2613573194958085
2023-01-28 10:28:50.364266,0.2173505276441574
2023-01-28 10:28:50.369266,0.14061172112023385
2023-01-28 10:28:50.374266,0.049066744744777575
2023-01-28 10:28:50.379266,-0.03515117545315372
2023-01-28 10:28:50.384266,-0.09291668981313697
2023-01-28 10:28:50.389266,-0.11674194627014385
2023-01-28 10:28:50.394266,-0.11339922994375214
2023-01-28 10:28:50.399266,-0.09551495303822931
2023-01-28 10:28:50.404266,-0.07128020375967017
2023-01-28 10:28:50.409266,-0.04448882875914184
2023-01-28 10:28:50.414266,-0.02079506777226919
2023-01-28 10:28:50.419266,-0.0068223977364881136
2023-01-28 10:28:50.424266,-0.0028608243446797132
2023-01-28 10:28:50.429266,-0.0024486755296489093
2023-01-28 10:28:50.434266,-0.0006490945816039755
2023-01-28 10:28:50.439266,0.0019185423047635576
2023-01-28 10:28:50.444266,0.004086892120540109
2023-01-28 10:28:50.449266,0.007630929764440085
2023-01-28 10:28:50.454266,0.013486742973327638
2023-01-28 10:28:50.459266,0.019101625200122103
2023-01-28 10:28:50.464266,0.022357702255248996
2023-01-28 10:28:50.469266,0.024690537329566487
2023-01-28 10:28:50.474266,0.0280312709510326
2023-01-28 10:28:50.479266,0.031967295791363134
2023-01-28 10:28:50.484266,0.036156974732875845
2023-01-28 10:28:50.489266,0.04230665358416158
2023-01-28 10:28:50.494266,0.051230393350124255
2023-01-28 10:28:50.499266,0.06063427426876486
2023-01-28 10:28:50.504266,0.06815493106842042
2023-01-28 10:28:50.509266,0.07430190522705624
2023-01-28 10:28:50.514266,0.08055984973907468
2023-01-28 10:28:50.519266,0.08718594701296908
2023-01-28 10:28:50.524266,0.09493609517812725
2023-01-28 10:28:50.529266,0.10643796193291535
2023-01-28 10:28:50.534266,0.12344817817211153
2023-01-28 10:28:50.539266,0.1445291689738236
2023-01-28 10:28:50.544266,0.16717791557312012
2023-01-28 10:28:50.549266,0.19022830209831798
2023-01-28 10:28:50.554266,0.21249434351921076
2023-01-28 10:28:50.559266,0.23134608882911634
2023-01-28 10:28:50.564266,0.24480482935905448
2023-01-28 10:28:50.569266,0.2534063217299271
2023-01-28 10:28:50.574266,0.25829157233238226
2023-01-28 10:28:50.579266,0.2591941246556937
2023-01-28 10:28:50.584266,0.2558875083923339
2023-01-28 10:28:50.589266,0.24969791510605105
2023-01-28 10:28:50.594266,0.2417516708374023
2023-01-28 10:28:50.599266,0.23134054164352771
2023-01-28 10:28:50.604266,0.2176871001720428
2023-01-28 10:28:50.609266,0.20178615763145852
2023-01-28 10:28:50.614266,0.1849919557571412
2023-01-28 10:28:50.619266,0.16740973640526116
2023-01-28 10:28:50.624266,0.1492196321487426
2023-01-28 10:28:50.629266,0.13195589568003074
2023-01-28 10:28:50.634266,0.11681298911571494
2023-01-28 10:28:50.639266,0.10307494060562108
2023-01-28 10:28:50.644266,0.08969525992870331
2023-01-28 10:28:50.649266,0.07704195589174448
2023-01-28 10:28:50.654266,0.0657268390059471
2023-01-28 10:28:50.659266,0.05523888116756643
2023-01-28 10:28:50.664266,0.04524429887533184
2023-01-28 10:28:50.669266,0.03685022201645453
2023-01-28 10:28:50.674266,0.031084418296813937
2023-01-28 10:28:50.679266,0.027357134057973926
2023-01-28 10:28:50.684266,0.024737715721130295
2023-01-28 10:28:50.689266,0.023429741495593095
2023-01-28 10:28:50.694266,0.02365589141845698
2023-01-28 10:28:50.699266,0.024412777214188025
2023-01-28 10:28:50.704266,0.02471367642283427
2023-01-28 10:28:50.709266,0.024854080242727485
2023-01-28 10:28:50.714266,0.025170445442199738
2023-01-28 10:28:50.719266,0.02481028185908414
2023-01-28 10:28:50.724266,0.023078918457031184
2023-01-28 10:28:50.729266,0.02087074794772568
2023-01-28 10:28:50.734266,0.0195209197700023
2023-01-28 10:28:50.739266,0.019339521654938616
2023-01-28 10:28:50.744266,0.02036233805119994
2023-01-28 10:28:50.749266,0.02321189821843006
2023-01-28 10:28:50.754266,0.027862986549734993
2023-01-28 10:28:50.759266,0.03267759057519735
2023-01-28 10:28:50.764266,0.0359886884689331
2023-01-28 10:28:50.769266,0.037742931431857904
2023-01-28 10:28:50.774266,0.03860910981893532
2023-01-28 10:28:50.779266,0.03866873421156211
2023-01-28 10:28:50.784266,0.0381042584776878
2023-01-28 10:28:50.789266,0.03792162686987169
2023-01-28 10:28:50.794266,0.038633149117231355
2023-01-28 10:28:50.799266,0.039160354588439666
2023-01-28 10:28:50.804266,0.03817638009786603
2023-01-28 10:28:50.809266,0.03561466757869953
2023-01-28 10:28:50.814266,0.031949877738952616
2023-01-28 10:28:50.819266,0.02724297909169805
2023-01-28 10:28:50.824266,0.02209325693547721
2023-01-28 10:28:50.829266,0.018390580123020486
2023-01-28 10:28:50.834266,0.017765959724783856
2023-01-28 10:28:50.839266,0.020048968678827248
2023-01-28 10:28:50.844266,0.024184783920645676
2023-01-28 10:28:50.849266,0.029652833029539503
2023-01-28 10:28:50.854266,0.03603677079081532
2023-01-28 10:28:50.859266,0.04245247997717846
2023-01-28 10:28:50.864266,0.04873017594218247
2023-01-28 10:28:50.869266,0.05624063037934555
2023-01-28 10:28:50.874266,0.06630381196737276
2023-01-28 10:28:50.879266,0.07845036231165947
2023-01-28 10:28:50.884266,0.09104152768850318
2023-01-28 10:28:50.889266,0.10247768945639313
2023-01-28 10:28:50.894266,0.11075477302074427
2023-01-28 10:28:50.899266,0.11305810355762387
2023-01-28 10:28:50.904266,0.10734101384878145
2023-01-28 10:28:50.909266,0.09387028419468667
2023-01-28 10:28:50.914266,0.07450163364410396
2023-01-28 10:28:50.919266,0.05147008732026195
2023-01-28 10:28:50.924266,0.027790864929556864
2023-01-28 10:28:50.929266,0.0074786366906220295
2023-01-28 10:28:50.934266,-0.00634670257568349
2023-01-28 10:28:50.939266,-0.013306786208675182
2023-01-28 10:28:50.944266,-0.015097459778189536
2023-01-28 10:28:50.949266,-0.013943261907152563
2023-01-28 10:28:50.954266,-0.012356838211417122
2023-01-28 10:28:50.959266,-0.01267824059434246
2023-01-28 10:28:50.964266,-0.014760891906917019
2023-01-28 10:28:50.969266,-0.014265999141431307
2023-01-28 10:28:50.974266,-0.004303256981074753
2023-01-28 10:28:50.979266,0.02119426307034496
2023-01-28 10:28:50.984266,0.06500562280416483
2023-01-28 10:28:50.989266,0.1244932838462494
2023-01-28 10:28:50.994266,0.18934330344200126
2023-01-28 10:28:50.999266,0.24240857939157376
2023-01-28 10:28:51.004266,0.26588839292526234
2023-01-28 10:28:51.009266,0.2490978674839227
2023-01-28 10:28:51.014266,0.19254069030284873
2023-01-28 10:28:51.019266,0.10770775130721819
2023-01-28 10:28:51.024266,0.01432816218584771
2023-01-28 10:28:51.029266,-0.06543120250805573
2023-01-28 10:28:51.034266,-0.11539459228515617
2023-01-28 10:28:51.039266,-0.13122096677696712
2023-01-28 10:28:51.044266,-0.11909683793783174
2023-01-28 10:28:51.049266,-0.09003386342699815
2023-01-28 10:28:51.054266,-0.055557690560817725
2023-01-28 10:28:51.059266,-0.02547629251499837
2023-01-28 10:28:51.064266,-0.005240838043391733
2023-01-28 10:28:51.069266,0.0057475304515275235
2023-01-28 10:28:51.074266,0.011587540619075227
2023-01-28 10:28:51.079266,0.015074254120761353
2023-01-28 10:28:51.084266,0.016227364540099994
2023-01-28 10:28:51.089266,0.014828689309794507
2023-01-28 10:28:51.094266,0.012212594971060696
2023-01-28 10:28:51.099266,0.01009448705003688
2023-01-28 10:28:51.104266,0.009303689002990698
2023-01-28 10:28:51.109266,0.01037443180166541
2023-01-28 10:28:51.114266,0.014087757095694485
2023-01-28 10:28:51.119266,0.020555092134166016
2023-01-28 10:28:51.124266,0.0285361222922801
2023-01-28 10:28:51.129266,0.036366043740690183
2023-01-28 10:28:51.134266,0.04320085048675533
2023-01-28 10:28:51.139266,0.04918998055967551
2023-01-28 10:28:51.144266,0.055076878517866135
2023-01-28 10:28:51.149266,0.06191725435012252
2023-01-28 10:28:51.154266,0.07060706615447991
2023-01-28 10:28:51.159266,0.08127131780950562
2023-01-28 10:28:51.164266,0.09330134093761444
2023-01-28 10:28:51.169266,0.10601259814833146
2023-01-28 10:28:51.174266,0.1190006732940673
2023-01-28 10:28:51.179266,0.13204848320120322
2023-01-28 10:28:51.184266,0.14522890746593473
2023-01-28 10:28:51.189266,0.15910024094726777
2023-01-28 10:28:51.194266,0.17434200644493097
2023-01-28 10:28:51.199266,0.19111029165754348
2023-01-28 10:28:51.204266,0.2089122980833053
2023-01-28 10:28:51.209266,0.22681626170156322
2023-01-28 10:28:51.214266,0.24336239695549014
2023-01-28 10:28:51.219266,0.256556349982342
2023-01-28 10:28:51.224266,0.2646142244338989
2023-01-28 10:28:51.229266,0.26686565335597096
2023-01-28 10:28:51.234266,0.2637968659400938
2023-01-28 10:28:51.239266,0.2565018076701578
2023-01-28 10:28:51.244266,0.24639150500297538
2023-01-28 10:28:51.249266,0.2349919846598256
2023-01-28 10:28:51.254266,0.22333662211894972
2023-01-28 10:28:51.259266,0.2115322272331119
2023-01-28 10:28:51.264266,0.1991999149322509
2023-01-28 10:28:51.269266,0.18613990519896995
2023-01-28 10:28:51.274266,0.17229855060577384
2023-01-28 10:28:51.279266,0.15748181828740665
2023-01-28 10:28:51.284266,0.1416228264570236
2023-01-28 10:28:51.289266,0.12514466483693362
2023-01-28 10:28:51.294266,0.10866324603557578
2023-01-28 10:28:51.299266,0.09254850333086262
2023-01-28 10:28:51.304266,0.07712205499410617
2023-01-28 10:28:51.309266,0.06297268336284773
2023-01-28 10:28:51.314266,0.05062937736511228
2023-01-28 10:28:51.319266,0.04015368479263616
2023-01-28 10:28:51.324266,0.031445026397704995
2023-01-28 10:28:51.329266,0.02468805716615715
2023-01-28 10:28:51.334266,0.020097892731428087
2023-01-28 10:28:51.339266,0.017475711187060598
2023-01-28 10:28:51.344266,0.016395648941397594
2023-01-28 10:28:51.349266,0.01654287569989674
2023-01-28 10:28:51.354266,0.017453432083129806
2023-01-28 10:28:51.359266,0.018214659275884785
2023-01-28 10:28:51.364266,0.017934244126081387
2023-01-28 10:28:51.369266,0.016418039222699594
2023-01-28 10:28:51.374266,0.014135837554931573
2023-01-28 10:28:51.379266,0.011813798558556224
2023-01-28 10:28:51.384266,0.010361473076045522
2023-01-28 10:28:51.389266,0.01075432752842598
2023-01-28 10:28:51.394266,0.013366540893912343
2023-01-28 10:28:51.399266,0.01749135577205666
2023-01-28 10:28:51.404266,0.021876892074942485
2023-01-28 10:28:51.409266,0.02563410665465644
2023-01-28 10:28:51.414266,0.028464000672101916
2023-01-28 10:28:51.419266,0.030406295565156113
2023-01-28 10:28:51.424266,0.03178159520030022
2023-01-28 10:28:51.429266,0.03306435674581703
2023-01-28 10:28:51.434266,0.03430585190653806
2023-01-28 10:28:51.439266,0.03479890067136415
2023-01-28 10:28:51.444266,0.033656757324934054
2023-01-28 10:28:51.449266,0.03061401195198383
2023-01-28 10:28:51.454266,0.0261080265045166
2023-01-28 10:28:51.459266,0.020958784253666683
2023-01-28 10:28:51.464266,0.016323527321219403
2023-01-28 10:28:51.469266,0.013589046482594647
2023-01-28 10:28:51.474266,0.013727148994803404
2023-01-28 10:28:51.479266,0.016737717522263475
2023-01-28 10:28:51.484266,0.021900933235883702
2023-01-28 10:28:51.489266,0.028354450479393438
2023-01-28 10:28:51.494266,0.03526747226715078
2023-01-28 10:28:51.499266,0.04192645254933198
2023-01-28 10:28:51.504266,0.04817724227905274
2023-01-28 10:28:51.509266,0.0546268600638394
2023-01-28 10:28:51.514266,0.062000554054975496
2023-01-28 10:28:51.519266,0.07029412774122573
2023-01-28 10:28:51.524266,0.07858853042125703
2023-01-28 10:28:51.529266,0.08529071226024185
2023-01-28 10:28:51.534266,0.0883009061217308
2023-01-28 10:28:51.539266,0.08547930334493047
2023-01-28 10:28:51.544266,0.07572770118713369
2023-01-28 10:28:51.549266,0.05985799338573541
2023-01-28 10:28:51.554266,0.04036406800150867
2023-01-28 10:28:51.559266,0.020476380063988484
2023-01-28 10:28:51.564266,0.0032935540657490466
2023-01-28 10:28:51.569266,-0.00901407172155614
2023-01-28 10:28:51.574266,-0.016035040840506488
2023-01-28 10:28:51.579266,-0.019294876031111432
2023-01-28 10:28:51.584266,-0.021275877952575586
2023-01-28 10:28:51.589266,-0.023953785984855282
2023-01-28 10:28:51.594266,-0.027718743309378624
2023-01-28 10:28:51.599266,-0.030678107402190808
2023-01-28 10:28:51.604266,-0.028343796730041497
2023-01-28 10:28:51.609266,-0.014565847581112195
2023-01-28 10:28:51.614266,0.015770595520734645
2023-01-28 10:28:51.619266,0.06338102881252398
2023-01-28 10:28:51.624266,0.12236635386943809
2023-01-28 10:28:51.629266,0.18025615903695377
2023-01-28 10:28:51.634266,0.22074024379253376
2023-01-28 10:28:51.639266,0.2289655161569464
2023-01-28 10:28:51.644266,0.19773344695568076
2023-01-28 10:28:51.649266,0.13138174895195096
2023-01-28 10:28:51.654266,0.04493176937103275
2023-01-28 10:28:51.659266,-0.04108674173873365
2023-01-28 10:28:51.664266,-0.10762950032949437
2023-01-28 10:28:51.669266,-0.1432015326965644
2023-01-28 10:28:51.674266,-0.1467674970626831
2023-01-28 10:28:51.679266,-0.12634141604191473
2023-01-28 10:28:51.684266,-0.094214878976345
2023-01-28 10:28:51.689266,-0.061692861906464724
2023-01-28 10:28:51.694266,-0.03586848825216288
2023-01-28 10:28:51.699266,-0.01897735420019087
2023-01-28 10:28:51.704266,-0.009568135254084974
2023-01-28 10:28:51.709266,-0.004580859599023568
2023-01-28 10:28:51.714266,-0.0013222297420724467
2023-01-28 10:28:51.719266,0.001619901935270434
2023-01-28 10:28:51.724266,0.004567702766507845
2023-01-28 10:28:51.729266,0.007268533598006561
2023-01-28 10:28:51.734266,0.009327730163931866
2023-01-28 10:28:51.739266,0.010690005876327176
2023-01-28 10:28:51.744266,0.01187602709978817
2023-01-28 10:28:51.749266,0.013522274735200492
2023-01-28 10:28:51.754266,0.015818675979971834
2023-01-28 10:28:51.759266,0.018807823136196923
2023-01-28 10:28:51.764266,0.023006796836853
2023-01-28 10:28:51.769266,0.028983974972610772
2023-01-28 10:28:51.774266,0.036277174949645934
2023-01-28 10:28:51.779266,0.04349739848893886
2023-01-28 10:28:51.784266,0.04976391792297361
2023-01-28 10:28:51.789266,0.05547441297386941
2023-01-28 10:28:51.794266,0.06156782433390608
2023-01-28 10:28:51.799266,0.0688231178562571
2023-01-28 10:28:51.804266,0.07817983627319333
2023-01-28 10:28:51.809266,0.09087983005284582
2023-01-28 10:28:51.814266,0.10758142173290255
2023-01-28 10:28:51.819266,0.12768586015542552
2023-01-28 10:28:51.824266,0.1498927772045135
2023-01-28 10:28:51.829266,0.17291900161194082
2023-01-28 10:28:51.834266,0.19530534744262687
2023-01-28 10:28:51.839266,0.21515886739408285
2023-01-28 10:28:51.844266,0.23078918457031242
2023-01-28 10:28:51.849266,0.24141341294218993
2023-01-28 10:28:51.854266,0.2469444274902343
2023-01-28 10:28:51.859266,0.24754043875627893
2023-01-28 10:28:51.864266,0.24377107620239247
2023-01-28 10:28:51.869266,0.2367333539792365
2023-01-28 10:28:51.874266,0.22739946842193595
2023-01-28 10:28:51.879266,0.21606383559320005
2023-01-28 10:28:51.884266,0.20280599594116203
2023-01-28 10:28:51.889266,0.18817500479031718
2023-01-28 10:28:51.894266,0.17301976680755604
2023-01-28 10:28:51.899266,0.15795581367682582
2023-01-28 10:28:51.904266,0.1433537453413009
2023-01-28 10:28:51.909266,0.12945608522310878
2023-01-28 10:28:51.914266,0.11604368686676023
2023-01-28 10:28:51.919266,0.10232693384677623
2023-01-28 10:28:51.924266,0.08769989013671867
2023-01-28 10:28:51.929266,0.07246325270633436
2023-01-28 10:28:51.934266,0.05750497430562969
2023-01-28 10:28:51.939266,0.04356667553035093
2023-01-28 10:28:51.944266,0.0311565399169921
2023-01-28 10:28:51.949266,0.020790589351999282
2023-01-28 10:28:51.954266,0.012789567932486534
2023-01-28 10:28:51.959266,0.006995126957795416
2023-01-28 10:28:51.964266,0.003029108047485266
2023-01-28 10:28:51.969266,0.000600425556169938
2023-01-28 10:28:51.974266,-0.0007452567806467224
2023-01-28 10:28:51.979266,-0.0018132617821696327
2023-01-28 10:28:51.984266,-0.0031973919831216335
2023-01-28 10:28:51.989266,-0.004666919112415973
2023-01-28 10:28:51.994266,-0.005433162208646512
2023-01-28 10:28:51.999266,-0.004847491367586975
2023-01-28 10:28:52.004266,-0.0026444594841449364
2023-01-28 10:28:52.009266,0.0010790081753948803
2023-01-28 10:28:52.014266,0.005673567764460955
2023-01-28 10:28:52.019266,0.01000243815503732
2023-01-28 10:28:52.024266,0.013174216262996101
2023-01-28 10:28:52.029266,0.015128072516135176
2023-01-28 10:28:52.034266,0.016275446861982318
2023-01-28 10:28:52.039266,0.016858571489150355
2023-01-28 10:28:52.044266,0.016972621902823407
2023-01-28 10:28:52.049266,0.016899100109198158
2023-01-28 10:28:52.054266,0.01702070236206048
2023-01-28 10:28:52.059266,0.017641223904609375
2023-01-28 10:28:52.064266,0.01920839212834826
2023-01-28 10:28:52.069266,0.0223757684911958
2023-01-28 10:28:52.074266,0.02735813520848749
2023-01-28 10:28:52.079266,0.03335574682391087
2023-01-28 10:28:52.084266,0.03894567489624022
2023-01-28 10:28:52.089266,0.04292862584567754
2023-01-28 10:28:52.094266,0.04471540451049802
2023-01-28 10:28:52.099266,0.04443569276752676
2023-01-28 10:28:52.104266,0.043200850486755316
2023-01-28 10:28:52.109266,0.042959286710698194
2023-01-28 10:28:52.114266,0.04546066373586655
2023-01-28 10:28:52.119266,0.05121117609412666
2023-01-28 10:28:52.124266,0.05942821502685545
2023-01-28 10:28:52.129266,0.06856221211383409
2023-01-28 10:28:52.134266,0.07654508203268051
2023-01-28 10:28:52.139266,0.08105576855657992
2023-01-28 10:28:52.144266,0.08031944930553434
2023-01-28 10:28:52.149266,0.07381757198373744
2023-01-28 10:28:52.154266,0.062168836593627916
2023-01-28 10:28:52.159266,0.04670224978412557
2023-01-28 10:28:52.164266,0.0294256210327148
2023-01-28 10:28:52.169266,0.012864103987764351
2023-01-28 10:28:52.174266,-0.0008654594421385581
2023-01-28 10:28:52.179266,-0.011012507918253905
2023-01-28 10:28:52.184266,-0.018198689445853206
2023-01-28 10:28:52.189266,-0.023783646659941034
2023-01-28 10:28:52.194266,-0.02923329733312117
2023-01-28 10:28:52.199266,-0.03513827357492839
2023-01-28 10:28:52.204266,-0.03971497341990473
2023-01-28 10:28:52.209266,-0.038130809660252424
2023-01-28 10:28:52.214266,-0.023968419060111018
2023-01-28 10:28:52.219266,0.0077965302405695715
2023-01-28 10:28:52.224266,0.057865582406520746
2023-01-28 10:28:52.229266,0.12054091441421996
2023-01-28 10:28:52.234266,0.1832610368728636
2023-01-28 10:28:52.239266,0.22922451803792568
2023-01-28 10:28:52.244266,0.24326622486114494
2023-01-28 10:28:52.249266,0.21814813555281087
2023-01-28 10:28:52.254266,0.15770594775676716
2023-01-28 10:28:52.259266,0.07575060905816389
2023-01-28 10:28:52.264266,-0.00826994609087699
2023-01-28 10:28:52.269266,-0.07557385313266292
2023-01-28 10:28:52.274266,-0.11436085402965535
2023-01-28 10:28:52.279266,-0.12302569058049573
2023-01-28 10:28:52.284266,-0.10854303836822499
2023-01-28 10:28:52.289266,-0.08189280397333275
2023-01-28 10:28:52.294266,-0.053730607032775726
2023-01-28 10:28:52.299266,-0.03152459888861191
2023-01-28 10:28:52.304266,-0.018030405044555612
2023-01-28 10:28:52.309266,-0.011673833181687018
2023-01-28 10:28:52.314266,-0.008967122063040739
2023-01-28 10:28:52.319266,-0.006981221102254419
2023-01-28 10:28:52.324266,-0.00399072980508204
2023-01-28 10:28:52.329266,0.0008704353212727108
2023-01-28 10:28:52.334266,0.0073804459534584956
2023-01-28 10:28:52.339266,0.01412455242444753
2023-01-28 10:28:52.344266,0.019689202308654712
2023-01-28 10:28:52.349266,0.023851025293124082
2023-01-28 10:28:52.354266,0.027045607566833416
2023-01-28 10:28:52.359266,0.0293485417247131
2023-01-28 10:28:52.364266,0.03094017505645752
2023-01-28 10:28:52.369266,0.03290019733603457
2023-01-28 10:28:52.374266,0.03627717494964588
2023-01-28 10:28:52.379266,0.04081839791304567
2023-01-28 10:28:52.384266,0.04584531113505367
2023-01-28 10:28:52.389266,0.05181095488097922
2023-01-28 10:28:52.394266,0.05952437967061992
2023-01-28 10:28:52.399266,0.06850185985468815
2023-01-28 10:28:52.404266,0.07808367908000939
2023-01-28 10:28:52.409266,0.08977522672233451
2023-01-28 10:28:52.414266,0.10594666004180903
2023-01-28 10:28:52.419266,0.1259266408757635
2023-01-28 10:28:52.424266,0.14602224528789517
2023-01-28 10:28:52.429266,0.16433791036190962
2023-01-28 10:28:52.434266,0.18299660086631764
2023-01-28 10:28:52.439266,0.20397636008277573
2023-01-28 10:28:52.444266,0.22501945495605458
2023-01-28 10:28:52.449266,0.24193311900218228
2023-01-28 10:28:52.454266,0.253363251686096
2023-01-28 10:28:52.459266,0.26081507299633866
2023-01-28 10:28:52.464266,0.26497483253478993
2023-01-28 10:28:52.469266,0.26469083982609365
2023-01-28 10:28:52.474266,0.25937339663505543
2023-01-28 10:28:52.479266,0.25001164481166827
2023-01-28 10:28:52.484266,0.2375205457210539
2023-01-28 10:28:52.489266,0.22204253075309788
2023-01-28 10:28:52.494266,0.20441672205924977
2023-01-28 10:28:52.499266,0.18674415367171238
2023-01-28 10:28:52.504266,0.17078399658203125
2023-01-28 10:28:52.509266,0.15680753225322247
2023-01-28 10:28:52.514266,0.14431536197662354
2023-01-28 10:28:52.519266,0.1326760236124828
2023-01-28 10:28:52.524266,0.1206594705581665
2023-01-28 10:28:52.529266,0.10661096030252082
2023-01-28 10:28:52.534266,0.08993566036224361
2023-01-28 10:28:52.539266,0.07182607916329364
2023-01-28 10:28:52.544266,0.054163336753845194
2023-01-28 10:28:52.549266,0.038378080655248475
2023-01-28 10:28:52.554266,0.02555509470403196
2023-01-28 10:28:52.559266,0.016600827629001058
2023-01-28 10:28:52.564266,0.01163562200963491
2023-01-28 10:28:52.569266,0.009800263445588814
2023-01-28 10:28:52.574266,0.010097026824951122
2023-01-28 10:28:52.579266,0.011885010816178503
2023-01-28 10:28:52.584266,0.014304121956229265
2023-01-28 10:28:52.589266,0.01601468239570964
2023-01-28 10:28:52.594266,0.01610716246068475
2023-01-28 10:28:52.599266,0.014868181721948322
2023-01-28 10:28:52.604266,0.01334249973297102
2023-01-28 10:28:52.609266,0.012612378524678898
2023-01-28 10:28:52.614266,0.013655027374625215
2023-01-28 10:28:52.619266,0.017084608896667873
2023-01-28 10:28:52.624266,0.02242982387542718
2023-01-28 10:28:52.629266,0.028104615691975945
2023-01-28 10:28:52.634266,0.03257493302226061
2023-01-28 10:28:52.639266,0.03531680824588507
2023-01-28 10:28:52.644266,0.03654162213206287
2023-01-28 10:28:52.649266,0.036620386206311355
2023-01-28 10:28:52.654266,0.036108892410993465
2023-01-28 10:28:52.659266,0.03570232871567226
2023-01-28 10:28:52.664266,0.035628080368041874
2023-01-28 10:28:52.669266,0.03543910356055694
2023-01-28 10:28:52.674266,0.034738581627607276
2023-01-28 10:28:52.679266,0.033694583517671635
2023-01-28 10:28:52.684266,0.032574933022260624
2023-01-28 10:28:52.689266,0.031326211920741406
2023-01-28 10:28:52.694266,0.030026635155081742
2023-01-28 10:28:52.699266,0.029311369495816593
2023-01-28 10:28:52.704266,0.029978554695844577
2023-01-28 10:28:52.709266,0.0325958026185989
2023-01-28 10:28:52.714266,0.0377676896750926
2023-01-28 10:28:52.719266,0.04616515525672582
2023-01-28 10:28:52.724266,0.057721339166164294
2023-01-28 10:28:52.729266,0.07112443167002569
2023-01-28 10:28:52.734266,0.08447846025228498
2023-01-28 10:28:52.739266,0.09611823829751656
2023-01-28 10:28:52.744266,0.1045763492584228
2023-01-28 10:28:52.749266,0.10844080250169365
2023-01-28 10:28:52.754266,0.10686020553112026
2023-01-28 10:28:52.759266,0.09985669729140845
2023-01-28 10:28:52.764266,0.08777201175689692
2023-01-28 10:28:52.769266,0.07090209898719094
2023-01-28 10:28:52.774266,0.0501726083457469
2023-01-28 10:28:52.779266,0.027748948695960583
2023-01-28 10:28:52.784266,0.006442864891141629
2023-01-28 10:28:52.789266,-0.01128557472106771
2023-01-28 10:28:52.794266,-0.02367993257939805
2023-01-28 10:28:52.799266,-0.029953111082382387
2023-01-28 10:28:52.804266,-0.030988257378339653
2023-01-28 10:28:52.809266,-0.0292699208099134
2023-01-28 10:28:52.814266,-0.027093689888715685
2023-01-28 10:28:52.819266,-0.024409488291379594
2023-01-28 10:28:52.824266,-0.018126567825674973
2023-01-28 10:28:52.829266,-0.002895960651322715
2023-01-28 10:28:52.834266,0.027165811508893894
2023-01-28 10:28:52.839266,0.07538130437452734
2023-01-28 10:28:52.844266,0.1385456323623657
2023-01-28 10:28:52.849266,0.20502312119980706
2023-01-28 10:28:52.854266,0.257378041744232
2023-01-28 10:28:52.859266,0.27842995697698014
2023-01-28 10:28:52.864266,0.25764247775077803
2023-01-28 10:28:52.869266,0.19572394426318154
2023-01-28 10:28:52.874266,0.10589858144521705
2023-01-28 10:28:52.879266,0.0101220882883444
2023-01-28 10:28:52.884266,-0.0691405981779098
2023-01-28 10:28:52.889266,-0.11709488565778764
2023-01-28 10:28:52.894266,-0.13025164604187006
2023-01-28 10:28:52.899266,-0.1151453053896117
2023-01-28 10:28:52.904266,-0.08435826003551478
2023-01-28 10:28:52.909266,-0.05131207134650163
2023-01-28 10:28:52.914266,-0.025194486603140782
2023-01-28 10:28:52.919266,-0.008713257776343544
2023-01-28 10:28:52.924266,4.808108133141786e-05
2023-01-28 10:28:52.929266,0.004263564000421117
2023-01-28 10:28:52.934266,0.006635189056396456
2023-01-28 10:28:52.939266,0.009040957185526026
2023-01-28 10:28:52.944266,0.011996230110525976
2023-01-28 10:28:52.949266,0.014638755733318631
2023-01-28 10:28:52.954266,0.016251405701041183
2023-01-28 10:28:52.959266,0.017509592296731397
2023-01-28 10:28:52.964266,0.019544959068298326
2023-01-28 10:28:52.969266,0.02253277447046769
2023-01-28 10:28:52.974266,0.026180148124694776
2023-01-28 10:28:52.979266,0.030788734789242045
2023-01-28 10:28:52.984266,0.036613743752241114
2023-01-28 10:28:52.989266,0.04292415687135769
2023-01-28 10:28:52.994266,0.049042701721191385
2023-01-28 10:28:52.999266,0.055600474193322924
2023-01-28 10:28:53.004266,0.06334682554006565
2023-01-28 10:28:53.009266,0.07154500282135326
2023-01-28 10:28:53.014266,0.07923762500286102
2023-01-28 10:28:53.019266,0.08730834941461685
2023-01-28 10:28:53.024266,0.09736418724060054
2023-01-28 10:28:53.029266,0.1093859183962411
2023-01-28 10:28:53.034266,0.12277504056692118
2023-01-28 10:28:53.039266,0.13887094041954748
2023-01-28 10:28:53.044266,0.1592926234006881
2023-01-28 10:28:53.049266,0.1819069706590032
2023-01-28 10:28:53.054266,0.20194053649902333
2023-01-28 10:28:53.059266,0.21784832707177004
2023-01-28 10:28:53.064266,0.23264031112194053
2023-01-28 10:28:53.069266,0.24793571708559428
2023-01-28 10:28:53.074266,0.2601186633110044
2023-01-28 10:28:53.079266,0.26491034948257824
2023-01-28 10:28:53.084266,0.2631237208843231
2023-01-28 10:28:53.089266,0.25887740954918764
2023-01-28 10:28:53.094266,0.25394022464752186
2023-01-28 10:28:53.099266,0.24704504351513631
2023-01-28 10:28:53.104266,0.23764073848724357
2023-01-28 10:28:53.109266,0.22685470048142778
2023-01-28 10:28:53.114266,0.2147541493177413
2023-01-28 10:28:53.119266,0.19958223935683417
2023-01-28 10:28:53.124266,0.18040022253990165
2023-01-28 10:28:53.129266,0.15849766960080916
2023-01-28 10:28:53.134266,0.1356848180294036
2023-01-28 10:28:53.139266,0.11294636766015795
2023-01-28 10:28:53.144266,0.09130597114562977
2023-01-28 10:28:53.149266,0.07235743248303135
2023-01-28 10:28:53.154266,0.057072244584560276
2023-01-28 10:28:53.159266,0.04513515514515075
2023-01-28 10:28:53.164266,0.036036770790815305
2023-01-28 10:28:53.169266,0.029870472045305817
2023-01-28 10:28:53.174266,0.026564797386527
2023-01-28 10:28:53.179266,0.025244347172807977
2023-01-28 10:28:53.184266,0.024906000122427954
2023-01-28 10:28:53.189266,0.025043528821577003
2023-01-28 10:28:53.194266,0.025218527764081983
2023-01-28 10:28:53.199266,0.024748673128326515
2023-01-28 10:28:53.204266,0.023319324478507042
2023-01-28 10:28:53.209266,0.021377483469954175
2023-01-28 10:28:53.214266,0.01952091977000233
2023-01-28 10:28:53.219266,0.017923377093971106
2023-01-28 10:28:53.224266,0.01661201380193235
2023-01-28 10:28:53.229266,0.015782003295564513
2023-01-28 10:28:53.234266,0.015458067879080781
2023-01-28 10:28:53.239266,0.01521466366955652
2023-01-28 10:28:53.244266,0.0145685672760009
2023-01-28 10:28:53.249266,0.013430031181197222
2023-01-28 10:28:53.254266,0.01204431056976305
2023-01-28 10:28:53.259266,0.010852861390101092
2023-01-28 10:28:53.264266,0.010601878166198692
2023-01-28 10:28:53.269266,0.012189035880760807
2023-01-28 10:28:53.274266,0.015986960381269417
2023-01-28 10:28:53.279266,0.021320051750472174
2023-01-28 10:28:53.284266,0.026684999465942306
2023-01-28 10:28:53.289266,0.030427112044440915
2023-01-28 10:28:53.294266,0.03137290477752677
2023-01-28 10:28:53.299266,0.029301464301833703
2023-01-28 10:28:53.304266,0.025122364982962612
2023-01-28 10:28:53.309266,0.02046606107053771
2023-01-28 10:28:53.314266,0.016828378662467017
2023-01-28 10:28:53.319266,0.014928918855069691
2023-01-28 10:28:53.324266,0.01468877028673882
2023-01-28 10:28:53.329266,0.015613564020138047
2023-01-28 10:28:53.334266,0.017213027924299212
2023-01-28 10:28:53.339266,0.019275523652836683
2023-01-28 10:28:53.344266,0.0219009332358837
2023-01-28 10:28:53.349266,0.025306188385280756
2023-01-28 10:28:53.354266,0.02964198589324952
2023-01-28 10:28:53.359266,0.035026816150758366
2023-01-28 10:28:53.364266,0.041686296463012626
2023-01-28 10:28:53.369266,0.04996301144241329
2023-01-28 10:28:53.374266,0.06012539193034168
2023-01-28 10:28:53.379266,0.07201437943726849
2023-01-28 10:28:53.384266,0.08464674651622767
2023-01-28 10:28:53.389266,0.09609828102442527
2023-01-28 10:28:53.394266,0.10395129770040508
2023-01-28 10:28:53.399266,0.10609939279823656
2023-01-28 10:28:53.404266,0.10140299797058103
2023-01-28 10:28:53.409266,0.0900030193386643
2023-01-28 10:28:53.414266,0.07337173074483869
2023-01-28 10:28:53.419266,0.053984270824841224
2023-01-28 10:28:53.424266,0.034522216767072685
2023-01-28 10:28:53.429266,0.017051072143490092
2023-01-28 10:28:53.434266,0.0026925406418740368
2023-01-28 10:28:53.439266,-0.008351278809736778
2023-01-28 10:28:53.444266,-0.016780298203229863
2023-01-28 10:28:53.449266,-0.02392797781775866
2023-01-28 10:28:53.454266,-0.030868053436279158
2023-01-28 10:28:53.459266,-0.037332469104430534
2023-01-28 10:28:53.464266,-0.04115740582346912
2023-01-28 10:28:53.469266,-0.038296034462838885
2023-01-28 10:28:53.474266,-0.02334336563944809
2023-01-28 10:28:53.479266,0.008763742343389063
2023-01-28 10:28:53.484266,0.059644579887390095
2023-01-28 10:28:53.489266,0.12456257121936795
2023-01-28 10:28:53.494266,0.19189159572124473
2023-01-28 10:28:53.499266,0.24556392623715487
2023-01-28 10:28:53.504266,0.26963871717452986
2023-01-28 10:28:53.509266,0.2538909037898934
2023-01-28 10:28:53.514266,0.198622941970825
2023-01-28 10:28:53.519266,0.11581567648651872
2023-01-28 10:28:53.524266,0.0250742845237255
2023-01-28 10:28:53.529266,-0.053507646444798676
2023-01-28 10:28:53.534266,-0.10568221658468237
2023-01-28 10:28:53.539266,-0.12643954567650448
2023-01-28 10:28:53.544266,-0.12017866224050522
2023-01-28 10:28:53.549266,-0.09760018833247874
2023-01-28 10:28:53.554266,-0.07031857967376699
2023-01-28 10:28:53.559266,-0.046335075478401884
2023-01-28 10:28:53.564266,-0.02894481085240838
2023-01-28 10:28:53.569266,-0.018090791294357637
2023-01-28 10:28:53.574266,-0.011731783859431686
2023-01-28 10:28:53.579266,-0.006992212777331995
2023-01-28 10:28:53.584266,-0.001851121662184525
2023-01-28 10:28:53.589266,0.0038389032636220767
2023-01-28 10:28:53.594266,0.00937581062316895
2023-01-28 10:28:53.599266,0.014671536026751131
2023-01-28 10:28:53.604266,0.019977688789367575
2023-01-28 10:28:53.609266,0.02502944583739553
2023-01-28 10:28:53.614266,0.029690068215131687
2023-01-28 10:28:53.619266,0.03476931127251634
2023-01-28 10:28:53.624266,0.04084488004446023
2023-01-28 10:28:53.629266,0.04686431227680338
2023-01-28 10:28:53.634266,0.051326554268598466
2023-01-28 10:28:53.639266,0.054240947026789256
2023-01-28 10:28:53.644266,0.056519310921430456
2023-01-28 10:28:53.649266,0.058420827933393656
2023-01-28 10:28:53.654266,0.060534082353114985
2023-01-28 10:28:53.659266,0.06529582984494392
2023-01-28 10:28:53.664266,0.07498244941234586
2023-01-28 10:28:53.669266,0.08876080653478341
2023-01-28 10:28:53.674266,0.10433594882488251
2023-01-28 10:28:53.679266,0.12177223161650962
2023-01-28 10:28:53.684266,0.14232000708580006
2023-01-28 10:28:53.689266,0.16391342896775274
2023-01-28 10:28:53.694266,0.18220326304435713
2023-01-28 10:28:53.699266,0.19686211628239197
2023-01-28 10:28:53.704266,0.21242222189903237
2023-01-28 10:28:53.709266,0.23097233802442535
2023-01-28 10:28:53.714266,0.24812242388725275
2023-01-28 10:28:53.719266,0.258843862848029
2023-01-28 10:28:53.724266,0.2635805010795593
2023-01-28 10:28:53.729266,0.2652805446274354
2023-01-28 10:28:53.734266,0.26374876499176014
2023-01-28 10:28:53.739266,0.2571346476634726
2023-01-28 10:28:53.744266,0.24660786986351005
2023-01-28 10:28:53.749266,0.23496341704902055
2023-01-28 10:28:53.754266,0.2219182252883911
2023-01-28 10:28:53.759266,0.2052472315104518
2023-01-28 10:28:53.764266,0.18600165843963615
2023-01-28 10:28:53.769266,0.16832351248248806
2023-01-28 10:28:53.774266,0.15393158793449402
2023-01-28 10:28:53.779266,0.14057057939274642
2023-01-28 10:28:53.784266,0.12638112902641285
2023-01-28 10:28:53.789266,0.11229376997724166
2023-01-28 10:28:53.794266,0.09931147098541249
2023-01-28 10:28:53.799266,0.08672084645512505
2023-01-28 10:28:53.804266,0.07428526878356931
2023-01-28 10:28:53.809266,0.06349977065171138
2023-01-28 10:28:53.814266,0.055221121758222504
2023-01-28 10:28:53.819266,0.0481509042326167
2023-01-28 10:28:53.824266,0.04089295864105222
2023-01-28 10:28:53.829266,0.033659647302764904
2023-01-28 10:28:53.834266,0.026901364326477013
2023-01-28 10:28:53.839266,0.020128886000214206
2023-01-28 10:28:53.844266,0.013318459503352642
2023-01-28 10:28:53.849266,0.00790135411569797
2023-01-28 10:28:53.854266,0.005144675727933659
2023-01-28 10:28:53.859266,0.004786488931063767
2023-01-28 10:28:53.864266,0.006154378410428791
2023-01-28 10:28:53.869266,0.00926168688742813
2023-01-28 10:28:53.874266,0.01382331084460022
2023-01-28 10:28:53.879266,0.01847685906319475
2023-01-28 10:28:53.884266,0.022069215774536084
2023-01-28 10:28:53.889266,0.024756884145458197
2023-01-28 10:28:53.894266,0.02702156826853753
2023-01-28 10:28:53.899266,0.02861944636347917
2023-01-28 10:28:53.904266,0.029281377792358284
2023-01-28 10:28:53.909266,0.02939362852051066
2023-01-28 10:28:53.914266,0.02911309525370594
2023-01-28 10:28:53.919266,0.027729478607162548
2023-01-28 10:28:53.924266,0.024761756882071446
2023-01-28 10:28:53.929266,0.020930581284484502
2023-01-28 10:28:53.934266,0.01735727116465558
2023-01-28 10:28:53.939266,0.014574214252011424
2023-01-28 10:28:53.944266,0.012909770011901798
2023-01-28 10:28:53.949266,0.012913580395351346
2023-01-28 10:28:53.954266,0.01459260843694211
2023-01-28 10:28:53.959266,0.01692930544697794
2023-01-28 10:28:53.964266,0.01887182518839828
2023-01-28 10:28:53.969266,0.020219124587185472
2023-01-28 10:28:53.974266,0.021035473793744982
2023-01-28 10:28:53.979266,0.020976005743326642
2023-01-28 10:28:53.984266,0.019857486709952334
2023-01-28 10:28:53.989266,0.01826629904282473
2023-01-28 10:28:53.994266,0.017020702362060526
2023-01-28 10:28:53.999266,0.01664475833041123
2023-01-28 10:28:54.004266,0.01788616180419919
2023-01-28 10:28:54.009266,0.022040745273214705
2023-01-28 10:28:54.014266,0.03005067631602281
2023-01-28 10:28:54.019266,0.041651517712284473
2023-01-28 10:28:54.024266,0.05572597309947004
2023-01-28 10:28:54.029266,0.07080869033247278
2023-01-28 10:28:54.034266,0.08476694673299774
2023-01-28 10:28:54.039266,0.09475172281935251
2023-01-28 10:28:54.044266,0.09832581132650371
2023-01-28 10:28:54.049266,0.0945354573902589
2023-01-28 10:28:54.054266,0.08375724405050265
2023-01-28 10:28:54.059266,0.06719823448540127
2023-01-28 10:28:54.064266,0.04697521775960923
2023-01-28 10:28:54.069266,0.02593859988926086
2023-01-28 10:28:54.074266,0.006587108131498037
2023-01-28 10:28:54.079266,-0.009768107299477028
2023-01-28 10:28:54.084266,-0.02267022989690299
2023-01-28 10:28:54.089266,-0.032014672806320345
2023-01-28 10:28:54.094266,-0.03827254101634018
2023-01-28 10:28:54.099266,-0.042478325045676
2023-01-28 10:28:54.104266,-0.045076012611389105
2023-01-28 10:28:54.109266,-0.044607326123121516
2023-01-28 10:28:54.114266,-0.03752728551626198
2023-01-28 10:28:54.119266,-0.01906078865127637
2023-01-28 10:28:54.124266,0.01516958139836781
2023-01-28 10:28:54.129266,0.06633998048284001
2023-01-28 10:28:54.134266,0.12919387221336354
2023-01-28 10:28:54.139266,0.19106997072856197
2023-01-28 10:28:54.144266,0.23504436016082747
2023-01-28 10:28:54.149266,0.24591269413118003
2023-01-28 10:28:54.154266,0.21612446010112746
2023-01-28 10:28:54.159266,0.14943799728045756
2023-01-28 10:28:54.164266,0.060750447213649736
2023-01-28 10:28:54.169266,-0.02869603183688276
2023-01-28 10:28:54.174266,-0.09909510612487787
2023-01-28 10:28:54.179266,-0.13875474230596965
2023-01-28 10:28:54.184266,-0.14643093943595875
2023-01-28 10:28:54.189266,-0.12938098065581413
2023-01-28 10:28:54.194266,-0.09914319217205028
2023-01-28 10:28:54.199266,-0.06686334835407677
2023-01-28 10:28:54.204266,-0.03978709504008285
2023-01-28 10:28:54.209266,-0.02039167073401665
2023-01-28 10:28:54.214266,-0.008029541000723825
2023-01-28 10:28:54.219266,-0.0010765447433127566
2023-01-28 10:28:54.224266,0.0020434460602700615
2023-01-28 10:28:54.229266,0.0027236392852927433
2023-01-28 10:28:54.234266,0.0021636486053466133
2023-01-28 10:28:54.239266,0.001488409686937937
2023-01-28 10:28:54.244266,0.0019953649025410605
2023-01-28 10:28:54.249266,0.004944027380431582
2023-01-28 10:28:54.254266,0.010818243026733322
2023-01-28 10:28:54.259266,0.018953644431252817
2023-01-28 10:28:54.264266,0.028007229790091553
2023-01-28 10:28:54.269266,0.03664106664037953
2023-01-28 10:28:54.274266,0.04387398809194562
2023-01-28 10:28:54.279266,0.04931959199044811
2023-01-28 10:28:54.284266,0.05339404195547102
2023-01-28 10:28:54.289266,0.05710000225223979
2023-01-28 10:28:54.294266,0.06144762039184572
2023-01-28 10:28:54.299266,0.06714731785885673
2023-01-28 10:28:54.304266,0.07471799850463864
2023-01-28 10:28:54.309266,0.08454739470542366
2023-01-28 10:28:54.314266,0.09681125730276097
2023-01-28 10:28:54.319266,0.11153356488520233
2023-01-28 10:28:54.324266,0.1286409348249435
2023-01-28 10:28:54.329266,0.14774236388677348
2023-01-28 10:28:54.334266,0.16799530386924738
2023-01-28 10:28:54.339266,0.18837908944158918
2023-01-28 10:28:54.344266,0.20787855982780448
2023-01-28 10:28:54.349266,0.2253082296697878
2023-01-28 10:28:54.354266,0.23951590061187744
2023-01-28 10:28:54.359266,0.2501185630142443
2023-01-28 10:28:54.364266,0.2574741840362549
2023-01-28 10:28:54.369266,0.26157959005544074
2023-01-28 10:28:54.374266,0.2618736028671264
2023-01-28 10:28:54.379266,0.2587356447265394
2023-01-28 10:28:54.384266,0.25391620397567727
2023-01-28 10:28:54.389266,0.24807150513590856
2023-01-28 10:28:54.394266,0.2388908565044402
2023-01-28 10:28:54.399266,0.2237945277028041
2023-01-28 10:28:54.404266,0.20427247881889335
2023-01-28 10:28:54.409266,0.18532460956462568
2023-01-28 10:28:54.414266,0.17006278038024902
2023-01-28 10:28:54.419266,0.15668900612721878
2023-01-28 10:28:54.424266,0.14155070483684531
2023-01-28 10:28:54.429266,0.12343171694079842
2023-01-28 10:28:54.434266,0.10368685424327848
2023-01-28 10:28:54.439266,0.08371502939675035
2023-01-28 10:28:54.444266,0.06411612033843991
2023-01-28 10:28:54.449266,0.045753274663494325
2023-01-28 10:28:54.454266,0.03005067631602277
2023-01-28 10:28:54.459266,0.018089282110748856
2023-01-28 10:28:54.464266,0.010121067985892192
2023-01-28 10:28:54.469266,0.0057805955752187116
2023-01-28 10:28:54.474266,0.004110932350158601
2023-01-28 10:28:54.479266,0.0036198981291700625
2023-01-28 10:28:54.484266,0.00302910804748529
2023-01-28 10:28:54.489266,0.002032821431417621
2023-01-28 10:28:54.494266,0.0011058648815378356
2023-01-28 10:28:54.499266,0.0008742754523565281
2023-01-28 10:28:54.504266,0.0019232432823628376
2023-01-28 10:28:54.509266,0.004673870794935766
2023-01-28 10:28:54.514266,0.008846919052302785
2023-01-28 10:28:54.519266,0.013266040309089058
2023-01-28 10:28:54.524266,0.016612013801932307
2023-01-28 10:28:54.529266,0.018232737573295275
2023-01-28 10:28:54.534266,0.018102526664733807
2023-01-28 10:28:54.539266,0.016511124431735205
2023-01-28 10:28:54.544266,0.014183918945491333
2023-01-28 10:28:54.549266,0.012247992185398213
2023-01-28 10:28:54.554266,0.01151541899889698
2023-01-28 10:28:54.559266,0.011915719003845054
2023-01-28 10:28:54.564266,0.012837648391723641
2023-01-28 10:28:54.569266,0.013705338276491678
2023-01-28 10:28:54.574266,0.014039675705134839
2023-01-28 10:28:54.579266,0.013503466391401346
2023-01-28 10:28:54.584266,0.012380878441035697
2023-01-28 10:28:54.589266,0.011721990930360962
2023-01-28 10:28:54.594266,0.012597243301570468
2023-01-28 10:28:54.599266,0.015358398485389396
2023-01-28 10:28:54.604266,0.019785365089774125
2023-01-28 10:28:54.609266,0.025572767885686014
2023-01-28 10:28:54.614266,0.03240665048360824
2023-01-28 10:28:54.619266,0.0399613461448503
2023-01-28 10:28:54.624266,0.04815320298075673
2023-01-28 10:28:54.629266,0.05703268604530571
2023-01-28 10:28:54.634266,0.06603936851024624
2023-01-28 10:28:54.639266,0.07361012694709522
2023-01-28 10:28:54.644266,0.07784327119588846
2023-01-28 10:28:54.649266,0.07741611073632283
2023-01-28 10:28:54.654266,0.071857176721096
2023-01-28 10:28:54.659266,0.06150942079606998
2023-01-28 10:28:54.664266,0.04764835163950923
2023-01-28 10:28:54.669266,0.03227604334961828
2023-01-28 10:28:54.674266,0.017309188842773417
2023-01-28 10:28:54.679266,0.003975553204426574
2023-01-28 10:28:54.684266,-0.0070198378525673484
2023-01-28 10:28:54.689266,-0.0152632451659756
2023-01-28 10:28:54.694266,-0.020939311012625587
2023-01-28 10:28:54.699266,-0.025043101924265433
2023-01-28 10:28:54.704266,-0.028848648071288945
2023-01-28 10:28:54.709266,-0.033085633702355226
2023-01-28 10:28:54.714266,-0.037334959954023285
2023-01-28 10:28:54.719266,-0.03938434299866447
2023-01-28 10:28:54.724266,-0.03471454232931132
2023-01-28 10:28:54.729266,-0.017372244000352848
2023-01-28 10:28:54.734266,0.01716494560241686
2023-01-28 10:28:54.739266,0.0685262012892534
2023-01-28 10:28:54.744266,0.12945830821990956
2023-01-28 10:28:54.749266,0.1863764166273112
2023-01-28 10:28:54.754266,0.22268752753734572
2023-01-28 10:28:54.759266,0.22451136850888034
2023-01-28 10:28:54.764266,0.1867949962615966
2023-01-28 10:28:54.769266,0.11640295211387003
2023-01-28 10:28:54.774266,0.030074715614318782
2023-01-28 10:28:54.779266,-0.05161431417664901
2023-01-28 10:28:54.784266,-0.1112596243619918
2023-01-28 10:28:54.789266,-0.1399186683759528
2023-01-28 10:28:54.794266,-0.13890624046325678
2023-01-28 10:28:54.799266,-0.11740976979103777
2023-01-28 10:28:54.804266,-0.08731524646282185
2023-01-28 10:28:54.809266,-0.05836508990450333
2023-01-28 10:28:54.814266,-0.03594060987234111
2023-01-28 10:28:54.819266,-0.02130637700449121
2023-01-28 10:28:54.824266,-0.013005932793021164
2023-01-28 10:28:54.829266,-0.008596000109929098
2023-01-28 10:28:54.834266,-0.00613033771514894
2023-01-28 10:28:54.839266,-0.0046242668669517475
2023-01-28 10:28:54.844266,-0.003509918926283717
2023-01-28 10:28:54.849266,-0.002171296491092079
2023-01-28 10:28:54.854266,-0.00019232432532576146
2023-01-28 10:28:54.859266,0.002347438393825276
2023-01-28 10:28:54.864266,0.0051446757279336305
2023-01-28 10:28:54.869266,0.008058486773348316
2023-01-28 10:28:54.874266,0.011130770668387432
2023-01-28 10:28:54.879266,0.014587599979924855
2023-01-28 10:28:54.884266,0.019040107727050733
2023-01-28 10:28:54.889266,0.025343160751678882
2023-01-28 10:28:54.894266,0.033921204507350866
2023-01-28 10:28:54.899266,0.04434587247284153
2023-01-28 10:28:54.904266,0.055677890777587793
2023-01-28 10:28:54.909266,0.06701153271395865
2023-01-28 10:28:54.914266,0.07769902795553196
2023-01-28 10:28:54.919266,0.08756423850148735
2023-01-28 10:28:54.924266,0.0972680300474165
2023-01-28 10:28:54.929266,0.10823682952695049
2023-01-28 10:28:54.934266,0.1219095811247825
2023-01-28 10:28:54.939266,0.13901108552859281
2023-01-28 10:28:54.944266,0.15936474502086634
2023-01-28 10:28:54.949266,0.18188005901355697
2023-01-28 10:28:54.954266,0.2045128792524336
2023-01-28 10:28:54.959266,0.22470773534852612
2023-01-28 10:28:54.964266,0.24040541052818282
2023-01-28 10:28:54.969266,0.2507338050991155
2023-01-28 10:28:54.974266,0.2558153867721557
2023-01-28 10:28:54.979266,0.2562213106059897
2023-01-28 10:28:54.984266,0.25264203548431385
2023-01-28 10:28:54.989266,0.24563130346186862
2023-01-28 10:28:54.994266,0.2353809326887129
2023-01-28 10:28:54.999266,0.2219753467005183
2023-01-28 10:28:55.004266,0.20605146884918213
2023-01-28 10:28:55.009266,0.18897752594919986
2023-01-28 10:28:55.014266,0.1721783578395843
2023-01-28 10:28:55.019266,0.156355613275534
2023-01-28 10:28:55.024266,0.14128625392913816
2023-01-28 10:28:55.029266,0.1260513246439612
2023-01-28 10:28:55.034266,0.10948061943054188
2023-01-28 10:28:55.039266,0.09091265737014805
2023-01-28 10:28:55.044266,0.07091959565877909
2023-01-28 10:28:55.049266,0.051222964266605685
2023-01-28 10:28:55.054266,0.03380100056529038
2023-01-28 10:28:55.059266,0.020070084007540404
2023-01-28 10:28:55.064266,0.010577837936580141
2023-01-28 10:28:55.069266,0.004895744555114041
2023-01-28 10:28:55.074266,0.0017309188842773578
2023-01-28 10:28:55.079266,-0.0003752741906305997
2023-01-28 10:28:55.084266,-0.002211729763075695
2023-01-28 10:28:55.089266,-0.003869571088257148
2023-01-28 10:28:55.094266,-0.005312959663569868
2023-01-28 10:28:55.099266,-0.006439890283348148
2023-01-28 10:28:55.104266,-0.006659229751676302
2023-01-28 10:28:55.109266,-0.005154456650414118
2023-01-28 10:28:55.114266,-0.0018751621246336752
2023-01-28 10:28:55.119266,0.002172751005988175
2023-01-28 10:28:55.124266,0.005817811004817448
2023-01-28 10:28:55.129266,0.008501225562471727
2023-01-28 10:28:55.134266,0.010121067985892247
2023-01-28 10:28:55.139266,0.01075857998417202
2023-01-28 10:28:55.144266,0.01089036464691164
2023-01-28 10:28:55.149266,0.011348929443647791
2023-01-28 10:28:55.154266,0.012621283531188916
2023-01-28 10:28:55.159266,0.014435211157563941
2023-01-28 10:28:55.164266,0.016251405701041145
2023-01-28 10:28:55.169266,0.017812266046009096
2023-01-28 10:28:55.174266,0.01901606842875477
2023-01-28 10:28:55.179266,0.01971684108133553
2023-01-28 10:28:55.184266,0.020001729950308647
2023-01-28 10:28:55.189266,0.020332705026440787
2023-01-28 10:28:55.194266,0.021083554252982074
2023-01-28 10:28:55.199266,0.022180304568585503
2023-01-28 10:28:55.204266,0.023415487259626312
2023-01-28 10:28:55.209266,0.024828261423534125
2023-01-28 10:28:55.214266,0.02661287784576406
2023-01-28 10:28:55.219266,0.029072422972711023
2023-01-28 10:28:55.224266,0.0329595804214477
2023-01-28 10:28:55.229266,0.039465647942755706
2023-01-28 10:28:55.234266,0.04937927052378653
2023-01-28 10:28:55.239266,0.06222871344518726
2023-01-28 10:28:55.244266,0.07623255252838135
2023-01-28 10:28:55.249266,0.08874150120301569
2023-01-28 10:28:55.254266,0.09671509265899647
2023-01-28 10:28:55.259266,0.09754415043457565
2023-01-28 10:28:55.264266,0.09024818986654279
2023-01-28 10:28:55.269266,0.0760601659317367
2023-01-28 10:28:55.274266,0.05774537846446028
2023-01-28 10:28:55.279266,0.03838512368828862
2023-01-28 10:28:55.284266,0.02055466175079342
2023-01-28 10:28:55.289266,0.0058493797672157935
2023-01-28 10:28:55.294266,-0.005457202903926296
2023-01-28 10:28:55.299266,-0.014216153207834386
2023-01-28 10:28:55.304266,-0.021564364433288442
2023-01-28 10:28:55.309266,-0.028259739116850795
2023-01-28 10:28:55.314266,-0.03466646000742904
2023-01-28 10:28:55.319266,-0.040671603013129755
2023-01-28 10:28:55.324266,-0.04490773007273662
2023-01-28 10:28:55.329266,-0.043941411539926103
2023-01-28 10:28:55.334266,-0.03247877210378641
2023-01-28 10:28:55.339266,-0.00485772899133436
2023-01-28 10:28:55.344266,0.04238347336649892
2023-01-28 10:28:55.349266,0.10729338506571236
2023-01-28 10:28:55.354266,0.18013577163219452
2023-01-28 10:28:55.359266,0.24420495796528574
2023-01-28 10:28:55.364266,0.2807694673538208
2023-01-28 10:28:55.369266,0.2761876631901166
2023-01-28 10:28:55.374266,0.22776007652282715
2023-01-28 10:28:55.379266,0.14567698749901456
2023-01-28 10:28:55.384266,0.05002836510539051
2023-01-28 10:28:55.389266,-0.03633574323690907
2023-01-28 10:28:55.394266,-0.09609004110097875
2023-01-28 10:28:55.399266,-0.1227417109147008
2023-01-28 10:28:55.404266,-0.12063543498516079
2023-01-28 10:28:55.409266,-0.10072974665281986
2023-01-28 10:28:55.414266,-0.07505457103252408
2023-01-28 10:28:55.419266,-0.052305776071672576
2023-01-28 10:28:55.424266,-0.035964649170637075
2023-01-28 10:28:55.429266,-0.02527624930088174
2023-01-28 10:28:55.434266,-0.017910202965140256
2023-01-28 10:28:55.439266,-0.012133019048175148
2023-01-28 10:28:55.444266,-0.0072842836380003365
2023-01-28 10:28:55.449266,-0.0032045847522079117
2023-01-28 10:28:55.454266,0.00028848648071279115
2023-01-28 10:28:55.459266,0.003624832946700593
2023-01-28 10:28:55.464266,0.007476608268916626
2023-01-28 10:28:55.469266,0.01233757872520537
2023-01-28 10:28:55.474266,0.017910202965140315
2023-01-28 10:28:55.479266,0.023117749021123075
2023-01-28 10:28:55.484266,0.026949446648359195
2023-01-28 10:28:55.489266,0.02925248511685793
2023-01-28 10:28:55.494266,0.030771892517805013
2023-01-28 10:28:55.499266,0.03274941255761916
2023-01-28 10:28:55.504266,0.03649353981018061
2023-01-28 10:28:55.509266,0.042807537589499435
2023-01-28 10:28:55.514266,0.05144675821065897
2023-01-28 10:28:55.519266,0.06133208623412317
2023-01-28 10:28:55.524266,0.07159273326396946
2023-01-28 10:28:55.529266,0.082409838664025
2023-01-28 10:28:55.534266,0.09491205215454096
2023-01-28 10:28:55.539266,0.11051553981436515
2023-01-28 10:28:55.544266,0.13025164604187
2023-01-28 10:28:55.549266,0.15404675390351474
2023-01-28 10:28:55.554266,0.1801357716321944
2023-01-28 10:28:55.559266,0.20533944078644054
2023-01-28 10:28:55.564266,0.2263176441192626
2023-01-28 10:28:55.569266,0.24081446325862849
2023-01-28 10:28:55.574266,0.24812242388725272
2023-01-28 10:28:55.579266,0.24902010051357426
2023-01-28 10:28:55.584266,0.24550199508666984
2023-01-28 10:28:55.589266,0.24005061637955277
2023-01-28 10:28:55.594266,0.23453950881957986
2023-01-28 10:28:55.599266,0.2295995909905507
2023-01-28 10:28:55.604266,0.22485117614269237
2023-01-28 10:28:55.609266,0.21939008632718496
2023-01-28 10:28:55.614266,0.21203756332397453
2023-01-28 10:28:55.619266,0.20166137680307175
2023-01-28 10:28:55.624266,0.1877085417509077
2023-01-28 10:28:55.629266,0.17041009329224496
2023-01-28 10:28:55.634266,0.15046975016593928
2023-01-28 10:28:55.639266,0.12885169936345822
2023-01-28 10:28:55.644266,0.10693232715129847
2023-01-28 10:28:55.649266,0.08640689662343637
2023-01-28 10:28:55.654266,0.06865978240966791
2023-01-28 10:28:55.659266,0.05425033631483662
2023-01-28 10:28:55.664266,0.04298448562622068
2023-01-28 10:28:55.669266,0.03418697794091932
2023-01-28 10:28:55.674266,0.026901364326477016
2023-01-28 10:28:55.679266,0.02035494036461209
2023-01-28 10:28:55.684266,0.014616648666560586
2023-01-28 10:28:55.689266,0.010624859094715909
2023-01-28 10:28:55.694266,0.009327730163931836
2023-01-28 10:28:55.699266,0.010827648079897223
2023-01-28 10:28:55.704266,0.014256040565669518
2023-01-28 10:28:55.709266,0.018098342602967384
2023-01-28 10:28:55.714266,0.02062678337097167
2023-01-28 10:28:55.719266,0.020620027404660055
2023-01-28 10:28:55.724266,0.018150608986616086
2023-01-28 10:28:55.729266,0.01456330649942724
2023-01-28 10:28:55.734266,0.011467337608337428
2023-01-28 10:28:55.739266,0.009779380864843847
2023-01-28 10:28:55.744266,0.009592175483703563
2023-01-28 10:28:55.749266,0.010464174099405229
2023-01-28 10:28:55.754266,0.011635622009634932
2023-01-28 10:28:55.759266,0.012385773987077726
2023-01-28 10:28:55.764266,0.012549161911010728
2023-01-28 10:28:55.769266,0.012538418531228144
2023-01-28 10:28:55.774266,0.012717446312308294
2023-01-28 10:28:55.779266,0.012983920026240743
2023-01-28 10:28:55.784266,0.013078054413199395
2023-01-28 10:28:55.789266,0.012989033837386288
2023-01-28 10:28:55.794266,0.012885729782283334
2023-01-28 10:28:55.799266,0.01294349679255588
2023-01-28 10:28:55.804266,0.013414621353149414
2023-01-28 10:28:55.809266,0.014549312199658335
2023-01-28 10:28:55.814266,0.016203325241804123
2023-01-28 10:28:55.819266,0.01777691955701371
2023-01-28 10:28:55.824266,0.018799703568220024
2023-01-28 10:28:55.829266,0.019461525447998687
2023-01-28 10:28:55.834266,0.020530622452497406
2023-01-28 10:28:55.839266,0.023057031289885486
2023-01-28 10:28:55.844266,0.02822359465062608
2023-01-28 10:28:55.849266,0.03695242846621978
2023-01-28 10:28:55.854266,0.04911482334136958
2023-01-28 10:28:55.859266,0.0630897252394652
2023-01-28 10:28:55.864266,0.07620851695537559
2023-01-28 10:28:55.869266,0.08559811874198286
2023-01-28 10:28:55.874266,0.08885383605957027
2023-01-28 10:28:55.879266,0.08466716980886392
2023-01-28 10:28:55.884266,0.07341980934143061
2023-01-28 10:28:55.889266,0.05712271067211789
2023-01-28 10:28:55.894266,0.03848890587687487
2023-01-28 10:28:55.899266,0.019948904968344124
2023-01-28 10:28:55.904266,0.0032935540657489356
2023-01-28 10:28:55.909266,-0.010363155107252301
2023-01-28 10:28:55.914266,-0.020722946152090974
2023-01-28 10:28:55.919266,-0.028293632517009573
2023-01-28 10:28:55.924266,-0.034017365425825084
2023-01-28 10:28:55.929266,-0.038877170588479636
2023-01-28 10:28:55.934266,-0.04356145858764635
2023-01-28 10:28:55.939266,-0.047674382457517754
2023-01-28 10:28:55.944266,-0.04856189340353008
2023-01-28 10:28:55.949266,-0.04097294003911399
2023-01-28 10:28:55.954266,-0.01858333870768533
2023-01-28 10:28:55.959266,0.02298779084549554
2023-01-28 10:28:55.964266,0.08291582763195032
2023-01-28 10:28:55.969266,0.1530070458173677
2023-01-28 10:28:55.974266,0.2181198298931121
2023-01-28 10:28:55.979266,0.26021169599025545
2023-01-28 10:28:55.984266,0.26499888300895685
2023-01-28 10:28:55.989266,0.22799035101535248
2023-01-28 10:28:55.994266,0.15674433112144465
2023-01-28 10:28:55.999266,0.06841788857737821
2023-01-28 10:28:56.004266,-0.016203325241804074
2023-01-28 10:28:56.009266,-0.07986259700576215
2023-01-28 10:28:56.014266,-0.11421661078929893
2023-01-28 10:28:56.019266,-0.12099464294683679
2023-01-28 10:28:56.024266,-0.10885556787252412
2023-01-28 10:28:56.029266,-0.08841620227441101
2023-01-28 10:28:56.034266,-0.06820301711559282
2023-01-28 10:28:56.039266,-0.052677459231349345
2023-01-28 10:28:56.044266,-0.04226326942443838
2023-01-28 10:28:56.049266,-0.03493363583683241
2023-01-28 10:28:56.054266,-0.02836783789098263
2023-01-28 10:28:56.059266,-0.021312150950930715
2023-01-28 10:28:56.064266,-0.013655027374625102
2023-01-28 10:28:56.069266,-0.005968915374069638
2023-01-28 10:28:56.074266,0.0008173784008248835
2023-01-28 10:28:56.079266,0.005816938427414205
2023-01-28 10:28:56.084266,0.008774797432124615
2023-01-28 10:28:56.089266,0.010299498691673306
2023-01-28 10:28:56.094266,0.01146733760833734
2023-01-28 10:28:56.099266,0.01334784966533831
2023-01-28 10:28:56.104266,0.016828378662467034
2023-01-28 10:28:56.109266,0.02239584089080002
2023-01-28 10:28:56.114266,0.029762189835309868
2023-01-28 10:28:56.119266,0.03790712898032772
2023-01-28 10:28:56.124266,0.04574915021657937
2023-01-28 10:28:56.129266,0.0527822816810043
2023-01-28 10:28:56.134266,0.0592118501663208
2023-01-28 10:28:56.139266,0.06591239902027402
2023-01-28 10:28:56.144266,0.0743814334273338
2023-01-28 10:28:56.149266,0.08626320491181001
2023-01-28 10:28:56.154266,0.10243674367666239
2023-01-28 10:28:56.159266,0.12247668453193296
2023-01-28 10:28:56.164266,0.1449163854122161
2023-01-28 10:28:56.169266,0.16777923806587222
2023-01-28 10:28:56.174266,0.18895864486694328
2023-01-28 10:28:56.179266,0.20671657692676013
2023-01-28 10:28:56.184266,0.22028347849845878
2023-01-28 10:28:56.189266,0.22988201650297901
2023-01-28 10:28:56.194266,0.2360300272703169
2023-01-28 10:28:56.199266,0.23896715089666073
2023-01-28 10:28:56.204266,0.2387225627899169
2023-01-28 10:28:56.209266,0.23532389962719022
2023-01-28 10:28:56.214266,0.22876977920532215
2023-01-28 10:28:56.219266,0.21916482875797366
2023-01-28 10:28:56.224266,0.20713329315185539
2023-01-28 10:28:56.229266,0.19383481549819703
2023-01-28 10:28:56.234266,0.18032810091972343
2023-01-28 10:28:56.239266,0.16704665479001068
2023-01-28 10:28:56.244266,0.15390753746032704
2023-01-28 10:28:56.249266,0.1405778670774602
2023-01-28 10:28:56.254266,0.12652537226676938
2023-01-28 10:28:56.259266,0.11125391378465792
2023-01-28 10:28:56.264266,0.09483993053436271
2023-01-28 10:28:56.269266,0.07806829951051651
2023-01-28 10:28:56.274266,0.06188035011291501
2023-01-28 10:28:56.279266,0.04688523523071934
2023-01-28 10:28:56.284266,0.033440392464399345
2023-01-28 10:28:56.289266,0.021796049884325704
2023-01-28 10:28:56.294266,0.01194814871996642
2023-01-28 10:28:56.299266,0.0037005142627411325
2023-01-28 10:28:56.304266,-0.0028608243446796634
2023-01-28 10:28:56.309266,-0.007203140059159637
2023-01-28 10:28:56.314266,-0.008846919052302782
2023-01-28 10:28:56.319266,-0.007793361853401291
2023-01-28 10:28:56.324266,-0.0043753786012529685
2023-01-28 10:28:56.329266,0.0009019740984451006
2023-01-28 10:28:56.334266,0.007140040397643957
2023-01-28 10:28:56.339266,0.013043601252403798
2023-01-28 10:28:56.344266,0.017477473244071045
2023-01-28 10:28:56.349266,0.01987063802986983
2023-01-28 10:28:56.354266,0.020025771111249892
2023-01-28 10:28:56.359266,0.018002626840761742
2023-01-28 10:28:56.364266,0.014472405426204205
2023-01-28 10:28:56.369266,0.010767832108729503
2023-01-28 10:28:56.374266,0.008149743080139176
2023-01-28 10:28:56.379266,0.007151890355110777
2023-01-28 10:28:56.384266,0.007717013359069789
2023-01-28 10:28:56.389266,0.00947781560570221
2023-01-28 10:28:56.394266,0.011587540619075198
2023-01-28 10:28:56.399266,0.012800310973809063
2023-01-28 10:28:56.404266,0.012332797050476026
2023-01-28 10:28:56.409266,0.010516171895255359
2023-01-28 10:28:56.414266,0.008318027481436644
2023-01-28 10:28:56.419266,0.006578371221135313
2023-01-28 10:28:56.424266,0.006058216094970684
2023-01-28 10:28:56.429266,0.007649174824638839
2023-01-28 10:28:56.434266,0.011683702468872032
2023-01-28 10:28:56.439266,0.017174201652830057
2023-01-28 10:28:56.444266,0.022525986656546516
2023-01-28 10:28:56.449266,0.027164214579985507
2023-01-28 10:28:56.454266,0.03197392076253895
2023-01-28 10:28:56.459266,0.038098318196283606
2023-01-28 10:28:56.464266,0.04582127183675756
2023-01-28 10:28:56.469266,0.05466263420814327
2023-01-28 10:28:56.474266,0.06385167688131337
2023-01-28 10:28:56.479266,0.07224884133390279
2023-01-28 10:28:56.484266,0.07820387929677952
2023-01-28 10:28:56.489266,0.0800927161097806
2023-01-28 10:28:56.494266,0.07712205499410608
2023-01-28 10:28:56.499266,0.0695231844699658
2023-01-28 10:28:56.504266,0.05810598656535131
2023-01-28 10:28:56.509266,0.04383666868518643
2023-01-28 10:28:56.514266,0.02779086492955678
2023-01-28 10:28:56.519266,0.011277437941832905
2023-01-28 10:28:56.524266,-0.0041590137407182745
2023-01-28 10:28:56.529266,-0.01697149680874821
2023-01-28 10:28:56.534266,-0.02605994604527949
2023-01-28 10:28:56.539266,-0.03127058750150222
2023-01-28 10:28:56.544266,-0.03360867500305164
2023-01-28 10:28:56.549266,-0.03480368127000679
2023-01-28 10:28:56.554266,-0.03610889241099345
2023-01-28 10:28:56.559266,-0.03672426368497051
2023-01-28 10:28:56.564266,-0.032791297882795264
2023-01-28 10:28:56.569266,-0.018016066043698476
2023-01-28 10:28:56.574266,0.013727148994803429
2023-01-28 10:28:56.579266,0.06463074974855722
2023-01-28 10:28:56.584266,0.12974679470062248
2023-01-28 10:28:56.589266,0.19624218427610687
2023-01-28 10:28:56.594266,0.24631938338279713
2023-01-28 10:28:56.599266,0.26334467023943314
2023-01-28 10:28:56.604266,0.2386985272169112
2023-01-28 10:28:56.609266,0.17593788540748304
2023-01-28 10:28:56.614266,0.09003182500600806
2023-01-28 10:28:56.619266,0.001958111343983707
2023-01-28 10:28:56.624266,-0.06885211169719688
2023-01-28 10:28:56.629266,-0.11088500018829692
2023-01-28 10:28:56.634266,-0.12306352704763404
2023-01-28 10:28:56.639266,-0.11272874340448762
2023-01-28 10:28:56.644266,-0.09077708423137654
2023-01-28 10:28:56.649266,-0.06683720591570134
2023-01-28 10:28:56.654266,-0.04659056663513176
2023-01-28 10:28:56.659266,-0.03161441462427225
2023-01-28 10:28:56.664266,-0.020915269851684456
2023-01-28 10:28:56.669266,-0.012926835297205739
2023-01-28 10:28:56.674266,-0.006827513687312585
2023-01-28 10:28:56.679266,-0.002631077798973706
2023-01-28 10:28:56.684266,-0.0004808108205906478
2023-01-28 10:28:56.689266,-4.897795309022967e-05
2023-01-28 10:28:56.694266,-0.00045677027082996344
2023-01-28 10:28:56.699266,-0.0005154699832047148
2023-01-28 10:28:56.704266,0.0008895000210031393
2023-01-28 10:28:56.709266,0.0042887888452988535
2023-01-28 10:28:56.714266,0.00927964877337204
2023-01-28 10:28:56.719266,0.014764978543917654
2023-01-28 10:28:56.724266,0.01968920230865466
2023-01-28 10:28:56.729266,0.02367967556919251
2023-01-28 10:28:56.734266,0.027237933129072103
2023-01-28 10:28:56.739266,0.03156940834718925
2023-01-28 10:28:56.744266,0.03812829777598378
2023-01-28 10:28:56.749266,0.04791067672929317
2023-01-28 10:28:56.754266,0.06089469045400606
2023-01-28 10:28:56.759266,0.07615671141786076
2023-01-28 10:28:56.764266,0.09258012473583213
2023-01-28 10:28:56.769266,0.10950491671843521
2023-01-28 10:28:56.774266,0.1269100159406661
2023-01-28 10:28:56.779266,0.14521775242949325
2023-01-28 10:28:56.784266,0.1648459881544113
2023-01-28 10:28:56.789266,0.18559375400999523
2023-01-28 10:28:56.794266,0.206243798136711
2023-01-28 10:28:56.799266,0.22480523862371293
2023-01-28 10:28:56.804266,0.23922741413116447
2023-01-28 10:28:56.809266,0.24801065919537382
2023-01-28 10:28:56.814266,0.25050243735313404
2023-01-28 10:28:56.819266,0.2470502166612366
2023-01-28 10:28:56.824266,0.23896297812461847
2023-01-28 10:28:56.829266,0.22806737562448695
2023-01-28 10:28:56.834266,0.2160523384809493
2023-01-28 10:28:56.839266,0.20405724029113545
2023-01-28 10:28:56.844266,0.1925647258758544
2023-01-28 10:28:56.849266,0.18137108143106412
2023-01-28 10:28:56.854266,0.16972622275352467
2023-01-28 10:28:56.859266,0.15686138730192103
2023-01-28 10:28:56.864266,0.14258444309234614
2023-01-28 10:28:56.869266,0.12735326378134632
2023-01-28 10:28:56.874266,0.11183659732341758
2023-01-28 10:28:56.879266,0.09650393071468304
2023-01-28 10:28:56.884266,0.08149743080139157
2023-01-28 10:28:56.889266,0.06665752892732629
2023-01-28 10:28:56.894266,0.0517352446913719
2023-01-28 10:28:56.899266,0.03687276325782125
2023-01-28 10:28:56.904266,0.02295871637761593
2023-01-28 10:28:56.909266,0.011341267106993404
2023-01-28 10:28:56.914266,0.003077189205214315
2023-01-28 10:28:56.919266,-0.0016016412405156898
2023-01-28 10:28:56.924266,-0.003317594528198171
2023-01-28 10:28:56.929266,-0.0032762090504325956
2023-01-28 10:28:56.934266,-0.0028127431869506407
2023-01-28 10:28:56.939266,-0.0028103970714625248
2023-01-28 10:28:56.944266,-0.003365675685927165
2023-01-28 10:28:56.949266,-0.004037135631572966
2023-01-28 10:28:56.954266,-0.004375378601253
2023-01-28 10:28:56.959266,-0.0041811189964362176
2023-01-28 10:28:56.964266,-0.003461837768554626
2023-01-28 10:28:56.969266,-0.002389408051198238
2023-01-28 10:28:56.974266,-0.001250108121894191
2023-01-28 10:28:56.979266,-0.00024862826618205245
2023-01-28 10:28:56.984266,0.0006250540609471074
2023-01-28 10:28:56.989266,0.0014572335952500737
2023-01-28 10:28:56.994266,0.0022598109208047295
2023-01-28 10:28:56.999266,0.0030597913463221243
2023-01-28 10:28:57.004266,0.003966689109802218
2023-01-28 10:28:57.009266,0.004985432332623896
2023-01-28 10:28:57.014266,0.005889932624995737
2023-01-28 10:28:57.019266,0.006402782614554695
2023-01-28 10:28:57.024266,0.0063467025756835365
2023-01-28 10:28:57.029266,0.005557675877104884
2023-01-28 10:28:57.034266,0.003942648880183612
2023-01-28 10:28:57.039266,0.0017937021809596178
2023-01-28 10:28:57.044266,-0.00024040541029528601
2023-01-28 10:28:57.049266,-0.0016974216727032284
2023-01-28 10:28:57.054266,-0.0025482974015175824
2023-01-28 10:28:57.059266,-0.0027589893658627553
2023-01-28 10:28:57.064266,-0.0020194053649901776
2023-01-28 10:28:57.069266,-0.00018004113825550877
2023-01-28 10:28:57.074266,0.0024761757813394165
2023-01-28 10:28:57.079266,0.005796934001632441
2023-01-28 10:28:57.084266,0.010241270065307588
2023-01-28 10:28:57.089266,0.01638609129375589
2023-01-28 10:28:57.094266,0.024256905540823923
2023-01-28 10:28:57.099266,0.03346898826461144
2023-01-28 10:28:57.104266,0.04353741928935047
2023-01-28 10:28:57.109266,0.05351624854004621
2023-01-28 10:28:57.114266,0.0617841891944408
2023-01-28 10:28:57.119266,0.0668667815820508
2023-01-28 10:28:57.124266,0.0681789740920066
2023-01-28 10:28:57.129266,0.06539075463668717
2023-01-28 10:28:57.134266,0.05760113522410391
2023-01-28 10:28:57.139266,0.0441915100289454
2023-01-28 10:28:57.144266,0.026444595307111674
2023-01-28 10:28:57.149266,0.007443366613295543
2023-01-28 10:28:57.154266,-0.009760459885001075
2023-01-28 10:28:57.159266,-0.023390123558013936
2023-01-28 10:28:57.164266,-0.03281533718109127
2023-01-28 10:28:57.169266,-0.038464094737762106
2023-01-28 10:28:57.174266,-0.04216710850596418
2023-01-28 10:28:57.179266,-0.04650184013113748
2023-01-28 10:28:57.184266,-0.052793025970458825
2023-01-28 10:28:57.189266,-0.059495917689920325
2023-01-28 10:28:57.194266,-0.06214479729533183
2023-01-28 10:28:57.199266,-0.05432940155531127
2023-01-28 10:28:57.204266,-0.029425621032714767
2023-01-28 10:28:57.209266,0.016311836967918367
2023-01-28 10:28:57.214266,0.08005499839782715
2023-01-28 10:28:57.219266,0.15080126115108425
2023-01-28 10:28:57.224266,0.21165291965007782
2023-01-28 10:28:57.229266,0.24504280436573966
2023-01-28 10:28:57.234266,0.23877064883708946
2023-01-28 10:28:57.239266,0.19095685273398683
2023-01-28 10:28:57.244266,0.11181255429983128
2023-01-28 10:28:57.249266,0.020495661794020507
2023-01-28 10:28:57.254266,-0.061976514756679514
2023-01-28 10:28:57.259266,-0.11994803730334536
2023-01-28 10:28:57.264266,-0.14708003401756278
2023-01-28 10:28:57.269266,-0.14635903876922657
2023-01-28 10:28:57.274266,-0.12715041637420643
2023-01-28 10:28:57.279266,-0.1006118935398055
2023-01-28 10:28:57.284266,-0.07539113610982885
2023-01-28 10:28:57.289266,-0.055701600071484995
2023-01-28 10:28:57.294266,-0.04209498688578598
2023-01-28 10:28:57.299266,-0.03320873494759633
2023-01-28 10:28:57.304266,-0.02704560756683337
2023-01-28 10:28:57.309266,-0.021869251839134497
2023-01-28 10:28:57.314266,-0.01692454144358625
2023-01-28 10:28:57.319266,-0.012444612490019205
2023-01-28 10:28:57.324266,-0.008895000442862481
2023-01-28 10:28:57.329266,-0.006402980638772277
2023-01-28 10:28:57.334266,-0.004832148551940842
2023-01-28 10:28:57.339266,-0.003869182808741897
2023-01-28 10:28:57.344266,-0.0028367838822304634
2023-01-28 10:28:57.349266,-0.0008603527593248259
2023-01-28 10:28:57.354266,0.002500216243788496
2023-01-28 10:28:57.359266,0.007038541418325186
2023-01-28 10:28:57.364266,0.01242895983159541
2023-01-28 10:28:57.369266,0.018651393485845734
2023-01-28 10:28:57.374266,0.025843581184744842
2023-01-28 10:28:57.379266,0.034172430967200865
2023-01-28 10:28:57.384266,0.044018231332302045
2023-01-28 10:28:57.389266,0.0558948386575292
2023-01-28 10:28:57.394266,0.06998201459646221
2023-01-28 10:28:57.399266,0.08601718351277232
2023-01-28 10:28:57.404266,0.10371088981628414
2023-01-28 10:28:57.409266,0.12285273364866679
2023-01-28 10:28:57.414266,0.14284889400005338
2023-01-28 10:28:57.419266,0.162534683678212
2023-01-28 10:28:57.424266,0.1806406229734419
2023-01-28 10:28:57.429266,0.19619076352165507
2023-01-28 10:28:57.434266,0.20845553278923026
2023-01-28 10:28:57.439266,0.21702320456244129
2023-01-28 10:28:57.444266,0.22213459014892561
2023-01-28 10:28:57.449266,0.22455146155318975
2023-01-28 10:28:57.454266,0.22482714056968672
2023-01-28 10:28:57.459266,0.22290585436351829
2023-01-28 10:28:57.464266,0.21845638751983626
2023-01-28 10:28:57.469266,0.21120933845954604
2023-01-28 10:28:57.474266,0.20090679824352248
2023-01-28 10:28:57.479266,0.1874347162817207
2023-01-28 10:28:57.484266,0.17128884792327873
2023-01-28 10:28:57.489266,0.1536004426376182
2023-01-28 10:28:57.494266,0.13549248874187453
2023-01-28 10:28:57.499266,0.11762469467402736
2023-01-28 10:28:57.504266,0.10036925971508026
2023-01-28 10:28:57.509266,0.0839918054807165
2023-01-28 10:28:57.514266,0.06851553916931144
2023-01-28 10:28:57.519266,0.05383398280689209
2023-01-28 10:28:57.524266,0.040195785462856175
2023-01-28 10:28:57.529266,0.028278036907075327
2023-01-28 10:28:57.534266,0.01860737800598137
2023-01-28 10:28:57.539266,0.011160867482143023
2023-01-28 10:28:57.544266,0.005577405449002895
2023-01-28 10:28:57.549266,0.0013707519640269747
2023-01-28 10:28:57.554266,-0.002163648605346625
2023-01-28 10:28:57.559266,-0.0057804999233880255
2023-01-28 10:28:57.564266,-0.009712378494441502
2023-01-28 10:28:57.569266,-0.013459906518316746
2023-01-28 10:28:57.574266,-0.016251405701041204
2023-01-28 10:28:57.579266,-0.017486931697549748
2023-01-28 10:28:57.584266,-0.01680433750152582
2023-01-28 10:28:57.589266,-0.014237247913560467
2023-01-28 10:28:57.594266,-0.010529756546020539
2023-01-28 10:28:57.599266,-0.0069226601637607755
2023-01-28 10:28:57.604266,-0.004351337905973122
2023-01-28 10:28:57.609266,-0.002978459002230712
2023-01-28 10:28:57.614266,-0.002476175781339383
2023-01-28 10:28:57.619266,-0.002418418374535676
2023-01-28 10:28:57.624266,-0.0024040541611610755
2023-01-28 10:28:57.629266,-0.0022811564680496727
2023-01-28 10:28:57.634266,-0.0024280946236102685
2023-01-28 10:28:57.639266,-0.0034364952525666463
2023-01-28 10:28:57.644266,-0.005312959663569885
2023-01-28 10:28:57.649266,-0.007244439009581469
2023-01-28 10:28:57.654266,-0.008245905861258488
2023-01-28 10:28:57.659266,-0.007822058651309124
2023-01-28 10:28:57.664266,-0.006106297485530329
2023-01-28 10:28:57.669266,-0.003851772337996048
2023-01-28 10:28:57.674266,-0.0023559730034320883
2023-01-28 10:28:57.679266,-0.0028391794714242545
2023-01-28 10:28:57.684266,-0.005529324524104501
2023-01-28 10:28:57.689266,-0.009500546871257445
2023-01-28 10:28:57.694266,-0.013462702743709002
2023-01-28 10:28:57.699266,-0.016517486089230083
2023-01-28 10:28:57.704266,-0.018318891525268517
2023-01-28 10:28:57.709266,-0.0190427140959058
2023-01-28 10:28:57.714266,-0.019304554909467572
2023-01-28 10:28:57.719266,-0.01964819290611361
2023-01-28 10:28:57.724266,-0.019905567169189394
2023-01-28 10:28:57.729266,-0.01930901575787015
2023-01-28 10:28:57.734266,-0.017261108383536276
2023-01-28 10:28:57.739266,-0.01370772440729131
2023-01-28 10:28:57.744266,-0.008822878822684193
2023-01-28 10:28:57.749266,-0.0027142683700487943
2023-01-28 10:28:57.754266,0.004615783691406227
2023-01-28 10:28:57.759266,0.013409160190411867
2023-01-28 10:28:57.764266,0.02408862113952632
2023-01-28 10:28:57.769266,0.036457665735943945
2023-01-28 10:28:57.774266,0.04894654080271718
2023-01-28 10:28:57.779266,0.059172112877944064
2023-01-28 10:28:57.784266,0.06527006626129152
2023-01-28 10:28:57.789266,0.06629292553981156
2023-01-28 10:28:57.794266,0.06166398525238025
2023-01-28 10:28:57.799266,0.051256973253179156
2023-01-28 10:28:57.804266,0.03622909635305398
2023-01-28 10:28:57.809266,0.018965967468049825
2023-01-28 10:28:57.814266,0.0017790000420062407
2023-01-28 10:28:57.819266,-0.013958043259768809
2023-01-28 10:28:57.824266,-0.027430256828665733
2023-01-28 10:28:57.829266,-0.038026774317915825
2023-01-28 10:28:57.834266,-0.045797228813171255
2023-01-28 10:28:57.839266,-0.05169469889817602
2023-01-28 10:28:57.844266,-0.05690395832061758
2023-01-28 10:28:57.849266,-0.0620801307437407
2023-01-28 10:28:57.854266,-0.06697694957256306
2023-01-28 10:28:57.859266,-0.06974937607136422
2023-01-28 10:28:57.864266,-0.06606340408325187
2023-01-28 10:28:57.869266,-0.04971902216994781
2023-01-28 10:28:57.874266,-0.015554229728877565
2023-01-28 10:28:57.879266,0.03697985135863051
2023-01-28 10:28:57.884266,0.10159532725810999
2023-01-28 10:28:57.889266,0.16512646580461424
2023-01-28 10:28:57.894266,0.21021048724651328
2023-01-28 10:28:57.899266,0.22101386835394668
2023-01-28 10:28:57.904266,0.19011259078979484
2023-01-28 10:28:57.909266,0.12249751430777674
2023-01-28 10:28:57.914266,0.03413756936788545
2023-01-28 10:28:57.919266,-0.05376925982029212
2023-01-28 10:28:57.924266,-0.12193362414836872
2023-01-28 10:28:57.929266,-0.1590341205004019
2023-01-28 10:28:57.934266,-0.16458153724670405
2023-01-28 10:28:57.939266,-0.14712419521053854
2023-01-28 10:28:57.944266,-0.11892855167388901
2023-01-28 10:28:57.949266,-0.09070583600926753
2023-01-28 10:28:57.954266,-0.068972311913967
2023-01-28 10:28:57.959266,-0.055748058926461515
2023-01-28 10:28:57.964266,-0.04942735284566862
2023-01-28 10:28:57.969266,-0.04655262975847533
2023-01-28 10:28:57.974266,-0.04399418830871572
2023-01-28 10:28:57.979266,-0.04014907254233545
2023-01-28 10:28:57.984266,-0.03469049930572488
2023-01-28 10:28:57.989266,-0.028040603918876236
2023-01-28 10:28:57.994266,-0.021275877952575493
2023-01-28 10:28:57.999266,-0.01569396513604238
2023-01-28 10:28:58.004266,-0.011779865249991302
2023-01-28 10:28:58.009266,-0.008804389605865557
2023-01-28 10:28:58.014266,-0.005673567764460974
2023-01-28 10:28:58.019266,-0.0018467260147667919
2023-01-28 10:28:58.024266,0.0026444594841450782
2023-01-28 10:28:58.029266,0.007473172670944749
2023-01-28 10:28:58.034266,0.012068351730704368
2023-01-28 10:28:58.039266,0.01603973536771714
2023-01-28 10:28:58.044266,0.02002577111124999
2023-01-28 10:28:58.049266,0.02572912584119748
2023-01-28 10:28:58.054266,0.03473858162760723
2023-01-28 10:28:58.059266,0.04755234745368911
2023-01-28 10:28:58.064266,0.06377955526113513
2023-01-28 10:28:58.069266,0.082664594408614
2023-01-28 10:28:58.074266,0.10313391685485829
2023-01-28 10:28:58.079266,0.12394644651178434
2023-01-28 10:28:58.084266,0.14426729083061207
2023-01-28 10:28:58.089266,0.1637493141737057
2023-01-28 10:28:58.094266,0.1818186044692992
2023-01-28 10:28:58.099266,0.19736431043032898
2023-01-28 10:28:58.104266,0.20941714942455283
2023-01-28 10:28:58.109266,0.21766980051967694
2023-01-28 10:28:58.114266,0.22208651900291432
2023-01-28 10:28:58.119266,0.22254020206669994
2023-01-28 10:28:58.124266,0.2191535681486128
2023-01-28 10:28:58.129266,0.2124965304247881
2023-01-28 10:28:58.134266,0.20311853289604168
2023-01-28 10:28:58.139266,0.19134022271847026
2023-01-28 10:28:58.144266,0.177755758166313
2023-01-28 10:28:58.149266,0.16338500129743702
2023-01-28 10:28:58.154266,0.14897923171520222
2023-01-28 10:28:58.159266,0.13464972593096944
2023-01-28 10:28:58.164266,0.12046714872121808
2023-01-28 10:28:58.169266,0.10689996395386071
2023-01-28 10:28:58.174266,0.09433507919311514
2023-01-28 10:28:58.179266,0.08266233759389266
2023-01-28 10:28:58.184266,0.07161676883697503
2023-01-28 10:28:58.189266,0.06098593438579174
2023-01-28 10:28:58.194266,0.05019664764404288
2023-01-28 10:28:58.199266,0.03835985046943567
2023-01-28 10:28:58.204266,0.02524256706237785
2023-01-28 10:28:58.209266,0.011815542244866653
2023-01-28 10:28:58.214266,-0.00045677027082995396
2023-01-28 10:28:58.219266,-0.010440018275944552
2023-01-28 10:28:58.224266,-0.01735727116465556
2023-01-28 10:28:58.229266,-0.020848464480061862
2023-01-28 10:28:58.234266,-0.021564364433288474
2023-01-28 10:28:58.239266,-0.021157007873865923
2023-01-28 10:28:58.244266,-0.021131634712219138
2023-01-28 10:28:58.249266,-0.02197578629206184
2023-01-28 10:28:58.254266,-0.02351164817810052
2023-01-28 10:28:58.259266,-0.025362315362289934
2023-01-28 10:28:58.264266,-0.02668499946594224
2023-01-28 10:28:58.269266,-0.02620523035681607
2023-01-28 10:28:58.274266,-0.0231991223990917
2023-01-28 10:28:58.279266,-0.018120549659458647
2023-01-28 10:28:58.284266,-0.011996230110525962
2023-01-28 10:28:58.289266,-0.005792660142411241
2023-01-28 10:28:58.294266,-0.0006490945816039944
2023-01-28 10:28:58.299266,0.00213645937637465
2023-01-28 10:28:58.304266,0.0020674865227191218
2023-01-28 10:28:58.309266,-5.6817968912895366e-05
2023-01-28 10:28:58.314266,-0.003053148742765041
2023-01-28 10:28:58.319266,-0.006251934352467354
2023-01-28 10:28:58.324266,-0.009207527153193912
2023-01-28 10:28:58.329266,-0.011363477517340006
2023-01-28 10:28:58.334266,-0.012645324692129999
2023-01-28 10:28:58.339266,-0.013741554008153429
2023-01-28 10:28:58.344266,-0.0151695813983678
2023-01-28 10:28:58.349266,-0.016612860817910864
2023-01-28 10:28:58.354266,-0.017669796943664422
2023-01-28 10:28:58.359266,-0.018547648616420605
2023-01-28 10:28:58.364266,-0.01942475698888294
2023-01-28 10:28:58.369266,-0.01987080628991092
2023-01-28 10:28:58.374266,-0.019593041390180473
2023-01-28 10:28:58.379266,-0.019042313601183847
2023-01-28 10:28:58.384266,-0.01853525638580318
2023-01-28 10:28:58.389266,-0.017470081566917237
2023-01-28 10:28:58.394266,-0.015169581398367825
2023-01-28 10:28:58.399266,-0.011749616231925662
2023-01-28 10:28:58.404266,-0.007308324333280287
2023-01-28 10:28:58.409266,-0.0010724652350888467
2023-01-28 10:28:58.414266,0.007596810813993291
2023-01-28 10:28:58.419266,0.018043981583077955
2023-01-28 10:28:58.424266,0.029209256172180117
2023-01-28 10:28:58.429266,0.040821096626137116
2023-01-28 10:28:58.434266,0.052288174629211384
2023-01-28 10:28:58.439266,0.06114114255430733
2023-01-28 10:28:58.444266,0.06447672843933094
2023-01-28 10:28:58.449266,0.06190816486933746
2023-01-28 10:28:58.454266,0.0554374866187572
2023-01-28 10:28:58.459266,0.04632123221664567
2023-01-28 10:28:58.464266,0.033825039863586405
2023-01-28 10:28:58.469266,0.017615786250938507
2023-01-28 10:28:58.474266,-0.00024040541029525286
2023-01-28 10:28:58.479266,-0.016714188386839118
2023-01-28 10:28:58.484266,-0.03024300001561642
2023-01-28 10:28:58.489266,-0.04082043255919391
2023-01-28 10:28:58.494266,-0.048585932701825964
2023-01-28 10:28:58.499266,-0.053572372928042566
2023-01-28 10:28:58.504266,-0.056543350219726486
2023-01-28 10:28:58.509266,-0.058893185104709166
2023-01-28 10:28:58.514266,-0.06118317693471903
2023-01-28 10:28:58.519266,-0.0617611286062835
2023-01-28 10:28:58.524266,-0.056519310921430484
2023-01-28 10:28:58.529266,-0.03985875721387291
2023-01-28 10:28:58.534266,-0.00687559461221087
2023-01-28 10:28:58.539266,0.04344096560622758
2023-01-28 10:28:58.544266,0.10534565150737757
2023-01-28 10:28:58.549266,0.16585932476529008
2023-01-28 10:28:58.554266,0.2078545093536375
2023-01-28 10:28:58.559266,0.21600198478093718
2023-01-28 10:28:58.564266,0.18316487967967976
2023-01-28 10:28:58.569266,0.11418369294556642
2023-01-28 10:28:58.574266,0.024978121742606062
2023-01-28 10:28:58.579266,-0.06285852940484653
2023-01-28 10:28:58.584266,-0.12965063750743847
2023-01-28 10:28:58.589266,-0.16417455425672703
2023-01-28 10:28:58.594266,-0.1663845777511595
2023-01-28 10:28:58.599266,-0.1453613660107343
2023-01-28 10:28:58.604266,-0.11402428150176994
2023-01-28 10:28:58.609266,-0.0837264330490621
2023-01-28 10:28:58.614266,-0.06113509461283674
2023-01-28 10:28:58.619266,-0.04778730276518763
2023-01-28 10:28:58.624266,-0.04149397462606428
2023-01-28 10:28:58.629266,-0.03861901774024953
2023-01-28 10:28:58.634266,-0.036132931709289426
2023-01-28 10:28:58.639266,-0.03243218549058718
2023-01-28 10:28:58.644266,-0.026997527107596286
2023-01-28 10:28:58.649266,-0.01997542648248695
2023-01-28 10:28:58.654266,-0.0121885538101196
2023-01-28 10:28:58.659266,-0.004943347785753161
2023-01-28 10:28:58.664266,0.0006971756811253063
2023-01-28 10:28:58.669266,0.004462890157139351
2023-01-28 10:28:58.674266,0.006779432296752958
2023-01-28 10:28:58.679266,0.008537232381477177
2023-01-28 10:28:58.684266,0.011010567657649555
2023-01-28 10:28:58.689266,0.015390782104607172
2023-01-28 10:28:58.694266,0.02192497253417962
2023-01-28 10:28:58.699266,0.029695222336068333
2023-01-28 10:28:58.704266,0.03745516389608388
2023-01-28 10:28:58.709266,0.04452277536006174
2023-01-28 10:28:58.714266,0.0509659461677074
2023-01-28 10:28:58.719266,0.057564444387262825
2023-01-28 10:28:58.724266,0.0658710822463035
2023-01-28 10:28:58.729266,0.07773627310960476
2023-01-28 10:28:58.734266,0.09421487897634498
2023-01-28 10:28:58.739266,0.11499409411562816
2023-01-28 10:28:58.744266,0.13885816931724537
2023-01-28 10:28:58.749266,0.1641841746290242
2023-01-28 10:28:58.754266,0.18883845210075367
2023-01-28 10:28:58.759266,0.2103052223810573
2023-01-28 10:28:58.764266,0.22653400897979725
2023-01-28 10:28:58.769266,0.23655376475346088
2023-01-28 10:28:58.774266,0.24026116728782645
2023-01-28 10:28:58.779266,0.23822195474004124
2023-01-28 10:28:58.784266,0.2319190949201583
2023-01-28 10:28:58.789266,0.2234719516965985
2023-01-28 10:28:58.794266,0.21446566283702842
2023-01-28 10:28:58.799266,0.20522665459414796
2023-01-28 10:28:58.804266,0.19535343348979933
2023-01-28 10:28:58.809266,0.18440915043741157
2023-01-28 10:28:58.814266,0.17188987135887135
2023-01-28 10:28:58.819266,0.1572560343924621
2023-01-28 10:28:58.824266,0.14054100215435017
2023-01-28 10:28:58.829266,0.12249880100327004
2023-01-28 10:28:58.834266,0.10380705446004858
2023-01-28 10:28:58.839266,0.0846357849842812
2023-01-28 10:28:58.844266,0.06531815230846395
2023-01-28 10:28:58.849266,0.0468280431227186
2023-01-28 10:28:58.854266,0.030170878395438014
2023-01-28 10:28:58.859266,0.015850840960469372
2023-01-28 10:28:58.864266,0.004279216285794869
2023-01-28 10:28:58.869266,-0.0039959929146749975
2023-01-28 10:28:58.874266,-0.008991162292659186
2023-01-28 10:28:58.879266,-0.011641724575010703
2023-01-28 10:28:58.884266,-0.012981891632079958
2023-01-28 10:28:58.889266,-0.013509888895756697
2023-01-28 10:28:58.894266,-0.013703107833862272
2023-01-28 10:28:58.899266,-0.014377556624394045
2023-01-28 10:28:58.904266,-0.01593887805938715
2023-01-28 10:28:58.909266,-0.01788867328064457
2023-01-28 10:28:58.914266,-0.0195930413901805
2023-01-28 10:28:58.919266,-0.020919419748497682
2023-01-28 10:28:58.924266,-0.021684568375348955
2023-01-28 10:28:58.929266,-0.021311404276345577
2023-01-28 10:28:58.934266,-0.019713243469595857
2023-01-28 10:28:58.939266,-0.017834204078529974
2023-01-28 10:28:58.944266,-0.016660094261169437
2023-01-28 10:28:58.949266,-0.016306425691087582
2023-01-28 10:28:58.954266,-0.016563933342695143
2023-01-28 10:28:58.959266,-0.017478850755815165
2023-01-28 10:28:58.964266,-0.01872758194804191
2023-01-28 10:28:58.969266,-0.019310822618934017
2023-01-28 10:28:58.974266,-0.018727581948041895
2023-01-28 10:28:58.979266,-0.017767420684255658
2023-01-28 10:28:58.984266,-0.01742939278483387
2023-01-28 10:28:58.989266,-0.01781790879901846
2023-01-28 10:28:58.994266,-0.018751621246337804
2023-01-28 10:28:58.999266,-0.020461694480982576
2023-01-28 10:28:59.004266,-0.022790431976318245
2023-01-28 10:28:59.009266,-0.02463403878425359
2023-01-28 10:28:59.014266,-0.025170445442199603
2023-01-28 10:28:59.019266,-0.024812875713356483
2023-01-28 10:28:59.024266,-0.024064581841230316
2023-01-28 10:28:59.029266,-0.022409726630099366
2023-01-28 10:28:59.034266,-0.019304554909467565
2023-01-28 10:28:59.039266,-0.015158790732381447
2023-01-28 10:28:59.044266,-0.010169148445129271
2023-01-28 10:28:59.049266,-0.003278762695648846
2023-01-28 10:28:59.054266,0.006370743270963411
2023-01-28 10:28:59.059266,0.01789050777558144
2023-01-28 10:28:59.064266,0.02969006821513166
2023-01-28 10:28:59.069266,0.04080360234078883
2023-01-28 10:28:59.074266,0.04978796094655988
2023-01-28 10:28:59.079266,0.05379070352859772
2023-01-28 10:28:59.084266,0.0507255420088768
2023-01-28 10:28:59.089266,0.04146080316101793
2023-01-28 10:28:59.094266,0.02824763581156721
2023-01-28 10:28:59.099266,0.012339128925060843
2023-01-28 10:28:59.104266,-0.004952351562678771
2023-01-28 10:28:59.109266,-0.020617288778175775
2023-01-28 10:28:59.114266,-0.0321902856230735
2023-01-28 10:28:59.119266,-0.04047675933218172
2023-01-28 10:28:59.124266,-0.047359865158796206
2023-01-28 10:28:59.129266,-0.05238167644583389
2023-01-28 10:28:59.134266,-0.054812431335449094
2023-01-28 10:28:59.139266,-0.05736737270026132
2023-01-28 10:28:59.144266,-0.06296217441558824
2023-01-28 10:28:59.149266,-0.06814658264311199
2023-01-28 10:28:59.154266,-0.06495754420757287
2023-01-28 10:28:59.159266,-0.04987314049819811
2023-01-28 10:28:59.164266,-0.025531053543090772
2023-01-28 10:28:59.169266,0.00759375227402267
2023-01-28 10:28:59.174266,0.05416333675384516
2023-01-28 10:28:59.179266,0.11353077464250375
2023-01-28 10:28:59.184266,0.17044743895530695
2023-01-28 10:28:59.189266,0.2021337032294332
2023-01-28 10:28:59.194266,0.19403120875358576
2023-01-28 10:28:59.199266,0.1464401902550632
2023-01-28 10:28:59.204266,0.06995797157287595
2023-01-28 10:28:59.209266,-0.019235311746898087
2023-01-28 10:28:59.214266,-0.1011385545134544
2023-01-28 10:28:59.219266,-0.15725118984336064
2023-01-28 10:28:59.224266,-0.17919819056987762
2023-01-28 10:28:59.229266,-0.1715024138954145
2023-01-28 10:28:59.234266,-0.1455895155668257
2023-01-28 10:28:59.239266,-0.11276062969711627
2023-01-28 10:28:59.244266,-0.08178591728210434
2023-01-28 10:28:59.249266,-0.05833599679526989
2023-01-28 10:28:59.254266,-0.043657623231410835
2023-01-28 10:28:59.259266,-0.0351502852865147
2023-01-28 10:28:59.264266,-0.02988239191472527
2023-01-28 10:28:59.269266,-0.026871328953793527
2023-01-28 10:28:59.274266,-0.02574741840362537
2023-01-28 10:28:59.279266,-0.025160304134930537
2023-01-28 10:28:59.284266,-0.02367993257939807
2023-01-28 10:28:59.289266,-0.020963723267281225
2023-01-28 10:28:59.294266,-0.017020702362060495
2023-01-28 10:28:59.299266,-0.011446092855721445
2023-01-28 10:28:59.304266,-0.004327297210693309
2023-01-28 10:28:59.309266,0.0030807588593472625
2023-01-28 10:28:59.314266,0.009520053863525321
2023-01-28 10:28:59.319266,0.01486626867516934
2023-01-28 10:28:59.324266,0.01952091977000235
2023-01-28 10:28:59.329266,0.02360282032320435
2023-01-28 10:28:59.334266,0.027502378448843897
2023-01-28 10:28:59.339266,0.032424266817112364
2023-01-28 10:28:59.344266,0.03952264785766604
2023-01-28 10:28:59.349266,0.048998013783307544
2023-01-28 10:28:59.354266,0.06060620397329333
2023-01-28 10:28:59.359266,0.07441559505371168
2023-01-28 10:28:59.364266,0.09044051170349121
2023-01-28 10:28:59.369266,0.10813085229117586
2023-01-28 10:28:59.374266,0.12688598036766047
2023-01-28 10:28:59.379266,0.14657491310349996
2023-01-28 10:28:59.384266,0.16691347956657393
2023-01-28 10:28:59.389266,0.18672539110088285
2023-01-28 10:28:59.394266,0.20436863601207717
2023-01-28 10:28:59.399266,0.2185489333038776
2023-01-28 10:28:59.404266,0.22833704948425285
2023-01-28 10:28:59.409266,0.2329743815830004
2023-01-28 10:28:59.414266,0.23235182464122756
2023-01-28 10:28:59.419266,0.22738684201559164
2023-01-28 10:28:59.424266,0.21934589743614175
2023-01-28 10:28:59.429266,0.20894009675787328
2023-01-28 10:28:59.434266,0.19638717174530007
2023-01-28 10:28:59.439266,0.18195128752153594
2023-01-28 10:28:59.444266,0.1659278124570845
2023-01-28 10:28:59.449266,0.14841624370834944
2023-01-28 10:28:59.454266,0.12965063750743858
2023-01-28 10:28:59.459266,0.1103815971278618
2023-01-28 10:28:59.464266,0.09149830043315885
2023-01-28 10:28:59.469266,0.07343132608983571
2023-01-28 10:28:59.474266,0.0562789067625999
2023-01-28 10:28:59.479266,0.040293581616589996
2023-01-28 10:28:59.484266,0.025843581184744776
2023-01-28 10:28:59.489266,0.013084528651522247
2023-01-28 10:28:59.494266,0.0020674865227192072
2023-01-28 10:28:59.499266,-0.0069908551717993575
2023-01-28 10:28:59.504266,-0.013943513855337996
2023-01-28 10:28:59.509266,-0.019108027270122986
2023-01-28 10:28:59.514266,-0.023078918457031226
2023-01-28 10:28:59.519266,-0.026244223081169023
2023-01-28 10:28:59.524266,-0.028776526451110826
2023-01-28 10:28:59.529266,-0.0309277645752022
2023-01-28 10:28:59.534266,-0.032935541123151675
2023-01-28 10:28:59.539266,-0.03468427052030097
2023-01-28 10:28:59.544266,-0.03577232360839833
2023-01-28 10:28:59.549266,-0.035875980490315935
2023-01-28 10:28:59.554266,-0.034810703247785464
2023-01-28 10:28:59.559266,-0.03237687747362337
2023-01-28 10:28:59.564266,-0.02851208113133893
2023-01-28 10:28:59.569266,-0.023596282290247406
2023-01-28 10:28:59.574266,-0.01834293268620953
2023-01-28 10:28:59.579266,-0.013405573246909126
2023-01-28 10:28:59.584266,-0.009303689002990665
2023-01-28 10:28:59.589266,-0.006630363813079988
2023-01-28 10:28:59.594266,-0.005986094474792284
2023-01-28 10:28:59.599266,-0.007618427293284846
2023-01-28 10:28:59.604266,-0.011250972747802665
2023-01-28 10:28:59.609266,-0.01617450315498819
2023-01-28 10:28:59.614266,-0.021299919113516808
2023-01-28 10:28:59.619266,-0.02527942126183766
2023-01-28 10:28:59.624266,-0.02702156826853744
2023-01-28 10:28:59.629266,-0.026300116156274464
2023-01-28 10:28:59.634266,-0.02377609536051754
2023-01-28 10:28:59.639266,-0.020406532690022856
2023-01-28 10:28:59.644266,-0.016852419823408012
2023-01-28 10:28:59.649266,-0.013193638423838317
2023-01-28 10:28:59.654266,-0.008822878822684184
2023-01-28 10:28:59.659266,-0.0026213393641187155
2023-01-28 10:28:59.664266,0.006346702575683503
2023-01-28 10:28:59.669266,0.017984956658131126
2023-01-28 10:28:59.674266,0.0309161357581615
2023-01-28 10:28:59.679266,0.04297284201881347
2023-01-28 10:28:59.684266,0.05187948793172829
2023-01-28 10:28:59.689266,0.055782204652600954
2023-01-28 10:28:59.694266,0.05370656773447988
2023-01-28 10:28:59.699266,0.04582520226243034
2023-01-28 10:28:59.704266,0.03322402760386463
2023-01-28 10:28:59.709266,0.01735194749673139
2023-01-28 10:28:59.714266,-0.00026444596005597984
2023-01-28 10:28:59.719266,-0.017954238262751887
2023-01-28 10:28:59.724266,-0.03396928310394279
2023-01-28 10:28:59.729266,-0.04686799963660339
2023-01-28 10:28:59.734266,-0.05587021633982653
2023-01-28 10:28:59.739266,-0.06100661318919346
2023-01-28 10:28:59.744266,-0.06320258229970929
2023-01-28 10:28:59.749266,-0.06411328527493886
2023-01-28 10:28:59.754266,-0.06524603068828581
2023-01-28 10:28:59.759266,-0.06653862321460474
2023-01-28 10:28:59.764266,-0.06536623090505594
2023-01-28 10:28:59.769266,-0.05679621425309166
2023-01-28 10:28:59.774266,-0.03519535064697263
2023-01-28 10:28:59.779266,0.003088171543187651
2023-01-28 10:28:59.784266,0.05663951486349096
2023-01-28 10:28:59.789266,0.11703480248991491
2023-01-28 10:28:59.794266,0.16987046599388114
2023-01-28 10:28:59.799266,0.19915533745505937
2023-01-28 10:28:59.804266,0.1933099925518035
2023-01-28 10:28:59.809266,0.15007828205903317
2023-01-28 10:28:59.814266,0.07820387929677955
2023-01-28 10:28:59.819266,-0.005101464978806038
2023-01-28 10:28:59.824266,-0.08022328466176978
2023-01-28 10:28:59.829266,-0.13210292327239748
2023-01-28 10:28:59.834266,-0.15470087528228746
2023-01-28 10:28:59.839266,-0.1512213118505961
2023-01-28 10:28:59.844266,-0.1309488266706466
2023-01-28 10:28:59.849266,-0.1047739568258475
2023-01-28 10:28:59.854266,-0.08123298734426483
2023-01-28 10:28:59.859266,-0.06441784037753369
2023-01-28 10:28:59.864266,-0.05437970161437974
2023-01-28 10:28:59.869266,-0.04914635612725667
2023-01-28 10:28:59.874266,-0.04649440571665759
2023-01-28 10:28:59.879266,-0.044606926649494574
2023-01-28 10:28:59.884266,-0.042311351746320634
2023-01-28 10:28:59.889266,-0.03941480332329863
2023-01-28 10:28:59.894266,-0.03651758283376683
2023-01-28 10:28:59.899266,-0.034052677352954475
2023-01-28 10:28:59.904266,-0.03166139125823965
2023-01-28 10:28:59.909266,-0.02870048205322941
2023-01-28 10:28:59.914266,-0.02493004128336894
2023-01-28 10:28:59.919266,-0.02026910053455934
2023-01-28 10:28:59.924266,-0.014256040565669453
2023-01-28 10:28:59.929266,-0.006409596292656919
2023-01-28 10:28:59.934266,0.0029329459648578895
2023-01-28 10:28:59.939266,0.012635083493922157
2023-01-28 10:28:59.944266,0.0216364860534667
2023-01-28 10:28:59.949266,0.029517094248789
2023-01-28 10:28:59.954266,0.03642141819000242
2023-01-28 10:28:59.959266,0.043015569082604475
2023-01-28 10:28:59.964266,0.05055725574493403
2023-01-28 10:28:59.969266,0.06046179500095572
2023-01-28 10:28:59.974266,0.0734919309616088
2023-01-28 10:28:59.979266,0.08946396685236925
2023-01-28 10:28:59.984266,0.10762950032949439
2023-01-28 10:28:59.989266,0.1269979311418866
2023-01-28 10:28:59.994266,0.14635881781578058
2023-01-28 10:28:59.999266,0.16449172061962233
2023-01-28 10:29:00.004266,0.1805685013532638
2023-01-28 10:29:00.009266,0.1941399700102333
2023-01-28 10:29:00.014266,0.20470520853996269
2023-01-28 10:29:00.019266,0.2115817844753493
2023-01-28 10:29:00.024266,0.21424929797649375
2023-01-28 10:29:00.029266,0.2125740115598258
2023-01-28 10:29:00.034266,0.20672461390495292
2023-01-28 10:29:00.039266,0.1972166671977105
2023-01-28 10:29:00.044266,0.18508812785148615
2023-01-28 10:29:00.049266,0.17165908248934636
2023-01-28 10:29:00.054266,0.15789827704429615
2023-01-28 10:29:00.059266,0.1440977576943011
2023-01-28 10:29:00.064266,0.13005933165550224
2023-01-28 10:29:00.069266,0.1152945282236703
2023-01-28 10:29:00.074266,0.09911914914846412
2023-01-28 10:29:00.079266,0.08105555227945452
2023-01-28 10:29:00.084266,0.06142358109354966
2023-01-28 10:29:00.089266,0.041406043114007016
2023-01-28 10:29:00.094266,0.022477906197309435
2023-01-28 10:29:00.099266,0.005869545175570295
2023-01-28 10:29:00.104266,-0.007644891738891516
2023-01-28 10:29:00.109266,-0.017956776485267785
2023-01-28 10:29:00.114266,-0.02574741840362539
2023-01-28 10:29:00.119266,-0.03200135846176207
2023-01-28 10:29:00.124266,-0.037118595093488645
2023-01-28 10:29:00.129266,-0.04059664035094765
2023-01-28 10:29:00.134266,-0.04159013554453842
2023-01-28 10:29:00.139266,-0.039629006048799785
2023-01-28 10:29:00.144266,-0.034978985786437884
2023-01-28 10:29:00.149266,-0.028793220676263453
2023-01-28 10:29:00.154266,-0.022982757538557032
2023-01-28 10:29:00.159266,-0.019432850064661954
2023-01-28 10:29:00.164266,-0.018943946808576518
2023-01-28 10:29:00.169266,-0.02092447765479955
2023-01-28 10:29:00.174266,-0.024040540680289196
2023-01-28 10:29:00.179266,-0.026962315206496053
2023-01-28 10:29:00.184266,-0.028704404830932593
2023-01-28 10:29:00.189266,-0.02888404516671565
2023-01-28 10:29:00.194266,-0.027935108169913174
2023-01-28 10:29:00.199266,-0.02678302022904355
2023-01-28 10:29:00.204266,-0.026108026504516567
2023-01-28 10:29:00.209266,-0.026042020639275586
2023-01-28 10:29:00.214266,-0.02646863460540764
2023-01-28 10:29:00.219266,-0.027186370473804913
2023-01-28 10:29:00.224266,-0.027718743309378586
2023-01-28 10:29:00.229266,-0.027421878082643524
2023-01-28 10:29:00.234266,-0.02601186558604238
2023-01-28 10:29:00.239266,-0.023750627688522933
2023-01-28 10:29:00.244266,-0.021059513092040957
2023-01-28 10:29:00.249266,-0.018262652387108166
2023-01-28 10:29:00.254266,-0.01569847390055646
2023-01-28 10:29:00.259266,-0.013569928955706283
2023-01-28 10:29:00.264266,-0.011443297378718815
2023-01-28 10:29:00.269266,-0.008228202136283528
2023-01-28 10:29:00.274266,-0.002884864807128887
2023-01-28 10:29:00.279266,0.004985725367337845
2023-01-28 10:29:00.284266,0.015121500007808179
2023-01-28 10:29:00.289266,0.02662119487429237
2023-01-28 10:29:00.294266,0.037839811295270954
2023-01-28 10:29:00.299266,0.04678434351393278
2023-01-28 10:29:00.304266,0.05199968814849849
2023-01-28 10:29:00.309266,0.0529392274939924
2023-01-28 10:29:00.314266,0.04949947446584696
2023-01-28 10:29:00.319266,0.04166181110023439
2023-01-28 10:29:00.324266,0.029762189835309885
2023-01-28 10:29:00.329266,0.014712885840869513
2023-01-28 10:29:00.334266,-0.0022117297630756807
2023-01-28 10:29:00.339266,-0.019445293187831884
2023-01-28 10:29:00.344266,-0.03495494648814194
2023-01-28 10:29:00.349266,-0.04669168580944893
2023-01-28 10:29:00.354266,-0.05377868935465807
2023-01-28 10:29:00.359266,-0.05716145716528572
2023-01-28 10:29:00.364266,-0.05894740670919411
2023-01-28 10:29:00.369266,-0.06116905517937884
2023-01-28 10:29:00.374266,-0.06464501470327366
2023-01-28 10:29:00.379266,-0.06772190326977644
2023-01-28 10:29:00.384266,-0.06534218788146967
2023-01-28 10:29:00.389266,-0.050049984146329524
2023-01-28 10:29:00.394266,-0.015458067879080705
2023-01-28 10:29:00.399266,0.03966913673138827
2023-01-28 10:29:00.404266,0.10897576808929434
2023-01-28 10:29:00.409266,0.1786182705888012
2023-01-28 10:29:00.414266,0.23023626208305348
2023-01-28 10:29:00.419266,0.24689825176115565
2023-01-28 10:29:00.424266,0.22016327083110793
2023-01-28 10:29:00.429266,0.15429671858737118
2023-01-28 10:29:00.434266,0.06498157978057863
2023-01-28 10:29:00.439266,-0.02638678004396767
2023-01-28 10:29:00.444266,-0.09981632232666006
2023-01-28 10:29:00.449266,-0.1428598750362771
2023-01-28 10:29:00.454266,-0.15385946631431563
2023-01-28 10:29:00.459266,-0.1406514467973265
2023-01-28 10:29:00.464266,-0.11539459228515611
2023-01-28 10:29:00.469266,-0.08903211129495633
2023-01-28 10:29:00.474266,-0.0683953389525412
2023-01-28 10:29:00.479266,-0.055829599414769025
2023-01-28 10:29:00.484266,-0.04998028278350817
2023-01-28 10:29:00.489266,-0.04752418407750161
2023-01-28 10:29:00.494266,-0.04555682465434067
2023-01-28 10:29:00.499266,-0.04290637396969231
2023-01-28 10:29:00.504266,-0.03942648693919178
2023-01-28 10:29:00.509266,-0.03494461045723313
2023-01-28 10:29:00.514266,-0.029521783813834076
2023-01-28 10:29:00.519266,-0.023957657024037342
2023-01-28 10:29:00.524266,-0.019064148887991846
2023-01-28 10:29:00.529266,-0.0148443321253305
2023-01-28 10:29:00.534266,-0.01115481089800584
2023-01-28 10:29:00.539266,-0.008536143447549202
2023-01-28 10:29:00.544266,-0.007236202713102026
2023-01-28 10:29:00.549266,-0.005840492080727453
2023-01-28 10:29:00.554266,-0.0022598109208046583
2023-01-28 10:29:00.559266,0.003949260436764779
2023-01-28 10:29:00.564266,0.011539459228515618
2023-01-28 10:29:00.569266,0.019932282570286914
2023-01-28 10:29:00.574266,0.030170878395438097
2023-01-28 10:29:00.579266,0.04297484992096939
2023-01-28 10:29:00.584266,0.057168405503034495
2023-01-28 10:29:00.589266,0.07110151126055304
2023-01-28 10:29:00.594266,0.08491118997335428
2023-01-28 10:29:00.599266,0.10034995520840538
2023-01-28 10:29:00.604266,0.11868815124034882
2023-01-28 10:29:00.609266,0.13951361543011503
2023-01-28 10:29:00.614266,0.16119182109832758
2023-01-28 10:29:00.619266,0.18153639955314066
2023-01-28 10:29:00.624266,0.19807001948356617
2023-01-28 10:29:00.629266,0.20865134420422946
2023-01-28 10:29:00.634266,0.212542414665222
2023-01-28 10:29:00.639266,0.21080082423235172
2023-01-28 10:29:00.644266,0.20547449588775626
2023-01-28 10:29:00.649266,0.19843567023222572
2023-01-28 10:29:00.654266,0.19076168537139884
2023-01-28 10:29:00.659266,0.1826660350265706
2023-01-28 10:29:00.664266,0.17364482581615437
2023-01-28 10:29:00.669266,0.16283310462007838
2023-01-28 10:29:00.674266,0.14960429072380058
2023-01-28 10:29:00.679266,0.1340713692066115
2023-01-28 10:29:00.684266,0.11707743257284159
2023-01-28 10:29:00.689266,0.09971288384967865
2023-01-28 10:29:00.694266,0.0827956199645995
2023-01-28 10:29:00.699266,0.06664867680734204
2023-01-28 10:29:00.704266,0.05115827172994608
2023-01-28 10:29:00.709266,0.035989385956718765
2023-01-28 10:29:00.714266,0.020963352173566766
2023-01-28 10:29:00.719266,0.0065188717268909
2023-01-28 10:29:00.724266,-0.0061303377151489
2023-01-28 10:29:00.729266,-0.015464622938678037
2023-01-28 10:29:00.734266,-0.020482540130615196
2023-01-28 10:29:00.739266,-0.021255508684799612
2023-01-28 10:29:00.744266,-0.018967986106872455
2023-01-28 10:29:00.749266,-0.015632307679103508
2023-01-28 10:29:00.754266,-0.013534824363887296
2023-01-28 10:29:00.759266,-0.014355319406058404
2023-01-28 10:29:00.764266,-0.01836697384715078
2023-01-28 10:29:00.769266,-0.024398463574076074
2023-01-28 10:29:00.774266,-0.03057956695556637
2023-01-28 10:29:00.779266,-0.03517010357286018
2023-01-28 10:29:00.784266,-0.037046473473310415
2023-01-28 10:29:00.789266,-0.03600616958064998
2023-01-28 10:29:00.794266,-0.03286341950297349
2023-01-28 10:29:00.799266,-0.028970163140101486
2023-01-28 10:29:00.804266,-0.02533872984349718
2023-01-28 10:29:00.809266,-0.02218228752583164
2023-01-28 10:29:00.814266,-0.01918435096740719
2023-01-28 10:29:00.819266,-0.015924532511852774
2023-01-28 10:29:00.824266,-0.012068351730704283
2023-01-28 10:29:00.829266,-0.007600751990515613
2023-01-28 10:29:00.834266,-0.003149310825392528
2023-01-28 10:29:00.839266,0.00013745857470102863
2023-01-28 10:29:00.844266,0.0012501081218942501
2023-01-28 10:29:00.849266,-0.0001946995626698881
2023-01-28 10:29:00.854266,-0.004014770500361862
2023-01-28 10:29:00.859266,-0.009593143913478359
2023-01-28 10:29:00.864266,-0.015818675979971688
2023-01-28 10:29:00.869266,-0.021298062078785235
2023-01-28 10:29:00.874266,-0.02495408058166492
2023-01-28 10:29:00.879266,-0.02632196272626888
2023-01-28 10:29:00.884266,-0.02524256706237788
2023-01-28 10:29:00.889266,-0.021592454189595225
2023-01-28 10:29:00.894266,-0.015434026718139515
2023-01-28 10:29:00.899266,-0.007089170079811102
2023-01-28 10:29:00.904266,0.0031012296676633847
2023-01-28 10:29:00.909266,0.014761004584371032
2023-01-28 10:29:00.914266,0.027045607566833437
2023-01-28 10:29:00.919266,0.03856587758771564
2023-01-28 10:29:00.924266,0.04798492044210426
2023-01-28 10:29:00.929266,0.054477991032219106
2023-01-28 10:29:00.934266,0.057553052902221666
2023-01-28 10:29:00.939266,0.056862709235512815
2023-01-28 10:29:00.944266,0.05243241786956778
2023-01-28 10:29:00.949266,0.044708705110741695
2023-01-28 10:29:00.954266,0.034137569367885506
2023-01-28 10:29:00.959266,0.021047016886317455
2023-01-28 10:29:00.964266,0.00620245933532712
2023-01-28 10:29:00.969266,-0.008867022031326855
2023-01-28 10:29:00.974266,-0.02240578457713116
2023-01-28 10:29:00.979266,-0.03313575748139687
2023-01-28 10:29:00.984266,-0.0404842719435691
2023-01-28 10:29:00.989266,-0.044762766340999995
2023-01-28 10:29:00.994266,-0.047456026077270515
2023-01-28 10:29:00.999266,-0.0506728343160341
2023-01-28 10:29:01.004266,-0.05536536499857893
2023-01-28 10:29:01.009266,-0.05963568569906552
2023-01-28 10:29:01.014266,-0.05853871628642082
2023-01-28 10:29:01.019266,-0.045394405082333555
2023-01-28 10:29:01.024266,-0.014207959175109853
2023-01-28 10:29:01.029266,0.03686848805807757
2023-01-28 10:29:01.034266,0.10219633579254148
2023-01-28 10:29:01.039266,0.16810653767929262
2023-01-28 10:29:01.044266,0.21665334701538075
2023-01-28 10:29:01.049266,0.23200891142553876
2023-01-28 10:29:01.054266,0.2064361274242401
2023-01-28 10:29:01.059266,0.14372244741014334
2023-01-28 10:29:01.064266,0.05875508114695539
2023-01-28 10:29:01.069266,-0.027466764323901098
2023-01-28 10:29:01.074266,-0.09570538997650137
2023-01-28 10:29:01.079266,-0.13499758550701418
2023-01-28 10:29:01.084266,-0.14455577731132496
2023-01-28 10:29:01.089266,-0.13152013491376494
2023-01-28 10:29:01.094266,-0.10688424110412587
2023-01-28 10:29:01.099266,-0.08111053656850346
2023-01-28 10:29:01.104266,-0.0606542825698852
2023-01-28 10:29:01.109266,-0.04709399179493427
2023-01-28 10:29:01.114266,-0.03906587883830065
2023-01-28 10:29:01.119266,-0.03463161019470615
2023-01-28 10:29:01.124266,-0.032070081681013066
2023-01-28 10:29:01.129266,-0.029851028764874863
2023-01-28 10:29:01.134266,-0.027093689888715602
2023-01-28 10:29:01.139266,-0.023838443322369052
2023-01-28 10:29:01.144266,-0.020290216431021593
2023-01-28 10:29:01.149266,-0.016191607021813107
2023-01-28 10:29:01.154266,-0.011395215988159131
2023-01-28 10:29:01.159266,-0.006369952399399854
2023-01-28 10:29:01.164266,-0.0014183919411151938
2023-01-28 10:29:01.169266,0.004013157444302408
2023-01-28 10:29:01.174266,0.010481676086783437
2023-01-28 10:29:01.179266,0.017592490436219976
2023-01-28 10:29:01.184266,0.024689635261893297
2023-01-28 10:29:01.189266,0.03186325881745207
2023-01-28 10:29:01.194266,0.039402447640895795
2023-01-28 10:29:01.199266,0.04700405849589291
2023-01-28 10:29:01.204266,0.054668188095092746
2023-01-28 10:29:01.209266,0.06369936594721465
2023-01-28 10:29:01.214266,0.07546325773000713
2023-01-28 10:29:01.219266,0.08968135264025355
2023-01-28 10:29:01.224266,0.10539373010396949
2023-01-28 10:29:01.229266,0.12298248890043627
2023-01-28 10:29:01.234266,0.143257588148117
2023-01-28 10:29:01.239266,0.16470772139277598
2023-01-28 10:29:01.244266,0.1839341819286346
2023-01-28 10:29:01.249266,0.19936969045006625
2023-01-28 10:29:01.254266,0.21251837909221633
2023-01-28 10:29:01.259266,0.2245361528236058
2023-01-28 10:29:01.264266,0.23345768451690674
2023-01-28 10:29:01.269266,0.23634627332339542
2023-01-28 10:29:01.274266,0.2329287976026534
2023-01-28 10:29:01.279266,0.22548564316511147
2023-01-28 10:29:01.284266,0.215980216860771
2023-01-28 10:29:01.289266,0.20493021650927867
2023-01-28 10:29:01.294266,0.19261281192302696
2023-01-28 10:29:01.299266,0.179591483371203
2023-01-28 10:29:01.304266,0.1657835692167281
2023-01-28 10:29:01.309266,0.150254971564983
2023-01-28 10:29:01.314266,0.13246338069438923
2023-01-28 10:29:01.319266,0.11310679631493595
2023-01-28 10:29:01.324266,0.09358982741832723
2023-01-28 10:29:01.329266,0.0752795871143814
2023-01-28 10:29:01.334266,0.05940417572855936
2023-01-28 10:29:01.339266,0.04693142163304888
2023-01-28 10:29:01.344266,0.03803213685750961
2023-01-28 10:29:01.349266,0.031892809936562426
2023-01-28 10:29:01.354266,0.02731005474925039
2023-01-28 10:29:01.359266,0.023356318227489896
2023-01-28 10:29:01.364266,0.019496878609061213
2023-01-28 10:29:01.369266,0.015468343117187273
2023-01-28 10:29:01.374266,0.011323094367980933
2023-01-28 10:29:01.379266,0.007440165513082253
2023-01-28 10:29:01.384266,0.0042551755905150795
2023-01-28 10:29:01.389266,0.0019393767519288946
2023-01-28 10:29:01.394266,0.0003365675802341646
2023-01-28 10:29:01.399266,-0.00089002264532445
2023-01-28 10:29:01.404266,-0.002091526985168381
2023-01-28 10:29:01.409266,-0.00348400530189924
2023-01-28 10:29:01.414266,-0.005000432487577066
2023-01-28 10:29:01.419266,-0.0062466963131516335
2023-01-28 10:29:01.424266,-0.0066832704469560866
2023-01-28 10:29:01.429266,-0.005967117383220227
2023-01-28 10:29:01.434266,-0.004183053970336838
2023-01-28 10:29:01.439266,-0.0017481815741862002
2023-01-28 10:29:01.444266,0.0008895000210032056
2023-01-28 10:29:01.449266,0.003422234087633401
2023-01-28 10:29:01.454266,0.005625486373901343
2023-01-28 10:29:01.459266,0.00730474910294427
2023-01-28 10:29:01.464266,0.008366107940673828
2023-01-28 10:29:01.469266,0.008841612734655608
2023-01-28 10:29:01.474266,0.008822878822684165
2023-01-28 10:29:01.479266,0.00851059736127399
2023-01-28 10:29:01.484266,0.008342067711055298
2023-01-28 10:29:01.489266,0.008819262090889186
2023-01-28 10:29:01.494266,0.010024905204772935
2023-01-28 10:29:01.499266,0.011388819297487453
2023-01-28 10:29:01.504266,0.01199623011052599
2023-01-28 10:29:01.509266,0.011035010016527774
2023-01-28 10:29:01.514266,0.008053581230342397
2023-01-28 10:29:01.519266,0.003218294559913867
2023-01-28 10:29:01.524266,-0.0024521350860594753
2023-01-28 10:29:01.529266,-0.007390801333142803
2023-01-28 10:29:01.534266,-0.010337432846426915
2023-01-28 10:29:01.539266,-0.010876501060073915
2023-01-28 10:29:01.544266,-0.009159445762634173
2023-01-28 10:29:01.549266,-0.005406593699787793
2023-01-28 10:29:01.554266,0.0002404054102953381
2023-01-28 10:29:01.559266,0.007791502604545238
2023-01-28 10:29:01.564266,0.017573636025190315
2023-01-28 10:29:01.569266,0.02993622856251268
2023-01-28 10:29:01.574266,0.04440287873148914
2023-01-28 10:29:01.579266,0.0592567647662371
2023-01-28 10:29:01.584266,0.07214566320180885
2023-01-28 10:29:01.589266,0.08091690706863874
2023-01-28 10:29:01.594266,0.08392553031444537
2023-01-28 10:29:01.599266,0.08023167313544333
2023-01-28 10:29:01.604266,0.07005413621664038
2023-01-28 10:29:01.609266,0.05481146722104737
2023-01-28 10:29:01.614266,0.03639737889170642
2023-01-28 10:29:01.619266,0.016607077651559554
2023-01-28 10:29:01.624266,-0.0026925406418739704
2023-01-28 10:29:01.629266,-0.019526541800177787
2023-01-28 10:29:01.634266,-0.032574933022260597
2023-01-28 10:29:01.639266,-0.04182814495857648
2023-01-28 10:29:01.644266,-0.048273406922817244
2023-01-28 10:29:01.649266,-0.05322061706128994
2023-01-28 10:29:01.654266,-0.0578175000846385
2023-01-28 10:29:01.659266,-0.062040385557691494
2023-01-28 10:29:01.664266,-0.06308238208293913
2023-01-28 10:29:01.669266,-0.055012556915599836
2023-01-28 10:29:01.674266,-0.031108459457755092
2023-01-28 10:29:01.679266,0.012418820285486572
2023-01-28 10:29:01.684266,0.07346789538860322
2023-01-28 10:29:01.689266,0.14267064367719615
2023-01-28 10:29:01.694266,0.20417630672454828
2023-01-28 10:29:01.699266,0.23987950265416008
2023-01-28 10:29:01.704266,0.2365108430385589
2023-01-28 10:29:01.709266,0.19163250237474616
2023-01-28 10:29:01.714266,0.11481761932373036
2023-01-28 10:29:01.719266,0.024186977588398956
2023-01-28 10:29:01.724266,-0.05935609340667717
2023-01-28 10:29:01.729266,-0.11866808533888908
2023-01-28 10:29:01.734266,-0.14595012366771684
2023-01-28 10:29:01.739266,-0.14428172984162194
2023-01-28 10:29:01.744266,-0.12392898648977262
2023-01-28 10:29:01.749266,-0.09666236724516704
2023-01-28 10:29:01.754266,-0.0719533413648605
2023-01-28 10:29:01.759266,-0.055291206694913754
2023-01-28 10:29:01.764266,-0.04738390445709217
2023-01-28 10:29:01.769266,-0.04500628622266717
2023-01-28 10:29:01.774266,-0.04401823133230194
2023-01-28 10:29:01.779266,-0.04193261159849307
2023-01-28 10:29:01.784266,-0.03771960735321034
2023-01-28 10:29:01.789266,-0.030734841775751007
2023-01-28 10:29:01.794266,-0.021275877952575552
2023-01-28 10:29:01.799266,-0.011216141699406308
2023-01-28 10:29:01.804266,-0.0024761757813393927
2023-01-28 10:29:01.809266,0.004638327540601225
2023-01-28 10:29:01.814266,0.0105057163164019
2023-01-28 10:29:01.819266,0.01472983854012546
2023-01-28 10:29:01.824266,0.017188986763358133
2023-01-28 10:29:01.829266,0.01939782557098699
2023-01-28 10:29:01.834266,0.02283851429820064
2023-01-28 10:29:01.839266,0.02687775125295669
2023-01-28 10:29:01.844266,0.030435323715209968
2023-01-28 10:29:01.849266,0.03464294467500443
2023-01-28 10:29:01.854266,0.04132568836212149
2023-01-28 10:29:01.859266,0.0499692900970249
2023-01-28 10:29:01.864266,0.0593801364302635
2023-01-28 10:29:01.869266,0.07139531190495116
2023-01-28 10:29:01.874266,0.08880575746297832
2023-01-28 10:29:01.879266,0.10974351684962194
2023-01-28 10:29:01.884266,0.12895345687866203
2023-01-28 10:29:01.889266,0.14573391829728335
2023-01-28 10:29:01.894266,0.1655672043561934
2023-01-28 10:29:01.899266,0.19121226621953352
2023-01-28 10:29:01.904266,0.21660527586936945
2023-01-28 10:29:01.909266,0.23344019852186396
2023-01-28 10:29:01.914266,0.24050156772136672
2023-01-28 10:29:01.919266,0.24221664691729627
2023-01-28 10:29:01.924266,0.24062177538871757
2023-01-28 10:29:01.929266,0.2339788156306112
2023-01-28 10:29:01.934266,0.22235095500946028
2023-01-28 10:29:01.939266,0.20936592849080876
2023-01-28 10:29:01.944266,0.19768536090850822
2023-01-28 10:29:01.949266,0.18650529756715914
2023-01-28 10:29:01.954266,0.1744862496852873
2023-01-28 10:29:01.959266,0.16198367481513865
2023-01-28 10:29:01.964266,0.14924368262290946
2023-01-28 10:29:01.969266,0.1351213967423871
2023-01-28 10:29:01.974266,0.11902471631765357
2023-01-28 10:29:01.979266,0.10215169940199939
2023-01-28 10:29:01.984266,0.08563240617513648
2023-01-28 10:29:01.989266,0.06916393204634434
2023-01-28 10:29:01.994266,0.05252858251333227
2023-01-28 10:29:01.999266,0.036872082457438636
2023-01-28 10:29:02.004266,0.023391446098685178
2023-01-28 10:29:02.009266,0.012071331468465667
2023-01-28 10:29:02.014266,0.0026684999465942
2023-01-28 10:29:02.019266,-0.004283548123305425
2023-01-28 10:29:02.024266,-0.008390149101614886
2023-01-28 10:29:02.029266,-0.01023325327510813
2023-01-28 10:29:02.034266,-0.010433594696223744
2023-01-28 10:29:02.039266,-0.008880954993595456
2023-01-28 10:29:02.044266,-0.005745689384639146
2023-01-28 10:29:02.049266,-0.002346875617021401
2023-01-28 10:29:02.054266,-0.00014424324035640268
2023-01-28 10:29:02.059266,0.00046128365760040425
2023-01-28 10:29:02.064266,-0.0002644459600560083
2023-01-28 10:29:02.069266,-0.00211734533524312
2023-01-28 10:29:02.074266,-0.0045917434617876625
2023-01-28 10:29:02.079266,-0.006629144544192224
2023-01-28 10:29:02.084266,-0.007620851509272974
2023-01-28 10:29:02.089266,-0.008181571407432614
2023-01-28 10:29:02.094266,-0.009303689002990704
2023-01-28 10:29:02.099266,-0.011234988093303902
2023-01-28 10:29:02.104266,-0.013655027374625251
2023-01-28 10:29:02.109266,-0.016272313678187898
2023-01-28 10:29:02.114266,-0.018607378005981418
2023-01-28 10:29:02.119266,-0.01978534964313403
2023-01-28 10:29:02.124266,-0.01928051374852645
2023-01-28 10:29:02.129266,-0.017520982010075344
2023-01-28 10:29:02.134266,-0.015241703018546113
2023-01-28 10:29:02.139266,-0.012638716999452924
2023-01-28 10:29:02.144266,-0.009616216644644704
2023-01-28 10:29:02.149266,-0.006393829311398155
2023-01-28 10:29:02.154266,-0.0033416352234779652
2023-01-28 10:29:02.159266,-0.000604666741903254
2023-01-28 10:29:02.164266,0.0016587972640991035
2023-01-28 10:29:02.169266,0.003136000353321107
2023-01-28 10:29:02.174266,0.0040388107299804046
2023-01-28 10:29:02.179266,0.005619370357602835
2023-01-28 10:29:02.184266,0.009471973404288197
2023-01-28 10:29:02.189266,0.016411185542726834
2023-01-28 10:29:02.194266,0.026132067665457705
2023-01-28 10:29:02.199266,0.037368230846610034
2023-01-28 10:29:02.204266,0.047888755798339844
2023-01-28 10:29:02.209266,0.05485482493104831
2023-01-28 10:29:02.214266,0.056014459580183064
2023-01-28 10:29:02.219266,0.050741354369010214
2023-01-28 10:29:02.224266,0.03988325595855706
2023-01-28 10:29:02.229266,0.025013636358913766
2023-01-28 10:29:02.234266,0.008077621459960885
2023-01-28 10:29:02.239266,-0.008841194917706933
2023-01-28 10:29:02.244266,-0.024160742759704493
2023-01-28 10:29:02.249266,-0.037229212728695185
2023-01-28 10:29:02.254266,-0.04791279882192606
2023-01-28 10:29:02.259266,-0.05608518368297336
2023-01-28 10:29:02.264266,-0.061880350112914984
2023-01-28 10:29:02.269266,-0.06608630212831343
2023-01-28 10:29:02.274266,-0.06964544951915731
2023-01-28 10:29:02.279266,-0.07252908652938597
2023-01-28 10:29:02.284266,-0.07291495800018306
2023-01-28 10:29:02.289266,-0.06693907339910633
2023-01-28 10:29:02.294266,-0.04921098798513407
2023-01-28 10:29:02.299266,-0.014909256373012316
2023-01-28 10:29:02.304266,0.036541622132062884
2023-01-28 10:29:02.309266,0.09835189441823433
2023-01-28 10:29:02.314266,0.15645584464073173
2023-01-28 10:29:02.319266,0.19342292829907998
2023-01-28 10:29:02.324266,0.1946322172880172
2023-01-28 10:29:02.329266,0.154371066765562
2023-01-28 10:29:02.334266,0.07928570359945289
2023-01-28 10:29:02.339266,-0.013056740319427072
2023-01-28 10:29:02.344266,-0.10051350295543666
2023-01-28 10:29:02.349266,-0.16446633175210523
2023-01-28 10:29:02.354266,-0.19556979835033408
2023-01-28 10:29:02.359266,-0.1951018861670123
2023-01-28 10:29:02.364266,-0.17237067222595207
2023-01-28 10:29:02.369266,-0.13980983485702456
2023-01-28 10:29:02.374266,-0.10794202983379356
2023-01-28 10:29:02.379266,-0.08249346405936235
2023-01-28 10:29:02.384266,-0.06457289308309541
2023-01-28 10:29:02.389266,-0.0526488168148118
2023-01-28 10:29:02.394266,-0.04442691802978504
2023-01-28 10:29:02.399266,-0.03795772318236175
2023-01-28 10:29:02.404266,-0.032214324921369504
2023-01-28 10:29:02.409266,-0.02711701345403775
2023-01-28 10:29:02.414266,-0.02295871637761593
2023-01-28 10:29:02.419266,-0.019821733903488886
2023-01-28 10:29:02.424266,-0.01752555370330804
2023-01-28 10:29:02.429266,-0.01578579466472144
2023-01-28 10:29:02.434266,-0.014135837554931556
2023-01-28 10:29:02.439266,-0.011908720360396018
2023-01-28 10:29:02.444266,-0.008630554191768103
2023-01-28 10:29:02.449266,-0.004385889190750224
2023-01-28 10:29:02.454266,0.0003606081008911393
2023-01-28 10:29:02.459266,0.0051943576812941645
2023-01-28 10:29:02.464266,0.009952783584594732
2023-01-28 10:29:02.469266,0.01482736632258103
2023-01-28 10:29:02.474266,0.020554661750793415
2023-01-28 10:29:02.479266,0.028359730560825008
2023-01-28 10:29:02.484266,0.03945052623748773
2023-01-28 10:29:02.489266,0.05449000689895193
2023-01-28 10:29:02.494266,0.07337173074483866
2023-01-28 10:29:02.499266,0.0951336825691598
2023-01-28 10:29:02.504266,0.11806309223175045
2023-01-28 10:29:02.509266,0.1402816075175022
2023-01-28 10:29:02.514266,0.16037444770336154
2023-01-28 10:29:02.519266,0.1773057740738784
2023-01-28 10:29:02.524266,0.19011259078979487
2023-01-28 10:29:02.529266,0.19847143801934286
2023-01-28 10:29:02.534266,0.20340701937675468
2023-01-28 10:29:02.539266,0.20629941446214126
2023-01-28 10:29:02.544266,0.2069409787654876
2023-01-28 10:29:02.549266,0.203782070334892
2023-01-28 10:29:02.554266,0.19660353660583488
2023-01-28 10:29:02.559266,0.1875267516871101
2023-01-28 10:29:02.564266,0.1783086955547332
2023-01-28 10:29:02.569266,0.16796736284764546
2023-01-28 10:29:02.574266,0.1547489613294601
2023-01-28 10:29:02.579266,0.1394906573044527
2023-01-28 10:29:02.584266,0.12484252452850342
2023-01-28 10:29:02.589266,0.1113520765738236
2023-01-28 10:29:02.594266,0.09659489244222637
2023-01-28 10:29:02.599266,0.07877587909705659
2023-01-28 10:29:02.604266,0.059283971786499
2023-01-28 10:29:02.609266,0.04067197963303952
2023-01-28 10:29:02.614266,0.023679932579398117
2023-01-28 10:29:02.619266,0.007646822723824262
2023-01-28 10:29:02.624266,-0.00721216201782218
2023-01-28 10:29:02.629266,-0.019558021915620883
2023-01-28 10:29:02.634266,-0.02858420275151722
2023-01-28 10:29:02.639266,-0.03465231264457815
2023-01-28 10:29:02.644266,-0.038416784256696666
2023-01-28 10:29:02.649266,-0.04036864660274537
2023-01-28 10:29:02.654266,-0.041229527443647225
2023-01-28 10:29:02.659266,-0.041832765574766693
2023-01-28 10:29:02.664266,-0.04235943406820278
2023-01-28 10:29:02.669266,-0.04227024320581006
