-17.15
-15.64
-13.29
-11.16
-9.46
-7.48
-4.27
0.59
6.39
11.54
14.39
14.09
10.79
5.28
-1.7
-9.88
-19.29
-29.73
-40.29
-49.41
-55.35
-56.95
-54.16
-48.16
-40.9
-34.29
-29.46
-26.43
-24.24
-21.52
-17.22
-11.05
-3.59
4.07
10.81
15.83
18.78
19.68
18.83
16.75
14.25
12.3
11.85
13.46
17.06
21.89
26.85
30.84
33.09
33.33
31.65
28.41
24.11
19.3
14.53
10.22
6.67
4.03
2.34
1.47
1.14
0.91
0.36
-0.75
-2.31
-3.89
-4.95
-5.07
-4.29
-3.09
-2.18
-2.14
-3.16
-5.04
-7.35
-9.54
-11.05
-11.23
-9.39
-5.07
1.63
9.9
18.25
24.92
28.55
28.67
25.93
21.84
18.2
16.42
17.07
19.73
23.19
25.92
26.66
24.9
21.03
16.15
11.47
7.77
5.01
2.57
-0.33
-4.15
-8.76
-13.64
-18.24
-22.36
-26.21
-30.16
-34.38
-38.62
-42.32
-44.92
-46.14
-46.05
-44.89
-42.7
-39.17
-33.72
-25.87
-15.68
-3.93
7.98
18.54
26.65
31.92
34.67
35.64
35.66
35.39
35.17
35.08
34.9
34.31
32.92
30.41
26.59
21.52
15.32
8.1
-0.09
-9.21
-18.99
-28.78
-37.62
-44.58
-49.04
-51.02
-51.01
-49.69
-47.59
-44.93
-41.75
-38.12
-34.25
-30.48
-26.96
-23.46
-19.37
-13.93
-6.61
2.52
12.73
22.85
31.64
38.13
41.86
42.87
41.54
38.38
33.81
28.05
21.21
13.33
4.51
-4.95
-14.5
-23.44
-31.02
-36.65
-40.09
-41.39
-40.88
-38.96
-35.92
-31.91
-26.96
-21.1
-14.4
-7.05
0.68
8.48
15.95
22.67
28.21
32.25
34.69
35.72
35.69
35.05
34.13
33.07
31.87
30.39
28.52
26.24
23.67
20.98
18.3
15.6
12.75
9.6
6.1
2.48
-0.88
-3.64
-5.62
-6.8
-7.23
-6.76
-5.13
-2.1
2.19
7.12
11.61
14.63
15.48
14.07
10.85
6.55
1.99
-2.1
-5.19
-6.96
-7.34
-6.5
-4.82
-2.57
0.19
3.77
8.66
15.04
22.46
29.9
36.26
40.93
44.21
47.18
51.19
57.19
65.01
73.64
81.74
88.41
93.39
96.84
98.78
98.99
97.33
94.08
90.42
88.33
89.94
96.61
108.26
123.29
139.13
153.14
162.88
166.24
161.47
147.16
122.66
88.4
46.1
-1.16
-48.92
-93
-130.37
-160.51
-185.88
-211.14
-241.47
-280.61
-329.19
-377.91
-414
-424.95
-404.9
-357.81
-294.66
-227.08
-162.85
-105.05
-53.68
-9.1
27.48
54.3
70.41
76.51
75.57
71.57
68.49
69.26
74.46
82.8
92
99.93
105.52
109.25
112.59
117.13
124.26
133.22
141.76
146.56
144.57
133.62
113.45
85.77
53.68
21.49
-7.8
-32.73
-53.56
-71.21
-86.94
-101.35
-114.28
-125.5
-135.03
-142.66
-146.87
-146.46
-136.02
-111.37
-71.8
-21.33
32.11
79.26
113.15
131.21
134.72
126.75
109.19
82.9
49.6
13.93
-16.44
-32.83
-29.74
-8.14
24.51
56.6
77.54
81.96
71.11
50.74
28.09
8.65
-5.3
-14.51
-21.76
-30.29
-42.83
-59.05
-78.99
-102.23
-128.07
-155.59
-183.91
-212.36
-239.98
-265.09
-284.61
-294.13
-287.96
-261.01
-211.23
-141.9
-62.31
14.21
73.88
106.77
109.52
86.13
45.93
0.16
-41.42
-72.56
-90.91
-97.27
-94.47
-86.52
-77.69
-71.78
-71.25
-76.16
-83.6
-88.22
-84.18
-67.48
-38.43
-2.43
31.48
53.89
58.98
47.24
25.43
3.97
-7.28
-2.66
17.67
48.61
82.87
114
138.46
155.91
167.9
175.8
179.61
178.04
169.76
154.87
135.05
112.79
89.88
66.46
41.31
13.39
-16.71
-46.14
-70.88
-87.7
-95.67
-96.5
-93.12
-87.71
-80.4
-69.35
-52.18
-27.64
3.17
37.09
70.08
98.87
122.12
140.82
157.56
175.26
195.83
219.27
243.82
266.61
284.81
296.62
301.52
300.08
293.11
281.16
264.35
242.84
217.55
190.46
164.24
141.47
123.81
111.44
103.18
97.11
91.5
85.33
78.59
71.7
65.32
60.03
56.37
54.73
55.15
57.12
59.53
60.79
58.41
50.1
34.83
13.7
-10.24
-33.07
-51.65
-64.64
-72.64
-78.69
-86.05
-96.45
-109
-121.03
-129.89
-134.76
-137.2
-139.61
-145.49
-157.12
-175.24
-199.24
-228.11
-260.9
-296.21
-331.49
-351.8
-342.38
-296.19
-220.77
-134.03
-53.7
10.6
57.53
88.98
106.61
107.57
87.66
44.8
-16.24
-85.81
-150.15
-197.37
-223.02
-228.89
-222.59
-212.28
-204.05
-199.82
-197.05
-190.42
-167.23
-124.64
-65.91
-3.89
53.17
97.8
123.58
127.79
113.31
87.61
60.27
41.98
39.7
54.28
77.94
95.55
90.65
52.21
-20.33
-116.44
-216.11
-296.54
-338.66
-326.2
-256.84
-145.19
-17.66
100.26
194.52
264.86
318.13
361.27
403.56
442.01
469.32
479.27
469.43
440.79
397.05
342.55
282.15
210.29
131.25
55.37
-7.7
-53.53
-84.72
-108.17
-132.44
-163.97
-206.71
-262.97
-330.68
-404.22
-475.26
-534.51
-572.71
-583.38
-563.61
-498.12
-387.86
-248.33
-107.72
4.21
70.19
96.27
104.13
116.07
146.47
194.95
254.18
310.85
354.67
374.29
365.13
328.86
272.52
214.41
156.88
99.81
45.67
-0.45
-29.51
-34.85
-17.93
11.35
38.68
48.24
33.01
-3.92
-52.63
-97.64
-124.81
-129.15
-116.63
-97.68
-83.75
-81.71
-93.32
-115.4
-141.05
-162.23
-172.54
-168.81
-151.71
-126.45
-98.79
-73.23
-51.56
-32.97
-16.15
-1.15
10.45
16.61
15.57
7.81
-4.09
-16.59
-26.12
-30.16
-27.49
-18.61
-5.93
5.78
10.98
5.93
-8.88
-27.61
-41.17
-41.01
-23
10.73
52.75
93.6
125.33
143.36
146.61
136.16
114.63
86.33
57.79
37.06
31.34
43.86
71.93
107.64
140.78
163.09
171.31
167.38
156.42
143.42
131.03
119.08
106.19
91.62
76.36
62.75
53.1
48.84
50.27
57.23
69.57
87.02
108.28
130.37
148.47
157.01
151.45
129.78
93.26
45.84
-6.96
-59.67
-107.49
-147.03
-176.32
-194.81
-203.57
-205.34
-204.46
-205.97
-213.85
-229.22
-249.3
-267.96
-278.06
-274.62
-257.15
-229.83
-199.63
-173.06
-153.56
-140.72
-131.37
-121.82
-109.67
-94.32
-76.3
-56.11
-33.37
-6.8
24.91
62
102.7
142.87
177.17
200.77
211.06
208.31
194.98
174.18
148.32
118.85
87.3
56.66
31.76
18.04
19.1
34.46
58.87
83.79
100.33
102.36
88.34
61.21
26.79
-8.57
-39.99
-64.93
-83.01
-94.99
-101.73
-103.52
-100.2
-91.68
-78.5
-61.7
-42.43
-21.49
0.75
24.1
48.11
72.06
95.18
117.14
138.14
158.48
177.56
193.23
201.88
199.78
185.01
158.99
126.58
94.53
68.96
52.91
45.41
41.98
36.66
24.39
2.94
-26.39
-59.56
-91.4
-117.56
-135.77
-146.11
-150.27
-150.34
-147.64
-142.5
-134.67
-124.2
-112.04
-99.95
-89.76
-82.47
-77.62
-73.52
-67.87
-58.64
-44.55
-25.33
-1.67
24.85
52.01
77.47
99.1
115.39
125.52
129.23
126.81
119.2
108.1
95.99
85.67
79.3
77.58
79.19
81.36
81.14
76.86
68.81
58.86
49.04
40.03
30.46
17.41
-2.1
-29.41
-63.31
-100.38
-136.3
-167.52
-192.06
-209.46
-219.96
-223.75
-220.7
-210.72
-194.35
-173.06
-148.96
-124.27
-100.72
-79.28
-60.18
-43.13
-27.46
-12.15
3.87
21.34
40.02
58.51
74.55
85.95
91.52
91.48
87.17
80.28
72.2
63.55
54.61
45.68
37.47
30.96
26.85
25.07
24.53
23.47
20.24
13.99
5.11
-4.83
-13.54
-18.68
-18.58
-12.69
-1.83
12.09
26.57
39.14
47.83
51.55
50.18
44.53
36.09
26.65
17.84
10.77
5.81
2.6
0.32
-2.08
-5.55
-10.7
-17.68
-25.95
-34.3
-41.01
-44.39
-43.45
-38.4
-30.56
-21.79
-13.61
-6.66
-0.71
4.91
10.78
17.11
23.91
31.17
39.02
47.55
56.46
64.94
71.8
75.96
76.94
75.09
71.41
67.16
63.44
60.93
59.8
59.79
60.29
60.62
60.18
58.58
55.76
51.82
46.9
41.09
34.5
27.46
20.67
15.02
11.16
9.03
7.69
5.53
1.01
-6.69
-17.09
-28.54
-38.84
-46.08
-49.36
-48.99
-46.08
-41.95
-37.41
-32.66
-27.47
-21.72
-15.76
-10.33
-6.23
-3.84
-3.02
-3.57
-5.97
-11.74
-23.16
-41.93
-67.53
-96.11
-120.86
-133.99
-129.71
-106.79
-69.45
-25.97
14.31
44.45
61.98
69.02
70.43
71.22
74.51
81.02
89.85
99.91
110.83
122.83
135.66
147.65
155.6
155.85
146.13
127.16
102.96
79.58
62.46
54.26
53.63
56.06
55.98
49.15
34.06
11.79
-15.27
-44.93
-75.85
-107.3
-138.2
-166.62
-190.05
-206.49
-215.56
-218.76
-218.63
-217.27
-215.23
-211.4
-204.02
-191.94
-175.41
-155.91
-135.18
-114.22
-92.89
-70.13
-44.75
-16.13
15.24
47.84
79.5
108.05
132
150.86
165.04
175.34
182.43
186.52
187.51
185.37
180.4
173.12
163.84
152.07
136.43
115.24
87.66
54.69
19.45
-13.65
-40.48
-58.68
-68.4
-71.84
-71.87
-70.57
-68.56
-65.12
-59.25
-50.57
-39.75
-28.22
-17.57
-9.08
-3.58
-1.53
-2.98
-7.41
-13.65
-20.07
-25.15
-28.09
-29.04
-28.74
-27.81
-26.2
-23.24
-18.28
-11.42
-3.73
3.33
8.71
12.43
15.5
19.21
24.22
30.14
35.73
39.57
40.81
39.62
37.09
34.81
34.31
36.59
41.93
49.98
59.85
70.4
80.46
88.84
94.42
96.27
94.07
88.39
80.66
72.42
64.49
56.16
45.3
29.1
5.3
-26.84
-66.22
-110.26
-155.48
-198.18
-235.05
-263.83
-283.88
-296.34
-303.78
-309.02
-313.78
-317.64
-318.04
-311.36
-294.53
-266.43
-228.43
-183.92
-137.25
-92.46
-52.35
-18.07
10.76
35.65
58.66
81.7
105.87
131.02
155.57
176.99
192.67
200.84
201.24
194.95
183.8
169.68
154.27
139.05
125.52
115.02
108.22
104.63
102.51
99.58
94.01
85.29
74.29
62.61
51.71
42.3
34.39
27.83
22.77
19.68
19
20.54
23.24
25.55
25.98
23.8
19.18
13.04
6.51
0.59
-3.97
-6.74
-7.47
-6.29
-3.71
-0.64
1.95
3.31
3.34
2.48
1.41
0.6
0.12
-0.18
-0.3
0.18
1.92
5.52
10.97
17.58
24.28
30.19
35.02
38.95
42.27
44.82
45.9
44.6
40.54
34.31
27.31
21.16
16.92
14.68
13.68
12.9
11.68
9.96
8.09
6.47
5.18
3.95
2.34
-0.05
-3.47
-7.96
-13.35
-19.24
-24.98
-29.7
-32.67
-33.6
-32.88
-31.41
-30.16
-29.6
-29.5
-29.06
-27.47
-24.5
-20.65
-16.78
-13.5
-10.7
-7.61
-3.32
2.52
9.38
15.99
20.99
23.6
23.92
22.77
21.13
19.53
17.86
15.49
11.82
6.64
0.39
-6.16
-12.3
-17.74
-22.64
-27.35
-32.04
-36.43
-39.93
-41.83
-41.71
-39.56
-35.76
-30.87
-25.4
-19.74
-14.19
-9
-4.39
-0.43
2.93
5.93
8.83
11.8
14.74
17.42
19.65
21.44
23.1
25.06
27.75
31.45
36.33
42.6
50.67
60.85
72.91
85.58
96.63
103.48
104.3
98.95
89.23
78.22
68.95
62.98
59.61
56.16
48.93
34.71
11.89
-18.95
-55.25
-93.28
-129.09
-159.39
-181.93
-195.59
-200.22
-196.47
-185.74
-169.99
-151.21
-130.81
-109.16
-85.6
-59.22
-29.83
1.21
30.97
55.66
71.9
77.87
73.92
62.47
47.2
32.03
20.2
13.72
13.4
19.18
30.5
46.45
65.64
85.96
104.61
118.62
125.63
124.87
117.34
105.31
91.31
77.29
64.34
53.03
43.79
36.96
32.22
27.96
21.18
8.47
-12.18
-39.77
-69.81
-95.59
-110.76
-111.95
-100.11
-79.9
-57.58
-38.6
-26.07
-20.56
-21
-25.69
-32.83
-40.5
-46.63
-49.21
-47.04
-40.35
-30.89
-21.2
-13.54
-8.98
-7.24
-7.29
-8.13
-9.33
-10.86
-12.63
-14.16
-14.69
-13.64
-11.13
-7.95
-4.96
-2.4
0.46
5.03
12.5
22.97
35.07
46.49
54.99
59.49
60.5
59.65
58.77
58.92
59.99
61.07
61.35
60.77
60.19
60.75
63.1
66.84
70.53
72.47
71.48
67.51
61.56
55.17
49.53
44.91
40.58
35.23
27.69
17.46
4.81
-9.47
-24.5
-39.59
-54.24
-68
-80.49
-91.71
-102.36
-113.67
-126.79
-141.91
-157.85
-172.49
-183.85
-191.2
-195.22
-197.31
-198.54
-198.95
-197.84
-194.57
-189.18
-182.46
-175.08
-166.79
-156.04
-140.5
-118.08
-88
-51.14
-9.63
33.93
77.14
118.21
155.84
188.93
216.37
237.06
250.23
255.83
254.66
248.11
237.69
224.6
209.64
193.38
176.56
160.04
144.44
129.49
113.72
94.87
70.79
40.56
5
-33.42
-71.55
-106.58
-136.68
-160.95
-179.02
-190.68
-195.73
-194.11
-185.98
-171.76
-152.1
-128.01
-101.26
-74.63
-51.52
-34.89
-25.65
-21.8
-18.95
-12.04
2.33
24.58
52.48
82.8
113.08
142.33
170.23
195.75
216.27
228.09
228.33
216.82
197.02
174.8
155.97
143.7
137.11
132.04
123.24
106.83
81.96
50.88
17.78
-12.86
-37.73
-55.4
-66.32
-72.48
-76.99
-83.19
-93.64
-109.22
-128.68
-149.4
-169.02
-187.16
-205.99
-228.97
-258.19
-291.8
-323.31
-343.37
-343.39
-319.19
-272.76
-211.6
-146.12
-86.49
-39.88
-9.04
7.67
14.87
18.09
21.59
27.08
33.76
39.55
42.72
43.19
42.47
42.51
44.45
48.24
53.3
59.47
67.48
78.22
91.63
106
118.47
126.32
128.43
125.64
120.28
115.03
111.68
110.64
111.21
112
111.31
107.3
98.3
83.18
62.01
36.47
9.73
-14.34
-32.5
-43.21
-47.17
-46.76
-44.98
-44.16
-45.23
-47.74
-50.35
-51.7
-50.92
-47.86
-42.99
-37.11
-31.07
-25.67
-21.66
-19.71
-20.18
-23.05
-27.53
-32.22
-35.28
-35.01
-30.52
-22.24
-11.89
-1.81
5.9
10.29
11.7
11.39
10.63
10.11
9.69
8.8
7.04
4.43
1.37
-1.7
-4.54
-7.05
-8.99
-9.88
-9.2
-6.73
-2.87
1.61
5.91
9.79
13.65
18.14
23.56
29.53
34.99
38.76
40.13
39.19
36.81
34.12
32.05
30.92
30.45
30.1
29.33
28
26.4
25.16
24.87
25.74
27.2
27.94
26.17
20.39
10.08
-3.94
-19.73
-34.93
-47.63
-56.92
-62.89
-66.34
-68.16
-68.95
-68.82
-67.37
-63.88
-57.67
-48.34
-36.02
-21.55
-6.29
8.23
20.74
30.48
37.35
41.64
43.91
44.71
44.58
43.84
42.61
40.68
37.62
33
26.68
19.05
10.97
3.59
-1.96
-4.99
-5.55
-4.55
-3.49
-3.74
-5.92
-9.5
-13.05
-15.13
-15.06
-13.35
-11.25
-9.88
-9.59
-9.89
-9.98
-9.52
-8.95
-9.24
-11.14
-14.64
-18.84
-22.34
-23.9
-22.85
-19.25
-13.59
-6.52
1.44
9.79
18.02
25.49
31.49
35.4
36.97
36.48
34.72
32.75
31.46
31.3
32.16
33.63
35.2
36.49
37.25
37.32
36.58
35.04
32.82
30.16
27.32
24.43
21.41
18.11
14.41
10.25
5.74
1.01
-3.66
-7.93
-11.45
-14.18
-16.49
-19.18
-23.16
-28.75
-35.34
-41.41
-45.19
-45.57
-42.76
-38.19
-33.76
-30.77
-29.27
-28.26
-26.47
-23.25
-18.98
-14.83
-11.98
-11
-11.5
-12.42
-12.59
-11.27
-8.41
-4.64
-0.96
1.59
2.31
1.04
-1.75
-5.09
-7.79
-8.92
-8.14
-5.89
-3.18
-1.16
-0.71
-2.09
-5
-8.82
-12.73
-15.95
-17.76
-17.49
-14.62
-8.86
-0.35
10.3
22.06
33.84
44.55
53.37
59.55
62.43
61.59
57.18
50.08
41.95
34.7
29.81
27.82
28.18
29.69
31.1
31.59
30.96
29.28
26.59
22.62
16.9
9.07
-0.86
-12.23
-23.85
-34.42
-42.87
-48.69
-51.97
-53.26
-53.23
-52.57
-51.81
-51.31
-51.26
-51.46
-51.39
-50.31
-47.62
-43.17
-37.39
-31.08
-25.02
-19.63
-14.77
-9.97
-4.77
0.87
6.47
11.22
14.48
16.17
16.88
17.67
19.34
21.94
24.46
25.26
22.86
16.78
7.9
-1.83
-10.24
-15.78
-17.95
-17.09
-13.95
-9.12
-2.93
4.48
12.81
21.48
29.65
36.49
41.48
44.53
45.93
46.11
45.37
43.83
41.5
38.45
34.94
31.31
27.73
23.89
19.14
12.71
4.36
-5.24
-14.56
-21.82
-25.72
-26.08
-23.88
-20.59
-17.41
-14.65
-11.76
-7.82
-2.27
4.77
12.54
20.1
26.84
32.64
37.77
42.46
46.64
49.95
51.96
52.45
51.51
49.4
46.26
42.07
36.65
29.99
22.47
14.9
8.29
3.45
0.73
-0.15
0.1
0.58
0.45
-0.97
-4.15
-9.39
-16.73
-25.86
-36.13
-46.51
-55.82
-62.88
-66.76
-66.97
-63.63
-57.58
-50.16
-42.86
-36.95
-33.07
-31.15
-30.56
-30.46
-30.26
-29.78
-29.28
-29.26
-30.22
-32.42
-35.8
-40.03
-44.49
-48.41
-51.01
-51.79
-50.68
-48.15
-44.99
-41.87
-39
-35.88
-31.46
-24.63
-14.74
-1.86
13.29
29.57
45.71
60.5
72.96
82.39
88.56
91.71
92.49
91.72
90.05
87.83
85.13
81.82
77.68
72.43
65.67
56.85
45.42
31.06
13.97
-5.05
-24.59
-42.9
-58.2
-69.06
-74.75
-75.44
-72.14
-66.39
-59.85
-53.92
-49.51
-47.06
-46.54
-47.42
-48.73
-49.29
-48.05
-44.59
-39.37
-33.6
-28.68
-25.6
-24.57
-25.06
-26.21
-27.16
-27.19
-25.58
-21.46
-14.01
-2.97
10.98
26.1
40.19
51.47
59.26
64.09
67.16
69.47
71.25
72.08
71.39
69.07
65.56
61.55
57.43
52.94
47.43
40.24
31.33
21.28
11.06
1.44
-7.37
-15.68
-23.95
-32.33
-40.38
-47.09
-51.33
-52.26
-49.76
-44.5
-37.72
-30.81
-24.92
-20.7
-18.48
-18.59
-21.55
-27.85
-37.34
-48.45
-58.21
-63.18
-61.02
-51.74
-37.71
-22.4
-8.53
3
12.82
21.61
28.77
32.38
30.63
23.39
13.13
3.97
-0.37
1.67
9.07
19.25
29.59
38.38
44.82
48.53
49.23
46.9
42.17
36.25
30.37
25.02
19.69
13.33
5.3
-3.89
-12.76
-19.55
-23.33
-24.43
-24.07
-23.59
-23.65
-24.12
-24.45
-24.31
-23.76
-23.31
-23.31
-23.61
-23.4
-21.59
-17.31
-10.47
-1.93
6.78
13.97
18.44
19.82
18.63
16.01
13.24
11.25
10.36
10.29
10.37
10.05
9.19
8.1
7.35
7.37
8.18
9.38
10.46
11.11
11.47
11.96
13
14.6
16.23
17.03
16.15
13.21
8.49
2.78
-2.92
-7.86
-11.7
-14.44
-16.29
-17.45
-18.04
-18.22
-18.37
-18.94
-20.38
-22.74
-25.41
-27.29
-27.27
-24.73
-20.05
-14.5
-9.61
-6.47
-5.14
-4.62
-3.51
-0.82
3.58
9.01
14.53
19.47
23.6
26.87
29.06
29.68
28.27
24.82
20.12
15.52
12.32
11.1
11.48
12.37
12.61
11.56
9.44
7.14
5.67
5.64
6.9
8.57
9.4
8.43
5.44
1.04
-3.64
-7.56
-10.19
-11.55
-11.9
-11.48
-10.33
-8.48
-6.19
-3.96
-2.32
-1.54
-1.43
-1.47
-1.17
-0.33
0.89
2.07
2.7
2.34
0.78
-1.9
-5.29
-8.71
-11.5
-13.37
-14.67
-16.27
-19.12
-23.6
-29.17
-34.52
-38.12
-39.04
-37.36
-33.99
-30.11
-26.63
-23.92
-21.95
-20.64
-20.01
-20.13
-20.76
-21.2
-20.44
-17.6
-12.59
-6.22
0.04
4.82
7.52
8.47
8.67
9.1
10.29
12.16
14.29
16.18
17.53
18.25
18.39
18.04
17.4
16.73
16.3
16.28
16.61
17.05
17.24
16.95
16.13
15
13.86
12.92
12.14
11.3
10.17
8.74
7.41
6.8
7.35
8.97
10.83
11.74
10.67
7.38
2.59
-2.32
-5.88
-7.29
-6.64
-4.89
-3.28
-2.8
-3.79
-5.83
-7.94
-8.97
-8.09
-5.03
-0.22
5.55
11.41
16.72
21.13
24.58
27.19
29.16
30.81
32.45
34.18
35.79
36.72
36.31
34.3
31.09
27.69
25.47
25.42
27.8
32.03
36.97
41.51
44.93
47.08
48.17
48.52
48.28
47.5
46.16
44.29
41.94
39.03
35.13
29.52
21.47
10.66
-2.56
-17.32
-32.67
-48.06
-63.38
-78.6
-93.08
-105.3
-113.16
-114.93
-110.15
-100.02
-86.87
-73.08
-60.07
-48.04
-36.48
-25.16
-14.85
-7.13
-3.66
-5.16
-11.05
-19.68
-29.13
-37.98
-45.61
-51.85
-56.43
-58.67
-57.54
-52.17
-42.33
-28.64
-12.49
4.36
20.13
33.3
42.68
47.43
47.13
41.85
32.19
19.21
4.31
-10.87
-24.58
-35.08
-40.92
-41.15
-35.7
-25.44
-12.04
2.37
15.73
26.44
33.6
37.02
37.06
34.37
29.82
24.47
19.46
15.86
14.43
15.33
17.97
21.12
23.27
23.12
20.18
14.88
8.56
2.77
-1.31
-3.41
-4.15
-4.58
-5.51
-7.07
-8.79
-9.94
-10.01
-8.92
-6.89
-4.2
-0.99
2.59
6.31
9.7
12.28
13.84
14.53
14.81
15.04
15.31
15.39
15.03
14.18
13.06
12.05
11.35
10.86
10.22
9.06
7.22
4.89
2.46
0.33
-1.22
-2.2
-2.85
-3.53
-4.58
-6.17
-8.16
-10.02
-11.06
-10.61
-8.42
-4.79
-0.5
3.47
6.35
8
8.95
10.11
12.31
15.79
20.08
24.2
27.17
28.46
28.15
26.7
24.58
21.98
18.78
14.78
9.99
4.78
-0.17
-4.24
-7.25
-9.65
-12.42
-16.67
-23.13
-31.81
-42.03
-52.72
-62.85
-71.69
-78.76
-83.53
-85.23
-82.79
-75.22
-62.11
-43.94
-21.96
2.16
26.74
50.24
71.24
88.52
101.22
109.2
113.24
114.88
115.75
116.76
117.67
117.16
113.73
106.61
96.34
84.72
73.93
65.44
59.31
54.12
47.65
37.89
23.96
6.36
-13.27
-32.95
-51.14
-67.12
-81.14
-94.38
-108.79
-126.89
-150.79
-180.8
-214.18
-244.82
-264.68
-266.43
-246.38
-205.83
-150.45
-88.06
-26.12
29.81
76.38
111.56
133.72
141.48
134.3
113.46
82.64
47.7
15.25
-8.93
-21.46
-22.12
-13.46
0.61
16.45
31.82
46.03
59.02
70.58
79.76
85.38
86.87
84.79
80.66
76.19
72.69
70.47
69.2
68.3
67.33
66.23
65.04
63.81
62.43
60.66
58.33
55.53
52.65
50.22
48.75
48.36
48.51
48.05
45.39
39.03
28.09
12.71
-5.99
-26.29
-46.57
-65.77
-83.54
-100
-115.34
-129.58
-142.69
-154.7
-165.8
-176.12
-185.38
-192.75
-197.04
-197.32
-193.37
-185.63
-174.49
-159.55
-139.52
-113.02
-79.85
-41.87
-2.75
33.36
63.38
86.28
102.85
114.66
122.99
128.45
131.32
132.11
131.65
130.78
129.84
128.44
125.89
121.82
116.62
111.21
106.36
102.24
98.19
93.19
86.42
77.6
67.11
55.7
44.3
33.93
25.64
20.36
18.57
20.04
23.87
28.79
33.84
38.82
44.35
51.51
60.92
72.03
82.77
89.9
89.97
80.54
61.24
34.22
3.6
-25.83
-50.18
-67.58
-78.5
-85.21
-90.59
-96.94
-105.19
-114.57
-122.94
-127.46
-125.7
-116.57
-100.87
-81.08
-60.48
-41.83
-26.5
-14.31
-4.22
4.73
12.62
18.54
21.18
19.49
13.32
3.59
-8.09
-20.01
-31.15
-41.77
-53.53
-69.11
-91.55
-123.26
-165.2
-216.11
-271.97
-326
-369.68
-394.61
-395.12
-370.36
-324.8
-266.85
-205.96
-149.56
-101.33
-61.43
-28.16
0.09
23.87
43.16
58.39
71.37
85.1
102.74
126.55
157.34
194.28
235.24
276.89
314.66
343.07
356.67
351.56
327
286.14
235.18
181.4
130.86
86.86
49.99
19.33
-5.96
-25.74
-38.99
-44.85
-43.59
-37.06
-28.22
-20.11
-14.71
-12.29
-11.58
-10.56
-7.56
-2.17
4.57
10.66
14.23
14.5
12.27
9.45
8.12
9.36
12.79
16.76
19.3
19.2
16.5
12.39
8.41
5.64
4.32
4.05
4.21
4.51
5.02
5.94
7.35
9.04
10.73
12.3
14.02
16.35
19.64
23.81
28.3
32.2
34.57
34.69
32.06
26.49
18.05
7.2
-5.12
-17.54
-28.46
-36.42
-40.53
-40.71
-37.71
-32.77
-27.24
-22.1
-17.79
-14.28
-11.37
-9.02
-7.59
-7.6
-9.33
-12.43
-15.73
-17.63
-16.71
-12.44
-5.44
2.7
10.07
15.1
17.21
16.95
15.82
15.64
17.96
23.34
31.16
39.8
47.27
51.96
53.21
51.35
47.24
41.7
35.17
27.66
19.21
10.21
1.55
-5.66
-10.63
-13.26
-14.14
-14.27
-14.55
-15.37
-16.5
-17.33
-17.31
-16.19
-14.3
-12.42
-11.45
-12.13
-14.73
-18.93
-23.88
-28.4
-31.38
-32.19
-30.87
-28.22
-25.41
-23.56
-23.2
-24.17
-25.67
-26.72
-26.53
-24.84
-21.89
-18.3
-14.81
-12.07
-10.4
-9.83
-10.04
-10.51
-10.66
-10.05
-8.5
-6.12
-3.25
-0.33
2.26
4.34
5.98
7.46
9.09
10.99
13
14.58
15.13
14.27
12.23
9.88
8.47
9.09
12.11
16.96
22.34
26.72
29.03
29.13
27.76
26.19
25.62
26.63
28.99
31.88
34.31
35.66
35.95
35.81
36.12
37.63
40.59
44.78
49.48
53.53
55.11
51.77
40.94
21.11
-6.93
-39.45
-70.54
-94.02
-105.86
-105.68
-96.77
-84.5
-73.93
-68.1
-67.67
-71.47
-77.63
-84.41
-90.29
-93.64
-92.11
-82.82
-63.2
-32.56
6.5
47.48
80.87
96.91
89.2
57.54
8.61
-46.13
-94.45
-127.12
-139.9
-133.05
-109.49
-73.43
-30.23
13.1
48
66.38
63.72
41.43
6.97
-28.89
-56.24
-69.23
-66.78
-51.19
-26.05
4.71
36.68
64.75
83.71
89.99
83.4
67.57
48.33
31.18
19.25
12.65
9.57
7.91
6.36
4.63
3
1.85
1.56
2.48
4.86
8.55
12.74
16.2
17.81
17.15
14.79
11.9
9.61
8.31
7.66
6.88
5.26
2.62
-0.78
-4.39
-7.74
-10.61
-13
-15.03
-16.72
-17.96
-18.52
-18.2
-17.06
-15.51
-14.32
-14.23
-15.6
-18.04
-20.52
-21.77
-20.89
-17.83
-13.31
-8.42
-4.02
-0.41
2.64
5.57
8.64
11.72
14.46
16.52
17.77
18.28
18.07
16.92
14.35
9.89
3.49
-4.28
-12.31
-19.3
-24.23
-26.57
-26.42
-24.31
-20.9
-16.69
-11.86
-6.3
0.13
7.28
14.5
20.64
24.41
24.98
22.38
17.5
11.65
6.01
1.18
-2.77
-6.01
-8.56
-10.17
-10.56
-9.64
-7.67
-5.15
-2.62
-0.46
1.17
2.33
3.17
3.9
4.71
5.71
6.82
7.74
8.12
7.62
6.25
4.32
2.42
1.2
1.11
2.24
4.3
6.72
8.83
10.11
10.27
9.41
8
6.64
5.92
6.09
7.06
8.42
9.71
10.61
11.04
11.11
10.86
10.14
8.64
6.05
2.34
-2.03
-6.2
-9.25
-10.46
-9.73
-7.5
-4.64
-2.06
-0.42
0.13
-0.14
-0.68
-0.95
-0.57
0.64
2.69
5.5
8.83
12.19
14.9
16.16
15.48
12.92
9.23
5.6
3.11
2.26
2.77
3.81
4.44
4.12
2.79
0.88
-1.09
-2.75
-4.03
-5.14
-6.35
-7.81
-9.42
-10.88
-11.87
-12.2
-11.84
-10.97
-9.73
-8.13
-6.06
-3.42
-0.36
2.68
5.05
6.28
6.31
5.56
4.76
4.49
4.97
5.9
6.64
6.58
5.4
3.23
0.62
-1.71
-3.22
-3.66
-3.15
-2.06
-0.66
0.97
3.08
6
9.98
14.91
20.4
25.86
30.82
35.15
39.08
43.1
47.59
52.63
57.87
62.64
66.17
67.82
67.36
64.95
61.14
56.77
52.75
49.75
47.84
46.29
43.58
37.66
26.67
9.65
-12.83
-38.46
-63.75
-85.02
-99.61
-106.73
-107.45
-104.01
-98.85
-93.65
-89.14
-85.43
-82.59
-81.17
-82.05
-85.96
-92.83
-101.44
-109.68
-115.41
-117.31
-115.3
-110.59
-104.93
-99.89
-96.13
-93.05
-88.89
-81.27
-67.98
-47.95
-21.92
7.54
36.78
62.22
81.52
94.16
101.1
103.86
103.57
100.58
94.77
86.31
76.17
66.06
57.76
52.28
49.52
48.35
47.26
45.01
41.09
35.7
29.62
23.76
18.93
15.65
14.04
13.96
14.95
16.35
17.41
17.58
16.71
15.16
13.65
12.86
13.01
13.71
14.22
13.89
12.71
11.33
10.81
11.93
14.72
18.39
21.74
23.78
24.3
23.98
24.1
25.92
30.06
36.2
43.11
49.21
53.11
54.26
53.09
50.93
49.32
49.51
52
56.46
61.79
66.2
67.18
61.69
46.87
21.24
-14
-54.55
-93.92
-125.59
-145.36
-152.75
-150.72
-143.86
-136.19
-129.77
-124.77
-120.49
-116.66
-113.98
-113.66
-116.27
-120.7
-123.93
-121.88
-111.07
-90.21
-60.94
-27.33
5.67
34.17
56.41
72.75
84.59
92.97
97.9
98.65
94.67
86.53
76.06
65.72
57.51
52.22
49.31
47.44
45.16
41.56
36.55
30.62
24.62
19.27
15.07
12.16
10.39
9.45
8.96
8.57
7.94
6.82
5.05
2.69
0.01
-2.54
-4.44
-5.4
-5.48
-5.11
-4.93
-5.44
-6.77
-8.61
-10.42
-11.66
-12.05
-11.68
-10.79
-9.67
-8.42
-7
-5.32
-3.39
-1.38
0.45
1.82
2.56
2.64
2.17
1.34
0.41
-0.34
-0.59
-0.15
0.97
2.49
3.96
5.04
5.66
6.03
6.5
7.29
8.27
9.08
9.28
8.67
7.34
5.62
3.85
2.25
0.78
-0.71
-2.35
-4.19
-6.19
-8.21
-10.11
-11.73
-12.91
-13.55
-13.64
-13.23
-12.38
-11.15
-9.53
-7.56
-5.35
-3.14
-1.22
0.18
0.96
1.24
1.25
1.24
1.37
1.64
1.97
2.27
2.52
2.76
3.04
3.37
3.71
3.98
4.08
3.95
3.65
3.34
3.21
3.39
3.77
4.09
4.01
3.37
2.26
1
-0.13
-0.97
-1.68
-2.54
-3.78
-5.43
-7.29
-9.08
-10.56
-11.56
-11.97
-11.61
-10.33
-8.09
-5.08
-1.65
1.75
4.76
7.21
9.11
10.57
11.7
12.56
13.24
13.8
14.34
14.89
15.47
16.03
16.5
16.77
16.75
16.33
15.48
14.16
12.46
10.57
8.73
7.19
6.06
5.27
4.63
3.89
2.89
1.6
0.14
-1.3
-2.55
-3.54
-4.33
-4.99
-5.54
-5.89
-5.9
-5.53
-4.93
-4.44
-4.44
-5.14
-6.47
-8.08
-9.53
-10.42
-10.64
-10.28
-9.58
-8.75
-7.95
-7.21
-6.51
-5.81
-4.99
-3.91
-2.37
-0.18
2.7
6.13
9.74
13.02
15.49
16.85
17.08
16.49
15.56
14.8
14.5
14.7
15.12
15.32
14.95
13.9
12.41
10.99
10.1
9.95
10.35
10.81
10.91
10.48
9.79
9.22
9.05
9.15
9.04
8.18
6.36
3.89
1.5
-0.01
-0.22
0.8
2.48
4.01
4.62
3.85
1.68
-1.46
-4.8
-7.54
-9.11
-9.33
-8.43
-6.92
-5.33
-4.11
-3.53
-3.66
-4.39
-5.45
-6.42
-6.84
-6.42
-5.12
-3.25
-1.27
0.48
1.94
3.28
4.69
6.19
7.53
8.4
8.63
8.33
7.9
7.73
7.96
8.37
8.42
7.6
5.64
2.72
-0.56
-3.46
-5.29
-5.6
-4.32
-1.7
1.73
5.3
8.28
10.2
10.91
10.65
9.87
8.98
8.07
6.97
5.36
3.06
0.25
-2.6
-4.89
-6.21
-6.46
-5.92
-5.16
-4.89
-5.85
-8.67
-13.61
-20.14
-26.73
-31.04
-30.54
-23.72
-10.9
5.43
21.29
32.55
36.42
32.39
22.18
8.98
-3.8
-13.59
-19.22
-20.99
-20.25
-18.73
-17.84
-18.29
-19.91
-21.98
-23.61
-24.08
-22.83
-19.39
-13.26
-4.27
7.06
19.27
30.18
37.73
40.75
39.34
34.57
27.72
19.68
10.81
1.31
-8.26
-16.89
-23.43
-27.18
-28.11
-26.8
-23.91
-19.91
-15.06
-9.7
-4.38
0.16
3.35
5.13
5.92
6.4
7.1
8.16
9.33
10.25
10.7
10.73
10.57
10.42
10.41
10.48
10.55
10.52
10.3
9.85
9.18
8.35
7.44
6.44
5.29
3.86
2.15
0.36
-1.11
-1.87
-1.79
-1.1
-0.35
-0.07
-0.56
-1.76
-3.3
-4.77
-5.82
-6.25
-5.93
-4.71
-2.51
0.48
3.75
6.58
8.34
8.74
7.94
6.31
4.24
1.98
-0.34
-2.46
-3.88
-3.95
-2.11
1.66
6.7
11.81
15.71
17.5
17
14.75
11.7
8.92
7.23
6.97
7.98
9.66
11.2
11.98
11.76
10.88
10.06
10.05
11.24
13.45
15.89
17.4
16.73
12.72
4.56
-7.93
-24.03
-41.82
-58.57
-71.4
-78.35
-79.26
-75.82
-70.82
-66.91
-65.59
-66.81
-69.41
-71.93
-73.23
-72.7
-69.76
-63.55
-52.91
-37.11
-16.53
6.66
29
46.89
57.87
61.58
59.62
54.53
48.55
42.81
37.42
32.13
27.01
22.72
20.13
19.6
20.7
22.32
23.26
22.84
21.11
18.73
16.45
14.76
13.67
12.95
12.24
11.4
10.46
9.6
9
8.71
8.63
8.55
8.23
7.49
6.33
4.78
2.78
0.23
-3.02
-6.92
-11.08
-14.89
-17.72
-19.21
-19.42
-18.66
-17.29
-15.44
-13.02
-9.91
-6.2
-2.28
1.43
4.72
7.83
11.31
15.57
20.52
25.48
29.5
31.84
32.45
31.99
31.44
31.53
32.15
32.35
30.75
26.23
18.4
7.73
-4.75
-17.86
-30.52
-41.88
-51.28
-58.21
-62.52
-64.49
-64.91
-64.7
-64.39
-63.66
-61.31
-55.77
-45.89
-31.68
-14.52
3.29
19.26
31.44
38.91
41.79
40.97
37.73
33.37
29.03
25.46
22.89
21.07
19.38
17.21
14.24
10.6
6.65
2.78
-0.85
-4.33
-7.73
-10.92
-13.48
-14.82
-14.52
-12.62
-9.69
-6.72
-4.73
-4.39
-5.77
-8.42
-11.6
-14.73
-17.73
-21
-25.11
-30.39
-36.7
-43.43
-49.83
-55.41
-60.04
-63.69
-65.99
-65.85
-61.7
-52.18
-36.98
-17.3
4.31
24.82
41.82
54.21
62.2
66.79
68.94
69.24
67.86
64.97
60.99
56.65
52.72
49.66
47.49
45.88
44.34
42.33
39.49
35.56
30.55
24.83
18.99
13.53
8.43
2.92
-4.27
-14.2
-26.86
-40.9
-54.02
-63.95
-69.44
-70.77
-69.32
-66.7
-63.91
-61.03
-57.57
-53.14
-47.95
-42.84
-38.83
-36.56
-35.97
-36.29
-36.34
-34.94
-31.15
-24.59
-15.39
-4.3
7.51
18.78
28.49
36.18
41.89
45.98
48.68
49.96
49.6
47.53
44.1
40.07
36.34
33.47
31.48
29.99
28.58
27.11
25.77
24.74
23.94
22.97
21.39
19.05
16.38
14.1
12.89
13.01
14.16
15.77
17.33
18.65
19.8
20.99
22.31
23.78
25.38
27.18
29.36
31.89
34.24
35.23
33.27
26.84
15.18
-1.36
-21.25
-42.18
-61.55
-77.01
-86.88
-90.39
-87.95
-81.14
-72.48
-64.79
-60.35
-60.19
-63.79
-69.42
-74.72
-77.41
-75.6
-68.04
-54.23
-34.68
-10.99
14.17
37.67
56.72
69.61
76.03
76.87
73.67
68.02
61.31
54.65
48.95
44.89
42.82
42.69
43.99
45.91
47.58
48.21
47.28
44.51
39.93
33.86
26.84
19.55
12.62
6.5
1.32
-3.1
-7.25
-11.75
-17.22
-23.99
-31.96
-40.52
-48.62
-54.96
-58.27
-57.72
-53
-44.52
-33.3
-20.85
-8.83
1.21
8.21
11.92
12.83
11.91
10.15
8.2
6.28
4.32
2.32
0.45
-1
-1.91
-2.42
-2.97
-3.93
-5.49
-7.59
-10.14
-13.2
-16.9
-21.1
-25.09
-27.66
-27.61
-24.4
-18.55
-11.39
-4.44
1.4
6.12
10.34
14.68
19.25
23.64
27.26
29.81
31.48
32.77
34
35.06
35.41
34.41
31.82
27.91
23.37
18.97
15.2
12.12
9.41
6.6
3.28
-0.77
-5.5
-10.6
-15.59
-19.91
-23.11
-24.97
-25.61
-25.42
-24.89
-24.41
-24.12
-23.88
-23.36
-22.18
-19.99
-16.66
-12.31
-7.34
-2.38
2.01
5.49
8.07
10.06
11.8
13.41
14.68
15.26
14.94
13.81
12.29
10.86
9.79
9.01
8.24
7.21
5.93
4.75
4.23
4.94
7.21
10.96
15.81
21.1
26.14
30.32
33.28
34.89
35.25
34.57
33.04
30.8
27.77
23.74
18.39
11.49
3.09
-6.41
-16.3
-25.82
-34.36
-41.63
-47.63
-52.45
-56.07
-58.3
-59.01
-58.34
-56.93
-55.66
-55.26
-55.89
-57.03
-57.79
-57.44
-55.65
-52.41
-47.68
-40.99
-31.66
-19.35
-4.68
10.52
23.84
33.22
37.75
37.79
34.33
28.19
19.61
8.49
-4.85
-19.05
-31.7
-40.05
-42.14
-37.65
-28.06
-16.17
-5.17
2.34
5.12
3.59
-0.43
-4.46
-6.42
-5.45
-2.18
1.86
5.34
7.99
10.83
15.64
23.87
35.76
50.12
64.81
77.59
86.72
91.32
91.42
87.95
82.64
77.68
75.02
75.61
78.84
82.89
85.74
86.37
85.3
84.15
84.45
86.67
89.94
92.69
93.72
92.88
90.79
88.11
84.65
79.32
70.69
57.91
41.31
22.42
3.33
-14.14
-28.96
-41.06
-50.96
-59.4
-66.89
-73.59
-79.19
-83.21
-85.09
-84.49
-81.39
-76.24
-69.9
-63.41
-57.65
-53.13
-49.85
-47.47
-45.51
-43.59
-41.6
-39.57
-37.64
-35.86
-34.25
-32.82
-31.63
-30.71
-30.03
-29.38
-28.35
-26.54
-23.75
-20.21
-16.52
-13.47
-11.71
-11.48
-12.6
-14.5
-16.43
-17.7
-17.77
-16.36
-13.5
-9.57
-5.22
-1.2
1.88
3.71
4.38
4.24
3.66
2.86
1.9
0.81
-0.3
-1.16
-1.48
-1.14
-0.31
0.58
0.97
0.45
-1.04
-3.19
-5.42
-7.05
-7.55
-6.69
-4.67
-2
0.63
2.62
3.68
3.88
3.59
3.26
3.24
3.64
4.39
5.38
6.53
7.88
9.44
11.1
12.56
13.39
13.28
12.22
10.54
8.8
7.51
6.92
6.95
7.25
7.44
7.25
6.54
5.32
3.67
1.68
-0.46
-2.52
-4.22
-5.42
-6.19
-6.78
-7.56
-8.74
-10.32
-12.01
-13.42
-14.26
-14.42
-14
-13.23
-12.35
-11.5
-10.75
-10.16
-9.71
-9.36
-9.05
-8.68
-8.19
-7.56
-6.79
-5.91
-4.89
-3.7
-2.36
-0.97
0.27
1.15
1.53
1.48
1.16
0.9
1.01
1.79
3.37
5.69
8.46
11.25
13.56
15.05
15.65
15.54
15.07
14.65
14.59
15.01
15.84
16.85
17.73
18.19
18.05
17.31
16.18
15
14.11
13.68
13.63
13.69
13.47
12.69
11.38
9.93
9.1
9.72
12.33
16.92
22.77
28.71
33.49
36.36
37.22
36.58
35.23
33.8
32.55
31.39
30.04
28.28
26.02
23.2
19.7
15.27
9.62
2.63
-5.61
-14.65
-23.82
-32.36
-39.53
-44.84
-48.07
-49.37
-49.2
-48.2
-46.9
-45.54
-43.92
-41.53
-37.79
-32.39
-25.4
-17.3
-8.69
-0.05
8.45
16.87
25.34
33.78
41.87
49.05
54.8
58.85
61.18
62.05
61.69
60.23
57.64
53.9
49.13
43.75
38.36
33.55
29.74
26.99
25.09
23.67
22.36
20.94
19.28
17.36
15.19
12.79
10.21
7.62
5.23
3.21
1.63
0.43
-0.57
-1.55
-2.64
-3.82
-4.96
-5.88
-6.47
-6.64
-6.48
-6.12
-5.78
-5.67
-5.94
-6.71
-7.95
-9.51
-11.22
-12.88
-14.4
-15.73
-16.86
-17.82
-18.58
-19.13
-19.4
-19.42
-19.25
-19.05
-18.96
-19.07
-19.39
-19.89
-20.49
-21.2
-22.04
-23
-24.04
-24.92
-25.38
-25.13
-24.07
-22.3
-20.11
-17.92
-16.06
-14.7
-13.83
-13.33
-13.07
-13
-13.15
-13.62
-14.41
-15.46
-16.57
-17.54
-18.23
-18.59
-18.61
-18.22
-17.27
-15.54
-12.87
-9.34
-5.33
-1.42
1.82
4.13
5.55
6.46
7.28
8.3
9.52
10.68
11.45
11.54
10.86
9.46
7.44
4.9
1.88
-1.54
-5.24
-9.04
-12.72
-16.14
-19.13
-21.52
-23.04
-23.28
-21.77
-18.15
-12.23
-4.17
5.57
16.28
27.09
37.06
45.25
50.9
53.57
53.19
50
44.36
36.58
26.82
15.24
2.18
-11.69
-25.3
-37.42
-46.96
-53.31
-56.56
-57.42
-56.96
-56.24
-56
-56.55
-57.83
-59.6
-61.6
-63.72
-65.83
-67.66
-68.71
-68.35
-66.01
-61.47
-54.96
-47.12
-39.14
-32.17
-27
-23.92
-22.6
-22.25
-21.93
-20.95
-19.03
-17.2
-16.83
-19.17
-24.75
-33.02
-42.47
-51.36
-58.43
-63.25
-67.54
-73.33
-82.31
-94.97
-110.27
-126.2
-140.91
-153.79
-165.52
-179.19
-197.54
-222.26
-252.89
-286.55
-319.02
-346.24
-365.89
-366.71
-340.83
-283.92
-198.58
-94.51
14.89
117.16
203.99
271.69
321.39
356.18
380.79
399.03
412.69
422.48
429.44
435.72
443.43
455.17
466.99
473.68
466.36
434.98
372.87
281.15
169.67
52.56
-58.67
-156.4
-236.78
-299.95
-347.89
-382.18
-403.53
-402.69
-377.76
-331.52
-270.39
-202.05
-133.86
-71.15
-16.7
28.79
65.52
92.21
108.98
117.67
121.42
123.64
127.03
132.92
141
150.09
155.43
152.57
138.84
114.43
82.74
50.12
24.31
11.61
13.83
24.54
32.44
26.31
0.37
-43.34
-96.83
-150.02
-194.86
-227.92
-250.52
-265.45
-274.52
-277.63
-273.55
-261.02
-239.84
-210.94
-176.56
-139.46
-101.87
-65.28
-30.3
2.19
30.95
55.1
74.09
87.75
96.39
101.18
104.15
108.01
115.53
128.76
148.13
171.93
196.39
216.36
226.79
224.19
207.67
179.39
143.93
106.87
73.07
45.45
24.71
10.06
0.36
-5.12
-6.65
-4.43
0.78
7.3
12.83
15.33
13.76
8.51
1.07
-6.91
-14.36
-21.16
-27.87
-34.95
-42.1
-47.93
-50.45
-47.76
-39.12
-25.27
-8.4
8.6
22.99
32.98
38.15
39.31
38.07
36.26
35.3
35.75
37.21
38.47
38.25
35.92
31.94
27.81
25.25
25.37
27.95
31.54
34.21
34.57
32.41
28.68
24.77
21.76
19.81
18.3
16.27
13.07
8.76
4.08
0.24
-1.55
-0.57
3.08
8.49
14.22
18.81
21.29
21.39
19.68
17.42
16.14
17.22
21.25
27.85
35.64
42.74
47.54
49.36
48.64
46.68
45.05
44.8
46.19
48.64
51
51.78
49.54
43.05
31.76
16.14
-2.45
-22.36
-42.55
-63.32
-86.26
-113.41
-146.09
-183.85
-223.99
-262.08
-292.79
-311.11
-313.33
-297.99
-266.3
-222.12
-171.07
-119.02
-70.42
-27.22
11.14
46.71
81.52
116.21
149.48
178.5
200.08
211.92
213.56
206.36
192.81
175.43
155.72
133.82
108.9
80.11
47.46
12.34
-22.72
-54.58
-80.09
-96.77
-103.23
-100
-89.73
-76.86
-66.1
-60.51
-60.16
-62.21
-62.54
-57.82
-47.08
-31.7
-14.06
4.16
22.89
43.04
65.19
88.36
109.77
125.72
132.93
129.91
117.5
98.57
77.1
56.93
40.67
29.25
22.01
17.41
13.88
10.47
7.04
3.92
1.34
-1.06
-4.27
-9.56
-17.73
-28.46
-40.13
-50.27
-56.35
-56.83
-51.87
-43.26
-33.68
-25.5
-19.93
-16.68
-14.47
-11.78
-7.64
-1.93
4.77
11.59
17.87
23.33
28.02
32.08
35.55
38.28
39.97
40.4
39.51
37.42
34.3
30.22
25.15
19.19
12.74
6.52
1.46
-1.75
-3.01
-2.9
-2.36
-2.24
-2.81
-3.67
-4.14
-3.59
-1.76
1.28
5.35
10.29
15.78
21.14
25.18
26.5
24.08
17.87
9.01
-0.46
-8.37
-13.15
-14.2
-11.93
-7.37
-1.85
3.18
6.22
5.9
1.34
-7.36
-18.82
-30.6
-39.93
-44.71
-44.21
-39.15
-31.05
-21.22
-10.05
2.97
18.49
36.24
54.47
70.23
80.47
83.44
79.57
71.35
62.25
55.27
51.73
50.91
50.57
48.06
41.42
30.03
14.76
-2.42
-19.15
-33.31
-43.66
-50.16
-53.97
-57
-61.46
-69.02
-80.15
-93.64
-106.42
-113.86
-110.79
-93.13
-59.93
-14.76
34.42
77.43
105.19
112.98
101.94
78.17
50.01
24.91
7.41
-1
-0.89
6.44
19.52
36.42
54.38
69.89
79.61
81.69
76.5
66.29
53.96
41.71
30.11
18.32
5.13
-9.79
-25.08
-37.85
-44.9
-44.07
-35.32
-20.92
-4.66
9.39
18.06
19.71
14.22
2.58
-13.58
-32.21
-51.01
-67.42
-79.06
-84.26
-82.6
-75.07
-63.65
-50.6
-37.7
-25.92
-15.61
-7.08
-0.85
2.44
2.61
0.54
-1.87
-2.37
0.42
6.22
12.99
18.07
19.58
17.41
13.2
9.23
7.04
6.66
6.92
6.47
4.91
3.04
2.19
3.05
4.93
6.07
4.78
0.68
-4.71
-8.62
-8.49
-3.08
6.78
18.58
29.13
35.69
36.9
33.15
26.59
20.51
18.36
22.54
33.54
49.68
67.84
84.54
96.96
103.38
102.87
95.11
80.4
59.93
35.72
10.31
-14.3
-37.32
-59.12
-80.25
-100.18
-116.81
-127.13
-129.04
-123.06
-112.63
-103.15
-99.77
-105.28
-119.08
-137.41
-154.94
-166.9
-171.03
-168.37
-162.42
-157.19
-154.89
-154.66
-152.95
-145.24
-128.44
-102.38
-69.94
-35.6
-3.57
23.47
44.62
59.97
69.87
74.52
74.27
70.02
63.49
56.96
52.58
51.78
54.83
60.87
68.39
75.78
81.91
86.25
88.74
89.36
87.99
84.43
78.77
71.6
64.05
57.33
52.12
48.27
44.75
40.27
33.9
25.52
15.57
4.54
-7.52
-21.01
-36.27
-52.97
-69.74
-84.41
-94.76
-99.31
-97.82
-91.23
-81.16
-69.16
-56.19
-42.44
-27.59
-11.32
6.17
23.83
40.05
53.22
62.56
68.56
72.8
77.17
82.78
89.46
95.58
98.86
97.17
89.47
76.12
58.83
40.11
22.7
9.05
0.78
-1.62
1.07
7.03
13.9
19.53
22.56
22.63
20.24
16.18
11.15
5.5
-0.48
-6.3
-11.19
-14.23
-14.87
-13.18
-10.01
-6.52
-3.72
-2.18
-1.89
-2.58
-3.93
-5.74
-7.87
-10.18
-12.36
-14
-14.64
-13.88
-11.6
-7.98
-3.42
1.56
6.53
11.26
15.72
19.9
23.75
26.91
28.77
28.55
25.7
20.35
13.57
7.27
3.48
3.49
7.14
12.73
17.72
19.68
17.38
11.21
2.91
-5.2
-11.13
-13.78
-13.11
-9.68
-4.35
2.17
9.38
16.79
23.72
29.21
32.19
32.08
29.32
25.54
23.18
24.5
30.47
40.29
51.68
61.81
68.49
70.87
69.52
65.94
61.84
58.46
55.96
53.03
46.84
33.72
10.54
-23.46
-65.3
-108.24
-143.38
-162.71
-162.2
-143.71
-114.44
-84.54
-63.59
-57.56
-67.36
-89.23
-116.51
-142.05
-160.27
-168.31
-166.4
-157.33
-145.33
-134.85
-129.14
-129.26
-133.76
-139.27
-141.64
-137.28
-124.25
-102.37
-72.98
-38.4
-1.43
34.65
66.22
89.78
102.98
105.64
100.29
91.32
83.36
79.14
78.31
77.63
72.54
59.45
37.53
9.48
-19.36
-42.97
-56.76
-59.12
-51.68
-38.27
-23.23
-9.61
1.7
11.86
23.13
37.71
56.86
80.63
108.01
137.16
165.68
190.86
210.05
221.23
223.45
217.05
203.37
184.35
162.1
138.44
114.69
91.57
69.29
47.83
27.19
7.66
-10.25
-25.95
-39.18
-50.01
-58.81
-65.86
-71.1
-74.03
-74.09
-70.96
-64.81
-56.31
-46.33
-35.8
-25.6
-16.45
-8.72
-2.15
4.23
11.72
21.29
33.01
45.91
58.36
68.87
76.73
82.1
85.65
87.95
89
88.26
85.08
79.04
70.13
58.7
45.19
29.93
13.04
-5.64
-26.31
-48.87
-72.61
-96.01
-116.78
-132.48
-141.11
-141.88
-135.41
-123.52
-108.54
-92.62
-77.36
-63.69
-52.21
-43.41
-37.77
-35.51
-36.25
-38.74
-41.03
-41.02
-37.39
-30.37
-21.77
-14.26
-10.16
-10.43
-14.4
-20.37
-26.58
-32.07
-36.8
-41.24
-45.64
-49.66
-52.62
-54.08
-54.42
-54.81
-56.72
-61.12
-67.98
-76.18
-83.69
-87.91
-86.12
-76.18
-57.3
-30.79
-0.17
29.6
53.67
69.17
76.22
77.49
76.55
75.78
75.31
73.33
67.77
58.1
45.95
34.32
25.99
22.01
21.28
21.53
20.62
17.76
13.74
10.26
8.99
10.77
15.54
22.48
30.51
38.52
45.46
50.52
53.29
54.03
53.66
53.77
55.96
61.13
68.58
75.7
78.54
73.31
58.31
35.2
8.97
-13.93
-28.24
-32.15
-27.92
-20.47
-14.85
-14.04
-17.92
-24.22
-30.33
-35
-39.04
-44.7
-54.38
-69.62
-90.4
-115.41
-142.69
-170.36
-197.08
-221.68
-242.52
-256.73
-260.16
-248.37
-218.33
-170.31
-108.73
-41.36
22.87
76.51
115.75
140.87
155.26
163.74
170.97
180.7
195.42
215.9
240.67
265.65
284.72
291.38
281.22
253.86
213.52
167.61
124
88.32
62.56
45.29
33.34
23.7
14.56
5.46
-3.45
-12.12
-20.8
-29.77
-38.83
-47.1
-53.14
-55.49
-53.19
-46.13
-35.1
-21.6
-7.56
5.06
14.61
20.08
21.25
18.77
13.98
8.43
3.43
-0.17
-2.1
-2.42
-1.41
0.53
2.86
4.85
5.71
4.91
2.52
-0.7
-3.41
-4.22
-2.43
1.49
5.95
8.84
8.55
4.72
-1.48
-7.87
-12.28
-13.5
-11.75
-8.41
-5.28
-3.67
-4.01
-5.86
-8.43
-11
-13.12
-14.56
-15.12
-14.69
-13.38
-11.71
-10.46
-10.36
-11.64
-13.85
-16.1
-17.58
-17.99
-17.71
-17.47
-17.93
-19.3
-21.36
-23.69
-25.94
-27.97
-29.71
-31.03
-31.67
-31.35
-29.94
-27.6
-24.75
-21.88
-19.4
-17.44
-15.97
-14.75
-13.53
-12.07
-10.25
-8.06
-5.66
-3.35
-1.51
-0.46
-0.35
-1.1
-2.47
-4.16
-5.94
-7.69
-9.38
-11.01
-12.53
-13.86
-14.9
-15.54
-15.74
-15.46
-14.72
-13.55
-12.1
-10.57
-9.3
-8.59
-8.58
-9.12
-9.84
-10.27
-10.14
-9.42
-8.34
-7.27
-6.51
-6.2
-6.36
-6.9
-7.73
-8.78
-9.93
-10.96
-11.57
-11.5
-10.61
-9
-6.89
-4.59
-2.41
-0.61
0.6
1.15
1.19
0.99
0.9
1.19
1.87
2.7
3.32
3.46
3.08
2.4
1.73
1.3
1.09
0.98
0.78
0.46
0.12
-0.03
0.14
0.58
1.04
1.16
0.57
-0.84
-2.88
-5.05
-6.73
-7.45
-7.12
-6
-4.61
-3.43
-2.65
-2.18
-1.73
-1.02
0.08
1.51
3.09
4.64
6.04
7.32
8.54
9.78
11.05
12.27
13.35
14.23
14.97
15.61
16.14
16.36
15.92
14.48
11.94
8.55
4.9
1.71
-0.47
-1.51
-1.69
-1.56
-1.68
-2.42
-3.85
-5.79
-7.92
-9.96
-11.72
-13.14
-14.19
-14.8
-14.9
-14.45
-13.51
-12.36
-11.42
-11.05
-11.39
-12.3
-13.38
-14.25
-14.72
-14.87
-14.89
-15
-15.16
-15.17
-14.76
-13.78
-12.36
-10.75
-9.27
-8.03
-6.92
-5.75
-4.36
-2.83
-1.35
-0.14
0.71
1.36
2.06
2.99
4.17
5.38
6.31
6.69
6.42
5.6
4.46
3.24
2.16
1.38
1.06
1.36
2.32
3.85
5.67
7.3
8.25
8.16
6.98
5.02
2.82
0.97
-0.1
-0.31
0.11
0.8
1.41
1.81
2.04
2.23
2.47
2.72
2.86
2.74
2.37
1.83
1.27
0.78
0.39
0.09
-0.12
-0.19
-0.08
0.18
0.43
0.39
-0.17
-1.27
-2.66
-3.85
-4.32
-3.78
-2.25
-0.11
2.11
3.89
4.93
5.23
5.04
4.7
4.46
4.38
4.27
3.85
2.85
1.17
-1.09
-3.7
-6.36
-8.87
-11.12
-12.97
-14.31
-14.9
-14.62
-13.47
-11.73
-9.83
-8.22
-7.19
-6.76
-6.75
-6.84
-6.74
-6.31
-5.53
-4.52
-3.47
-2.5
-1.66
-0.92
-0.16
0.72
1.72
2.76
3.67
4.29
4.56
4.5
4.19
3.77
3.32
2.91
2.66
2.62
2.85
3.33
3.99
4.65
5.12
5.22
4.81
3.92
2.65
1.23
-0.12
-1.24
-2.04
-2.52
-2.72
-2.74
-2.66
-2.59
-2.64
-2.87
-3.39
-4.22
-5.35
-6.68
-8.03
-9.22
-10.07
-10.5
-10.55
-10.32
-9.85
-9.09
-7.95
-6.43
-4.67
-3
-1.79
-1.25
-1.34
-1.84
-2.44
-3
-3.58
-4.39
-5.62
-7.35
-9.43
-11.57
-13.36
-14.43
-14.54
-13.59
-11.72
-9.25
-6.59
-4.16
-2.29
-1.08
-0.42
-0.01
0.52
1.42
2.74
4.3
5.78
6.85
7.36
7.35
7.07
6.87
7.04
7.72
8.81
10.05
11.11
11.76
11.9
11.59
11.01
10.35
9.73
9.18
8.71
8.34
8.13
8.1
8.19
8.21
7.94
7.18
5.82
3.85
1.28
-1.85
-5.52
-9.58
-13.76
-17.62
-20.68
-22.56
-23.08
-22.25
-20.29
-17.54
-14.33
-11.02
-7.91
-5.16
-2.78
-0.66
1.32
3.24
5.03
6.48
7.39
7.66
7.33
6.57
5.53
4.27
2.83
1.21
-0.47
-2.04
-3.26
-3.96
-4.04
-3.52
-2.48
-1.02
0.7
2.53
4.29
5.85
7.13
8.09
8.74
9.12
9.26
9.14
8.77
8.1
7.11
5.74
3.97
1.81
-0.68
-3.36
-6.15
-8.95
-11.67
-14.14
-16.09
-17.19
-17.2
-16.1
-14.14
-11.77
-9.42
-7.3
-5.27
-3.06
-0.45
2.51
5.47
7.94
9.57
10.35
10.52
10.47
10.47
10.57
10.59
10.29
9.61
8.65
7.7
7.03
6.78
6.96
7.42
7.95
8.36
8.47
8.23
7.64
6.81
5.87
4.98
4.23
3.69
3.31
3.04
2.78
2.38
1.7
0.55
-1.22
-3.59
-6.36
-9.18
-11.68
-13.66
-15.1
-16.15
-16.95
-17.46
-17.46
-16.62
-14.7
-11.74
-8
-3.92
0.13
3.93
7.39
10.47
13.1
15.06
16.1
15.99
14.7
12.35
9.31
6.07
3.16
1.05
0.12
0.58
2.5
5.74
9.96
14.57
18.87
22.11
23.73
23.49
21.51
18.26
14.4
10.6
7.42
5.17
3.89
3.34
3.06
2.56
1.44
-0.4
-2.66
-4.77
-6.15
-6.47
-5.84
-4.82
-4.25
-4.82
-6.85
-10.11
-13.9
-17.32
-19.59
-20.32
-19.52
-17.48
-14.51
-10.93
-6.97
-2.86
1.1
4.55
7.19
8.86
9.53
9.33
8.45
7.14
5.68
4.44
3.72
3.67
4.1
4.55
4.52
3.78
2.57
1.48
1.13
1.75
2.99
3.96
3.66
1.42
-2.7
-7.8
-12.44
-15.16
-15.01
-11.87
-6.63
-0.8
3.97
6.44
6.12
3.31
-1.2
-6.46
-11.66
-16.22
-19.74
-21.96
-22.84
-22.62
-21.92
-21.58
-22.16
-23.48
-24.31
-22.85
-17.6
-8.21
4.03
16.82
27.81
35.68
40.52
43.44
45.7
47.87
49.79
51.11
52.14
54.28
59.7
70.28
86.55
107.19
129.29
149.37
164.53
173.17
175.13
171.06
161.68
147.15
127.2
101.7
71.43
38.53
6.35
-21.51
-42.36
-55.19
-60.92
-61.76
-60.24
-58.26
-56.72
-55.69
-54.8
-53.68
-51.9
-48.94
-44.21
-37.41
-29.02
-20.71
-15.08
-14.81
-21.52
-34.75
-51.92
-69.02
-82.04
-88.31
-87.25
-80.2
-69.63
-58.04
-47.26
-38.14
-30.84
-25.19
-21.15
-18.77
-18.06
-18.69
-19.94
-20.78
-20.29
-18.06
-14.39
-10.2
-6.74
-4.99
-5.34
-7.35
-9.99
-12.07
-12.64
-11.36
-8.5
-4.71
-0.71
3
6.24
9.08
11.67
14.15
16.64
19.31
22.42
26.25
30.89
35.99
40.77
44.17
45.29
43.82
40.24
35.61
31.22
27.92
25.77
23.96
21.04
15.37
5.76
-8.09
-25.34
-44.08
-61.72
-75.62
-83.73
-85.17
-80.37
-70.8
-58.34
-44.65
-30.79
-17.23
-4.19
7.96
18.5
26.55
31.42
32.98
31.81
29
25.56
21.98
18.1
13.29
6.94
-1.09
-10.24
-19.41
-27.25
-32.69
-35.21
-34.97
-32.67
-29.24
-25.35
-21.14
-16.21
-9.79
-1.29
9.25
20.9
32.14
41.38
47.62
50.84
51.87
52.04
52.67
54.67
58.37
63.41
68.64
72.21
71.83
65.35
51.5
30.45
3.96
-25.1
-53.56
-78.69
-98.83
-113.49
-123.15
-128.87
-131.7
-132.18
-129.96
-123.95
-112.97
-96.58
-75.78
-52.91
-30.84
-11.72
3.91
17.12
29.67
42.77
56.27
68.7
78.21
83.43
84.15
81.02
75.12
67.38
58.52
49.15
40.1
32.29
26.38
22.42
19.68
16.91
12.89
6.93
-0.78
-9.35
-17.52
-24.3
-29.37
-33.26
-37.1
-42.17
-49.21
-57.95
-66.89
-73.62
-75.6
-70.97
-59.38
-42.18
-22.13
-2.49
13.88
25.29
31.54
33.65
33.34
32.33
31.81
32.2
33.17
33.89
33.49
31.45
27.99
24.08
21.11
20.24
21.75
24.78
27.49
27.78
24.03
15.69
3.3
-11.78
-27.89
-43.2
-55.92
-64.22
-66.56
-62.14
-51.48
-36.6
-20.68
-7.1
1.74
5.18
4.45
1.87
-0.22
-0.52
0.93
3.14
5.01
6.15
7.05
8.66
11.63
15.63
19.32
20.88
18.95
13.19
4.49
-5.5
-15.06
-23.05
-29.11
-33.49
-36.62
-38.7
-39.61
-38.98
-36.52
-32.35
-27.09
-21.85
-17.82
-15.86
-16.03
-17.48
-18.71
-18.04
-14.26
-6.78
4.27
18.41
34.81
52.39
69.56
84.28
94.35
98.16
95.46
87.72
77.75
68.6
62.43
59.56
58.43
56.35
50.6
39.57
23.25
3.29
-17.73
-37.1
-52.89
-64.31
-71.76
-76.45
-79.87
-83.27
-87.3
-91.84
-96.01
-98.45
-97.77
-93.16
-84.79
-73.9
-62.37
-51.9
-43.35
-36.46
-30.19
-23.42
-15.6
-7.01
1.55
9.31
15.91
21.59
26.92
32.43
38.34
44.52
50.52
55.75
59.58
61.48
61.07
58.24
53.21
46.6
39.28
32.27
26.43
22.16
19.08
16.15
11.92
5.15
-4.57
-16.57
-29.19
-40.42
-48.62
-53.2
-54.72
-54.65
-54.66
-55.89
-58.6
-62.03
-64.68
-64.81
-60.92
-52.15
-38.51
-20.93
-1.09
18.92
36.94
51.12
60.25
63.92
62.64
57.78
51.38
45.78
43.06
44.59
50.5
59.67
69.88
78.47
83.03
82.1
75.7
65.27
53.41
42.98
36.19
33.69
34.22
34.9
32.09
22.65
4.97
-20.36
-50.71
-81.95
-109.44
-129.09
-138.19
-136.05
-124.1
-105.49
-84.18
-63.88
-47.01
-34.15
-24.23
-15.31
-5.63
5.58
17.82
29.64
39.36
45.71
48.17
46.95
42.75
36.45
28.96
21.13
13.75
7.42
2.43
-1.31
-4.26
-6.87
-9.34
-11.36
-12.2
-11.12
-7.77
-2.47
3.79
9.77
14.54
17.76
19.76
21.18
22.52
23.84
24.76
24.75
23.47
21.05
17.94
14.71
11.66
8.77
5.75
2.43
-0.97
-3.78
-5.07
-4.26
-1.5
2.14
5.1
6.04
4.49
1.21
-2.12
-3.71
-2.54
1.17
5.94
9.68
10.57
7.77
1.75
-5.92
-13.17
-18.18
-19.89
-18.28
-14.15
-8.74
-3.31
1.18
4.2
5.54
5.3
3.85
1.82
0
-0.76
0.04
2.36
5.54
8.5
10.22
10.19
8.74
6.84
5.76
6.33
8.56
11.53
13.81
14.13
11.95
7.75
2.8
-1.36
-3.51
-3.16
-0.61
3.31
7.61
11.4
14.06
15.34
15.27
14.14
12.34
10.24
8
5.53
2.55
-1.29
-6.22
-12.12
-18.44
-24.16
-28.03
-29.02
-26.74
-21.75
-15.53
-9.97
-6.64
-6.11
-7.81
-10.28
-11.95
-11.73
-9.33
-5.16
0.06
5.49
10.38
14.06
16.05
16.27
15.24
14.09
14.16
16.32
20.43
25.1
28.15
27.42
21.61
10.84
-3.36
-18.52
-32.05
-41.92
-47.24
-48.34
-46.54
-43.7
-41.59
-41.35
-43.28
-46.75
-50.57
-53.36
-53.99
-51.92
-47.23
-40.58
-32.93
-25.3
-18.49
-12.93
-8.65
-5.24
-2.08
1.6
6.39
12.5
19.58
26.8
33.15
37.87
40.85
42.57
43.87
45.34
46.95
48.1
48.03
46.45
43.82
41.32
40.16
41.04
43.74
47.4
50.95
53.74
55.66
57.05
58.31
59.56
60.57
60.91
60.2
58.23
54.88
50.08
43.6
35.21
24.79
12.51
-1.11
-15.26
-28.9
-41.01
-50.63
-57.06
-59.99
-59.64
-56.82
-52.73
-48.73
-45.85
-44.49
-44.4
-44.78
-44.64
-43.16
-39.87
-34.82
-28.58
-22.12
-16.71
-13.64
-13.78
-17.32
-23.53
-31.03
-38.18
-43.7
-47.09
-48.64
-49.12
-49.37
-49.87
-50.71
-51.81
-53.17
-54.9
-57.01
-58.96
-59.5
-56.81
-49.17
-35.69
-16.87
5.4
28.42
49.5
66.69
79.18
87.19
91.57
93.4
93.64
93.03
92.1
91.26
90.77
90.67
90.74
90.41
88.84
85.17
78.86
69.91
58.85
46.55
33.76
20.88
7.95
-5.13
-18.13
-30.33
-40.66
-48.16
-52.46
-53.92
-53.43
-52.04
-50.59
-49.52
-48.97
-48.88
-48.99
-48.88
-47.92
-45.42
-40.84
-34.06
-25.38
-15.48
-5.16
4.86
14.06
22.11
28.86
34.37
38.86
42.63
45.84
48.32
49.55
48.71
45.04
38.14
28.2
16.09
3.06
-9.54
-20.62
-29.61
-36.47
-41.57
-45.48
-48.72
-51.63
-54.29
-56.64
-58.45
-59.35
-58.97
-57
-53.33
-48.2
-42.11
-35.59
-28.95
-22.07
-14.54
-5.93
3.8
14.13
24.13
32.86
39.83
45.15
49.41
53.2
56.77
59.85
61.84
62.22
60.97
58.63
56.18
54.54
54.13
54.63
55.08
54.25
51.11
45.26
36.98
27.1
16.71
6.89
-1.54
-8.12
-12.89
-16.33
-19.25
-22.48
-26.47
-31.06
-35.42
-38.4
-38.99
-36.71
-31.82
-25.15
-17.74
-10.57
-4.29
0.86
5
8.47
11.63
14.65
17.34
19.13
19.24
16.91
11.79
4.02
-5.64
-15.97
-25.65
-33.51
-38.91
-41.85
-42.96
-43.18
-43.46
-44.27
-45.5
-46.47
-46.3
-44.34
-40.37
-34.7
-27.87
-20.42
-12.7
-4.86
2.96
10.49
17.24
22.71
26.56
28.81
29.8
30.04
29.95
29.7
29.19
28.17
26.49
24.21
21.63
19.22
17.43
16.61
16.87
18.1
19.95
21.97
23.63
24.38
23.68
21.11
16.56
10.36
3.35
-3.26
-8.21
-10.59
-10.16
-7.46
-3.53
0.52
3.99
6.78
9.29
12
15.02
17.92
19.88
20.14
18.43
15.09
10.91
6.6
2.4
-2.02
-7.23
-13.55
-20.66
-27.52
-32.76
-35.17
-34.18
-30.03
-23.66
-16.32
-9.29
-3.55
0.3
2.15
2.3
1.34
-0.05
-1.34
-2.25
-2.77
-2.93
-2.56
-1.27
1.4
5.66
11.18
16.98
21.77
24.41
24.43
22.24
18.95
15.92
14.19
14.1
15.18
16.38
16.5
14.58
10.24
3.73
-4.15
-12.26
-19.31
-24.17
-26.02
-24.59
-20.34
-14.36
-8.14
-3.2
-0.64
-0.81
-3.38
-7.49
-12.07
-16.03
-18.55
-19.11
-17.68
-14.75
-11.27
-8.37
-7.02
-7.72
-10.28
-14
-17.94
-21.31
-23.66
-24.81
-24.63
-22.89
-19.2
-13.2
-4.86
5.33
16.3
26.64
35.02
40.49
42.76
42.18
39.54
35.76
31.62
27.65
24.06
20.82
17.76
14.77
11.78
8.77
5.69
2.39
-1.42
-5.95
-11.09
-16.29
-20.58
-22.99
-22.87
-20.21
-15.66
-10.26
-4.99
-0.53
2.84
5.08
6.2
6.2
5.11
3.11
0.54
-2.23
-5
-7.78
-10.67
-13.7
-16.6
-18.89
-20.23
-20.64
-20.67
-21.1
-22.55
-24.88
-27.2
-28.08
-26.21
-21.07
-13.15
-3.82
5.14
12.19
16.39
17.61
16.37
13.54
10
6.39
3.03
-0.07
-3.02
-5.95
-8.85
-11.62
-14.08
-16.07
-17.51
-18.42
-18.94
-19.21
-19.3
-19.1
-18.38
-16.9
-14.57
-11.57
-8.29
-5.17
-2.49
-0.17
2.16
4.95
8.49
12.8
17.62
22.53
27.09
30.92
33.74
35.36
35.76
35.06
33.57
31.57
29.27
26.6
23.32
19.19
14.18
8.62
3.12
-1.73
-5.68
-8.89
-11.86
-15.1
-18.86
-23.05
-27.31
-31.24
-34.61
-37.31
-39.35
-40.73
-41.43
-41.45
-40.89
-39.78
-38
-35.19
-30.84
-24.47
-16.02
-5.93
4.87
15.22
24.08
30.79
35.22
37.68
38.81
39.27
39.58
39.97
40.3
40.2
39.14
36.66
32.47
26.59
19.28
11.03
2.55
-5.42
-12.19
-17.42
-21.21
-24.09
-26.81
-30.02
-33.94
-38.25
-42.34
-45.54
-47.45
-48.04
-47.62
-46.67
-45.66
-44.84
-44.23
-43.47
-41.92
-38.78
-33.42
-25.73
-16.31
-6.34
2.82
10.16
15.35
18.73
20.98
22.73
24.27
25.56
26.55
27.32
28.14
29.23
30.59
31.87
32.57
32.24
30.8
28.54
25.92
23.38
21.16
19.34
17.92
16.89
16.22
15.83
15.49
14.91
13.92
12.58
11.16
10.02
9.46
9.5
9.95
10.4
10.44
9.79
8.42
6.53
4.51
2.74
1.5
0.83
0.51
0.21
-0.37
-1.3
-2.39
-3.3
-3.69
-3.43
-2.66
-1.74
-1.03
-0.73
-0.8
-1.01
-1.13
-1.1
-1.09
-1.39
-2.21
-3.49
-4.89
-5.98
-6.5
-6.55
-6.53
-6.87
-7.72
-8.75
-9.29
-8.67
-6.6
-3.31
0.55
4.25
7.37
9.9
12.14
14.36
16.56
18.39
19.38
19.18
17.75
15.43
12.7
9.92
7.23
4.48
1.4
-2.17
-6.13
-10.16
-13.89
-17.08
-19.76
-22.19
-24.6
-27.05
-29.23
-30.59
-30.58
-28.95
-25.87
-21.87
-17.64
-13.69
-10.2
-7.06
-4.08
-1.12
1.68
4.1
5.94
7.23
8.3
9.55
11.26
13.27
14.99
15.57
14.31
10.99
6.02
0.3
-5.18
-9.72
-13.24
-16.13
-19.05
-22.46
-26.38
-30.36
-33.63
-35.51
-35.63
-34.07
-31.14
-27.25
-22.63
-17.25
-10.99
-3.76
4.33
12.88
21.3
29
35.49
40.46
43.81
45.53
45.71
44.58
42.48
39.81
36.94
34.1
31.29
28.36
25.05
21.14
16.5
11.11
5.08
-1.41
-8
-14.15
-19.27
-22.98
-25.26
-26.61
-27.75
-29.36
-31.64
-34.27
-36.49
-37.45
-36.59
-33.73
-29.05
-22.93
-15.76
-7.91
0.26
8.31
15.78
22.23
27.31
30.89
33.08
34.15
34.5
34.42
34.06
33.32
31.96
29.69
26.3
21.87
16.79
11.65
7.16
3.84
1.81
0.72
-0.15
-1.65
-4.42
-8.52
-13.52
-18.59
-22.97
-26.23
-28.38
-29.73
-30.6
-31.15
-31.33
-31.07
-30.34
-29.34
-28.32
-27.39
-26.4
-24.87
-22.09
-17.45
-10.71
-2.26
6.88
15.27
21.59
25.06
25.81
24.79
23.33
22.53
22.85
24.03
25.38
26.3
26.48
26.03
25.17
24.01
22.44
20.21
17.15
13.37
9.39
5.91
3.66
2.94
3.54
4.65
5.16
4.14
1.2
-3.33
-8.51
-13.23
-16.63
-18.38
-18.69
-18.07
-17.01
-15.86
-14.77
-13.75
-12.81
-11.94
-11.17
-10.47
-9.74
-8.76
-7.3
-5.25
-2.73
-0.1
2.15
3.57
4.02
3.68
3.01
2.48
2.34
2.54
2.86
3.05
3.01
2.81
2.6
2.48
2.48
2.57
2.76
3.09
3.57
4.15
4.65
4.83
4.47
3.52
2.17
0.8
-0.19
-0.53
-0.21
0.54
1.37
2.01
2.38
2.58
2.81
3.2
3.78
4.47
5.24
6.1
7.11
8.26
9.36
10.1
10.2
9.59
8.45
7.17
6.09
5.38
4.98
4.67
4.25
3.64
2.81
1.77
0.41
-1.38
-3.6
-5.96
-7.91
-8.79
-8.09
-5.7
-2.03
2.16
5.97
8.71
10.04
10.03
9.09
7.72
6.46
5.68
5.53
5.83
6.12
5.74
4.16
1.16
-3
-7.62
-11.78
-14.73
-16.16
-16.23
-15.48
-14.49
-13.64
-13
-12.41
-11.68
-10.64
-9.26
-7.59
-5.63
-3.38
-0.83
1.93
4.7
7.18
9.03
10.09
10.36
10
9.25
8.33
7.32
6.3
5.33
4.58
4.23
4.39
4.95
5.54
5.72
5.22
4.19
3.15
2.76
3.48
5.34
7.95
10.74
13.26
15.36
17.2
19.04
21.06
23.26
25.56
27.87
30.1
32.04
33.25
33.08
30.89
26.35
19.72
11.81
3.73
-3.55
-9.56
-14.37
-18.45
-22.25
-26
-29.6
-32.83
-35.47
-37.44
-38.73
-39.32
-39.1
-38.01
-36.07
-33.49
-30.58
-27.69
-25.1
-22.99
-21.42
-20.34
-19.49
-18.44
-16.68
-13.81
-9.85
-5.26
-0.87
2.49
4.3
4.65
4.1
3.4
3.2
3.8
5.16
7.03
9.17
11.4
13.61
15.7
17.43
18.56
18.88
18.35
17.23
15.98
15.09
14.91
15.51
16.65
17.86
18.64
18.58
17.57
15.74
13.37
10.66
7.62
4.01
-0.58
-6.42
-13.47
-21.25
-28.97
-35.82
-41.22
-44.89
-46.87
-47.3
-46.3
-43.98
-40.46
-35.86
-30.26
-23.66
-15.97
-7.08
2.84
13.29
23.35
31.87
37.89
40.91
41.03
38.96
35.66
32.06
28.87
26.45
24.9
24.2
24.25
24.87
25.81
26.69
27.12
26.82
25.7
23.9
21.7
19.32
16.84
14.19
11.18
7.65
3.49
-1.34
-6.79
-12.71
-18.82
-24.68
-29.81
-33.77
-36.26
-37.15
-36.54
-34.64
-31.81
-28.46
-25.05
-21.95
-19.37
-17.28
-15.34
-13.27
-10.87
-8.29
-5.87
-3.92
-2.57
-1.64
-0.74
0.48
2.15
4.12
6
7.27
7.51
6.54
4.49
1.85
-0.72
-2.63
-3.62
-3.91
-4.06
-4.66
-6.02
-8.01
-10.16
-11.87
-12.67
-12.29
-10.7
-8.1
-4.81
-1.34
1.77
4.06
5.33
5.71
5.61
5.52
5.77
6.47
7.48
8.56
9.46
10.02
10.26
10.32
10.48
11.02
12.12
13.74
15.66
17.56
19.01
19.66
19.12
17.09
13.38
8.17
2.12
-3.72
-8.1
-10.13
-9.56
-6.97
-3.51
-0.46
1.26
1.39
0.25
-1.47
-3.08
-4.18
-4.84
-5.49
-6.73
-8.95
-12
-15.13
-17.2
-17.1
-14.3
-9.04
-2.26
4.76
10.78
14.92
16.73
16.17
13.56
9.6
5.22
1.42
-1.1
-2.22
-2.4
-2.37
-2.76
-3.79
-5.31
-7.09
-9.09
-11.47
-14.5
-18.13
-21.91
-25.02
-26.7
-26.66
-25.31
-23.67
-22.92
-23.82
-26.31
-29.51
-32.13
-33.08
-32.12
-30.07
-28.5
-29.05
-32.57
-38.71
-45.99
-52.46
-56.36
-56.84
-54.17
-49.47
-44.36
-40.45
-38.77
-39.41
-41.03
-40.64
-34.13
-17.34
12.13
53.38
101.5
148.35
184.78
203.39
200.95
179.17
144.05
103.9
67
39.49
24.27
20.97
26.69
37.54
49.59
59.78
65.9
66.63
61.74
52.23
40.31
28.67
20.49
17.65
19.75
24.19
28.6
33.46
42.76
62.19
95.63
142.59
198.52
256.65
310.19
354.55
388.23
411.83
426.49
432.94
431.6
421.12
402.61
378.53
351.27
321.55
287.49
245.51
192.57
128.42
56.65
-15.93
-82
-136.13
-176.09
-202.74
-218.69
-226.72
-228.87
-226.35
-220.06
-211.42
-202.58
-195.98
-193.82
-197.29
-206.26
-219.5
-235.35
-252.16
-269.11
-286.2
-304.01
-323.43
-345.28
-370.36
-399.24
-431.52
-464.91
-495.18
-516.99
-526.12
-521.36
-505.24
-482.89
-459.56
-438.3
-419.05
-399.67
-377.77
-352.36
-324.02
-293.85
-262.27
-228.34
-190.4
-147.3
-99.39
-48.82
1.12
46.85
85.7
116.48
139.93
158.35
174.98
193.16
215.56
243.77
277.68
314.94
350.47
376.83
385.74
370.88
330.63
269.58
197.68
127.02
67.71
24.58
-3.5
-21.75
-36.12
-50.28
-64.43
-76.12
-82.29
-81.1
-72.64
-58.36
-39.88
-18.18
6.54
33.74
61.81
87.35
106.29
115.4
114.11
105
92.81
82.53
77.3
77.37
80.43
83.23
83.26
79.87
74.13
68.04
63.44
61.34
61.87
64.47
68.3
72.39
75.81
77.84
78.26
77.49
76.62
77.08
80.07
85.98
94.12
102.76
109.98
113.94
113.7
108.82
99.39
85.56
67.46
45.57
21.18
-3.5
-25.76
-43.3
-55.3
-62.55
-66.93
-70.05
-72.19
-72.26
-68.59
-60.47
-49.03
-37.02
-27.39
-21.69
-19.27
-17.83
-14.94
-9.48
-2.07
5.56
11.82
16.15
18.87
20.53
21.23
20.48
17.7
12.93
7.09
1.74
-1.63
-2.27
-0.41
3.01
6.78
9.79
11.26
10.88
8.86
5.75
2.24
-1.18
-4.35
-7.33
-10.13
-12.45
-13.74
-13.53
-11.74
-8.87
-5.72
-3.03
-1.03
0.56
2.28
4.48
6.93
8.9
9.44
7.93
4.39
-0.49
-5.68
-10.28
-13.9
-16.69
-19.08
-21.44
-23.7
-25.41
-25.91
-24.72
-21.85
-17.89
-13.8
-10.57
-8.86
-8.7
-9.5
-10.39
-10.47
-9.25
-6.76
-3.43
0.1
3.28
5.65
6.88
6.75
5.22
2.67
-0.07
-1.82
-1.43
1.64
6.93
13.01
17.97
20.1
18.7
14.29
8.36
2.67
-1.49
-3.68
-4.31
-4.23
-4.18
-4.55
-5.36
-6.37
-7.36
-8.2
-8.84
-9.25
-9.33
-8.95
-8.07
-6.8
-5.47
-4.47
-4.13
-4.59
-5.73
-7.15
-8.36
-8.77
-7.97
-5.83
-2.51
1.62
6.04
10.24
13.82
16.48
17.99
18.27
17.29
15.22
12.42
9.41
6.66
4.47
2.84
1.55
0.3
-1.1
-2.66
-4.21
-5.52
-6.32
-6.39
-5.64
-4.13
-2.19
-0.28
1.16
1.91
2.03
1.79
1.47
1.26
1.16
1.17
1.27
1.5
1.91
2.43
2.97
3.34
3.47
3.39
3.23
3.07
2.9
2.63
2.2
1.65
1.12
0.79
0.76
1.04
1.48
1.89
2.1
2.07
1.84
1.55
1.34
1.29
1.43
1.74
2.17
2.73
3.39
4.14
4.9
5.46
5.59
5
3.5
1.14
-1.81
-4.9
-7.56
-9.32
-9.97
-9.57
-8.43
-6.87
-5.13
-3.28
-1.34
0.7
2.68
4.34
5.5
6.08
6.25
6.3
6.43
6.67
6.85
6.76
6.21
5.19
3.77
2.14
0.47
-1.04
-2.17
-2.67
-2.48
-1.77
-1.02
-0.81
-1.57
-3.35
-5.75
-8.12
-9.89
-10.8
-10.97
-10.77
-10.63
-10.8
-11.26
-11.79
-11.98
-11.49
-10.11
-7.95
-5.34
-2.86
-1.02
-0.12
-0.1
-0.63
-1.25
-1.61
-1.6
-1.3
-0.98
-0.86
-1.03
-1.46
-2.08
-2.84
-3.78
-4.94
-6.28
-7.56
-8.33
-8.12
-6.59
-3.77
-0.1
3.64
6.64
8.38
8.87
8.65
8.52
9.15
10.72
12.8
14.6
15.42
15.07
13.97
12.96
12.8
13.8
15.69
17.79
19.41
20.09
19.68
18.24
15.92
12.91
9.52
6.18
3.39
1.56
0.77
0.74
0.95
0.85
0.09
-1.35
-3.17
-4.92
-6.1
-6.42
-5.85
-4.61
-3.05
-1.56
-0.36
0.52
1.2
1.82
2.37
2.76
2.85
2.58
2.05
1.46
1.01
0.77
0.72
0.76
0.89
1.14
1.66
2.5
3.62
4.84
5.84
6.35
6.16
5.26
3.79
2.04
0.32
-1.19
-2.4
-3.32
-3.95
-4.2
-3.87
-2.87
-1.3
0.45
1.77
2.1
1.2
-0.68
-2.82
-4.28
-4.21
-2.15
1.75
6.74
11.73
15.68
17.98
18.72
18.6
18.59
19.59
22.05
25.94
30.89
36.35
41.8
46.67
50.3
51.91
50.75
46.28
38.4
27.46
14.2
-0.42
-15.36
-29.54
-42.01
-51.97
-59.16
-63.87
-67.05
-70.12
-74.49
-81.09
-89.89
-99.69
-108.23
-112.69
-110.26
-98.99
-78.3
-49.28
-14.48
22.61
58.37
89.71
114.64
132.38
143.16
147.82
147.4
142.8
134.67
123.24
108.41
89.82
67.16
40.73
11.86
-17.1
-43.37
-64.46
-78.96
-86.8
-88.83
-85.92
-78.34
-65.9
-48.73
-28.23
-7.24
10.44
21.44
23.95
18.2
6.2
-9.22
-25.26
-39.8
-51.44
-59.45
-63.59
-64.04
-61.32
-56.21
-49.5
-41.67
-32.76
-22.67
-11.64
-0.61
8.85
14.96
16.83
14.95
11.17
7.76
6.18
6.37
7.02
6.71
5.07
3.27
3.14
5.79
10.42
14.41
14.65
9.46
-0.27
-11.27
-19.39
-21.67
-17.66
-9.57
-0.95
5.14
7.61
7.57
7.48
9.65
14.96
22.41
29.7
34.34
34.78
31.05
24.68
18.07
13.75
13.65
18.62
28.32
41.29
55.29
67.83
76.84
81.14
80.66
76.23
69.26
61.2
53.08
45.21
37.21
28.16
17.14
3.82
-11.11
-25.85
-38.02
-45.55
-47.46
-44.19
-37.31
-28.82
-20.43
-13.34
-8.33
-5.88
-6.26
-9.24
-13.96
-19.1
-23.47
-26.67
-29.48
-33.5
-40.29
-50.44
-63.08
-76.04
-86.55
-92.18
-91.59
-84.84
-73.23
-58.76
-43.44
-28.78
-15.51
-3.81
6.37
14.96
21.71
26.41
29.2
30.6
31.4
32.2
32.97
33.14
31.82
28.38
22.95
16.58
10.99
7.88
8.33
12.2
18.19
24.37
28.85
30.59
29.59
26.64
22.77
18.63
14.29
9.35
3.47
-3.31
-10.45
-17.16
-22.77
-26.97
-29.89
-31.98
-33.7
-35.32
-36.78
-37.65
-37.31
-35.31
-31.64
-26.87
-22.02
-18.18
-16.06
-15.74
-16.81
-18.62
-20.72
-22.94
-25.24
-27.44
-28.96
-28.91
-26.43
-21.12
-13.31
-4
5.49
13.85
20.1
23.77
24.89
23.94
21.68
18.83
15.74
12.34
8.16
2.7
-4.11
-11.72
-18.93
-24.37
-27
-26.56
-23.6
-19.35
-15.22
-12.4
-11.49
-12.45
-14.53
-16.56
-17.43
-16.5
-14.16
-11.8
-11.59
-15.73
-25.46
-39.85
-55.45
-66.72
-67.29
-52.1
-19.4
27.97
82.92
136.2
179.43
207.61
220.06
219.48
209.79
194.07
173.59
148.28
118.02
83.84
48.19
14.3
-14.91
-37.82
-54.28
-65.29
-72.29
-76.43
-78.36
-78.07
-75.09
-68.95
-59.8
-48.45
-36.14
-24.22
-13.61
-4.84
1.83
6.13
7.74
6.4
2.2
-4.4
-12.61
-21.66
-30.96
-40.04
-48.53
-56.12
-62.62
-68.11
-72.92
-77.32
-81.59
-85.8
-89.68
-92.7
-94.17
-93.52
-90.45
-85.16
-77.78
-68.93
-59.28
-49.21
-38.75
-27.63
-15.32
-0.85
17.06
40.87
72.47
112.79
161.02
214.09
267.11
314.78
352.86
378.96
393.75
398.18
393.22
379.73
358.9
332.89
305.17
279.69
252.9
222.23
184.52
138.61
87.33
36.98
-5.15
-33.61
-47.34
-49.41
-41.44
-27.72
-11.44
6.41
25.21
43.6
60.08
72.91
78.39
77.07
70.25
58.68
41.77
16.18
-21.81
-74.39
-140.3
-214.18
-287.52
-353.07
-406.54
-446.32
-470.18
-479.15
-469.13
-438.14
-386.55
-317.06
-235.86
-157.81
-89.11
-32.28
11.61
42.81
63.26
74.01
76.42
71.76
61.33
47.32
30.16
8.3
-20.29
-57.29
-102.05
-150.07
-193.88
-225.12
-236.75
-227.38
-201.8
-168.82
-138.8
-120.49
-118.84
-134.6
-164.35
-200.61
-233.98
-254.98
-256.21
-234.95
-194.47
-142.99
-90.89
-47.06
-16.07
2.05
10.49
13.57
14.72
15.99
18.68
24.06
33.56
48.27
67.86
90.29
112.28
130.52
143.06
149.89
152.63
153.59
154.48
155.99
157.8
159.29
160.06
160.29
160.56
161.54
163.48
165.98
167.83
167.16
162
151.11
134.51
113.69
91.21
69.75
51.26
36.34
24.32
13.86
3.82
-6.19
-15.7
-23.99
-30.79
-36.73
-43.19
-51.65
-62.85
-76.11
-89.32
-99.3
-102.8
-97.61
-83.68
-63.56
-42.06
-24.86
-16.68
-19.52
-31.77
-48.74
-64.22
-72.69
-70.99
-59.08
-39.55
-16.19
7.45
29.03
47.66
63.39
76.44
86.57
93.09
95.18
92.59
86.03
77.21
68.22
60.91
56.49
55.42
57.68
62.99
70.84
80.25
89.82
97.84
102.93
104.59
103.42
100.84
98.38
96.86
95.89
94.02
89.24
79.72
64.48
43.55
17.92
-10.76
-40.42
-68.85
-94.02
-114.5
-130.06
-141.9
-152.54
-165
-181.52
-202.36
-225.3
-246.04
-259.68
-262.3
-252.28
-230.57
-199.95
-163.87
-125.24
-85.98
-47.18
-9.6
25.82
57.83
85.15
106.81
122.45
132.25
136.69
136.3
131.47
122.58
110.29
95.68
80.29
65.81
53.72
44.86
39.33
36.53
35.48
35.12
34.59
33.39
31.37
28.84
26.48
25.28
26.12
29.29
34.04
38.62
40.93
39.57
34.66
27.89
21.78
18.4
18.5
21.34
25.37
29.18
32.17
34.52
36.64
38.64
40.09
40.27
38.71
35.51
31.29
26.81
22.59
18.57
14.21
8.85
2.04
-6.11
-15
-23.78
-31.72
-38.41
-43.83
-48.03
-51
-52.58
-52.62
-51.29
-49.23
-47.41
-46.68
-47.27
-48.68
-49.89
-50.1
-49.25
-48.16
-48.03
-49.65
-52.63
-55.5
-56.26
-53.45
-46.89
-37.77
-27.96
-19.03
-11.56
-5.04
1.55
8.98
17.37
26.23
34.87
42.67
49.11
53.65
55.58
54.23
49.34
41.33
31.38
20.97
11.44
3.53
-2.58
-7.06
-10.07
-11.6
-11.51
-9.73
-6.39
-1.84
3.4
8.73
13.54
17.35
20.01
21.83
23.48
25.65
28.6
31.9
34.53
35.38
33.8
30
24.96
19.95
16
13.54
12.51
12.65
13.77
15.84
18.85
22.52
26.26
29.33
31.07
31.22
29.91
27.58
24.7
21.65
18.6
15.57
12.5
9.24
5.68
1.77
-2.32
-6.22
-9.38
-11.3
-11.79
-11.07
-9.78
-8.58
-7.85
-7.5
-7.02
-5.82
-3.56
-0.34
3.37
6.91
9.73
11.43
11.79
10.75
8.37
4.93
0.8
-3.51
-7.55
-11.01
-13.81
-16.01
-17.76
-19.19
-20.43
-21.62
-22.87
-24.29
-25.96
-27.91
-30.12
-32.51
-34.83
-36.7
-37.65
-37.29
-35.53
-32.72
-29.55
-26.79
-24.88
-23.73
-22.73
-21.09
-18.29
-14.37
-9.89
-5.66
-2.37
-0.19
1.15
2.23
3.58
5.53
8.06
11.01
14.17
17.38
20.52
23.44
25.83
27.28
27.41
26.04
23.33
19.81
16.19
13.18
11.22
10.28
9.98
9.7
8.95
7.56
5.74
3.99
2.89
2.8
3.76
5.44
7.35
8.99
10.01
10.3
9.98
9.29
8.48
7.73
7.13
6.65
6.14
5.44
4.44
3.21
1.98
1.02
0.51
0.31
0.05
-0.77
-2.46
-4.97
-7.83
-10.38
-12.04
-12.55
-12.01
-10.82
-9.39
-8.02
-6.69
-5.19
-3.2
-0.56
2.57
5.7
8.15
9.42
9.41
8.51
7.36
6.48
5.99
5.59
4.89
3.67
2.11
0.57
-0.58
-1.25
-1.53
-1.57
-1.42
-0.98
-0.16
0.99
2.24
3.36
4.25
4.98
5.69
6.34
6.73
6.57
5.74
4.4
2.93
1.74
0.95
0.42
-0.17
-0.96
-1.79
-2.2
-1.83
-0.65
0.91
2.15
2.49
1.78
0.29
-1.44
-2.85
-3.67
-3.85
-3.5
-2.8
-1.92
-1.1
-0.61
-0.61
-1.06
-1.67
-2.03
-1.83
-1.08
-0.05
0.84
1.26
1.12
0.5
-0.43
-1.51
-2.6
-3.53
-4.02
-3.88
-3.04
-1.68
-0.14
1.22
2.18
2.72
3.01
3.29
3.75
4.43
5.22
5.9
6.22
5.98
5.12
3.82
2.39
1.17
0.41
0.14
0.22
0.44
0.62
0.62
0.36
-0.27
-1.35
-2.82
-4.44
-5.8
-6.51
-6.46
-5.91
-5.43
-5.62
-6.76
-8.59
-10.43
-11.44
-11.04
-9.13
-6.05
-2.38
1.36
4.95
8.49
12.21
16.29
20.65
24.97
28.79
31.69
33.42
33.96
33.44
32.02
29.82
26.93
23.42
19.44
15.21
10.93
6.73
2.53
-1.83
-6.53
-11.58
-16.83
-21.92
-26.46
-30.12
-32.74
-34.46
-35.58
-36.5
-37.46
-38.4
-38.89
-38.27
-35.91
-31.6
-25.76
-19.41
-13.88
-10.33
-9.39
-10.91
-14.11
-17.94
-21.46
-24.06
-25.58
-26.19
-26.24
-26.11
-25.99
-25.87
-25.45
-24.17
-21.36
-16.5
-9.52
-0.97
8.05
16.24
22.5
26.27
27.65
27.34
26.36
25.8
26.57
29.09
33.16
37.92
42.12
44.51
44.29
41.39
36.48
30.59
24.68
19.29
14.41
9.72
4.83
-0.45
-5.97
-11.35
-16.1
-19.81
-22.28
-23.55
-23.81
-23.32
-22.29
-20.9
-19.35
-17.96
-17.17
-17.4
-18.85
-21.36
-24.35
-27.12
-29.05
-29.85
-29.6
-28.58
-27.12
-25.46
-23.77
-22.18
-20.71
-19.25
-17.38
-14.5
-9.97
-3.48
4.73
13.93
23.1
31.27
37.79
42.32
44.82
45.47
44.63
42.76
40.34
37.65
34.66
31
26.17
19.9
12.4
4.33
-3.51
-10.52
-16.54
-21.69
-26.14
-29.76
-32.13
-32.8
-31.58
-28.86
-25.39
-22.04
-19.36
-17.32
-15.43
-12.99
-9.4
-4.4
1.91
9.2
16.96
24.59
31.46
36.96
40.65
42.41
42.49
41.39
39.56
37.24
34.33
30.53
25.66
19.85
13.57
7.5
2.22
-2
-5.23
-7.75
-9.86
-11.74
-13.44
-14.83
-15.8
-16.24
-16.12
-15.59
-14.88
-14.28
-14.06
-14.35
-15
-15.69
-16.02
-15.72
-14.76
-13.35
-11.74
-10.01
-7.97
-5.22
-1.45
3.33
8.74
14.17
19.17
23.72
28.25
33.32
39.13
45.24
50.74
54.64
56.37
56.1
54.48
52.29
49.97
47.5
44.51
40.67
36
30.95
26.28
22.67
20.48
19.58
19.36
18.97
17.58
14.51
9.39
2.1
-7.34
-18.87
-32.41
-47.76
-64.52
-81.99
-99.25
-115.34
-129.41
-140.86
-149.21
-154.07
-155.08
-151.95
-144.77
-134.11
-121.07
-107.02
-93.08
-79.78
-66.9
-53.8
-39.94
-25.23
-10.16
4.47
17.88
29.69
39.8
48.26
55.01
59.79
62.26
62.3
60.17
56.65
52.85
49.91
48.71
49.55
52.13
55.6
58.88
60.99
61.36
59.88
56.78
52.35
46.81
40.22
32.68
24.47
16.19
8.59
2.29
-2.5
-5.96
-8.5
-10.36
-11.43
-11.39
-9.96
-7.3
-4.1
-1.23
0.63
1.29
1.07
0.44
-0.36
-1.49
-3.27
-5.93
-9.22
-12.51
-15.15
-16.73
-17.36
-17.55
-17.88
-18.61
-19.63
-20.4
-20.36
-19.2
-16.99
-14.23
-11.52
-9.25
-7.4
-5.59
-3.29
-0.3
3.01
5.75
6.78
5.31
1.38
-4.11
-9.73
-14.18
-16.83
-17.94
-18.34
-18.91
-20.09
-21.67
-22.97
-23.22
-21.97
-19.14
-15.14
-10.6
-6.21
-2.5
0.36
2.67
5.26
9.21
15.49
24.54
35.98
48.68
61.06
71.51
78.77
82.11
81.44
77.16
70.08
61.19
51.47
41.74
32.53
24.11
16.48
9.52
3.02
-3.27
-9.5
-15.68
-21.62
-26.85
-30.83
-33.07
-33.37
-31.96
-29.39
-26.42
-23.71
-21.61
-20.08
-18.68
-16.92
-14.47
-11.36
-8.03
-5.05
-2.91
-1.83
-1.72
-2.34
-3.41
-4.75
-6.28
-7.98
-9.82
-11.73
-13.53
-14.94
-15.61
-15.19
-13.5
-10.62
-6.92
-2.87
1.12
4.9
8.48
11.82
14.67
16.51
16.78
15.19
11.93
7.7
3.36
-0.37
-3.25
-5.4
-7.14
-8.69
-9.92
-10.52
-10.14
-8.76
-6.76
-4.76
-3.35
-2.78
-2.9
-3.34
-3.72
-3.86
-3.77
-3.49
-2.9
-1.75
0.25
3.14
6.57
9.86
12.3
13.44
13.22
11.96
10.11
8.01
5.75
3.28
0.52
-2.44
-5.37
-7.96
-9.98
-11.38
-12.28
-12.83
-13.12
-13.12
-12.72
-11.74
-10.07
-7.67
-4.56
-0.87
3.18
7.18
10.69
13.24
14.58
14.72
13.96
12.78
11.62
10.76
10.28
10.19
10.37
10.82
11.55
12.61
14.02
15.75
17.71
19.8
21.88
23.71
25.03
25.57
25.24
24.15
22.61
20.96
19.36
17.67
15.48
12.34
7.99
2.58
-3.34
-9.08
-14.03
-17.95
-20.89
-23.09
-24.73
-25.87
-26.45
-26.4
-25.77
-24.69
-23.25
-21.4
-18.94
-15.63
-11.4
-6.53
-1.51
3.05
6.7
9.17
10.4
10.4
9.26
7.14
4.36
1.42
-1.17
-2.99
-3.88
-3.94
-3.58
-3.31
-3.58
-4.64
-6.5
-8.87
-11.34
-13.53
-15.21
-16.41
-17.34
-18.18
-18.99
-19.65
-19.93
-19.62
-18.65
-17.07
-14.99
-12.51
-9.59
-6.15
-2.19
2.16
6.55
10.51
13.62
15.65
16.59
16.59
15.81
14.3
12
8.83
4.85
0.35
-4.22
-8.36
-11.75
-14.32
-16.21
-17.62
-18.61
-19.02
-18.52
-16.76
-13.6
-9.23
-4.2
0.8
5.19
8.62
11.13
12.96
14.45
15.84
17.2
18.44
19.41
19.95
19.97
19.42
18.33
16.79
15.01
13.29
12.02
11.64
12.43
14.51
17.75
21.84
26.43
31.12
35.6
39.48
42.41
44.03
44.12
42.64
39.72
35.62
30.61
24.87
18.51
11.62
4.29
-3.35
-11.09
-18.75
-26.09
-32.77
-38.43
-42.69
-45.27
-46.08
-45.25
-43.13
-40.13
-36.7
-33.16
-29.67
-26.19
-22.46
-18.15
-12.88
-6.43
1.19
9.62
18.19
25.98
32.07
35.76
36.74
35.2
31.75
27.2
22.32
17.66
13.43
9.49
5.46
0.96
-4.26
-10.11
-16.22
-21.98
-26.88
-30.59
-33.16
-34.88
-36.12
-37.11
-37.87
-38.17
-37.63
-35.86
-32.55
-27.56
-20.98
-13.03
-4.11
5.32
14.65
23.28
30.59
36.12
39.7
41.5
41.99
41.77
41.32
40.86
40.36
39.55
38.18
36.07
33.14
29.44
25.07
20.14
14.83
9.35
3.97
-1.01
-5.26
-8.51
-10.59
-11.45
-11.17
-9.86
-7.57
-4.27
0.01
5.09
10.53
15.68
19.96
23.02
24.94
26.03
26.71
27.21
27.48
27.25
26.19
24.03
20.71
16.28
10.91
4.84
-1.6
-8.02
-14.01
-19.17
-23.24
-26.07
-27.64
-27.99
-27.18
-25.28
-22.4
-18.82
-14.97
-11.42
-8.74
-7.28
-7.06
-7.7
-8.63
-9.24
-9.21
-8.56
-7.62
-6.85
-6.63
-7.1
-8.13
-9.44
-10.65
-11.46
-11.61
-11.01
-9.7
-7.84
-5.64
-3.32
-1.04
1.07
2.9
4.35
5.34
5.88
6.14
6.4
6.94
7.9
9.22
10.63
11.82
12.57
12.83
12.81
12.77
12.94
13.39
14
14.58
14.92
14.87
14.41
13.58
12.43
11.07
9.64
8.37
7.52
7.36
7.98
9.2
10.51
11.15
10.46
8.08
4.21
-0.38
-4.66
-7.74
-9.31
-9.76
-10.06
-11.25
-13.98
-18.28
-23.71
-29.76
-36.22
-43.09
-50.29
-57.27
-62.87
-65.83
-65.35
-61.58
-55.55
-48.61
-41.76
-35.34
-29.18
-23.12
-17.41
-12.63
-9.3
-7.39
-6.25
-4.82
-2.26
1.71
6.68
11.84
16.35
19.62
21.46
21.92
21.19
19.45
16.86
13.6
9.86
5.9
2.04
-1.45
-4.29
-6.33
-7.5
-7.85
-7.53
-6.77
-5.82
-4.96
-4.37
-4.05
-3.84
-3.55
-3.11
-2.61
-2.3
-2.4
-2.95
-3.75
-4.44
-4.66
-4.25
-3.3
-2.1
-1.05
-0.5
-0.63
-1.4
-2.48
-3.41
-3.72
-3.18
-1.86
-0.07
1.89
3.94
6.35
9.55
13.81
19.05
24.75
30.19
34.68
37.73
39.06
38.52
36.11
31.99
26.62
20.69
15
10.16
6.42
3.64
1.51
-0.25
-1.69
-2.71
-3.23
-3.3
-3.16
-3.07
-3.16
-3.36
-3.52
-3.53
-3.37
-3.09
-2.7
-2.11
-1.22
-0.08
1.06
1.79
1.75
0.88
-0.59
-2.23
-3.67
-4.81
-5.79
-6.8
-7.9
-8.91
-9.53
-9.5
-8.78
-7.53
-6.05
-4.6
-3.3
-2.1
-0.83
0.69
2.58
4.86
7.42
10.12
12.83
15.47
18.03
20.32
22.07
22.8
22.09
19.76
16.11
11.88
7.98
5.17
3.7
3.25
3.08
2.4
0.62
-2.35
-6.23
-10.41
-14.23
-17.17
-18.98
-19.71
-19.57
-18.77
-17.42
-15.48
-12.89
-9.71
-6.27
-3.1
-0.81
0.2
-0.14
-1.52
-3.41
-5.19
-6.42
-6.91
-6.73
-6.15
-5.56
-5.25
-5.35
-5.75
-6.17
-6.31
-5.98
-5.21
-4.2
-3.24
-2.53
-2.11
-1.9
-1.83
-1.97
-2.56
-3.82
-5.8
-8.32
-11.02
-13.66
-16.31
-19.34
-23.1
-27.48
-31.72
-34.61
-34.97
-32.25
-26.88
-20.11
-13.52
-8.5
-5.83
-5.63
-7.52
-10.8
-14.66
-18.29
-21.03
-22.49
-22.64
-21.8
-20.51
-19.27
-18.38
-17.95
-17.9
-18.09
-18.28
-18.09
-16.93
-14.1
-9.04
-1.53
8.18
19.54
31.89
44.67
57.35
69.27
79.45
86.71
89.98
88.85
83.82
76.34
68.21
61.03
55.7
52.25
50.19
48.99
48.45
48.64
49.52
50.33
49.61
45.59
37.13
24.49
9.52
-5.13
-17.24
-25.92
-31.8
-35.99
-39.3
-41.66
-42.44
-41.25
-38.55
-35.72
-34.44
-35.86
-39.69
-44.84
-50.01
-54.46
-58.18
-61.59
-65.02
-68.29
-70.59
-69.95
-64.56
-53.6
-37.9
-19.88
-2.37
12.8
25.88
39.08
56.4
81.15
114.77
156.66
204.79
256.6
309.48
360.44
398.71
413.03
394.12
339.56
256.54
159.94
66.09
-13.21
-73.44
-116.38
-145.8
-165.19
-176.4
-180.22
-177.66
-170.8
-162.49
-155.37
-151.02
-148.98
-147.66
-145.14
-140.17
-132.57
-123.11
-112.89
-102.84
-93.51
-84.64
-75.8
-66.65
-57.12
-47.76
-39.69
-34.33
-32.7
-34.76
-38.77
-41.84
-41.05
-34.83
-23.79
-10.44
2.01
10.94
15.19
15.05
11.68
6.5
0.86
-3.91
-6.57
-6.24
-2.84
2.73
8.82
13.88
17.24
19.29
21.15
23.87
27.88
32.75
37.58
41.46
43.57
43.64
42.08
39.12
35.06
30.07
24.14
17.27
9.69
1.97
-4.9
-9.78
-11.75
-10.5
-6.53
-0.98
4.71
9.41
12.36
13.28
11.93
8.31
2.56
-4.81
-12.79
-20.11
-25.6
-28.65
-29.33
-28.34
-26.34
-23.73
-20.61
-17.04
-13.26
-9.75
-6.97
-5.21
-4.51
-4.63
-5.27
-6.12
-6.93
-7.55
-8.03
-8.52
-9.26
-10.46
-12.06
-13.68
-14.84
-15.15
-14.56
-13.43
-12.13
-10.77
-9
-6.1
-1.44
4.96
12.36
19.46
24.85
27.74
27.88
25.37
20.29
12.75
2.59
-10.37
-25.52
-41.05
-53.92
-61.76
-64.07
-62.24
-58.36
-53.36
-45.69
-31.9
-8.74
24.47
63.52
100.66
128.24
142.18
143.31
135.86
124.47
111.9
98.94
84.05
65.51
42.72
16.23
-13.25
-45.95
-83.05
-125.63
-168.28
-201.73
-216.88
-210.89
-188.13
-156.04
-121.31
-88.43
-62.49
-43.05
-31.35
-29.55
-39.03
-58.66
-84.41
-110.57
-129.33
-134.51
-122.5
-94.86
-57.38
-18.07
15.65
39.34
52.38
57.26
57.71
57.2
56.69
55.27
51.61
45.58
38.76
33.69
32.31
34.76
39.74
44.79
48.03
48.98
48.46
47.69
47.23
46.57
44.42
39.83
32.5
23.11
12.95
3.37
-4.79
-11.33
-16.79
-22.04
-28.01
-35.29
-43.87
-53.11
-61.87
-69.04
-74.01
-76.97
-78.89
-81.17
-85.04
-91.15
-99.56
-109.7
-120.64
-131.18
-139.9
-145.18
-145.43
-139.44
-126.87
-108.48
-86.11
-61.92
-37.62
-13.7
10.53
36.35
64.6
95.06
126.62
158.03
188.88
219.44
249.6
277.5
299.24
310.32
308.22
294.35
273.95
253.92
239.68
233.34
233.67
237.49
241.53
243.09
239.81
229.25
209.14
178.18
136.88
87.86
35.47
-14.99
-57.88
-87.96
-101.43
-97.16
-77.49
-47.68
-13.86
19.11
49.04
75.47
97.58
112.5
115.18
100.31
65
10.66
-56.88
-128.75
-195.24
-247.76
-280.26
-290.36
-279.59
-253.18
-218.65
-183.87
-154.72
-133.75
-120.18
-111.42
-105.16
-100.96
-100.68
-107.48
-124.12
-151.21
-186.65
-226.22
-265.19
-300.02
-328.95
-351.54
-367.23
-374.42
-370.6
-353.75
-323.96
-284.14
-239.4
-194.84
-153.46
-114.9
-76.07
-32.86
17.9
77.42
145.29
220.29
300.93
384.96
468.36
544.59
605.28
642.44
651.36
632.74
592.9
541.86
490.18
446.19
414.32
395.14
386.33
383.59
381.53
374.09
355.49
321.5
271.1
207.58
138.3
72.6
18.35
-21.09
-48.04
-68.83
-90.26
-115.71
-143.28
-166.72
-178.89
-175.75
-158.33
-132.46
-106.11
-86.39
-77.4
-79.86
-91.94
-110.31
-131.45
-151.95
-169.45
-182.72
-191.7
-197.23
-200.93
-205.25
-213.44
-229.07
-254.54
-289.39
-328.84
-364.24
-385.23
-383.64
-356.52
-307.07
-242.72
-171.38
-98.54
-26.47
44.08
111.28
170.29
213.68
234.06
227.53
195.98
146.71
89.62
33.64
-15.38
-55.82
-89.74
-121.04
-152.97
-186.3
-218.66
-245.4
-261.44
-262.19
-245.82
-214.25
-172.7
-127.51
-83.85
-44.61
-10.76
17.51
41.42
62.81
83.88
106.85
134.42
169.31
213.79
268.85
322.96
360.31
367.38
340.37
285.02
212.33
134.34
62.51
5.9
-31.36
-48.56
-48.24
-34.67
-12.81
13.63
41.8
68.45
90.07
102.48
103.34
92.15
70.46
38.1
1.35
-33.19
-61.01
-80.51
-93.46
-102.2
-108.51
-112.99
-115.47
-115.39
-113.26
-111.57
-110.03
-108.1
-104.5
-98.09
-88.48
-76.35
-62.8
-49.39
-37.29
-26.86
-18.62
-13
-10.38
-10.89
-14.02
-18.64
-23.81
-28.72
-32.76
-35.9
-38.02
-38.55
-36.34
-29.85
-17.83
-0.1
22.31
47.45
72.8
96.02
115.35
129.78
139.03
143.33
143.17
139.08
131.54
120.73
106.64
89.39
69.43
47.81
26.11
6.15
-10.51
-23.03
-31.41
-36.23
-38.34
-38.55
-37.61
-36.25
-35.15
-34.71
-34.93
-35.23
-34.69
-32.48
-28.26
-22.43
-16.03
-10.3
-6.39
-5.21
-7.17
-12.18
-19.53
-27.83
-35.21
-39.88
-40.79
-38.04
-32.78
-26.67
-21.09
-16.62
-12.83
-8.68
-3.05
4.72
14.56
25.63
36.54
45.74
51.87
54.19
52.7
48.11
41.63
34.51
27.78
22.11
17.89
15.4
14.9
16.49
19.82
23.8
26.62
26.14
20.76
10.21
-4.28
-20.27
-35.12
-46.67
-53.72
-55.87
-53.01
-45.09
-32.22
-15.09
4.7
24.69
42.26
55.31
62.84
64.87
62.17
55.73
46.69
36.47
26.62
18.74
14.02
12.59
13.34
14.11
12.49
6.47
-5.04
-22.19
-44.03
-68.34
-91.75
-110.09
-119.59
-118.19
-106.6
-88.13
-67.68
-49.83
-37.52
-31.52
-30.86
-33.6
-37.54
-40.56
-40.71
-36.48
-27.01
-12.56
5.39
24.6
42.35
56.01
63.71
64.92
60.84
54.09
47.95
44.99
46.11
50.16
54.73
57.48
57.28
54.51
50.44
46.31
42.6
39.13
35.43
31.38
27.41
24.11
21.75
19.88
17.39
12.87
5.21
-5.96
-20.24
-36.55
-53.6
-69.98
-84.3
-95.1
-101.02
-100.93
-94.37
-81.76
-64.42
-44.39
-23.85
-4.79
11.42
24.11
33.32
39.65
43.96
47.12
49.7
51.9
53.53
54.37
54.28
53.27
51.37
48.57
44.77
39.98
34.45
28.77
23.61
19.53
16.65
14.79
13.55
12.54
11.53
10.37
8.8
6.46
2.96
-1.95
-8.02
-14.57
-20.63
-25.27
-27.98
-28.89
-28.73
-28.51
-29.24
-31.64
-36.07
-42.53
-50.67
-59.8
-68.77
-76.12
-80.26
-79.99
-74.99
-65.89
-54.15
-41.54
-29.6
-19.24
-10.72
-3.8
1.91
6.76
10.93
14.52
17.69
20.73
24.06
28.1
33.01
38.54
43.98
48.3
50.47
49.83
46.39
40.75
33.92
26.96
20.59
15.15
10.65
7
4.15
2.06
0.58
-0.7
-2.38
-5.09
-9.12
-14.16
-19.36
-23.6
-25.94
-25.91
-23.65
-19.75
-15.3
-11.74
-10.97
-15.12
-25.85
-43.41
-65.89
-89.07
-107.44
-115.93
-111.62
-94.71
