2023-01-28 15:36:30.078934,0.1350597590208053
2023-01-28 15:36:30.083934,0.16257045103016474
2023-01-28 15:36:30.088934,0.1563596725463867
2023-01-28 15:36:30.093934,0.15574090038089672
2023-01-28 15:36:30.098934,0.17167350649833674
2023-01-28 15:36:30.103934,0.18250002597689036
2023-01-28 15:36:30.108934,0.17792403697967513
2023-01-28 15:36:30.113934,0.17202480810851803
2023-01-28 15:36:30.118934,0.17292360961437225
2023-01-28 15:36:30.123934,0.16976406319627543
2023-01-28 15:36:30.128934,0.15561442077159884
2023-01-28 15:36:30.133934,0.13944634333327408
2023-01-28 15:36:30.138934,0.127847597002983
2023-01-28 15:36:30.143934,0.11414543402577296
2023-01-28 15:36:30.148934,0.09351770579814908
2023-01-28 15:36:30.153934,0.07277384484343603
2023-01-28 15:36:30.158934,0.057432852685451584
2023-01-28 15:36:30.163934,0.04284953765403761
2023-01-28 15:36:30.168934,0.02548297308385371
2023-01-28 15:36:30.173934,0.010875031244697035
2023-01-28 15:36:30.178934,0.003365675685927215
2023-01-28 15:36:30.183934,-0.0015241481633412283
2023-01-28 15:36:30.188934,-0.007909337989985924
2023-01-28 15:36:30.193934,-0.01233462818623577
2023-01-28 15:36:30.198934,-0.011851986870169574
2023-01-28 15:36:30.203934,-0.010433308259282133
2023-01-28 15:36:30.208934,-0.011347135528921939
2023-01-28 15:36:30.213934,-0.011149816889333152
2023-01-28 15:36:30.218934,-0.006947716232389154
2023-01-28 15:36:30.223934,-0.002306723991874918
2023-01-28 15:36:30.228934,-0.0006010135402901445
2023-01-28 15:36:30.233934,0.0006476644827186059
2023-01-28 15:36:30.238934,0.0037503242492674975
2023-01-28 15:36:30.243934,0.005750260918754084
2023-01-28 15:36:30.248934,0.004303256981074839
2023-01-28 15:36:30.253934,0.0025478245750523835
2023-01-28 15:36:30.258934,0.003317594528198204
2023-01-28 15:36:30.263934,0.004164053734187291
2023-01-28 15:36:30.268934,0.002620419021695814
2023-01-28 15:36:30.273934,0.000910321624218227
2023-01-28 15:36:30.278934,0.001033743261359632
2023-01-28 15:36:30.283934,0.0004739683136324023
2023-01-28 15:36:30.288934,-0.0028367838822304253
2023-01-28 15:36:30.293934,-0.006244735521454648
2023-01-28 15:36:30.298934,-0.007236202713102007
2023-01-28 15:36:30.303934,-0.007820064605453656
2023-01-28 15:36:30.308934,-0.010097026824951076
2023-01-28 15:36:30.313934,-0.012153629714812429
2023-01-28 15:36:30.318934,-0.01233279705047599
2023-01-28 15:36:30.323934,-0.013060112413393275
2023-01-28 15:36:30.328934,-0.016443729400634672
2023-01-28 15:36:30.333934,-0.020312910945923326
2023-01-28 15:36:30.338934,-0.022405784577131185
2023-01-28 15:36:30.343934,-0.024307335679306392
2023-01-28 15:36:30.348934,-0.02752641960978503
2023-01-28 15:36:30.353934,-0.029825811422103707
2023-01-28 15:36:30.358934,-0.029233297333121185
2023-01-28 15:36:30.363934,-0.027764760578871676
2023-01-28 15:36:30.368934,-0.027502378448843897
2023-01-28 15:36:30.373934,-0.026823852688501973
2023-01-28 15:36:30.378934,-0.02408862113952627
2023-01-28 15:36:30.383934,-0.02119206571678213
2023-01-28 15:36:30.388934,-0.019809406250715124
2023-01-28 15:36:30.393934,-0.017836400856099697
2023-01-28 15:36:30.398934,-0.013174216262996101
2023-01-28 15:36:30.403934,-0.007443503623365785
2023-01-28 15:36:30.408934,-0.002476175781339407
2023-01-28 15:36:30.413934,0.003126302578693971
2023-01-28 15:36:30.418934,0.010289351455867157
2023-01-28 15:36:30.423934,0.015948403656208053
2023-01-28 15:36:30.428934,0.01692454144358629
2023-01-28 15:36:30.433934,0.013932261524746161
2023-01-28 15:36:30.438934,0.008366107940673847
2023-01-28 15:36:30.443934,-0.0011073165946777692
2023-01-28 15:36:30.448934,-0.014977256767451739
2023-01-28 15:36:30.453934,-0.02955935602071391
2023-01-28 15:36:30.458934,-0.04120548814535137
2023-01-28 15:36:30.463934,-0.050572544238298024
2023-01-28 15:36:30.468934,-0.05913972854614243
2023-01-28 15:36:30.473934,-0.06522867513742676
2023-01-28 15:36:30.478934,-0.0674337148666381
2023-01-28 15:36:30.483934,-0.06811709840096715
2023-01-28 15:36:30.488934,-0.06887614727020257
2023-01-28 15:36:30.493934,-0.0657805798187043
2023-01-28 15:36:30.498934,-0.05349020287394514
2023-01-28 15:36:30.503934,-0.031019157046149833
2023-01-28 15:36:30.508934,0.00014424324035636953
2023-01-28 15:36:30.513934,0.0386628204865687
2023-01-28 15:36:30.518934,0.07825195789337154
2023-01-28 15:36:30.523934,0.10400031156932536
2023-01-28 15:36:30.528934,0.10097026824951166
2023-01-28 15:36:30.533934,0.06538364576750513
2023-01-28 15:36:30.538934,0.003726283786818366
2023-01-28 15:36:30.543934,-0.07402091716888498
2023-01-28 15:36:30.548934,-0.15337865054607383
2023-01-28 15:36:30.553934,-0.21329702747832696
2023-01-28 15:36:30.558934,-0.23728013038635254
2023-01-28 15:36:30.563934,-0.22781828487458156
2023-01-28 15:36:30.568934,-0.20165205001831055
2023-01-28 15:36:30.573934,-0.17031754922719214
2023-01-28 15:36:30.578934,-0.13373753428459156
2023-01-28 15:36:30.583934,-0.09331417865543627
2023-01-28 15:36:30.588934,-0.05990902706980686
2023-01-28 15:36:30.593934,-0.042786888720787716
2023-01-28 15:36:30.598934,-0.038104258477687836
2023-01-28 15:36:30.603934,-0.035262689298132824
2023-01-28 15:36:30.608934,-0.030146837234496973
2023-01-28 15:36:30.613934,-0.025955810340733194
2023-01-28 15:36:30.618934,-0.024521350860595682
2023-01-28 15:36:30.623934,-0.0236181106386533
2023-01-28 15:36:30.628934,-0.021828811615705337
2023-01-28 15:36:30.633934,-0.02044058851621141
2023-01-28 15:36:30.638934,-0.020025771111249792
2023-01-28 15:36:30.643934,-0.018996872960114937
2023-01-28 15:36:30.648934,-0.01625140570104124
2023-01-28 15:36:30.653934,-0.01253974379062754
2023-01-28 15:36:30.658934,-0.00865459442138669
2023-01-28 15:36:30.663934,-0.004324230040044038
2023-01-28 15:36:30.668934,0.0006731351604685092
2023-01-28 15:36:30.673934,0.005974045900041365
2023-01-28 15:36:30.678934,0.011659662239253549
2023-01-28 15:36:30.683934,0.018596445863313892
2023-01-28 15:36:30.688934,0.02738217636942856
2023-01-28 15:36:30.693934,0.03777951721268826
2023-01-28 15:36:30.698934,0.049307148903608336
2023-01-28 15:36:30.703934,0.06162219072118245
2023-01-28 15:36:30.708934,0.07418911159038545
2023-01-28 15:36:30.713934,0.08617836228314936
2023-01-28 15:36:30.718934,0.09685933589935299
2023-01-28 15:36:30.723934,0.10577244252934406
2023-01-28 15:36:30.728934,0.11253377050161359
2023-01-28 15:36:30.733934,0.11676546030254056
2023-01-28 15:36:30.738934,0.11820733547210682
2023-01-28 15:36:30.743934,0.11673552489080948
2023-01-28 15:36:30.748934,0.11234144866466511
2023-01-28 15:36:30.753934,0.10517328075575144
2023-01-28 15:36:30.758934,0.09548902511596676
2023-01-28 15:36:30.763934,0.08355284752564843
2023-01-28 15:36:30.768934,0.06969352811574916
2023-01-28 15:36:30.773934,0.054370029700259385
2023-01-28 15:36:30.778934,0.03798405453562731
2023-01-28 15:36:30.783934,0.020753373439333925
2023-01-28 15:36:30.788934,0.00300506758503613
2023-01-28 15:36:30.793934,-0.014537030178194167
2023-01-28 15:36:30.798934,-0.030964216217398595
2023-01-28 15:36:30.803934,-0.045487900296745216
2023-01-28 15:36:30.808934,-0.05736073106527317
2023-01-28 15:36:30.813934,-0.06587517808961021
2023-01-28 15:36:30.818934,-0.07084747403860082
2023-01-28 15:36:30.823934,-0.07289320706552918
2023-01-28 15:36:30.828934,-0.07291495800018308
2023-01-28 15:36:30.833934,-0.07154728557811747
2023-01-28 15:36:30.838934,-0.06930887699127186
2023-01-28 15:36:30.843934,-0.06685216951775058
2023-01-28 15:36:30.848934,-0.06464501470327358
2023-01-28 15:36:30.853934,-0.06272751471647836
2023-01-28 15:36:30.858934,-0.06113509461283674
2023-01-28 15:36:30.863934,-0.06019675148894447
2023-01-28 15:36:30.868934,-0.060053270310163366
2023-01-28 15:36:30.873934,-0.060273339500883726
2023-01-28 15:36:30.878934,-0.06034175679087626
2023-01-28 15:36:30.883934,-0.06017093744392269
2023-01-28 15:36:30.888934,-0.05981286615133276
2023-01-28 15:36:30.893934,-0.05914416481516978
2023-01-28 15:36:30.898934,-0.058250229805707945
2023-01-28 15:36:30.903934,-0.05765760874398529
2023-01-28 15:36:30.908934,-0.05772133916616427
2023-01-28 15:36:30.913934,-0.05816911539324367
2023-01-28 15:36:30.918934,-0.05863487720489494
2023-01-28 15:36:30.923934,-0.059193678865809125
2023-01-28 15:36:30.928934,-0.05998114868998522
2023-01-28 15:36:30.933934,-0.06079579154436942
2023-01-28 15:36:30.938934,-0.06154378503561007
2023-01-28 15:36:30.943934,-0.06260239593210425
2023-01-28 15:36:30.948934,-0.06426036357879623
2023-01-28 15:36:30.953934,-0.06622196660878213
2023-01-28 15:36:30.958934,-0.06808280944824208
2023-01-28 15:36:30.963934,-0.06981924756933326
2023-01-28 15:36:30.968934,-0.0713763684034347
2023-01-28 15:36:30.973934,-0.07228938272300685
2023-01-28 15:36:30.978934,-0.0722177848219871
2023-01-28 15:36:30.983934,-0.07141227914061557
2023-01-28 15:36:30.988934,-0.07019837945699693
2023-01-28 15:36:30.993934,-0.06844373207877043
2023-01-28 15:36:30.998934,-0.06594320386648168
2023-01-28 15:36:31.003934,-0.06281469996599691
2023-01-28 15:36:31.008934,-0.05906760692596444
2023-01-28 15:36:31.013934,-0.054324689703895146
2023-01-28 15:36:31.018934,-0.04851381108164778
2023-01-28 15:36:31.023934,-0.04242771786168692
2023-01-28 15:36:31.028934,-0.03719071671366694
2023-01-28 15:36:31.033934,-0.033638454579295485
2023-01-28 15:36:31.038934,-0.032550893723964545
2023-01-28 15:36:31.043934,-0.034796625503582534
2023-01-28 15:36:31.048934,-0.04060447216033934
2023-01-28 15:36:31.053934,-0.04910041667150284
2023-01-28 15:36:31.058934,-0.05901952832937236
2023-01-28 15:36:31.063934,-0.06943908627374497
2023-01-28 15:36:31.068934,-0.07950206845998752
2023-01-28 15:36:31.073934,-0.08813965046698767
2023-01-28 15:36:31.078934,-0.09469568729400632
2023-01-28 15:36:31.083934,-0.09934163338055096
2023-01-28 15:36:31.088934,-0.10231654345989227
2023-01-28 15:36:31.093934,-0.10309986675014929
2023-01-28 15:36:31.098934,-0.10056158155202857
2023-01-28 15:36:31.103934,-0.09321912685204024
2023-01-28 15:36:31.108934,-0.07902126014232626
2023-01-28 15:36:31.113934,-0.056075710553976275
2023-01-28 15:36:31.118934,-0.02507428452372546
2023-01-28 15:36:31.123934,0.008666566494164585
2023-01-28 15:36:31.128934,0.03579636663198462
2023-01-28 15:36:31.133934,0.045713090244081475
2023-01-28 15:36:31.138934,0.030050676316022783
2023-01-28 15:36:31.143934,-0.013606087090189376
2023-01-28 15:36:31.148934,-0.07887701690196992
2023-01-28 15:36:31.153934,-0.15131621448916724
2023-01-28 15:36:31.158934,-0.21364828944206238
2023-01-28 15:36:31.163934,-0.2523188713122087
2023-01-28 15:36:31.168934,-0.2614649236202239
2023-01-28 15:36:31.173934,-0.24357359866883718
2023-01-28 15:36:31.178934,-0.20783047378063196
2023-01-28 15:36:31.183934,-0.16634934298616852
2023-01-28 15:36:31.188934,-0.12919387221336348
2023-01-28 15:36:31.193934,-0.10125966900069042
2023-01-28 15:36:31.198934,-0.08293986320495597
2023-01-28 15:36:31.203934,-0.0724932187483196
2023-01-28 15:36:31.208934,-0.06726543605327603
2023-01-28 15:36:31.213934,-0.06417171179018454
2023-01-28 15:36:31.218934,-0.06101489067077629
2023-01-28 15:36:31.223934,-0.05757448043753389
2023-01-28 15:36:31.228934,-0.0546201094985008
2023-01-28 15:36:31.233934,-0.052124005227272514
2023-01-28 15:36:31.238934,-0.049331188201904165
2023-01-28 15:36:31.243934,-0.04623025867308612
2023-01-28 15:36:31.248934,-0.04372974485158939
2023-01-28 15:36:31.253934,-0.04224251251696209
2023-01-28 15:36:31.258934,-0.0410131625831127
2023-01-28 15:36:31.263934,-0.03905400941444673
2023-01-28 15:36:31.268934,-0.03601273149251934
2023-01-28 15:36:31.273934,-0.03189533695302388
2023-01-28 15:36:31.278934,-0.026564797386526985
2023-01-28 15:36:31.283934,-0.019833478235223745
2023-01-28 15:36:31.288934,-0.011683702468872079
2023-01-28 15:36:31.293934,-0.00219449318175081
2023-01-28 15:36:31.298934,0.008510351181030131
2023-01-28 15:36:31.303934,0.02016945781165571
2023-01-28 15:36:31.308934,0.03243068978190415
2023-01-28 15:36:31.313934,0.0449605885928961
2023-01-28 15:36:31.318934,0.05733668804168701
2023-01-28 15:36:31.323934,0.0689588965892889
2023-01-28 15:36:31.328934,0.07928570359945286
2023-01-28 15:36:31.333934,0.08804126025580357
2023-01-28 15:36:31.338934,0.0950322598218917
2023-01-28 15:36:31.343934,0.09996415611369161
2023-01-28 15:36:31.348934,0.10260502994060511
2023-01-28 15:36:31.353934,0.10284853725627775
2023-01-28 15:36:31.358934,0.10036925971508015
2023-01-28 15:36:31.363934,0.09447773823771471
2023-01-28 15:36:31.368934,0.08459866046905504
2023-01-28 15:36:31.373934,0.07073541724059003
2023-01-28 15:36:31.378934,0.05336999893188465
2023-01-28 15:36:31.383934,0.03328353971729288
2023-01-28 15:36:31.388934,0.011707743629813104
2023-01-28 15:36:31.393934,-0.009746454514267085
2023-01-28 15:36:31.398934,-0.02971410751342762
2023-01-28 15:36:31.403934,-0.04750196322537187
2023-01-28 15:36:31.408934,-0.06279389560222623
2023-01-28 15:36:31.413934,-0.07530857356532443
2023-01-28 15:36:31.418934,-0.08495926856994618
2023-01-28 15:36:31.423934,-0.09194925579921163
2023-01-28 15:36:31.428934,-0.09640257060527793
2023-01-28 15:36:31.433934,-0.09821864663318217
2023-01-28 15:36:31.438934,-0.0975565165281295
2023-01-28 15:36:31.443934,-0.09514069770950966
2023-01-28 15:36:31.448934,-0.09183486551046367
2023-01-28 15:36:31.453934,-0.0882172325020857
2023-01-28 15:36:31.458934,-0.08474290370941158
2023-01-28 15:36:31.463934,-0.08187150590697787
2023-01-28 15:36:31.468934,-0.07971843332052231
2023-01-28 15:36:31.473934,-0.07794847196048826
2023-01-28 15:36:31.478934,-0.07632871717214582
2023-01-28 15:36:31.483934,-0.07508238710317254
2023-01-28 15:36:31.488934,-0.07447759807109834
2023-01-28 15:36:31.493934,-0.07445763693002092
2023-01-28 15:36:31.498934,-0.07493436336517333
2023-01-28 15:36:31.503934,-0.07603168248863142
2023-01-28 15:36:31.508934,-0.07772307097911832
2023-01-28 15:36:31.513934,-0.07959559621392238
2023-01-28 15:36:31.518934,-0.08128106594085688
2023-01-28 15:36:31.523934,-0.08278895499336617
2023-01-28 15:36:31.528934,-0.08416593074798584
2023-01-28 15:36:31.533934,-0.08522087302873495
2023-01-28 15:36:31.538934,-0.08587281405925748
2023-01-28 15:36:31.543934,-0.08637598040318764
2023-01-28 15:36:31.548934,-0.08688251674175253
2023-01-28 15:36:31.553934,-0.08714317807361262
2023-01-28 15:36:31.558934,-0.08695463836193074
2023-01-28 15:36:31.563934,-0.08657792301709662
2023-01-28 15:36:31.568934,-0.08644978702068323
2023-01-28 15:36:31.573934,-0.08682130878698008
2023-01-28 15:36:31.578934,-0.08789221942424766
2023-01-28 15:36:31.583934,-0.08983496072970427
2023-01-28 15:36:31.588934,-0.09231567382812501
2023-01-28 15:36:31.593934,-0.09433386967085952
2023-01-28 15:36:31.598934,-0.0948880165815353
2023-01-28 15:36:31.603934,-0.09358565279658501
2023-01-28 15:36:31.608934,-0.09048859775066376
2023-01-28 15:36:31.613934,-0.08583526481614417
2023-01-28 15:36:31.618934,-0.08019924163818345
2023-01-28 15:36:31.623934,-0.07446693001650237
2023-01-28 15:36:31.628934,-0.06926079839468
2023-01-28 15:36:31.633934,-0.06465356649610135
2023-01-28 15:36:31.638934,-0.06067832559347156
2023-01-28 15:36:31.643934,-0.057766498382245984
2023-01-28 15:36:31.648934,-0.056471228599548395
2023-01-28 15:36:31.653934,-0.05716921322754356
2023-01-28 15:36:31.658934,-0.060245595872402205
2023-01-28 15:36:31.663934,-0.06604619318630042
2023-01-28 15:36:31.668934,-0.07423719018697733
2023-01-28 15:36:31.673934,-0.08355201002270181
2023-01-28 15:36:31.678934,-0.09250800311565399
2023-01-28 15:36:31.683934,-0.10013712270163243
2023-01-28 15:36:31.688934,-0.10594666004180908
2023-01-28 15:36:31.693934,-0.1097468251488195
2023-01-28 15:36:31.698934,-0.11183659732341758
2023-01-28 15:36:31.703934,-0.11276242843511874
2023-01-28 15:36:31.708934,-0.11224528402090073
2023-01-28 15:36:31.713934,-0.10843456119966342
2023-01-28 15:36:31.718934,-0.09849409759044633
2023-01-28 15:36:31.723934,-0.07996695628944146
2023-01-28 15:36:31.728934,-0.05216797441244123
2023-01-28 15:36:31.733934,-0.017715982901600185
2023-01-28 15:36:31.738934,0.01627544686198222
2023-01-28 15:36:31.743934,0.039102756675184286
2023-01-28 15:36:31.748934,0.04019578546285617
2023-01-28 15:36:31.753934,0.01375640455679355
2023-01-28 15:36:31.758934,-0.03827254101634023
2023-01-28 15:36:31.763934,-0.10596661172632169
2023-01-28 15:36:31.768934,-0.17395734786987305
2023-01-28 15:36:31.773934,-0.22648195759006753
2023-01-28 15:36:31.778934,-0.2531709372997282
2023-01-28 15:36:31.783934,-0.25231357745719707
2023-01-28 15:36:31.788934,-0.2298516035079956
2023-01-28 15:36:31.793934,-0.19565683269451561
2023-01-28 15:36:31.798934,-0.15967726707458485
2023-01-28 15:36:31.803934,-0.12906248766183365
2023-01-28 15:36:31.808934,-0.10664384067058558
2023-01-28 15:36:31.813934,-0.09148219451715062
2023-01-28 15:36:31.818934,-0.08116086572408675
2023-01-28 15:36:31.823934,-0.07375736587549998
2023-01-28 15:36:31.828934,-0.06810685247182843
2023-01-28 15:36:31.833934,-0.06336704718302265
2023-01-28 15:36:31.838934,-0.059163771569728796
2023-01-28 15:36:31.843934,-0.0557317667119157
2023-01-28 15:36:31.848934,-0.05322575569152838
2023-01-28 15:36:31.853934,-0.051126455988369665
2023-01-28 15:36:31.858934,-0.048802297562360736
2023-01-28 15:36:31.863934,-0.04629764357716288
2023-01-28 15:36:31.868934,-0.04397014901041983
2023-01-28 15:36:31.873934,-0.04159741653867098
2023-01-28 15:36:31.878934,-0.03844082355499259
2023-01-28 15:36:31.883934,-0.03406237606729539
2023-01-28 15:36:31.888934,-0.02856016159057615
2023-01-28 15:36:31.893934,-0.022085217175963966
2023-01-28 15:36:31.898934,-0.014592608436942095
2023-01-28 15:36:31.903934,-0.006037165632371742
2023-01-28 15:36:31.908934,0.0035580000840126024
2023-01-28 15:36:31.913934,0.01419924293299578
2023-01-28 15:36:31.918934,0.025795500725507646
2023-01-28 15:36:31.923934,0.03797096997652768
2023-01-28 15:36:31.928934,0.050196647644042774
2023-01-28 15:36:31.933934,0.06199192179850962
2023-01-28 15:36:31.938934,0.07284283638000483
2023-01-28 15:36:31.943934,0.08214393655840654
2023-01-28 15:36:31.948934,0.08945485204458217
2023-01-28 15:36:31.953934,0.094634798214161
2023-01-28 15:36:31.958934,0.09753247350454326
2023-01-28 15:36:31.963934,0.09776154314976351
2023-01-28 15:36:31.968934,0.09498417377471913
2023-01-28 15:36:31.973934,0.08919945850927977
2023-01-28 15:36:31.978934,0.08058389276266077
2023-01-28 15:36:31.983934,0.06932510527174501
2023-01-28 15:36:31.988934,0.055822134017944156
2023-01-28 15:36:31.993934,0.040764586590784906
2023-01-28 15:36:31.998934,0.024761756882071363
2023-01-28 15:36:32.003934,0.008120117191424431
2023-01-28 15:36:32.008934,-0.008822878822684259
2023-01-28 15:36:32.013934,-0.02542181700026022
2023-01-28 15:36:32.018934,-0.04098912328481667
2023-01-28 15:36:32.023934,-0.055063077776119
2023-01-28 15:36:32.028934,-0.06721735000610349
2023-01-28 15:36:32.033934,-0.07692497238083987
2023-01-28 15:36:32.038934,-0.08387744426727281
2023-01-28 15:36:32.043934,-0.0881956722163629
2023-01-28 15:36:32.048934,-0.0901279896497726
2023-01-28 15:36:32.053934,-0.0898328637495826
2023-01-28 15:36:32.058934,-0.08767585456371303
2023-01-28 15:36:32.063934,-0.08442501290102943
2023-01-28 15:36:32.068934,-0.08087237924337379
2023-01-28 15:36:32.073934,-0.07747877503558973
2023-01-28 15:36:32.078934,-0.07454971969127651
2023-01-28 15:36:32.083934,-0.07242024057422508
2023-01-28 15:36:32.088934,-0.07120808213949205
2023-01-28 15:36:32.093934,-0.07067348987761223
2023-01-28 15:36:32.098934,-0.07058303058147436
2023-01-28 15:36:32.103934,-0.07096906833201076
2023-01-28 15:36:32.108934,-0.07183313369750974
2023-01-28 15:36:32.113934,-0.07288900493752289
2023-01-28 15:36:32.118934,-0.0738285034894943
2023-01-28 15:36:32.123934,-0.07457055354032828
2023-01-28 15:36:32.128934,-0.07505457103252408
2023-01-28 15:36:32.133934,-0.07511131357259705
2023-01-28 15:36:32.138934,-0.07479012012481681
2023-01-28 15:36:32.143934,-0.07453762302281106
2023-01-28 15:36:32.148934,-0.07481416314840317
2023-01-28 15:36:32.153934,-0.07576858056436817
2023-01-28 15:36:32.158934,-0.07743458449840537
2023-01-28 15:36:32.163934,-0.07989180217156579
2023-01-28 15:36:32.168934,-0.08298794925212866
2023-01-28 15:36:32.173934,-0.08620756225456166
2023-01-28 15:36:32.178934,-0.08907020092010495
2023-01-28 15:36:32.183934,-0.09141828870833149
2023-01-28 15:36:32.188934,-0.09315709769725794
2023-01-28 15:36:32.193934,-0.0940483178283687
2023-01-28 15:36:32.198934,-0.09397447109222398
2023-01-28 15:36:32.203934,-0.09308385432981844
2023-01-28 15:36:32.208934,-0.09145021438598624
2023-01-28 15:36:32.213934,-0.08889482993799167
2023-01-28 15:36:32.218934,-0.08534391969442363
2023-01-28 15:36:32.223934,-0.08102766773054068
2023-01-28 15:36:32.228934,-0.07611235231161113
2023-01-28 15:36:32.233934,-0.07048275042136769
2023-01-28 15:36:32.238934,-0.06414016336202619
2023-01-28 15:36:32.243934,-0.057531631248397046
2023-01-28 15:36:32.248934,-0.051326554268598557
2023-01-28 15:36:32.253934,-0.046252165842185625
2023-01-28 15:36:32.258934,-0.043345093727111844
2023-01-28 15:36:32.263934,-0.043872713236318736
2023-01-28 15:36:32.268934,-0.048537850379943806
2023-01-28 15:36:32.273934,-0.056883209453254
2023-01-28 15:36:32.278934,-0.06760200113058094
2023-01-28 15:36:32.283934,-0.07912371511556117
2023-01-28 15:36:32.288934,-0.08983950316905975
2023-01-28 15:36:32.293934,-0.09840190533030667
2023-01-28 15:36:32.298934,-0.10435998439788814
2023-01-28 15:36:32.303934,-0.1083170024801941
2023-01-28 15:36:32.308934,-0.11113941669464114
2023-01-28 15:36:32.313934,-0.11306490211985708
2023-01-28 15:36:32.318934,-0.11342327296733852
2023-01-28 15:36:32.323934,-0.11050742783624695
2023-01-28 15:36:32.328934,-0.10137896239757538
2023-01-28 15:36:32.333934,-0.08260575832855535
2023-01-28 15:36:32.338934,-0.05245646089315413
2023-01-28 15:36:32.343934,-0.013253935724125521
2023-01-28 15:36:32.348934,0.02776682376861561
2023-01-28 15:36:32.353934,0.059509762071704074
2023-01-28 15:36:32.358934,0.06983777135610576
2023-01-28 15:36:32.363934,0.05004047428542405
2023-01-28 15:36:32.368934,-0.0005048513412475728
2023-01-28 15:36:32.373934,-0.07250139934481271
2023-01-28 15:36:32.378934,-0.14950811862945548
2023-01-28 15:36:32.383934,-0.21378491367281593
2023-01-28 15:36:32.388934,-0.2521371841430664
2023-01-28 15:36:32.393934,-0.2597265498158638
2023-01-28 15:36:32.398934,-0.24083814024925224
2023-01-28 15:36:32.403934,-0.20608944284176303
2023-01-28 15:36:32.408934,-0.1672740876674652
2023-01-28 15:36:32.413934,-0.13296593018296765
2023-01-28 15:36:32.418934,-0.10712464898824695
2023-01-28 15:36:32.423934,-0.0899919800922942
2023-01-28 15:36:32.428934,-0.07950206845998756
2023-01-28 15:36:32.433934,-0.07275739172480562
2023-01-28 15:36:32.438934,-0.0675779581069946
2023-01-28 15:36:32.443934,-0.06316149999539704
2023-01-28 15:36:32.448934,-0.05933205410838125
2023-01-28 15:36:32.453934,-0.05569434725470978
2023-01-28 15:36:32.458934,-0.05190352723002443
2023-01-28 15:36:32.463934,-0.048142725808750585
2023-01-28 15:36:32.468934,-0.04461924359202391
2023-01-28 15:36:32.473934,-0.04095560060524342
2023-01-28 15:36:32.478934,-0.036733947694301584
2023-01-28 15:36:32.483934,-0.032247087176035
2023-01-28 15:36:32.488934,-0.027935108169913295
2023-01-28 15:36:32.493934,-0.023414474614578882
2023-01-28 15:36:32.498934,-0.017982324585318565
2023-01-28 15:36:32.503934,-0.011887612022851433
2023-01-28 15:36:32.508934,-0.006034175865352068
2023-01-28 15:36:32.513934,-0.000293371794634614
2023-01-28 15:36:32.518934,0.006899635307490816
2023-01-28 15:36:32.523934,0.016869224730721177
2023-01-28 15:36:32.528934,0.02932946011424057
2023-01-28 15:36:32.533934,0.04304005606230089
2023-01-28 15:36:32.538934,0.05709628388285629
2023-01-28 15:36:32.543934,0.07098707571879918
2023-01-28 15:36:32.548934,0.08390148729085913
2023-01-28 15:36:32.553934,0.0947419985944947
2023-01-28 15:36:32.558934,0.10277330875396717
2023-01-28 15:36:32.563934,0.10782481896508724
2023-01-28 15:36:32.568934,0.10991334915161124
2023-01-28 15:36:32.573934,0.10902852034852588
2023-01-28 15:36:32.578934,0.1052735298871994
2023-01-28 15:36:32.583934,0.09889278425432403
2023-01-28 15:36:32.588934,0.09005586802959431
2023-01-28 15:36:32.593934,0.07875764203869448
2023-01-28 15:36:32.598934,0.06498157978057852
2023-01-28 15:36:32.603934,0.04889644692895299
2023-01-28 15:36:32.608934,0.030940175056457405
2023-01-28 15:36:32.613934,0.011862705193252101
2023-01-28 15:36:32.618934,-0.00726024340838192
2023-01-28 15:36:32.623934,-0.025155291329941296
2023-01-28 15:36:32.628934,-0.04065255448222169
2023-01-28 15:36:32.633934,-0.053026920548408685
2023-01-28 15:36:32.638934,-0.06219287961721424
2023-01-28 15:36:32.643934,-0.06864099685110193
2023-01-28 15:36:32.648934,-0.07315536588430396
2023-01-28 15:36:32.653934,-0.07647496920370621
2023-01-28 15:36:32.658934,-0.07904529571533209
2023-01-28 15:36:32.663934,-0.08092016337202894
2023-01-28 15:36:32.668934,-0.08185803890228278
2023-01-28 15:36:32.673934,-0.0816176554004708
2023-01-28 15:36:32.678934,-0.08027136325836177
2023-01-28 15:36:32.683934,-0.07826035594524967
2023-01-28 15:36:32.688934,-0.07616043090820307
2023-01-28 15:36:32.693934,-0.07441349417402425
2023-01-28 15:36:32.698934,-0.07320344448089595
2023-01-28 15:36:32.703934,-0.07242644322723756
2023-01-28 15:36:32.708934,-0.07173697650432578
2023-01-28 15:36:32.713934,-0.07075980096490983
2023-01-28 15:36:32.718934,-0.0693809986114502
2023-01-28 15:36:32.723934,-0.06783862667104823
2023-01-28 15:36:32.728934,-0.06654421985149381
2023-01-28 15:36:32.733934,-0.06587319066623308
2023-01-28 15:36:32.738934,-0.06606340408325194
2023-01-28 15:36:32.743934,-0.0671198106637731
2023-01-28 15:36:32.748934,-0.06873190402984612
2023-01-28 15:36:32.753934,-0.07039837700666392
2023-01-28 15:36:32.758934,-0.07173697650432578
2023-01-28 15:36:32.763934,-0.07266578394704307
2023-01-28 15:36:32.768934,-0.07332365214824667
2023-01-28 15:36:32.773934,-0.0739385409550967
2023-01-28 15:36:32.778934,-0.07476608455181127
2023-01-28 15:36:32.783934,-0.07597077200991648
2023-01-28 15:36:32.788934,-0.07745862007141116
2023-01-28 15:36:32.793934,-0.07890763425730649
2023-01-28 15:36:32.798934,-0.08003096282482144
2023-01-28 15:36:32.803934,-0.08076501409996605
2023-01-28 15:36:32.808934,-0.08120894432067875
2023-01-28 15:36:32.813934,-0.08149003061443716
2023-01-28 15:36:32.818934,-0.08168976008892054
2023-01-28 15:36:32.823934,-0.08173782456111839
2023-01-28 15:36:32.828934,-0.08128106594085699
2023-01-28 15:36:32.833934,-0.07973162313874382
2023-01-28 15:36:32.838934,-0.0765210390090942
2023-01-28 15:36:32.843934,-0.07131985850480925
2023-01-28 15:36:32.848934,-0.06411612033843994
2023-01-28 15:36:32.853934,-0.055298421293935945
2023-01-28 15:36:32.858934,-0.04577318951487542
2023-01-28 15:36:32.863934,-0.036925982626823166
2023-01-28 15:36:32.868934,-0.030363202095031776
2023-01-28 15:36:32.873934,-0.027583966853282786
2023-01-28 15:36:32.878934,-0.029641985893249595
2023-01-28 15:36:32.883934,-0.03675501396356738
2023-01-28 15:36:32.888934,-0.04803299903869621
2023-01-28 15:36:32.893934,-0.06163383352793554
2023-01-28 15:36:32.898934,-0.0753430575132369
2023-01-28 15:36:32.903934,-0.0872323407531511
2023-01-28 15:36:32.908934,-0.09613811969757086
2023-01-28 15:36:32.913934,-0.10190633153178247
2023-01-28 15:36:32.918934,-0.10529756546020504
2023-01-28 15:36:32.923934,-0.10742775008552136
2023-01-28 15:36:32.928934,-0.10890364646911627
2023-01-28 15:36:32.933934,-0.10904790611659299
2023-01-28 15:36:32.938934,-0.10553797334432607
2023-01-28 15:36:32.943934,-0.09472692744900874
2023-01-28 15:36:32.948934,-0.0729630440473557
2023-01-28 15:36:32.953934,-0.03886777558705845
2023-01-28 15:36:32.958934,0.004327297210693236
2023-01-28 15:36:32.963934,0.04784160381841994
2023-01-28 15:36:32.968934,0.07887701690196978
2023-01-28 15:36:32.973934,0.08461364066554124
2023-01-28 15:36:32.978934,0.057408809661865116
2023-01-28 15:36:32.983934,-0.0010830565886519896
2023-01-28 15:36:32.988934,-0.07921358197927472
2023-01-28 15:36:32.993934,-0.15890935579942997
2023-01-28 15:36:32.998934,-0.22201439738273612
2023-01-28 15:36:33.003934,-0.25646520676576906
2023-01-28 15:36:33.008934,-0.2596618831157683
2023-01-28 15:36:33.013934,-0.23788808250769852
2023-01-28 15:36:33.018934,-0.20244538784027094
2023-01-28 15:36:33.023934,-0.16465894445667437
2023-01-28 15:36:33.028934,-0.13224701583385456
2023-01-28 15:36:33.033934,-0.10831278503934424
2023-01-28 15:36:33.038934,-0.09243588149547574
2023-01-28 15:36:33.043934,-0.082528447470914
2023-01-28 15:36:33.048934,-0.07642488181591031
2023-01-28 15:36:33.053934,-0.07268990045135229
2023-01-28 15:36:33.058934,-0.07055898755788795
2023-01-28 15:36:33.063934,-0.06946427316010223
2023-01-28 15:36:33.068934,-0.06880402565002439
2023-01-28 15:36:33.073934,-0.06807023604751782
2023-01-28 15:36:33.078934,-0.0669288635253906
2023-01-28 15:36:33.083934,-0.06513918855052296
2023-01-28 15:36:33.088934,-0.06260156631469724
2023-01-28 15:36:33.093934,-0.05949737617071652
2023-01-28 15:36:33.098934,-0.05615870282053943
2023-01-28 15:36:33.103934,-0.05277309173686516
2023-01-28 15:36:33.108934,-0.04937927052378658
2023-01-28 15:36:33.113934,-0.046023884168874
2023-01-28 15:36:33.118934,-0.0425757989287376
2023-01-28 15:36:33.123934,-0.03843616111607431
2023-01-28 15:36:33.128934,-0.032815337181091295
2023-01-28 15:36:33.133934,-0.025314688699438783
2023-01-28 15:36:33.138934,-0.01596291922032836
2023-01-28 15:36:33.143934,-0.004892722457415677
2023-01-28 15:36:33.148934,0.00747660826891654
2023-01-28 15:36:33.153934,0.020065793935426634
2023-01-28 15:36:33.158934,0.03161331266164764
2023-01-28 15:36:33.163934,0.041539113112086995
2023-01-28 15:36:33.168934,0.04976391792297351
2023-01-28 15:36:33.173934,0.05587245174002399
2023-01-28 15:36:33.178934,0.0593320541083812
2023-01-28 15:36:33.183934,0.06038470535767064
2023-01-28 15:36:33.188934,0.05952437967061984
2023-01-28 15:36:33.193934,0.056035739833884136
2023-01-28 15:36:33.198934,0.04853785037994375
2023-01-28 15:36:33.203934,0.03741980382578966
2023-01-28 15:36:33.208934,0.025098323822021353
2023-01-28 15:36:33.213934,0.012894253925279542
2023-01-28 15:36:33.218934,-0.0008173784008249261
2023-01-28 15:36:33.223934,-0.017931716645526327
2023-01-28 15:36:33.228934,-0.03733495995402335
2023-01-28 15:36:33.233934,-0.056012962363521095
2023-01-28 15:36:33.238934,-0.0725303143262863
2023-01-28 15:36:33.243934,-0.0874685785565285
2023-01-28 15:36:33.248934,-0.10092218965291966
2023-01-28 15:36:33.253934,-0.11172261963546198
2023-01-28 15:36:33.258934,-0.11933724582195278
2023-01-28 15:36:33.263934,-0.12471191545966878
2023-01-28 15:36:33.268934,-0.12871305644512168
2023-01-28 15:36:33.273934,-0.13115180776399066
2023-01-28 15:36:33.278934,-0.13186237215995777
2023-01-28 15:36:33.283934,-0.1314747785771104
2023-01-28 15:36:33.288934,-0.1305160969495773
2023-01-28 15:36:33.293934,-0.12880649393450444
2023-01-28 15:36:33.298934,-0.12633304297924042
2023-01-28 15:36:33.303934,-0.12379010289190423
2023-01-28 15:36:33.308934,-0.12166917324066151
2023-01-28 15:36:33.313934,-0.11961216145544062
2023-01-28 15:36:33.318934,-0.11719763278961182
2023-01-28 15:36:33.323934,-0.11464745688072367
2023-01-28 15:36:33.328934,-0.11229336261749259
2023-01-28 15:36:33.333934,-0.11007780265083908
2023-01-28 15:36:33.338934,-0.10808627307415
2023-01-28 15:36:33.343934,-0.1069059795695776
2023-01-28 15:36:33.348934,-0.10693232715129858
2023-01-28 15:36:33.353934,-0.10785990226595323
2023-01-28 15:36:33.358934,-0.10926425457000721
2023-01-28 15:36:33.363934,-0.11110291431203055
2023-01-28 15:36:33.368934,-0.11323094367980953
2023-01-28 15:36:33.373934,-0.11502589319652963
2023-01-28 15:36:33.378934,-0.1159956082701683
2023-01-28 15:36:33.383934,-0.1163125334303391
2023-01-28 15:36:33.388934,-0.11638025939464558
2023-01-28 15:36:33.393934,-0.11636828468568308
2023-01-28 15:36:33.398934,-0.11652450263500211
2023-01-28 15:36:33.403934,-0.11737583500908261
2023-01-28 15:36:33.408934,-0.11912088096141805
2023-01-28 15:36:33.413934,-0.1212059415731566
2023-01-28 15:36:33.418934,-0.12287120521068569
2023-01-28 15:36:33.423934,-0.12373131847757643
2023-01-28 15:36:33.428934,-0.12354433536529542
2023-01-28 15:36:33.433934,-0.12193874953411872
2023-01-28 15:36:33.438934,-0.1188083514571189
2023-01-28 15:36:33.443934,-0.11459284416824274
2023-01-28 15:36:33.448934,-0.10979314893484111
2023-01-28 15:36:33.453934,-0.10455039058358219
2023-01-28 15:36:33.458934,-0.09897490590810767
2023-01-28 15:36:33.463934,-0.09344484041866674
2023-01-28 15:36:33.468934,-0.08822878450155247
2023-01-28 15:36:33.473934,-0.0832256062296426
2023-01-28 15:36:33.478934,-0.0784683227539062
2023-01-28 15:36:33.483934,-0.07458145170214617
2023-01-28 15:36:33.488934,-0.07245819270610798
2023-01-28 15:36:33.493934,-0.07281357211272707
2023-01-28 15:36:33.498934,-0.07623255252838135
2023-01-28 15:36:33.503934,-0.08309831824980687
2023-01-28 15:36:33.508934,-0.09298881143331524
2023-01-28 15:36:33.513934,-0.10443187415827683
2023-01-28 15:36:33.518934,-0.1156350001692771
2023-01-28 15:36:33.523934,-0.12530689924816674
2023-01-28 15:36:33.528934,-0.1327278316020965
2023-01-28 15:36:33.533934,-0.13759459429608933
2023-01-28 15:36:33.538934,-0.1401803940534591
2023-01-28 15:36:33.543934,-0.14115498002007157
2023-01-28 15:36:33.548934,-0.14058908820152274
2023-01-28 15:36:33.553934,-0.1370699379781606
2023-01-28 15:36:33.558934,-0.12791971862316134
2023-01-28 15:36:33.563934,-0.11026179971126623
2023-01-28 15:36:33.568934,-0.08243501186370836
2023-01-28 15:36:33.573934,-0.045861685663308095
2023-01-28 15:36:33.578934,-0.006803472992032792
2023-01-28 15:36:33.583934,0.023865570658593266
2023-01-28 15:36:33.588934,0.033969283103942864
2023-01-28 15:36:33.593934,0.015020972084561655
2023-01-28 15:36:33.598934,-0.03368079662322998
2023-01-28 15:36:33.603934,-0.10357934577011298
2023-01-28 15:36:33.608934,-0.17876546084880818
2023-01-28 15:36:33.613934,-0.24119411607025354
2023-01-28 15:36:33.618934,-0.2773076295852661
2023-01-28 15:36:33.623934,-0.2825682376265651
2023-01-28 15:36:33.628934,-0.2616091668605802
2023-01-28 15:36:33.633934,-0.22483854458997643
2023-01-28 15:36:33.638934,-0.18393418192863453
2023-01-28 15:36:33.643934,-0.14801721551913954
2023-01-28 15:36:33.648934,-0.12152493000030502
2023-01-28 15:36:33.653934,-0.10444836564414434
2023-01-28 15:36:33.658934,-0.09440720081329337
2023-01-28 15:36:33.663934,-0.08871199354333521
2023-01-28 15:36:33.668934,-0.08515159785747521
2023-01-28 15:36:33.673934,-0.08202948527237877
2023-01-28 15:36:33.678934,-0.07832407951354978
2023-01-28 15:36:33.683934,-0.0737843616069373
2023-01-28 15:36:33.688934,-0.06858766078948972
2023-01-28 15:36:33.693934,-0.06301270556972711
2023-01-28 15:36:33.698934,-0.057504974305629716
2023-01-28 15:36:33.703934,-0.0526352503411289
2023-01-28 15:36:33.708934,-0.04863401502370827
2023-01-28 15:36:33.713934,-0.04514356735073869
2023-01-28 15:36:33.718934,-0.04161417484283443
2023-01-28 15:36:33.723934,-0.03769504554776585
2023-01-28 15:36:33.728934,-0.0330797843635082
2023-01-28 15:36:33.733934,-0.027319078400869168
2023-01-28 15:36:33.738934,-0.020073851570487026
2023-01-28 15:36:33.743934,-0.01132166989761978
2023-01-28 15:36:33.748934,-0.0011058648815378167
2023-01-28 15:36:33.753934,0.010646930708841073
2023-01-28 15:36:33.758934,0.02382417581975458
2023-01-28 15:36:33.763934,0.03787429558243584
2023-01-28 15:36:33.768934,0.05204777047038064
2023-01-28 15:36:33.773934,0.06565104074333752
2023-01-28 15:36:33.778934,0.0779153928160667
2023-01-28 15:36:33.783934,0.08796093038739285
2023-01-28 15:36:33.788934,0.0952005386352539
2023-01-28 15:36:33.793934,0.09962121462411007
2023-01-28 15:36:33.798934,0.1014991626143455
2023-01-28 15:36:33.803934,0.10102704256158125
2023-01-28 15:36:33.808934,0.09830176830291737
2023-01-28 15:36:33.813934,0.09333555258582214
2023-01-28 15:36:33.818934,0.08584877103567115
2023-01-28 15:36:33.823934,0.07531360193037431
2023-01-28 15:36:33.828934,0.061471663415431935
2023-01-28 15:36:33.833934,0.044718980350888136
2023-01-28 15:36:33.838934,0.025939743965864067
2023-01-28 15:36:33.843934,0.0062110939952016225
2023-01-28 15:36:33.848934,-0.013270378112792835
2023-01-28 15:36:33.853934,-0.03133980484617344
2023-01-28 15:36:33.858934,-0.047215621918439823
2023-01-28 15:36:33.863934,-0.06060646713999595
2023-01-28 15:36:33.868934,-0.07144849002361282
2023-01-28 15:36:33.873934,-0.07974749203176688
2023-01-28 15:36:33.878934,-0.08565644919872278
2023-01-28 15:36:33.883934,-0.08940137435103603
2023-01-28 15:36:33.888934,-0.0911136493086813
2023-01-28 15:36:33.893934,-0.09101804436416755
2023-01-28 15:36:33.898934,-0.08969525992870327
2023-01-28 15:36:33.903934,-0.08772082048243847
2023-01-28 15:36:33.908934,-0.08507947623729697
2023-01-28 15:36:33.913934,-0.08145259931112227
2023-01-28 15:36:33.918934,-0.07712205499410626
2023-01-28 15:36:33.923934,-0.07303478661371696
2023-01-28 15:36:33.928934,-0.069861814379692
2023-01-28 15:36:33.933934,-0.06754734860413826
2023-01-28 15:36:33.938934,-0.06591916084289554
2023-01-28 15:36:33.943934,-0.06510502492710876
2023-01-28 15:36:33.948934,-0.06505370140075677
2023-01-28 15:36:33.953934,-0.06521737863629966
2023-01-28 15:36:33.958934,-0.06510178744792929
2023-01-28 15:36:33.963934,-0.0647171114517131
2023-01-28 15:36:33.968934,-0.06418824195861808
2023-01-28 15:36:33.973934,-0.06338022286388516
2023-01-28 15:36:33.978934,-0.062265001237392356
2023-01-28 15:36:33.983934,-0.061247313206617734
2023-01-28 15:36:33.988934,-0.06075044721364973
2023-01-28 15:36:33.993934,-0.06080404210758847
2023-01-28 15:36:33.998934,-0.06132742017507552
2023-01-28 15:36:34.003934,-0.06242693875999964
2023-01-28 15:36:34.008934,-0.06406804174184781
2023-01-28 15:36:34.013934,-0.06580856621170562
2023-01-28 15:36:34.018934,-0.06721735000610343
2023-01-28 15:36:34.023934,-0.06826930432377386
2023-01-28 15:36:34.028934,-0.06904443353414524
2023-01-28 15:36:34.033934,-0.06938620202073839
2023-01-28 15:36:34.038934,-0.06918867677450176
2023-01-28 15:36:34.043934,-0.06870319189206732
2023-01-28 15:36:34.048934,-0.06822705268859859
2023-01-28 15:36:34.053934,-0.06777024316876688
2023-01-28 15:36:34.058934,-0.06731351464986796
2023-01-28 15:36:34.063934,-0.06705904462023281
2023-01-28 15:36:34.068934,-0.06707310676574697
2023-01-28 15:36:34.073934,-0.06694505503028722
2023-01-28 15:36:34.078934,-0.06611149013042444
2023-01-28 15:36:34.083934,-0.06427015584160252
2023-01-28 15:36:34.088934,-0.06123125553131096
2023-01-28 15:36:34.093934,-0.05671304491240869
2023-01-28 15:36:34.098934,-0.050653420388698536
2023-01-28 15:36:34.103934,-0.0434954046088529
2023-01-28 15:36:34.108934,-0.03589252755045887
2023-01-28 15:36:34.113934,-0.028417543339854655
2023-01-28 15:36:34.118934,-0.021852850914001423
2023-01-28 15:36:34.123934,-0.017444706054510144
2023-01-28 15:36:34.128934,-0.016443729400634727
2023-01-28 15:36:34.133934,-0.019462515661181023
2023-01-28 15:36:34.138934,-0.026372473686933556
2023-01-28 15:36:34.143934,-0.03642477598077259
2023-01-28 15:36:34.148934,-0.04815320298075663
2023-01-28 15:36:34.153934,-0.05954271967070527
2023-01-28 15:36:34.158934,-0.06885211169719682
2023-01-28 15:36:34.163934,-0.07534537266946616
2023-01-28 15:36:34.168934,-0.07918953895568831
2023-01-28 15:36:34.173934,-0.08096559692440836
2023-01-28 15:36:34.178934,-0.08140127360820756
2023-01-28 15:36:34.183934,-0.08094936292400862
2023-01-28 15:36:34.188934,-0.07887701690196985
2023-01-28 15:36:34.193934,-0.07272296958661091
2023-01-28 15:36:34.198934,-0.05909164994955061
2023-01-28 15:36:34.203934,-0.03547768364031315
2023-01-28 15:36:34.208934,-0.002187689300626507
2023-01-28 15:36:34.213934,0.03618252019365273
2023-01-28 15:36:34.218934,0.07043878734111772
2023-01-28 15:36:34.223934,0.08886202877073003
2023-01-28 15:36:34.228934,0.08171379566192619
2023-01-28 15:36:34.233934,0.045933688643814904
2023-01-28 15:36:34.238934,-0.01274148654192686
2023-01-28 15:36:34.243934,-0.08121693531224024
2023-01-28 15:36:34.248934,-0.14325758814811698
2023-01-28 15:36:34.253934,-0.18502111131910495
2023-01-28 15:36:34.258934,-0.19980093836784354
2023-01-28 15:36:34.263934,-0.1895847889075992
2023-01-28 15:36:34.268934,-0.16268233954906455
2023-01-28 15:36:34.273934,-0.12934680835348858
2023-01-28 15:36:34.278934,-0.0980613678693771
2023-01-28 15:36:34.283934,-0.07363207803459544
2023-01-28 15:36:34.288934,-0.0569520406424999
2023-01-28 15:36:34.293934,-0.046199422972563825
2023-01-28 15:36:34.298934,-0.03884951397776601
2023-01-28 15:36:34.303934,-0.03314721837467808
2023-01-28 15:36:34.308934,-0.02824763581156732
2023-01-28 15:36:34.313934,-0.023747782587066515
2023-01-28 15:36:34.318934,-0.019544959068298274
2023-01-28 15:36:34.323934,-0.01581244926132318
2023-01-28 15:36:34.328934,-0.012621283531188889
2023-01-28 15:36:34.333934,-0.009641858387756153
2023-01-28 15:36:34.338934,-0.006418824195861802
2023-01-28 15:36:34.343934,-0.0027225953444586677
2023-01-28 15:36:34.348934,0.0015866756439207894
2023-01-28 15:36:34.353934,0.0067480545648595305
2023-01-28 15:36:34.358934,0.012837648391723556
2023-01-28 15:36:34.363934,0.01954453305930606
2023-01-28 15:36:34.368934,0.026516716927289852
2023-01-28 15:36:34.373934,0.03376521019331883
2023-01-28 15:36:34.378934,0.041518013924360234
2023-01-28 15:36:34.383934,0.04993455732994256
2023-01-28 15:36:34.388934,0.05921185016632077
2023-01-28 15:36:34.393934,0.06966740390855532
2023-01-28 15:36:34.398934,0.08135318756103513
2023-01-28 15:36:34.403934,0.09375294894278248
2023-01-28 15:36:34.408934,0.10611494630575183
2023-01-28 15:36:34.413934,0.11787632040239782
2023-01-28 15:36:34.418934,0.1285447776317596
2023-01-28 15:36:34.423934,0.13747432900278972
2023-01-28 15:36:34.428934,0.14409899711608876
2023-01-28 15:36:34.433934,0.1481776634991252
2023-01-28 15:36:34.438934,0.1495321691036224
2023-01-28 15:36:34.443934,0.14779609739816654
2023-01-28 15:36:34.448934,0.14272868633270266
2023-01-28 15:36:34.453934,0.1345438816140336
2023-01-28 15:36:34.458934,0.12364050000905988
2023-01-28 15:36:34.463934,0.11027007440421296
2023-01-28 15:36:34.468934,0.09479185193777089
2023-01-28 15:36:34.473934,0.07799658277799106
2023-01-28 15:36:34.478934,0.06082256883382792
2023-01-28 15:36:34.483934,0.04395433781885731
2023-01-28 15:36:34.488934,0.027983188629150408
2023-01-28 15:36:34.493934,0.013653395717886136
2023-01-28 15:36:34.498934,0.0015385946026070863
2023-01-28 15:36:34.503934,-0.008314697481551094
2023-01-28 15:36:34.508934,-0.0160590820014476
2023-01-28 15:36:34.513934,-0.021599962269204923
2023-01-28 15:36:34.518934,-0.024857919663190776
2023-01-28 15:36:34.523934,-0.026220001775469928
2023-01-28 15:36:34.528934,-0.026276310905814067
2023-01-28 15:36:34.533934,-0.025300702116372135
2023-01-28 15:36:34.538934,-0.02343952655792223
2023-01-28 15:36:34.543934,-0.021201225940933478
2023-01-28 15:36:34.548934,-0.01918435096740716
2023-01-28 15:36:34.553934,-0.017355451439768767
2023-01-28 15:36:34.558934,-0.015097459778189621
2023-01-28 15:36:34.563934,-0.012019420205488155
2023-01-28 15:36:34.568934,-0.008342067711055156
2023-01-28 15:36:34.573934,-0.004513651414750936
2023-01-28 15:36:34.578934,-0.0008895000210031298
2023-01-28 15:36:34.583934,0.002146058533439682
2023-01-28 15:36:34.588934,0.004159013740718248
2023-01-28 15:36:34.593934,0.004964692061632699
2023-01-28 15:36:34.598934,0.004760026931762615
2023-01-28 15:36:34.603934,0.003913321897552038
2023-01-28 15:36:34.608934,0.0028127431869506146
2023-01-28 15:36:34.613934,0.0018909338853642943
2023-01-28 15:36:34.618934,0.0015145540237426485
2023-01-28 15:36:34.623934,0.001756180992099857
2023-01-28 15:36:34.628934,0.0024040541611611227
2023-01-28 15:36:34.633934,0.0031741000592254783
2023-01-28 15:36:34.638934,0.00377436494454741
2023-01-28 15:36:34.643934,0.0038668326306499994
2023-01-28 15:36:34.648934,0.003221432445570772
2023-01-28 15:36:34.653934,0.0019179825422948392
2023-01-28 15:36:34.658934,0.0002404054102953381
2023-01-28 15:36:34.663934,-0.0015856164136110256
2023-01-28 15:36:34.668934,-0.003413756843656318
2023-01-28 15:36:34.673934,-0.005054357195101218
2023-01-28 15:36:34.678934,-0.00634670257568348
2023-01-28 15:36:34.683934,-0.007292804177585054
2023-01-28 15:36:34.688934,-0.007933378219604397
2023-01-28 15:36:34.693934,-0.008158278751738848
2023-01-28 15:36:34.698934,-0.007813176140189086
2023-01-28 15:36:34.703934,-0.00690443334746107
2023-01-28 15:36:34.708934,-0.0055052838288246544
2023-01-28 15:36:34.713934,-0.003535600148613942
2023-01-28 15:36:34.718934,-0.0008173784008248883
2023-01-28 15:36:34.723934,0.002735708965494685
2023-01-28 15:36:34.728934,0.007164081092923832
2023-01-28 15:36:34.733934,0.012586993047494574
2023-01-28 15:36:34.738934,0.019040107727050753
2023-01-28 15:36:34.743934,0.026193704797860186
2023-01-28 15:36:34.748934,0.033344231545925085
2023-01-28 15:36:34.753934,0.03957343832879259
2023-01-28 15:36:34.758934,0.043777823448181034
2023-01-28 15:36:34.763934,0.0447592817101078
2023-01-28 15:36:34.768934,0.04168629646301255
2023-01-28 15:36:34.773934,0.03462711715427292
2023-01-28 15:36:34.778934,0.024617513641715
2023-01-28 15:36:34.783934,0.013288941940674712
2023-01-28 15:36:34.788934,0.002428094623610318
2023-01-28 15:36:34.793934,-0.006476917780780428
2023-01-28 15:36:34.798934,-0.012741486541926746
2023-01-28 15:36:34.803934,-0.016675859402898213
2023-01-28 15:36:34.808934,-0.019136270508170065
2023-01-28 15:36:34.813934,-0.020759497586086452
2023-01-28 15:36:34.818934,-0.021396081894636054
2023-01-28 15:36:34.823934,-0.01976979285309378
2023-01-28 15:36:34.828934,-0.013318459503352632
2023-01-28 15:36:34.833934,0.001284993053741284
2023-01-28 15:36:34.838934,0.026492675766348776
2023-01-28 15:36:34.843934,0.0616905240301146
2023-01-28 15:36:34.848934,0.10171552747488016
2023-01-28 15:36:34.853934,0.13703190101061863
2023-01-28 15:36:34.858934,0.15592694282531727
2023-01-28 15:36:34.863934,0.14852789321015536
2023-01-28 15:36:34.868934,0.11135578155517573
2023-01-28 15:36:34.873934,0.05001298656304138
2023-01-28 15:36:34.878934,-0.021924972534179573
2023-01-28 15:36:34.883934,-0.08752868562368886
2023-01-28 15:36:34.888934,-0.13239125907421107
2023-01-28 15:36:34.893934,-0.1492205589846391
2023-01-28 15:36:34.898934,-0.13945917785167694
2023-01-28 15:36:34.903934,-0.11144605509497137
2023-01-28 15:36:34.908934,-0.07616043090820306
2023-01-28 15:36:34.913934,-0.042866287766768235
2023-01-28 15:36:34.918934,-0.016732215881347663
2023-01-28 15:36:34.923934,0.0011848802970941012
2023-01-28 15:36:34.928934,0.012573203071951814
2023-01-28 15:36:34.933934,0.02015615194960475
2023-01-28 15:36:34.938934,0.026252269744873064
2023-01-28 15:36:34.943934,0.032048959882245834
2023-01-28 15:36:34.948934,0.03771960735321044
2023-01-28 15:36:34.953934,0.04293538046514914
2023-01-28 15:36:34.958934,0.04723966121673579
2023-01-28 15:36:34.963934,0.05027981928800876
2023-01-28 15:36:34.968934,0.05209585279226299
2023-01-28 15:36:34.973934,0.053284410332279895
2023-01-28 15:36:34.978934,0.05476435273885727
2023-01-28 15:36:34.983934,0.05734527906584567
2023-01-28 15:36:34.988934,0.06149570271372785
2023-01-28 15:36:34.993934,0.06731879344426664
2023-01-28 15:36:34.998934,0.07454971969127647
2023-01-28 15:36:35.003934,0.08266608108170553
2023-01-28 15:36:35.008934,0.09123384952545162
2023-01-28 15:36:35.013934,0.10021287615201056
2023-01-28 15:36:35.018934,0.1098893135786056
2023-01-28 15:36:35.023934,0.12057502449385814
2023-01-28 15:36:35.028934,0.13241529464721674
2023-01-28 15:36:35.033934,0.14531438726401982
2023-01-28 15:36:35.038934,0.15883585810661305
2023-01-28 15:36:35.043934,0.17219986870593376
2023-01-28 15:36:35.048934,0.1845351904630661
2023-01-28 15:36:35.053934,0.195181138863129
2023-01-28 15:36:35.058934,0.203743577003479
2023-01-28 15:36:35.063934,0.20996974539552546
2023-01-28 15:36:35.068934,0.21367232501506797
2023-01-28 15:36:35.073934,0.21469322707485677
2023-01-28 15:36:35.078934,0.21280686557292922
2023-01-28 15:36:35.083934,0.20768553193934863
2023-01-28 15:36:35.088934,0.19907972216606135
2023-01-28 15:36:35.093934,0.18708151510833426
2023-01-28 15:36:35.098934,0.17222642898559565
2023-01-28 15:36:35.103934,0.1553961808560883
2023-01-28 15:36:35.108934,0.1376321017742156
2023-01-28 15:36:35.113934,0.11992815348017781
2023-01-28 15:36:35.118934,0.10306179523468009
2023-01-28 15:36:35.123934,0.08753807276086013
2023-01-28 15:36:35.128934,0.0736361742019653
2023-01-28 15:36:35.133934,0.061492005588962576
2023-01-28 15:36:35.138934,0.05120635032653803
2023-01-28 15:36:35.143934,0.042925947218505636
2023-01-28 15:36:35.148934,0.036757986992597455
2023-01-28 15:36:35.153934,0.03259318042305015
2023-01-28 15:36:35.158934,0.03017087839543813
2023-01-28 15:36:35.163934,0.029377403637078997
2023-01-28 15:36:35.168934,0.030243000015616396
2023-01-28 15:36:35.173934,0.032500751739499935
2023-01-28 15:36:35.178934,0.035459797829389475
2023-01-28 15:36:35.183934,0.03862526477717464
2023-01-28 15:36:35.188934,0.0421671085059642
2023-01-28 15:36:35.193934,0.04632815848323557
2023-01-28 15:36:35.198934,0.050557255744933964
2023-01-28 15:36:35.203934,0.05378482341891106
2023-01-28 15:36:35.208934,0.055533647537231355
2023-01-28 15:36:35.213934,0.056240274151116446
2023-01-28 15:36:35.218934,0.05647122859954834
2023-01-28 15:36:35.223934,0.05640133404091763
2023-01-28 15:36:35.228934,0.05618274211883536
2023-01-28 15:36:35.233934,0.056201461901292514
2023-01-28 15:36:35.238934,0.05661547183990467
2023-01-28 15:36:35.243934,0.057050229190559756
2023-01-28 15:36:35.248934,0.057072244584560325
2023-01-28 15:36:35.253934,0.056640869172539056
2023-01-28 15:36:35.258934,0.055846177041530685
2023-01-28 15:36:35.263934,0.05457637587921714
2023-01-28 15:36:35.268934,0.052768986672163024
2023-01-28 15:36:35.273934,0.05068578998675818
2023-01-28 15:36:35.278934,0.048609972000122015
2023-01-28 15:36:35.283934,0.04651593209794184
2023-01-28 15:36:35.288934,0.04433075711131088
2023-01-28 15:36:35.293934,0.04228031940324707
2023-01-28 15:36:35.298934,0.04067659378051755
2023-01-28 15:36:35.303934,0.03956343514055188
2023-01-28 15:36:35.308934,0.03882547467946993
2023-01-28 15:36:35.313934,0.03840689342413379
2023-01-28 15:36:35.318934,0.038128297775983845
2023-01-28 15:36:35.323934,0.03750485288225622
2023-01-28 15:36:35.328934,0.03608485311269763
2023-01-28 15:36:35.333934,0.03387346281782594
2023-01-28 15:36:35.338934,0.031228661537170528
2023-01-28 15:36:35.343934,0.02853617481833224
2023-01-28 15:36:35.348934,0.02620418928563595
2023-01-28 15:36:35.353934,0.024713173944207235
2023-01-28 15:36:35.358934,0.024304986000060997
2023-01-28 15:36:35.363934,0.02471711831958952
2023-01-28 15:36:35.368934,0.02548297308385373
2023-01-28 15:36:35.373934,0.026411272779389018
2023-01-28 15:36:35.378934,0.027622580528259225
2023-01-28 15:36:35.383934,0.029349600191965825
2023-01-28 15:36:35.388934,0.031973920762538924
2023-01-28 15:36:35.393934,0.03605554641439268
2023-01-28 15:36:35.398934,0.041950743645429556
2023-01-28 15:36:35.403934,0.04938309011763262
2023-01-28 15:36:35.408934,0.05750497430562968
2023-01-28 15:36:35.413934,0.0651952955911739
2023-01-28 15:36:35.418934,0.07111191749572746
2023-01-28 15:36:35.423934,0.07374830136647435
2023-01-28 15:36:35.428934,0.07192929834127422
2023-01-28 15:36:35.433934,0.06540429033156502
2023-01-28 15:36:35.438934,0.05493263527750957
2023-01-28 15:36:35.443934,0.041971830806508716
2023-01-28 15:36:35.448934,0.02839187905192377
2023-01-28 15:36:35.453934,0.016106632169139757
2023-01-28 15:36:35.458934,0.006418824195861807
2023-01-28 15:36:35.463934,-0.0004646877764374911
2023-01-28 15:36:35.468934,-0.005216797348111868
2023-01-28 15:36:35.473934,-0.008735031428418968
2023-01-28 15:36:35.478934,-0.011563500389456645
2023-01-28 15:36:35.483934,-0.01331046363970421
2023-01-28 15:36:35.488934,-0.011948148719966413
2023-01-28 15:36:35.493934,-0.0037099109098188
2023-01-28 15:36:35.498934,0.015578269958496089
2023-01-28 15:36:35.503934,0.04802453555870732
2023-01-28 15:36:35.508934,0.09128193557262425
2023-01-28 15:36:35.513934,0.13739347863318263
2023-01-28 15:36:35.518934,0.1737409830093383
2023-01-28 15:36:35.523934,0.18664201541238368
2023-01-28 15:36:35.528934,0.166817307472229
2023-01-28 15:36:35.533934,0.11411168874690093
2023-01-28 15:36:35.538934,0.03865718841552739
2023-01-28 15:36:35.543934,-0.04228079518258424
2023-01-28 15:36:35.548934,-0.11022587865591031
2023-01-28 15:36:35.553934,-0.1516834869511141
2023-01-28 15:36:35.558934,-0.1621774882078169
2023-01-28 15:36:35.563934,-0.14644896113631778
2023-01-28 15:36:35.568934,-0.11496186256408682
2023-01-28 15:36:35.573934,-0.07897925044077718
2023-01-28 15:36:35.578934,-0.046879053115844574
2023-01-28 15:36:35.583934,-0.022784712114997604
2023-01-28 15:36:35.588934,-0.007019837852567302
2023-01-28 15:36:35.593934,0.0024124698411134584
2023-01-28 15:36:35.598934,0.008053581230342293
2023-01-28 15:36:35.603934,0.011786248164976428
2023-01-28 15:36:35.608934,0.014664730057120361
2023-01-28 15:36:35.613934,0.017265281202353197
2023-01-28 15:36:35.618934,0.019833445549011286
2023-01-28 15:36:35.623934,0.022290673918362074
2023-01-28 15:36:35.628934,0.024497311562299756
2023-01-28 15:36:35.633934,0.02657067734773601
2023-01-28 15:36:35.638934,0.028824608772993043
2023-01-28 15:36:35.643934,0.031519214576722486
2023-01-28 15:36:35.648934,0.034858785569667795
2023-01-28 15:36:35.653934,0.039092223044852346
2023-01-28 15:36:35.658934,0.044354796409606954
2023-01-28 15:36:35.663934,0.05047124396014853
2023-01-28 15:36:35.668934,0.0571203231811523
2023-01-28 15:36:35.673934,0.064137517233626
2023-01-28 15:36:35.678934,0.07152061164379106
2023-01-28 15:36:35.683934,0.07930027440467596
2023-01-28 15:36:35.688934,0.08762776851654058
2023-01-28 15:36:35.693934,0.09684158233124511
2023-01-28 15:36:35.698934,0.10714869201183308
2023-01-28 15:36:35.703934,0.11824480186990209
2023-01-28 15:36:35.708934,0.12938618659973136
2023-01-28 15:36:35.713934,0.13971640772081198
2023-01-28 15:36:35.718934,0.1483782231807707
2023-01-28 15:36:35.723934,0.15454690270004862
2023-01-28 15:36:35.728934,0.1577059477567671
2023-01-28 15:36:35.733934,0.15785163378270414
2023-01-28 15:36:35.738934,0.155205726623535
2023-01-28 15:36:35.743934,0.14980466051941896
2023-01-28 15:36:35.748934,0.1415507048368453
2023-01-28 15:36:35.753934,0.13050459952312105
2023-01-28 15:36:35.758934,0.11688511073589321
2023-01-28 15:36:35.763934,0.10095636313244237
2023-01-28 15:36:35.768934,0.08322834968566888
2023-01-28 15:36:35.773934,0.06463974730748492
2023-01-28 15:36:35.778934,0.04620591923594473
2023-01-28 15:36:35.783934,0.028536380719470806
2023-01-28 15:36:35.788934,0.011924108490347805
2023-01-28 15:36:35.793934,-0.003286050483327604
2023-01-28 15:36:35.798934,-0.01678029820322996
2023-01-28 15:36:35.803934,-0.028558761012647996
2023-01-28 15:36:35.808934,-0.03868123143911351
2023-01-28 15:36:35.813934,-0.046805173553267666
2023-01-28 15:36:35.818934,-0.05245646089315407
2023-01-28 15:36:35.823934,-0.055774879264950276
2023-01-28 15:36:35.828934,-0.05752901360392574
2023-01-28 15:36:35.833934,-0.0583188808049852
2023-01-28 15:36:35.838934,-0.058202147483825614
2023-01-28 15:36:35.843934,-0.05720288900042026
2023-01-28 15:36:35.848934,-0.05570193380117398
2023-01-28 15:36:35.853934,-0.054087143647907565
2023-01-28 15:36:35.858934,-0.05240837857127183
2023-01-28 15:36:35.863934,-0.0506556603604434
2023-01-28 15:36:35.868934,-0.04906674474477765
2023-01-28 15:36:35.873934,-0.047875935934367904
2023-01-28 15:36:35.878934,-0.04702329635620104
2023-01-28 15:36:35.883934,-0.04641697923161403
2023-01-28 15:36:35.888934,-0.04627804085612293
2023-01-28 15:36:35.893934,-0.04690082683696628
2023-01-28 15:36:35.898934,-0.04817724227905263
2023-01-28 15:36:35.903934,-0.04962501137370702
2023-01-28 15:36:35.908934,-0.05082170292735085
2023-01-28 15:36:35.913934,-0.05161763440393972
2023-01-28 15:36:35.918934,-0.052047770470380665
2023-01-28 15:36:35.923934,-0.052314797841377374
2023-01-28 15:36:35.928934,-0.05284110829234121
2023-01-28 15:36:35.933934,-0.054088112633177234
2023-01-28 15:36:35.938934,-0.056230824440717544
2023-01-28 15:36:35.943934,-0.059076489268625104
2023-01-28 15:36:35.948934,-0.062265001237392405
2023-01-28 15:36:35.953934,-0.0654478577284448
2023-01-28 15:36:35.958934,-0.0683472603559494
2023-01-28 15:36:35.963934,-0.07083809564863473
2023-01-28 15:36:35.968934,-0.07303516566753379
2023-01-28 15:36:35.973934,-0.07522415736667153
2023-01-28 15:36:35.978934,-0.07767498493194576
2023-01-28 15:36:35.983934,-0.08052567257438184
2023-01-28 15:36:35.988934,-0.08375724405050272
2023-01-28 15:36:35.993934,-0.08716389511629163
2023-01-28 15:36:35.998934,-0.09036839008331285
2023-01-28 15:36:36.003934,-0.09298338001758619
2023-01-28 15:36:36.008934,-0.09481589496135708
2023-01-28 15:36:36.013934,-0.09592940873921317
2023-01-28 15:36:36.018934,-0.09657084941864
2023-01-28 15:36:36.023934,-0.0970768162198474
2023-01-28 15:36:36.028934,-0.09774883836507774
2023-01-28 15:36:36.033934,-0.09866565869742705
2023-01-28 15:36:36.038934,-0.09957592189311973
2023-01-28 15:36:36.043934,-0.1000202748571621
2023-01-28 15:36:36.048934,-0.09957592189311971
2023-01-28 15:36:36.053934,-0.0980049190551566
2023-01-28 15:36:36.058934,-0.09527266025543217
2023-01-28 15:36:36.063934,-0.09152615506693021
2023-01-28 15:36:36.068934,-0.08702675998210899
2023-01-28 15:36:36.073934,-0.08202353632387314
2023-01-28 15:36:36.078934,-0.07671336829662319
2023-01-28 15:36:36.083934,-0.07140685011108297
2023-01-28 15:36:36.088934,-0.06673654168844213
2023-01-28 15:36:36.093934,-0.06364689679288651
2023-01-28 15:36:36.098934,-0.06315450370311723
2023-01-28 15:36:36.103934,-0.06604597726452059
2023-01-28 15:36:36.108934,-0.07257839292287815
2023-01-28 15:36:36.113934,-0.08221524411938873
2023-01-28 15:36:36.118934,-0.09361386299133301
2023-01-28 15:36:36.123934,-0.10505222283949384
2023-01-28 15:36:36.128934,-0.11508207023143763
2023-01-28 15:36:36.133934,-0.12296367037635415
2023-01-28 15:36:36.138934,-0.1287130564451217
2023-01-28 15:36:36.143934,-0.13289177333146998
2023-01-28 15:36:36.148934,-0.13616561889648424
2023-01-28 15:36:36.153934,-0.1385602295197947
2023-01-28 15:36:36.158934,-0.13868987560272208
2023-01-28 15:36:36.163934,-0.1336060983162084
2023-01-28 15:36:36.168934,-0.11969785392284393
2023-01-28 15:36:36.173934,-0.09448835915865768
2023-01-28 15:36:36.178934,-0.05875508114695539
2023-01-28 15:36:36.183934,-0.018108916955186467
2023-01-28 15:36:36.188934,0.017116865143179807
2023-01-28 15:36:36.193934,0.03451290397108057
2023-01-28 15:36:36.198934,0.02425690554082386
2023-01-28 15:36:36.203934,-0.01628448361615413
2023-01-28 15:36:36.208934,-0.0804156064987182
2023-01-28 15:36:36.213934,-0.15366728555327486
2023-01-28 15:36:36.218934,-0.21857659518718708
2023-01-28 15:36:36.223934,-0.26078595529375714
2023-01-28 15:36:36.228934,-0.2737977206707
2023-01-28 15:36:36.233934,-0.260217264794788
2023-01-28 15:36:36.238934,-0.2292265594005583
2023-01-28 15:36:36.243934,-0.19209244044545654
2023-01-28 15:36:36.248934,-0.158090591430664
2023-01-28 15:36:36.253934,-0.1322838024833286
2023-01-28 15:36:36.258934,-0.11541863530874243
2023-01-28 15:36:36.263934,-0.10544121457775588
2023-01-28 15:36:36.268934,-0.09955187886953344
2023-01-28 15:36:36.273934,-0.095575325445137
2023-01-28 15:36:36.278934,-0.0922195166349411
2023-01-28 15:36:36.283934,-0.08882577844457006
2023-01-28 15:36:36.288934,-0.0852237194776534
2023-01-28 15:36:36.293934,-0.08158862374528154
2023-01-28 15:36:36.298934,-0.0781077146530151
2023-01-28 15:36:36.303934,-0.07477320484788025
2023-01-28 15:36:36.308934,-0.07152061164379117
2023-01-28 15:36:36.313934,-0.06831259736397896
2023-01-28 15:36:36.318934,-0.06490945816040034
2023-01-28 15:36:36.323934,-0.0607961830967992
2023-01-28 15:36:36.328934,-0.0555817298591136
2023-01-28 15:36:36.333934,-0.04930794213512502
2023-01-28 15:36:36.338934,-0.04219114780426026
2023-01-28 15:36:36.343934,-0.0343012154544834
2023-01-28 15:36:36.348934,-0.025699337944388303
2023-01-28 15:36:36.353934,-0.016571275361062628
2023-01-28 15:36:36.358934,-0.0068996353074907875
2023-01-28 15:36:36.363934,0.003711353555204113
2023-01-28 15:36:36.368934,0.015506148338317803
2023-01-28 15:36:36.373934,0.02809016832310511
2023-01-28 15:36:36.378934,0.040772758424281894
2023-01-28 15:36:36.383934,0.05306340384230364
2023-01-28 15:36:36.388934,0.06445269286632524
2023-01-28 15:36:36.393934,0.07413374559192497
2023-01-28 15:36:36.398934,0.08152147382497772
2023-01-28 15:36:36.403934,0.08672438122899773
2023-01-28 15:36:36.408934,0.08991162478923789
2023-01-28 15:36:36.413934,0.090561379912881
2023-01-28 15:36:36.418934,0.0879883766174316
2023-01-28 15:36:36.423934,0.08221179144684837
2023-01-28 15:36:36.428934,0.07354001700878132
2023-01-28 15:36:36.433934,0.061815737878966964
2023-01-28 15:36:36.438934,0.04714350029826167
2023-01-28 15:36:36.443934,0.030930147404505132
2023-01-28 15:36:36.448934,0.014857053756713763
2023-01-28 15:36:36.453934,-0.0009319130577061116
2023-01-28 15:36:36.458934,-0.017092823982238683
2023-01-28 15:36:36.463934,-0.03269666669529611
2023-01-28 15:36:36.468934,-0.045556824654340765
2023-01-28 15:36:36.473934,-0.05532072612112063
2023-01-28 15:36:36.478934,-0.06411612033843989
2023-01-28 15:36:36.483934,-0.07307312541254377
2023-01-28 15:36:36.488934,-0.08010308444499946
2023-01-28 15:36:36.493934,-0.08266966039274168
2023-01-28 15:36:36.498934,-0.08125703036785109
2023-01-28 15:36:36.503934,-0.07831539330995566
2023-01-28 15:36:36.508934,-0.07498244941234575
2023-01-28 15:36:36.513934,-0.07089105003891763
2023-01-28 15:36:36.518934,-0.06639997661113729
2023-01-28 15:36:36.523934,-0.06271227470569635
2023-01-28 15:36:36.528934,-0.05988498777151093
2023-01-28 15:36:36.533934,-0.05670300410435508
2023-01-28 15:36:36.538934,-0.05272090435028071
2023-01-28 15:36:36.543934,-0.048750519391197705
2023-01-28 15:36:36.548934,-0.04507601261138906
2023-01-28 15:36:36.553934,-0.04081040800595903
2023-01-28 15:36:36.558934,-0.035507880151271716
2023-01-28 15:36:36.563934,-0.030033851677841093
2023-01-28 15:36:36.568934,-0.02529064938426004
2023-01-28 15:36:36.573934,-0.02128016381713395
2023-01-28 15:36:36.578934,-0.01795828342437734
2023-01-28 15:36:36.583934,-0.01584871973621781
2023-01-28 15:36:36.588934,-0.015121500007808151
2023-01-28 15:36:36.593934,-0.014998706477512034
2023-01-28 15:36:36.598934,-0.014736851677298489
2023-01-28 15:36:36.603934,-0.014436526816181423
2023-01-28 15:36:36.608934,-0.014352202415466251
2023-01-28 15:36:36.613934,-0.014193349308066113
2023-01-28 15:36:36.618934,-0.01367906760424364
2023-01-28 15:36:36.623934,-0.013058979449585914
2023-01-28 15:36:36.628934,-0.012501081451773578
2023-01-28 15:36:36.633934,-0.011606894021950996
2023-01-28 15:36:36.638934,-0.010097026824951068
2023-01-28 15:36:36.643934,-0.008398621525523366
2023-01-28 15:36:36.648934,-0.007019837852567444
2023-01-28 15:36:36.653934,-0.005862508891719073
2023-01-28 15:36:36.658934,-0.004615783691406183
2023-01-28 15:36:36.663934,-0.0032770486338343685
2023-01-28 15:36:36.668934,-0.001803040504455462
2023-01-28 15:36:36.673934,0.00019969384441970799
2023-01-28 15:36:36.678934,0.0028848648071288304
2023-01-28 15:36:36.683934,0.005698826337362978
2023-01-28 15:36:36.688934,0.00798145961016409
2023-01-28 15:36:36.693934,0.009651721108983593
2023-01-28 15:36:36.698934,0.010938446037471142
2023-01-28 15:36:36.703934,0.011939785277858505
2023-01-28 15:36:36.708934,0.01290977001190176
2023-01-28 15:36:36.713934,0.014511739547898191
2023-01-28 15:36:36.718934,0.01726110838353633
2023-01-28 15:36:36.723934,0.02103454922205684
2023-01-28 15:36:36.728934,0.025507014244794863
2023-01-28 15:36:36.733934,0.030675811728867262
2023-01-28 15:36:36.738934,0.03656566143035878
2023-01-28 15:36:36.743934,0.04285498279766582
2023-01-28 15:36:36.748934,0.049259066581726026
2023-01-28 15:36:36.753934,0.0559197359786472
2023-01-28 15:36:36.758934,0.06296217441558824
2023-01-28 15:36:36.763934,0.06995076848688321
2023-01-28 15:36:36.768934,0.07611235231161112
2023-01-28 15:36:36.773934,0.08071535699550834
2023-01-28 15:36:36.778934,0.082891784608364
2023-01-28 15:36:36.783934,0.08159901184505258
2023-01-28 15:36:36.788934,0.07637679576873765
2023-01-28 15:36:36.793934,0.06798785955228337
2023-01-28 15:36:36.798934,0.057985782623290974
2023-01-28 15:36:36.803934,0.047897887818577546
2023-01-28 15:36:36.808934,0.03899375721812238
2023-01-28 15:36:36.813934,0.03222105989666702
2023-01-28 15:36:36.818934,0.027718743309378527
2023-01-28 15:36:36.823934,0.024642909400925284
2023-01-28 15:36:36.828934,0.022045176476240044
2023-01-28 15:36:36.833934,0.020003547667127444
2023-01-28 15:36:36.838934,0.019953649491071663
2023-01-28 15:36:36.843934,0.024466880078895012
2023-01-28 15:36:36.848934,0.036854147911071736
2023-01-28 15:36:36.853934,0.05984679188086314
2023-01-28 15:36:36.858934,0.0930609330534933
2023-01-28 15:36:36.863934,0.13097302529425067
2023-01-28 15:36:36.868934,0.16342759132385246
2023-01-28 15:36:36.873934,0.17865981963138264
2023-01-28 15:36:36.878934,0.1674183309078215
2023-01-28 15:36:36.883934,0.1269691684529193
2023-01-28 15:36:36.888934,0.06353914737701422
2023-01-28 15:36:36.893934,-0.008785144694307731
2023-01-28 15:36:36.898934,-0.07308324426412584
2023-01-28 15:36:36.903934,-0.11585119945195413
2023-01-28 15:36:36.908934,-0.13104498386383048
2023-01-28 15:36:36.913934,-0.1207657375368069
2023-01-28 15:36:36.918934,-0.09332537651062016
2023-01-28 15:36:36.923934,-0.05954850475211882
2023-01-28 15:36:36.928934,-0.028560161590576106
2023-01-28 15:36:36.933934,-0.005209655782518429
2023-01-28 15:36:36.938934,0.009688338264822884
2023-01-28 15:36:36.943934,0.017598825097073036
2023-01-28 15:36:36.948934,0.020891230553388446
2023-01-28 15:36:36.953934,0.022011156712048053
2023-01-28 15:36:36.958934,0.02262214943766588
2023-01-28 15:36:36.963934,0.023203184296774204
2023-01-28 15:36:36.968934,0.02365589141845706
2023-01-28 15:36:36.973934,0.02403716609359693
2023-01-28 15:36:36.978934,0.024449229240417383
2023-01-28 15:36:36.983934,0.024740786626833263
2023-01-28 15:36:36.988934,0.02490600012242793
2023-01-28 15:36:36.993934,0.025484937102457236
2023-01-28 15:36:36.998934,0.02706964872777457
2023-01-28 15:36:37.003934,0.029693033434020227
2023-01-28 15:36:37.008934,0.03312786668539043
2023-01-28 15:36:37.013934,0.037399291629104214
2023-01-28 15:36:37.018934,0.042503677308559265
2023-01-28 15:36:37.023934,0.04804117142926449
2023-01-28 15:36:37.028934,0.0537306070327758
2023-01-28 15:36:37.033934,0.05995371153214795
2023-01-28 15:36:37.038934,0.0672173500061035
2023-01-28 15:36:37.043934,0.07541941369118256
2023-01-28 15:36:37.048934,0.08418997377157211
2023-01-28 15:36:37.053934,0.09350997265133087
2023-01-28 15:36:37.058934,0.1033262461423872
2023-01-28 15:36:37.063934,0.1129828428348316
2023-01-28 15:36:37.068934,0.121765337884426
2023-01-28 15:36:37.073934,0.12960051526594807
2023-01-28 15:36:37.078934,0.13645410537719724
2023-01-28 15:36:37.083934,0.14149016022833918
2023-01-28 15:36:37.088934,0.14371435344219197
2023-01-28 15:36:37.093934,0.14303674801868183
2023-01-28 15:36:37.098934,0.13977169990539554
2023-01-28 15:36:37.103934,0.13360178730799513
2023-01-28 15:36:37.108934,0.1242174729704856
2023-01-28 15:36:37.113934,0.11252831728127641
2023-01-28 15:36:37.118934,0.0997922867536544
2023-01-28 15:36:37.123934,0.0858173173691552
2023-01-28 15:36:37.128934,0.06971757113933558
2023-01-28 15:36:37.133934,0.05246037353176507
2023-01-28 15:36:37.138934,0.036709904670715394
2023-01-28 15:36:37.143934,0.02356063401370351
2023-01-28 15:36:37.148934,0.011275013908743858
2023-01-28 15:36:37.153934,-0.0016705692809093192
2023-01-28 15:36:37.158934,-0.013847351074218769
2023-01-28 15:36:37.163934,-0.022586071716217123
2023-01-28 15:36:37.168934,-0.027286013588309156
2023-01-28 15:36:37.173934,-0.02948801653779689
2023-01-28 15:36:37.178934,-0.030459364876151026
2023-01-28 15:36:37.183934,-0.030388545814076278
2023-01-28 15:36:37.188934,-0.029641985893249588
2023-01-28 15:36:37.193934,-0.02913527615453849
2023-01-28 15:36:37.198934,-0.029161175712943018
2023-01-28 15:36:37.203934,-0.0289741325283753
2023-01-28 15:36:37.208934,-0.027862986549734993
2023-01-28 15:36:37.213934,-0.025842603039019044
2023-01-28 15:36:37.218934,-0.023127000778913318
2023-01-28 15:36:37.223934,-0.019752897023678977
2023-01-28 15:36:37.228934,-0.016035040840506363
2023-01-28 15:36:37.233934,-0.012737386350290876
2023-01-28 15:36:37.238934,-0.010433594696223687
2023-01-28 15:36:37.243934,-0.009111223465324721
2023-01-28 15:36:37.248934,-0.0085824728012084
2023-01-28 15:36:37.253934,-0.008824062800188234
2023-01-28 15:36:37.258934,-0.009712378494441499
2023-01-28 15:36:37.263934,-0.010861917743649011
2023-01-28 15:36:37.268934,-0.011996230110526
2023-01-28 15:36:37.273934,-0.013198335306856221
2023-01-28 15:36:37.278934,-0.014640688896179128
2023-01-28 15:36:37.283934,-0.016368090489196296
2023-01-28 15:36:37.288934,-0.01848717592656611
2023-01-28 15:36:37.293934,-0.02124948643611581
2023-01-28 15:36:37.298934,-0.024737715721130295
2023-01-28 15:36:37.303934,-0.028680474195147753
2023-01-28 15:36:37.308934,-0.03271917626261709
2023-01-28 15:36:37.313934,-0.03665979952750179
2023-01-28 15:36:37.318934,-0.04036406800150872
2023-01-28 15:36:37.323934,-0.04363299021711439
2023-01-28 15:36:37.328934,-0.04635016247630104
2023-01-28 15:36:37.333934,-0.04855965661298984
2023-01-28 15:36:37.338934,-0.05026876926422112
2023-01-28 15:36:37.343934,-0.05132146984664057
2023-01-28 15:36:37.348934,-0.0515669584274291
2023-01-28 15:36:37.353934,-0.05100693816804258
2023-01-28 15:36:37.358934,-0.04969179630279534
2023-01-28 15:36:37.363934,-0.047624576424478135
2023-01-28 15:36:37.368934,-0.04485964775085434
2023-01-28 15:36:37.373934,-0.041556140572169706
2023-01-28 15:36:37.378934,-0.037839811295270816
2023-01-28 15:36:37.383934,-0.033724889307496245
2023-01-28 15:36:37.388934,-0.029233297333121147
2023-01-28 15:36:37.393934,-0.024454292979800753
2023-01-28 15:36:37.398934,-0.01940071582794178
2023-01-28 15:36:37.403934,-0.013911717771308464
2023-01-28 15:36:37.408934,-0.007765094749629384
2023-01-28 15:36:37.413934,-0.0008029740510369454
2023-01-28 15:36:37.418934,0.0070438785478472
2023-01-28 15:36:37.423934,0.015641070542389567
2023-01-28 15:36:37.428934,0.024401148781180285
2023-01-28 15:36:37.433934,0.03221255933859732
2023-01-28 15:36:37.438934,0.03771960735321045
2023-01-28 15:36:37.443934,0.03971190948663912
2023-01-28 15:36:37.448934,0.03740708157420151
2023-01-28 15:36:37.453934,0.030705979294454653
2023-01-28 15:36:37.458934,0.020410418510437067
2023-01-28 15:36:37.463934,0.008116664362957559
2023-01-28 15:36:37.468934,-0.004303256981074725
2023-01-28 15:36:37.473934,-0.015268081558487892
2023-01-28 15:36:37.478934,-0.023776095360517467
2023-01-28 15:36:37.483934,-0.02949070002568496
2023-01-28 15:36:37.488934,-0.032719176262617056
2023-01-28 15:36:37.493934,-0.03408090223279174
2023-01-28 15:36:37.498934,-0.033752918243408134
2023-01-28 15:36:37.503934,-0.03067559336466641
2023-01-28 15:36:37.508934,-0.022309621796011852
2023-01-28 15:36:37.513934,-0.005288363078775774
2023-01-28 15:36:37.518934,0.02298275753855708
2023-01-28 15:36:37.523934,0.06207336290025593
2023-01-28 15:36:37.528934,0.10659575462341295
2023-01-28 15:36:37.533934,0.1460907751236085
2023-01-28 15:36:37.538934,0.1676587313413618
2023-01-28 15:36:37.543934,0.1606808977155944
2023-01-28 15:36:37.548934,0.12159705162048329
2023-01-28 15:36:37.553934,0.0564425741788854
2023-01-28 15:36:37.558934,-0.020314257591962762
2023-01-28 15:36:37.563934,-0.09050318751211642
2023-01-28 15:36:37.568934,-0.13859371840953813
2023-01-28 15:36:37.573934,-0.15669949560137297
2023-01-28 15:36:37.578934,-0.14607033133506758
2023-01-28 15:36:37.583934,-0.11494002210377034
2023-01-28 15:36:37.588934,-0.07433335483074174
2023-01-28 15:36:37.593934,-0.033921892949620544
2023-01-28 15:36:37.598934,0.0004808108205907189
2023-01-28 15:36:37.603934,0.027178827903500877
2023-01-28 15:36:37.608934,0.04716753959655753
2023-01-28 15:36:37.613934,0.06232553337885378
2023-01-28 15:36:37.618934,0.07426123321056362
2023-01-28 15:36:37.623934,0.08395797477814086
2023-01-28 15:36:37.628934,0.09185890853404984
2023-01-28 15:36:37.633934,0.0981482363907368
2023-01-28 15:36:37.638934,0.10308583825826634
2023-01-28 15:36:37.643934,0.1071486864825751
2023-01-28 15:36:37.648934,0.11087497323751438
2023-01-28 15:36:37.653934,0.1146604989270293
2023-01-28 15:36:37.658934,0.11873622983694061
2023-01-28 15:36:37.663934,0.1232041108979075
2023-01-28 15:36:37.668934,0.12799184024333937
2023-01-28 15:36:37.673934,0.13289582392795468
2023-01-28 15:36:37.678934,0.13782441616058333
2023-01-28 15:36:37.683934,0.14296425153458703
2023-01-28 15:36:37.688934,0.1486426591873167
2023-01-28 15:36:37.693934,0.15513029603321937
2023-01-28 15:36:37.698934,0.16265830397605885
2023-01-28 15:36:37.703934,0.1714686968402467
2023-01-28 15:36:37.708934,0.18167436122894268
2023-01-28 15:36:37.713934,0.19315188868975222
2023-01-28 15:36:37.718934,0.20569086074829096
2023-01-28 15:36:37.723934,0.21910938162160554
2023-01-28 15:36:37.728934,0.2330490052700041
2023-01-28 15:36:37.733934,0.24677259822465777
2023-01-28 15:36:37.738934,0.2593493461608885
2023-01-28 15:36:37.743934,0.2699520114224621
2023-01-28 15:36:37.748934,0.2778605818748473
2023-01-28 15:36:37.753934,0.2824148399702435
2023-01-28 15:36:37.758934,0.28326970338821394
2023-01-28 15:36:37.763934,0.2805982398105421
2023-01-28 15:36:37.768934,0.2748074233531951
2023-01-28 15:36:37.773934,0.26620544768273663
2023-01-28 15:36:37.778934,0.2552143931388853
2023-01-28 15:36:37.783934,0.24269296352940783
2023-01-28 15:36:37.788934,0.22963523864746085
2023-01-28 15:36:37.793934,0.2166527874585316
2023-01-28 15:36:37.798934,0.20410418510437003
2023-01-28 15:36:37.803934,0.19249368674558426
2023-01-28 15:36:37.808934,0.1821551769971846
2023-01-28 15:36:37.813934,0.17266868749341835
2023-01-28 15:36:37.818934,0.16333143413066853
2023-01-28 15:36:37.823934,0.15430616673651146
2023-01-28 15:36:37.828934,0.1465751826763152
2023-01-28 15:36:37.833934,0.14052969126969803
2023-01-28 15:36:37.838934,0.13537228107452381
2023-01-28 15:36:37.843934,0.13037368083580805
2023-01-28 15:36:37.848934,0.12604455649852742
2023-01-28 15:36:37.853934,0.12340472437022708
2023-01-28 15:36:37.858934,0.12255867570638652
2023-01-28 15:36:37.863934,0.12270359980042501
2023-01-28 15:36:37.868934,0.1232318133115767
2023-01-28 15:36:37.873934,0.12406609272382557
2023-01-28 15:36:37.878934,0.1250348538160323
2023-01-28 15:36:37.883934,0.12568198242483336
2023-01-28 15:36:37.888934,0.12582819163799275
2023-01-28 15:36:37.893934,0.12578562259642448
2023-01-28 15:36:37.898934,0.12587627768516532
2023-01-28 15:36:37.903934,0.1261454578227604
2023-01-28 15:36:37.908934,0.12662152945995328
2023-01-28 15:36:37.913934,0.12740759854673095
2023-01-28 15:36:37.918934,0.12832841277122486
2023-01-28 15:36:37.923934,0.12880196053269471
2023-01-28 15:36:37.928934,0.12823224067687977
2023-01-28 15:36:37.933934,0.1263398012119566
2023-01-28 15:36:37.938934,0.12311160564422598
2023-01-28 15:36:37.943934,0.11878622167765786
2023-01-28 15:36:37.948934,0.11402428150176991
2023-01-28 15:36:37.953934,0.10977901639739296
2023-01-28 15:36:37.958934,0.10673999786376939
2023-01-28 15:36:37.963934,0.10495936443784278
2023-01-28 15:36:37.968934,0.10402341932058336
2023-01-28 15:36:37.973934,0.1033895313657694
2023-01-28 15:36:37.978934,0.10255694389343252
2023-01-28 15:36:37.983934,0.1012447896169916
2023-01-28 15:36:37.988934,0.09962400048971158
2023-01-28 15:36:37.993934,0.09824618724322386
2023-01-28 15:36:37.998934,0.09760459512472149
2023-01-28 15:36:38.003934,0.09781571608836653
2023-01-28 15:36:38.008934,0.09871046245098106
2023-01-28 15:36:38.013934,0.10004104791814779
2023-01-28 15:36:38.018934,0.10154724121093746
2023-01-28 15:36:38.023934,0.1030339227244256
2023-01-28 15:36:38.028934,0.1045282706618309
2023-01-28 15:36:38.033934,0.10626207559592248
2023-01-28 15:36:38.038934,0.10842283815145481
2023-01-28 15:36:38.043934,0.11101507116952093
2023-01-28 15:36:38.048934,0.11400024592876425
2023-01-28 15:36:38.053934,0.11744987348954591
2023-01-28 15:36:38.058934,0.12152493000030508
2023-01-28 15:36:38.063934,0.12644501833987337
2023-01-28 15:36:38.068934,0.13253550231456748
2023-01-28 15:36:38.073934,0.1401660412922916
2023-01-28 15:36:38.078934,0.14953216910362227
2023-01-28 15:36:38.083934,0.16051582115977775
2023-01-28 15:36:38.088934,0.17270724475383736
2023-01-28 15:36:38.093934,0.1853798470785446
2023-01-28 15:36:38.098934,0.19737283885478965
2023-01-28 15:36:38.103934,0.20715593633706383
2023-01-28 15:36:38.108934,0.21321555972099296
2023-01-28 15:36:38.113934,0.21454718884041601
2023-01-28 15:36:38.118934,0.21102786064147933
2023-01-28 15:36:38.123934,0.20360859484819752
2023-01-28 15:36:38.128934,0.19419948756694785
2023-01-28 15:36:38.133934,0.18508797368298147
2023-01-28 15:36:38.138934,0.17809233069419853
2023-01-28 15:36:38.143934,0.17397915809016612
2023-01-28 15:36:38.148934,0.1724427938461302
2023-01-28 15:36:38.153934,0.17251344880779368
2023-01-28 15:36:38.158934,0.17321209609508503
2023-01-28 15:36:38.163934,0.17438701109695365
2023-01-28 15:36:38.168934,0.17746727168560011
2023-01-28 15:36:38.173934,0.1855846499563573
2023-01-28 15:36:38.178934,0.20266175270080547
2023-01-28 15:36:38.183934,0.23155061905170957
2023-01-28 15:36:38.188934,0.2717542648315428
2023-01-28 15:36:38.193934,0.31765855338469323
2023-01-28 15:36:38.198934,0.3584925532341002
2023-01-28 15:36:38.203934,0.3808810203187548
2023-01-28 15:36:38.208934,0.3735659718513487
2023-01-28 15:36:38.213934,0.3323967776843489
2023-01-28 15:36:38.218934,0.2631477713584897
2023-01-28 15:36:38.223934,0.18052751629636274
2023-01-28 15:36:38.228934,0.1034704893827438
2023-01-28 15:36:38.233934,0.04864341056586415
2023-01-28 15:36:38.238934,0.025074284523725517
2023-01-28 15:36:38.243934,0.03220397314559279
2023-01-28 15:36:38.248934,0.06178418919444079
2023-01-28 15:36:38.253934,0.10218003250495157
2023-01-28 15:36:38.258934,0.14284889400005335
2023-01-28 15:36:38.263934,0.1771702431750748
2023-01-28 15:36:38.268934,0.20292620360851268
2023-01-28 15:36:38.273934,0.22099199115249135
2023-01-28 15:36:38.278934,0.23350577056407912
2023-01-28 15:36:38.283934,0.24254552199179047
2023-01-28 15:36:38.288934,0.2495648562908171
2023-01-28 15:36:38.293934,0.2553407971972562
2023-01-28 15:36:38.298934,0.26016673445701577
2023-01-28 15:36:38.303934,0.2641001680223746
2023-01-28 15:36:38.308934,0.26711446046829207
2023-01-28 15:36:38.313934,0.26916488592339394
2023-01-28 15:36:38.318934,0.27031183242797835
2023-01-28 15:36:38.323934,0.270889122812274
2023-01-28 15:36:38.328934,0.27151387929916376
2023-01-28 15:36:38.333934,0.2728807768396888
2023-01-28 15:36:38.338934,0.2755286395549774
2023-01-28 15:36:38.343934,0.2797041086882032
2023-01-28 15:36:38.348934,0.28528910875320423
2023-01-28 15:36:38.353934,0.29184773264324976
2023-01-28 15:36:38.358934,0.2988960444927214
2023-01-28 15:36:38.363934,0.3062175427974988
2023-01-28 15:36:38.368934,0.31389734148979176
2023-01-28 15:36:38.373934,0.32209587382427735
2023-01-28 15:36:38.378934,0.33086997270584084
2023-01-28 15:36:38.383934,0.34010741676889406
2023-01-28 15:36:38.388934,0.34942924976348866
2023-01-28 15:36:38.393934,0.35817571199169523
2023-01-28 15:36:38.398934,0.36568066477775557
2023-01-28 15:36:38.403934,0.37156654109972925
2023-01-28 15:36:38.408934,0.3756334483623503
2023-01-28 15:36:38.413934,0.3775473007451375
2023-01-28 15:36:38.418934,0.3768595159053801
2023-01-28 15:36:38.423934,0.3732540087395949
2023-01-28 15:36:38.428934,0.3665220737457274
2023-01-28 15:36:38.433934,0.35640957706183796
2023-01-28 15:36:38.438934,0.34284216165542586
2023-01-28 15:36:38.443934,0.3262389328771546
2023-01-28 15:36:38.448934,0.30723810195922846
2023-01-28 15:36:38.453934,0.28620774640038016
2023-01-28 15:36:38.458934,0.2634843289852141
2023-01-28 15:36:38.463934,0.23999463924834613
2023-01-28 15:36:38.468934,0.21703800559043876
2023-01-28 15:36:38.473934,0.19546518571107288
2023-01-28 15:36:38.478934,0.17576038837432853
2023-01-28 15:36:38.483934,0.1589279126587435
2023-01-28 15:36:38.488934,0.14626264572143544
2023-01-28 15:36:38.493934,0.1377585326007245
2023-01-28 15:36:38.498934,0.13162195682525624
2023-01-28 15:36:38.503934,0.12610486851542016
2023-01-28 15:36:38.508934,0.12121240794658661
2023-01-28 15:36:38.513934,0.11788245660140748
2023-01-28 15:36:38.518934,0.11611580848693834
2023-01-28 15:36:38.523934,0.11490671811492775
2023-01-28 15:36:38.528934,0.1136636734008789
2023-01-28 15:36:38.533934,0.11264495306630021
2023-01-28 15:36:38.538934,0.11205296218395225
2023-01-28 15:36:38.543934,0.11164657568846682
2023-01-28 15:36:38.548934,0.11135578155517563
2023-01-28 15:36:38.553934,0.1114411549000211
2023-01-28 15:36:38.558934,0.11178851127624503
2023-01-28 15:36:38.563934,0.11169371751432887
2023-01-28 15:36:38.568934,0.1106345653533934
2023-01-28 15:36:38.573934,0.10879941013791852
2023-01-28 15:36:38.578934,0.1066919192671775
2023-01-28 15:36:38.583934,0.10467945924404465
2023-01-28 15:36:38.588934,0.10306179523468012
2023-01-28 15:36:38.593934,0.10204825574593661
2023-01-28 15:36:38.598934,0.10137896239757524
2023-01-28 15:36:38.603934,0.10033467843515509
2023-01-28 15:36:38.608934,0.09837388992309572
2023-01-28 15:36:38.613934,0.09552758526541151
2023-01-28 15:36:38.618934,0.09209930896759025
2023-01-28 15:36:38.623934,0.08834199058303839
2023-01-28 15:36:38.628934,0.08455058187246312
2023-01-28 15:36:38.633934,0.08107404371995072
2023-01-28 15:36:38.638934,0.07798751443624487
2023-01-28 15:36:38.643934,0.07497842750409991
2023-01-28 15:36:38.648934,0.07168889045715325
2023-01-28 15:36:38.653934,0.06794818201300316
2023-01-28 15:36:38.658934,0.06363531202077856
2023-01-28 15:36:38.663934,0.05868418457842802
2023-01-28 15:36:38.668934,0.05341808125376703
2023-01-28 15:36:38.673934,0.04862628472006662
2023-01-28 15:36:38.678934,0.04512409493327134
2023-01-28 15:36:38.683934,0.04336170004726618
2023-01-28 15:36:38.688934,0.043441258370876236
2023-01-28 15:36:38.693934,0.045177724374728806
2023-01-28 15:36:38.698934,0.048008959740400294
2023-01-28 15:36:38.703934,0.051136078801489245
2023-01-28 15:36:38.708934,0.05397101491689688
2023-01-28 15:36:38.713934,0.056346391045662234
2023-01-28 15:36:38.718934,0.05827426910400394
2023-01-28 15:36:38.723934,0.05973888640128234
2023-01-28 15:36:38.728934,0.0607744865119457
2023-01-28 15:36:38.733934,0.06143728558567525
2023-01-28 15:36:38.738934,0.061495702713727965
2023-01-28 15:36:38.743934,0.06027203810084526
2023-01-28 15:36:38.748934,0.0568799190223217
2023-01-28 15:36:38.753934,0.05053471141994548
2023-01-28 15:36:38.758934,0.04074871540069578
2023-01-28 15:36:38.763934,0.02762665350729413
2023-01-28 15:36:38.768934,0.012188553810119695
2023-01-28 15:36:38.773934,-0.003781053103330952
2023-01-28 15:36:38.778934,-0.018439095467328914
2023-01-28 15:36:38.783934,-0.030561460486935168
2023-01-28 15:36:38.788934,-0.039787095040082786
2023-01-28 15:36:38.793934,-0.04657897316563285
2023-01-28 15:36:38.798934,-0.051975648850202505
2023-01-28 15:36:38.803934,-0.05690963710154129
2023-01-28 15:36:38.808934,-0.06123125553131091
2023-01-28 15:36:38.813934,-0.06312195990407947
2023-01-28 15:36:38.818934,-0.05940417572855932
2023-01-28 15:36:38.823934,-0.04671626020841232
2023-01-28 15:36:38.828934,-0.02334336563944805
2023-01-28 15:36:38.833934,0.008711193806793735
2023-01-28 15:36:38.838934,0.0425036773085594
2023-01-28 15:36:38.843934,0.06712403548683513
2023-01-28 15:36:38.848934,0.07116000354289997
2023-01-28 15:36:38.853934,0.04734271691623863
2023-01-28 15:36:38.858934,-0.003726283786818262
2023-01-28 15:36:38.863934,-0.07259672917956443
2023-01-28 15:36:38.868934,-0.14359414577484125
2023-01-28 15:36:38.873934,-0.20028118034304998
2023-01-28 15:36:38.878934,-0.23129403591155984
2023-01-28 15:36:38.883934,-0.23374440474764022
2023-01-28 15:36:38.888934,-0.21290302276611306
2023-01-28 15:36:38.893934,-0.17893049909138653
2023-01-28 15:36:38.898934,-0.14251232147216775
2023-01-28 15:36:38.903934,-0.11129741701331868
2023-01-28 15:36:38.908934,-0.08844514936208711
2023-01-28 15:36:38.913934,-0.07341017811898548
2023-01-28 15:36:38.918934,-0.06385167688131328
2023-01-28 15:36:38.923934,-0.05730113786150199
2023-01-28 15:36:38.928934,-0.052023731172084677
2023-01-28 15:36:38.933934,-0.047214406062004693
2023-01-28 15:36:38.938934,-0.042744081467389984
2023-01-28 15:36:38.943934,-0.03869589602909111
2023-01-28 15:36:38.948934,-0.03507515043020235
2023-01-28 15:36:38.953934,-0.031826929000018815
2023-01-28 15:36:38.958934,-0.02887268923223011
2023-01-28 15:36:38.963934,-0.02603055866399624
2023-01-28 15:36:38.968934,-0.023078918457031136
2023-01-28 15:36:38.973934,-0.019987059646390023
2023-01-28 15:36:38.978934,-0.01692454144358624
2023-01-28 15:36:38.983934,-0.014019969761059304
2023-01-28 15:36:38.988934,-0.011323094367980853
2023-01-28 15:36:38.993934,-0.008970708587952757
2023-01-28 15:36:38.998934,-0.007043878547847204
2023-01-28 15:36:39.003934,-0.005231614228701455
2023-01-28 15:36:39.008934,-0.0030050675850360827
2023-01-28 15:36:39.013934,-0.0001448955685475776
2023-01-28 15:36:39.018934,0.003293554065748931
2023-01-28 15:36:39.023934,0.00741028199670059
2023-01-28 15:36:39.028934,0.01218855381011961
2023-01-28 15:36:39.033934,0.016839533276593273
2023-01-28 15:36:39.038934,0.020290216431021624
2023-01-28 15:36:39.043934,0.022410035351811193
2023-01-28 15:36:39.048934,0.023728013038635226
2023-01-28 15:36:39.053934,0.023819448957646046
2023-01-28 15:36:39.058934,0.021444162353873194
2023-01-28 15:36:39.063934,0.016769509844005968
2023-01-28 15:36:39.068934,0.01151541899889701
2023-01-28 15:36:39.073934,0.0055002503650877
2023-01-28 15:36:39.078934,-0.005072554107755434
2023-01-28 15:36:39.083934,-0.023432633034304234
2023-01-28 15:36:39.088934,-0.04738390445709213
2023-01-28 15:36:39.093934,-0.07145015981623429
2023-01-28 15:36:39.098934,-0.09358982741832725
2023-01-28 15:36:39.103934,-0.11668738330060953
2023-01-28 15:36:39.108934,-0.14275273680686942
2023-01-28 15:36:39.113934,-0.16885421696735758
2023-01-28 15:36:39.118934,-0.19083380699157707
2023-01-28 15:36:39.123934,-0.2088155251803857
2023-01-28 15:36:39.128934,-0.22634169459342934
2023-01-28 15:36:39.133934,-0.2450614372700162
2023-01-28 15:36:39.138934,-0.2628592848777769
2023-01-28 15:36:39.143934,-0.2771190765323162
2023-01-28 15:36:39.148934,-0.28762102127075173
2023-01-28 15:36:39.153934,-0.29569740269491157
2023-01-28 15:36:39.158934,-0.3022376894950865
2023-01-28 15:36:39.163934,-0.30751375026712807
2023-01-28 15:36:39.168934,-0.31202217936515786
2023-01-28 15:36:39.173934,-0.3164971965761493
2023-01-28 15:36:39.178934,-0.32134991884231545
2023-01-28 15:36:39.183934,-0.32662895045499196
2023-01-28 15:36:39.188934,-0.3323845267295836
2023-01-28 15:36:39.193934,-0.3387552760016627
2023-01-28 15:36:39.198934,-0.34579914808273315
2023-01-28 15:36:39.203934,-0.35343276188904915
2023-01-28 15:36:39.208934,-0.36149761080741866
2023-01-28 15:36:39.213934,-0.36984896705538284
2023-01-28 15:36:39.218934,-0.378470242023468
2023-01-28 15:36:39.223934,-0.3875036672021696
2023-01-28 15:36:39.228934,-0.3970776200294493
2023-01-28 15:36:39.233934,-0.40710846105045484
2023-01-28 15:36:39.238934,-0.4172956943511961
2023-01-28 15:36:39.243934,-0.42720785323489296
2023-01-28 15:36:39.248934,-0.4363358020782469
2023-01-28 15:36:39.253934,-0.4442570846155502
2023-01-28 15:36:39.258934,-0.4509043693542479
2023-01-28 15:36:39.263934,-0.45657055342770336
2023-01-28 15:36:39.268934,-0.4615543484687805
2023-01-28 15:36:39.273934,-0.4659108314241242
2023-01-28 15:36:39.278934,-0.46958386898040755
2023-01-28 15:36:39.283934,-0.4725849317576407
2023-01-28 15:36:39.288934,-0.4749689698219298
2023-01-28 15:36:39.293934,-0.47686379555518166
2023-01-28 15:36:39.298934,-0.47864717245101895
2023-01-28 15:36:39.303934,-0.48088705249894326
2023-01-28 15:36:39.308934,-0.48396012187004056
2023-01-28 15:36:39.313934,-0.487868390364681
2023-01-28 15:36:39.318934,-0.492470473051071
2023-01-28 15:36:39.323934,-0.49763816999142785
2023-01-28 15:36:39.328934,-0.5030723810195921
2023-01-28 15:36:39.333934,-0.508216399602155
2023-01-28 15:36:39.338934,-0.5125203132629393
2023-01-28 15:36:39.343934,-0.5156381939621929
2023-01-28 15:36:39.348934,-0.517328381538391
2023-01-28 15:36:39.353934,-0.5174673507849672
2023-01-28 15:36:39.358934,-0.516342759132385
2023-01-28 15:36:39.363934,-0.5147196896610997
2023-01-28 15:36:39.368934,-0.5134578943252561
2023-01-28 15:36:39.373934,-0.5132169975397455
2023-01-28 15:36:39.378934,-0.5145637392997738
2023-01-28 15:36:39.383934,-0.5180245521878655
2023-01-28 15:36:39.388934,-0.5237953066825863
2023-01-28 15:36:39.393934,-0.531557392820978
2023-01-28 15:36:39.398934,-0.540695786476135
2023-01-28 15:36:39.403934,-0.5505107434581037
2023-01-28 15:36:39.408934,-0.5601686239242549
2023-01-28 15:36:39.413934,-0.5687893827907174
2023-01-28 15:36:39.418934,-0.5758430957794187
2023-01-28 15:36:39.423934,-0.5813367746403452
2023-01-28 15:36:39.428934,-0.5855073928833004
2023-01-28 15:36:39.433934,-0.5884605607579814
2023-01-28 15:36:39.438934,-0.5900029540061947
2023-01-28 15:36:39.443934,-0.5892907142531166
2023-01-28 15:36:39.448934,-0.5843053460121151
2023-01-28 15:36:39.453934,-0.5720303896845786
2023-01-28 15:36:39.458934,-0.5498793125152585
2023-01-28 15:36:39.463934,-0.517732690896128
2023-01-28 15:36:39.468934,-0.47951263189315774
2023-01-28 15:36:39.473934,-0.4435649233708696
2023-01-28 15:36:39.478934,-0.4211902618408203
2023-01-28 15:36:39.483934,-0.42295022889441347
2023-01-28 15:36:39.488934,-0.4538854062557219
2023-01-28 15:36:39.493934,-0.5103049085857873
2023-01-28 15:36:39.498934,-0.580218434333801
2023-01-28 15:36:39.503934,-0.6472285532447947
2023-01-28 15:36:39.508934,-0.6960698366165158
2023-01-28 15:36:39.513934,-0.7176549566196099
2023-01-28 15:36:39.518934,-0.7116240262985227
2023-01-28 15:36:39.523934,-0.6851768754594603
2023-01-28 15:36:39.528934,-0.6489744186401365
2023-01-28 15:36:39.533934,-0.6127030085648097
2023-01-28 15:36:39.538934,-0.5825023055076598
2023-01-28 15:36:39.543934,-0.560547307191424
2023-01-28 15:36:39.548934,-0.5459847450256344
2023-01-28 15:36:39.553934,-0.5365276863295075
2023-01-28 15:36:39.558934,-0.5299977660179138
2023-01-28 15:36:39.563934,-0.5249842901684778
2023-01-28 15:36:39.568934,-0.5205498337745664
2023-01-28 15:36:39.573934,-0.515880156524132
2023-01-28 15:36:39.578934,-0.5104528069496153
2023-01-28 15:36:39.583934,-0.5042567843707628
2023-01-28 15:36:39.588934,-0.4975911080837248
2023-01-28 15:36:39.593934,-0.4907707212687522
2023-01-28 15:36:39.598934,-0.4840803146362303
2023-01-28 15:36:39.603934,-0.47768834551579326
2023-01-28 15:36:39.608934,-0.47136288881301863
2023-01-28 15:36:39.613934,-0.46444991284839793
2023-01-28 15:36:39.618934,-0.4563134908676146
2023-01-28 15:36:39.623934,-0.446676112937989
2023-01-28 15:36:39.628934,-0.43549439311027505
2023-01-28 15:36:39.633934,-0.422797909281346
2023-01-28 15:36:39.638934,-0.40880939364433266
2023-01-28 15:36:39.643934,-0.3939620626600959
2023-01-28 15:36:39.648934,-0.37859043478965726
2023-01-28 15:36:39.653934,-0.362771419873586
2023-01-28 15:36:39.658934,-0.3465924859046936
2023-01-28 15:36:39.663934,-0.3303755732438133
2023-01-28 15:36:39.668934,-0.31454643607139576
2023-01-28 15:36:39.673934,-0.2995562356723888
2023-01-28 15:36:39.678934,-0.2860824465751647
2023-01-28 15:36:39.683934,-0.275035097908464
2023-01-28 15:36:39.688934,-0.2671384811401367
2023-01-28 15:36:39.693934,-0.26264198471981703
2023-01-28 15:36:39.698934,-0.26151299476623524
2023-01-28 15:36:39.703934,-0.26365530202994697
2023-01-28 15:36:39.708934,-0.2688213288784026
2023-01-28 15:36:39.713934,-0.2766120670319738
2023-01-28 15:36:39.718934,-0.28677961230278004
2023-01-28 15:36:39.723934,-0.299328109186086
2023-01-28 15:36:39.728934,-0.3141617774963377
2023-01-28 15:36:39.733934,-0.33084224646384475
2023-01-28 15:36:39.738934,-0.34880420565605164
2023-01-28 15:36:39.743934,-0.3675262384973116
2023-01-28 15:36:39.748934,-0.3863074481487274
2023-01-28 15:36:39.753934,-0.4041344846344426
2023-01-28 15:36:39.758934,-0.41998824477195723
2023-01-28 15:36:39.763934,-0.43312109792820985
2023-01-28 15:36:39.768934,-0.4429709911346434
2023-01-28 15:36:39.773934,-0.44917949283094716
2023-01-28 15:36:39.778934,-0.4519861936569212
2023-01-28 15:36:39.783934,-0.4523839913719941
2023-01-28 15:36:39.788934,-0.4516015648841856
2023-01-28 15:36:39.793934,-0.4505108912572196
2023-01-28 15:36:39.798934,-0.44958215951919545
2023-01-28 15:36:39.803934,-0.44904477968800355
2023-01-28 15:36:39.808934,-0.44876477122306824
2023-01-28 15:36:39.813934,-0.4481617238600097
2023-01-28 15:36:39.818934,-0.44660112261772156
2023-01-28 15:36:39.823934,-0.44389158607659707
2023-01-28 15:36:39.828934,-0.440326541662216
2023-01-28 15:36:39.833934,-0.4364233721788746
2023-01-28 15:36:39.838934,-0.43277782201766957
2023-01-28 15:36:39.843934,-0.42997342762387747
2023-01-28 15:36:39.848934,-0.42837840318679793
2023-01-28 15:36:39.853934,-0.4280571630474495
2023-01-28 15:36:39.858934,-0.42893132567405706
2023-01-28 15:36:39.863934,-0.43084653205146567
2023-01-28 15:36:39.868934,-0.43337881565093983
2023-01-28 15:36:39.873934,-0.4358070607907795
2023-01-28 15:36:39.878934,-0.4375137984752655
2023-01-28 15:36:39.883934,-0.43838618243456523
2023-01-28 15:36:39.888934,-0.4388119876384735
2023-01-28 15:36:39.893934,-0.43946605530291116
2023-01-28 15:36:39.898934,-0.44111987948417647
2023-01-28 15:36:39.903934,-0.44433159454041804
2023-01-28 15:36:39.908934,-0.44907730817794766
2023-01-28 15:36:39.913934,-0.45480241080632533
2023-01-28 15:36:39.918934,-0.46095332503318776
2023-01-28 15:36:39.923934,-0.4673349305092256
2023-01-28 15:36:39.928934,-0.4739111661911009
2023-01-28 15:36:39.933934,-0.480477095238332
2023-01-28 15:36:39.938934,-0.4866045713424681
2023-01-28 15:36:39.943934,-0.4916742223423034
2023-01-28 15:36:39.948934,-0.49487453699111916
2023-01-28 15:36:39.953934,-0.4954571044546036
2023-01-28 15:36:39.958934,-0.4931916892528533
2023-01-28 15:36:39.963934,-0.48841410741098557
2023-01-28 15:36:39.968934,-0.481532037258148
2023-01-28 15:36:39.973934,-0.47269693692383397
2023-01-28 15:36:39.978934,-0.4620832204818724
2023-01-28 15:36:39.983934,-0.4503158752356489
2023-01-28 15:36:39.988934,-0.4385715723037718
2023-01-28 15:36:39.993934,-0.42847232608167374
2023-01-28 15:36:39.998934,-0.42181533575057983
2023-01-28 15:36:40.003934,-0.4198351897341356
2023-01-28 15:36:40.008934,-0.422248065471649
2023-01-28 15:36:40.013934,-0.42706167398023936
2023-01-28 15:36:40.018934,-0.4315517544746397
2023-01-28 15:36:40.023934,-0.43357619729256003
2023-01-28 15:36:40.028934,-0.43232104182243336
2023-01-28 15:36:40.033934,-0.4284195780282403
2023-01-28 15:36:40.038934,-0.4236183762550354
2023-01-28 15:36:40.043934,-0.41991573295233153
2023-01-28 15:36:40.048934,-0.4185217618942259
2023-01-28 15:36:40.053934,-0.41953320237988606
2023-01-28 15:36:40.058934,-0.42256057262420654
2023-01-28 15:36:40.063934,-0.427439535604308
2023-01-28 15:36:40.068934,-0.4343163967132567
2023-01-28 15:36:40.073934,-0.4433594550345737
2023-01-28 15:36:40.078934,-0.4544143080711365
2023-01-28 15:36:40.083934,-0.4663745269039869
2023-01-28 15:36:40.088934,-0.4763873517513275
2023-01-28 15:36:40.093934,-0.47984639738213525
2023-01-28 15:36:40.098934,-0.4718196392059327
2023-01-28 15:36:40.103934,-0.4494018434534898
2023-01-28 15:36:40.108934,-0.4140262007713316
2023-01-28 15:36:40.113934,-0.3729255941772244
2023-01-28 15:36:40.118934,-0.3386591076850891
2023-01-28 15:36:40.123934,-0.32566330872078125
2023-01-28 15:36:40.128934,-0.34450095891952515
2023-01-28 15:36:40.133934,-0.39664653442652886
2023-01-28 15:36:40.138934,-0.47273319959640503
2023-01-28 15:36:40.143934,-0.555168189589606
2023-01-28 15:36:40.148934,-0.6240203380584715
2023-01-28 15:36:40.153934,-0.6639518416017304
2023-01-28 15:36:40.158934,-0.6692886352539062
2023-01-28 15:36:40.163934,-0.6447808940744376
2023-01-28 15:36:40.168934,-0.6019991636276244
2023-01-28 15:36:40.173934,-0.5539390413191738
2023-01-28 15:36:40.178934,-0.5107172727584837
2023-01-28 15:36:40.183934,-0.4775750166574287
2023-01-28 15:36:40.188934,-0.4550874233245848
2023-01-28 15:36:40.193934,-0.4410421266325117
2023-01-28 15:36:40.198934,-0.4328499436378478
2023-01-28 15:36:40.203934,-0.4289689486645046
2023-01-28 15:36:40.208934,-0.4288111329078673
2023-01-28 15:36:40.213934,-0.43202089615839756
2023-01-28 15:36:40.218934,-0.4379945993423461
2023-01-28 15:36:40.223934,-0.445569757287404
2023-01-28 15:36:40.228934,-0.4528035819530486
2023-01-28 15:36:40.233934,-0.45735046701443416
2023-01-28 15:36:40.238934,-0.4574914872646332
2023-01-28 15:36:40.243934,-0.45288631516124694
2023-01-28 15:36:40.248934,-0.4444134235382079
2023-01-28 15:36:40.253934,-0.4335842224375944
2023-01-28 15:36:40.258934,-0.42207977175712585
2023-01-28 15:36:40.263934,-0.4112341526084506
2023-01-28 15:36:40.268934,-0.401452988386154
2023-01-28 15:36:40.273934,-0.39221258763286837
2023-01-28 15:36:40.278934,-0.3827975392341614
2023-01-28 15:36:40.283934,-0.37290868701576035
2023-01-28 15:36:40.288934,-0.36257943511009205
2023-01-28 15:36:40.293934,-0.3519417204868556
2023-01-28 15:36:40.298934,-0.34130355715751637
2023-01-28 15:36:40.303934,-0.33111753878771294
2023-01-28 15:36:40.308934,-0.3216143548488616
2023-01-28 15:36:40.313934,-0.31272110033911593
2023-01-28 15:36:40.318934,-0.3045215308666228
2023-01-28 15:36:40.323934,-0.29749616464043044
2023-01-28 15:36:40.328934,-0.2921166121959686
2023-01-28 15:36:40.333934,-0.28852335026161186
2023-01-28 15:36:40.338934,-0.2868276834487915
2023-01-28 15:36:40.343934,-0.28744171877522423
2023-01-28 15:36:40.348934,-0.2909145951271057
2023-01-28 15:36:40.353934,-0.29773946509599375
2023-01-28 15:36:40.358934,-0.3084401488304138
2023-01-28 15:36:40.363934,-0.3233362311231229
2023-01-28 15:36:40.368934,-0.341784358024597
2023-01-28 15:36:40.373934,-0.3618654048713512
2023-01-28 15:36:40.378934,-0.38113874197006214
2023-01-28 15:36:40.383934,-0.3976669829153342
2023-01-28 15:36:40.388934,-0.4104681909084319
2023-01-28 15:36:40.393934,-0.41966007454635523
2023-01-28 15:36:40.398934,-0.4265513122081755
2023-01-28 15:36:40.403934,-0.4330963559275477
2023-01-28 15:36:40.408934,-0.4406390786170958
2023-01-28 15:36:40.413934,-0.44913356926773335
2023-01-28 15:36:40.418934,-0.4575636088848113
2023-01-28 15:36:40.423934,-0.46469808189286305
2023-01-28 15:36:40.428934,-0.46939155459403975
2023-01-28 15:36:40.433934,-0.4709392493514533
2023-01-28 15:36:40.438934,-0.46975216269493103
2023-01-28 15:36:40.443934,-0.46735769373148695
2023-01-28 15:36:40.448934,-0.46535274386405934
2023-01-28 15:36:40.453934,-0.46463792521705943
2023-01-28 15:36:40.458934,-0.46564123034477234
2023-01-28 15:36:40.463934,-0.4682151615682106
2023-01-28 15:36:40.468934,-0.4706176221370697
2023-01-28 15:36:40.473934,-0.4696291251850767
2023-01-28 15:36:40.478934,-0.4631169736385344
2023-01-28 15:36:40.483934,-0.4523667213408957
2023-01-28 15:36:40.488934,-0.44092756509780867
2023-01-28 15:36:40.493934,-0.4313807805461674
2023-01-28 15:36:40.498934,-0.4242434203624724
2023-01-28 15:36:40.503934,-0.4196651309194697
2023-01-28 15:36:40.508934,-0.41844964027404774
2023-01-28 15:36:40.513934,-0.4206891710048657
2023-01-28 15:36:40.518934,-0.42455595731735213
2023-01-28 15:36:40.523934,-0.42752728833823295
2023-01-28 15:36:40.528934,-0.4284505248069763
2023-01-28 15:36:40.533934,-0.42781896032448247
2023-01-28 15:36:40.538934,-0.42650324106216414
2023-01-28 15:36:40.543934,-0.4249648553904565
2023-01-28 15:36:40.548934,-0.42347413301467873
2023-01-28 15:36:40.553934,-0.4222986447715163
2023-01-28 15:36:40.558934,-0.4214787483215331
2023-01-28 15:36:40.563934,-0.4207857401563251
2023-01-28 15:36:40.568934,-0.42001229524612427
2023-01-28 15:36:40.573934,-0.41907732198848474
2023-01-28 15:36:40.578934,-0.4178245961666107
2023-01-28 15:36:40.583934,-0.4159629106230692
2023-01-28 15:36:40.588934,-0.4133049845695494
2023-01-28 15:36:40.593934,-0.4099541206305698
2023-01-28 15:36:40.598934,-0.4062130153179167
2023-01-28 15:36:40.603934,-0.40237154198531977
2023-01-28 15:36:40.608934,-0.3985440731048582
2023-01-28 15:36:40.613934,-0.3945600067937524
2023-01-28 15:36:40.618934,-0.3899375796318054
2023-01-28 15:36:40.623934,-0.3840508804930882
2023-01-28 15:36:40.628934,-0.37649890780448897
2023-01-28 15:36:40.633934,-0.3675078781899215
2023-01-28 15:36:40.638934,-0.3581319451332091
2023-01-28 15:36:40.643934,-0.3500978810642377
2023-01-28 15:36:40.648934,-0.3453183174133301
2023-01-28 15:36:40.653934,-0.3452635227581348
2023-01-28 15:36:40.658934,-0.35041493177413946
2023-01-28 15:36:40.663934,-0.35998181021565856
2023-01-28 15:36:40.668934,-0.3720514178276062
2023-01-28 15:36:40.673934,-0.3842276572615545
2023-01-28 15:36:40.678934,-0.39448124170303334
2023-01-28 15:36:40.683934,-0.4017235970402318
2023-01-28 15:36:40.688934,-0.4058764576911926
2023-01-28 15:36:40.693934,-0.4076095753828791
2023-01-28 15:36:40.698934,-0.4079198837280272
2023-01-28 15:36:40.703934,-0.40751067964643195
2023-01-28 15:36:40.708934,-0.4060447216033934
2023-01-28 15:36:40.713934,-0.4016712861492966
2023-01-28 15:36:40.718934,-0.3912357687950134
2023-01-28 15:36:40.723934,-0.3713125754126255
2023-01-28 15:36:40.728934,-0.3400053679943084
2023-01-28 15:36:40.733934,-0.299127428713091
2023-01-28 15:36:40.738934,-0.2556711435317993
2023-01-28 15:36:40.743934,-0.22112021649066058
2023-01-28 15:36:40.748934,-0.2080468386411666
2023-01-28 15:36:40.753934,-0.2251221518326134
2023-01-28 15:36:40.758934,-0.27278801798820496
2023-01-28 15:36:40.763934,-0.3417490328037325
2023-01-28 15:36:40.768934,-0.415396511554718
2023-01-28 15:36:40.773934,-0.47554203895357217
2023-01-28 15:36:40.778934,-0.5089622735977173
2023-01-28 15:36:40.783934,-0.5115801800823405
2023-01-28 15:36:40.788934,-0.4885037839412689
2023-01-28 15:36:40.793934,-0.45054863488439506
2023-01-28 15:36:40.798934,-0.40938636660575867
2023-01-28 15:36:40.803934,-0.37351560059878985
2023-01-28 15:36:40.808934,-0.3464963138103485
2023-01-28 15:36:40.813934,-0.3277227740818087
2023-01-28 15:36:40.818934,-0.31466662883758545
2023-01-28 15:36:40.823934,-0.3049029909452513
2023-01-28 15:36:40.828934,-0.29697281122207647
2023-01-28 15:36:40.833934,-0.29032297579383565
2023-01-28 15:36:40.838934,-0.28490445017814625
2023-01-28 15:36:40.843934,-0.28068230796179733
2023-01-28 15:36:40.848934,-0.27725955843925465
2023-01-28 15:36:40.853934,-0.2739255000500229
2023-01-28 15:36:40.858934,-0.27007144689559925
2023-01-28 15:36:40.863934,-0.26548072876163736
2023-01-28 15:36:40.868934,-0.2602629065513609
2023-01-28 15:36:40.873934,-0.25470996597360884
2023-01-28 15:36:40.878934,-0.24922828376293174
2023-01-28 15:36:40.883934,-0.24412784886930367
2023-01-28 15:36:40.888934,-0.23927550017833693
2023-01-28 15:36:40.893934,-0.23402638678560825
2023-01-28 15:36:40.898934,-0.22756776213645927
2023-01-28 15:36:40.903934,-0.2192792900944387
2023-01-28 15:36:40.908934,-0.20886421203613276
2023-01-28 15:36:40.913934,-0.19645359902869192
2023-01-28 15:36:40.918934,-0.18273214995861053
2023-01-28 15:36:40.923934,-0.1687675538773501
2023-01-28 15:36:40.928934,-0.15551826357841492
2023-01-28 15:36:40.933934,-0.1434951005081983
2023-01-28 15:36:40.938934,-0.1328239887952804
2023-01-28 15:36:40.943934,-0.12342211726490304
2023-01-28 15:36:40.948934,-0.11510610580444332
2023-01-28 15:36:40.953934,-0.10782458738051919
2023-01-28 15:36:40.958934,-0.10197997093200684
2023-01-28 15:36:40.963934,-0.09842223858853535
2023-01-28 15:36:40.968934,-0.09803732484579081
2023-01-28 15:36:40.973934,-0.10139378641066796
2023-01-28 15:36:40.978934,-0.10868728160858152
2023-01-28 15:36:40.983934,-0.11970894808689196
2023-01-28 15:36:40.988934,-0.1337375342845916
2023-01-28 15:36:40.993934,-0.14967570882208037
2023-01-28 15:36:40.998934,-0.16648074984550468
2023-01-28 15:36:41.003934,-0.18344514275364704
2023-01-28 15:36:41.008934,-0.20011346042156203
2023-01-28 15:36:41.013934,-0.21613249106727767
2023-01-28 15:36:41.018934,-0.23119787871837608
2023-01-28 15:36:41.023934,-0.2449028712193229
2023-01-28 15:36:41.028934,-0.2565366029739378
2023-01-28 15:36:41.033934,-0.2652130684530223
2023-01-28 15:36:41.038934,-0.2703358829021453
2023-01-28 15:36:41.043934,-0.2719164733202523
2023-01-28 15:36:41.048934,-0.270528197288513
2023-01-28 15:36:41.053934,-0.26713825630095006
2023-01-28 15:36:41.058934,-0.2629073560237883
2023-01-28 15:36:41.063934,-0.2588228792332438
2023-01-28 15:36:41.068934,-0.2553586363792418
2023-01-28 15:36:41.073934,-0.2525236993253739
2023-01-28 15:36:41.078934,-0.250141829252243
2023-01-28 15:36:41.083934,-0.2479400059735015
2023-01-28 15:36:41.088934,-0.24557411670684798
2023-01-28 15:36:41.093934,-0.2429317957417819
2023-01-28 15:36:41.098934,-0.24035732448101035
2023-01-28 15:36:41.103934,-0.23826995893228414
2023-01-28 15:36:41.108934,-0.23665508627891535
2023-01-28 15:36:41.113934,-0.235291461323019
2023-01-28 15:36:41.118934,-0.2343471944332122
2023-01-28 15:36:41.123934,-0.23422325967896804
2023-01-28 15:36:41.128934,-0.23477992415428162
2023-01-28 15:36:41.133934,-0.23523907533772262
2023-01-28 15:36:41.138934,-0.2349962890148162
2023-01-28 15:36:41.143934,-0.23411667251556376
2023-01-28 15:36:41.148934,-0.232952833175659
2023-01-28 15:36:41.153934,-0.23178244258316608
2023-01-28 15:36:41.158934,-0.23100554943084708
2023-01-28 15:36:41.163934,-0.23118263432471076
2023-01-28 15:36:41.168934,-0.2325201034545898
2023-01-28 15:36:41.173934,-0.23460565116818125
2023-01-28 15:36:41.178934,-0.23687145113945002
2023-01-28 15:36:41.183934,-0.23901742711626986
2023-01-28 15:36:41.188934,-0.24081408977508545
2023-01-28 15:36:41.193934,-0.24187607894211952
2023-01-28 15:36:41.198934,-0.24189591407775868
2023-01-28 15:36:41.203934,-0.24080022063046305
2023-01-28 15:36:41.208934,-0.2384581267833709
2023-01-28 15:36:41.213934,-0.2345683867970022
2023-01-28 15:36:41.218934,-0.22910635173320776
2023-01-28 15:36:41.223934,-0.22262367055800208
2023-01-28 15:36:41.228934,-0.21588405966758717
2023-01-28 15:36:41.233934,-0.20945435273005866
2023-01-28 15:36:41.238934,-0.20381569862365725
2023-01-28 15:36:41.243934,-0.19952834697278182
2023-01-28 15:36:41.248934,-0.19701223075389868
2023-01-28 15:36:41.253934,-0.19641248416971174
2023-01-28 15:36:41.258934,-0.19787769019603713
2023-01-28 15:36:41.263934,-0.20165261680839042
2023-01-28 15:36:41.268934,-0.2076141089200973
2023-01-28 15:36:41.273934,-0.21494348669381444
2023-01-28 15:36:41.278934,-0.22249519824981678
2023-01-28 15:36:41.283934,-0.2293179386167967
2023-01-28 15:36:41.288934,-0.23475587368011464
2023-01-28 15:36:41.293934,-0.2384830641943615
2023-01-28 15:36:41.298934,-0.24076601862907404
2023-01-28 15:36:41.303934,-0.24236048796049373
2023-01-28 15:36:41.308934,-0.24365088343620303
2023-01-28 15:36:41.313934,-0.24376471222771995
2023-01-28 15:36:41.318934,-0.24047753214836132
2023-01-28 15:36:41.323934,-0.2308151271539531
2023-01-28 15:36:41.328934,-0.2121337354183197
2023-01-28 15:36:41.333934,-0.1839195832519642
2023-01-28 15:36:41.338934,-0.14986872673034657
2023-01-28 15:36:41.343934,-0.11853053962140767
2023-01-28 15:36:41.348934,-0.10121067613363258
2023-01-28 15:36:41.353934,-0.10783062791835303
2023-01-28 15:36:41.358934,-0.14265656471252436
2023-01-28 15:36:41.363934,-0.20158345374075104
2023-01-28 15:36:41.368934,-0.27228316664695723
2023-01-28 15:36:41.373934,-0.3379307604388255
2023-01-28 15:36:41.378934,-0.38332641124725325
2023-01-28 15:36:41.383934,-0.40024794528382196
2023-01-28 15:36:41.388934,-0.3893365561962126
2023-01-28 15:36:41.393934,-0.35835683821367886
2023-01-28 15:36:41.398934,-0.318416953086853
2023-01-28 15:36:41.403934,-0.27978871049127774
2023-01-28 15:36:41.408934,-0.2487955540418624
2023-01-28 15:36:41.413934,-0.22705020463908657
2023-01-28 15:36:41.418934,-0.21299919486045826
2023-01-28 15:36:41.423934,-0.2040844360269002
2023-01-28 15:36:41.428934,-0.19799789786338798
2023-01-28 15:36:41.433934,-0.19308339153865653
2023-01-28 15:36:41.438934,-0.18850187957286826
2023-01-28 15:36:41.443934,-0.18408271671001455
2023-01-28 15:36:41.448934,-0.17975112795829776
2023-01-28 15:36:41.453934,-0.17516642293685178
2023-01-28 15:36:41.458934,-0.16999065876007075
2023-01-28 15:36:41.463934,-0.164185096884113
2023-01-28 15:36:41.468934,-0.15780210494995112
2023-01-28 15:36:41.473934,-0.15076162004880567
2023-01-28 15:36:41.478934,-0.14308929443359375
2023-01-28 15:36:41.483934,-0.1351142132291393
2023-01-28 15:36:41.488934,-0.1271504163742065
2023-01-28 15:36:41.493934,-0.11917649800213118
2023-01-28 15:36:41.498934,-0.1110192164778709
2023-01-28 15:36:41.503934,-0.10257200441426945
2023-01-28 15:36:41.508934,-0.09358982741832733
2023-01-28 15:36:41.513934,-0.08356235426535283
2023-01-28 15:36:41.518934,-0.07212162017822263
2023-01-28 15:36:41.523934,-0.059429014241744196
2023-01-28 15:36:41.528934,-0.04598955437540998
2023-01-28 15:36:41.533934,-0.03234751605387489
2023-01-28 15:36:41.538934,-0.01916031166911127
2023-01-28 15:36:41.543934,-0.007229192806837545
2023-01-28 15:36:41.548934,0.0028848648071289062
2023-01-28 15:36:41.553934,0.011077687772908443
2023-01-28 15:36:41.558934,0.017285149544477338
2023-01-28 15:36:41.563934,0.021061782753916958
2023-01-28 15:36:41.568934,0.021780729293823138
2023-01-28 15:36:41.573934,0.01899192244524059
2023-01-28 15:36:41.578934,0.012380878441035652
2023-01-28 15:36:41.583934,0.001731954631751544
2023-01-28 15:36:41.588934,-0.01269340515136713
2023-01-28 15:36:41.593934,-0.029925796879854808
2023-01-28 15:36:41.598934,-0.04870613664388651
2023-01-28 15:36:41.603934,-0.06797293692529727
2023-01-28 15:36:41.608934,-0.08681039512157442
2023-01-28 15:36:41.613934,-0.10430493496718725
2023-01-28 15:36:41.618934,-0.11981805413961416
2023-01-28 15:36:41.623934,-0.13319158086079816
2023-01-28 15:36:41.628934,-0.14441153407096866
2023-01-28 15:36:41.633934,-0.1532926283845682
2023-01-28 15:36:41.638934,-0.15972535312175745
2023-01-28 15:36:41.643934,-0.16394434088378368
2023-01-28 15:36:41.648934,-0.16626438498497004
2023-01-28 15:36:41.653934,-0.16681398836445566
2023-01-28 15:36:41.658934,-0.16580760478973366
2023-01-28 15:36:41.663934,-0.1637972058612366
2023-01-28 15:36:41.668934,-0.16133606433868408
2023-01-28 15:36:41.673934,-0.15862667551783116
2023-01-28 15:36:41.678934,-0.15575866401195512
2023-01-28 15:36:41.683934,-0.1529888955682357
2023-01-28 15:36:41.688934,-0.15046975016593925
2023-01-28 15:36:41.693934,-0.14800164045236575
2023-01-28 15:36:41.698934,-0.14542123675346363
2023-01-28 15:36:41.703934,-0.14299394817933372
2023-01-28 15:36:41.708934,-0.14109393954277027
2023-01-28 15:36:41.713934,-0.13975742201763464
2023-01-28 15:36:41.718934,-0.1388822048902511
2023-01-28 15:36:41.723934,-0.13856213943300655
2023-01-28 15:36:41.728934,-0.13881008327007288
2023-01-28 15:36:41.733934,-0.13920798656289712
2023-01-28 15:36:41.738934,-0.13929089903831474
2023-01-28 15:36:41.743934,-0.13912152839824882
2023-01-28 15:36:41.748934,-0.13909856975078586
2023-01-28 15:36:41.753934,-0.13937312756634007
2023-01-28 15:36:41.758934,-0.13984382152557365
2023-01-28 15:36:41.763934,-0.1405370271462114
2023-01-28 15:36:41.768934,-0.14152666926383967
2023-01-28 15:36:41.773934,-0.14254829103674913
2023-01-28 15:36:41.778934,-0.14308929443359364
2023-01-28 15:36:41.783934,-0.14284231109105117
2023-01-28 15:36:41.788934,-0.1417911052703856
2023-01-28 15:36:41.793934,-0.1399529671515339
2023-01-28 15:36:41.798934,-0.1373436152935029
2023-01-28 15:36:41.803934,-0.13410521686950264
2023-01-28 15:36:41.808934,-0.1303718537092208
2023-01-28 15:36:41.813934,-0.12607953868074992
2023-01-28 15:36:41.818934,-0.12116432189941397
2023-01-28 15:36:41.823934,-0.11587999361087664
2023-01-28 15:36:41.828934,-0.11075477302074424
2023-01-28 15:36:41.833934,-0.10643101780334427
2023-01-28 15:36:41.838934,-0.10378301143646235
2023-01-28 15:36:41.843934,-0.1039386158222277
2023-01-28 15:36:41.848934,-0.10774970054626455
2023-01-28 15:36:41.853934,-0.11518323316881544
2023-01-28 15:36:41.858934,-0.12532334029674527
2023-01-28 15:36:41.863934,-0.13677932319614763
2023-01-28 15:36:41.868934,-0.14796952903270713
2023-01-28 15:36:41.873934,-0.15742679812699412
2023-01-28 15:36:41.878934,-0.1643651723861694
2023-01-28 15:36:41.883934,-0.16896672141250546
2023-01-28 15:36:41.888934,-0.17184178531169894
2023-01-28 15:36:41.893934,-0.17312863775247572
2023-01-28 15:36:41.898934,-0.17198602855205528
2023-01-28 15:36:41.903934,-0.16648467570221304
2023-01-28 15:36:41.908934,-0.15378734469413743
2023-01-28 15:36:41.913934,-0.13118974090199573
2023-01-28 15:36:41.918934,-0.0982777327299118
2023-01-28 15:36:41.923934,-0.059012822088543956
2023-01-28 15:36:41.928934,-0.02209325693547723
2023-01-28 15:36:41.933934,0.0009250433469642208
2023-01-28 15:36:41.938934,-0.0007933378219603923
2023-01-28 15:36:41.943934,-0.032989623277152984
2023-01-28 15:36:41.948934,-0.09277244657278068
2023-01-28 15:36:41.953934,-0.16820739430514492
2023-01-28 15:36:41.958934,-0.24204015731811523
2023-01-28 15:36:41.963934,-0.2977970425776754
2023-01-28 15:36:41.968934,-0.3251723647117615
2023-01-28 15:36:41.973934,-0.32266077801847626
2023-01-28 15:36:41.978934,-0.29690068960189797
2023-01-28 15:36:41.983934,-0.25913256541442964
2023-01-28 15:36:41.988934,-0.22035560011863703
2023-01-28 15:36:41.993934,-0.18773587192610613
2023-01-28 15:36:41.998934,-0.1638362854719161
2023-01-28 15:36:42.003934,-0.14791565170721518
2023-01-28 15:36:42.008934,-0.13763210177421553
2023-01-28 15:36:42.013934,-0.13045893243208373
2023-01-28 15:36:42.018934,-0.12474636733531955
2023-01-28 15:36:42.023934,-0.11999319377506477
2023-01-28 15:36:42.028934,-0.11618793010711652
2023-01-28 15:36:42.033934,-0.11311910303868994
2023-01-28 15:36:42.038934,-0.11041820049285885
2023-01-28 15:36:42.043934,-0.10783210802280233
2023-01-28 15:36:42.048934,-0.10505716502666469
2023-01-28 15:36:42.053934,-0.10156579666431075
2023-01-28 15:36:42.058934,-0.09697954356670371
2023-01-28 15:36:42.063934,-0.09144263480283249
2023-01-28 15:36:42.068934,-0.08534391969442362
2023-01-28 15:36:42.073934,-0.07888534934003798
2023-01-28 15:36:42.078934,-0.07216970622539517
2023-01-28 15:36:42.083934,-0.06537945345335043
2023-01-28 15:36:42.088934,-0.05846659466624256
2023-01-28 15:36:42.093934,-0.05087408643132657
2023-01-28 15:36:42.098934,-0.04192670434713364
2023-01-28 15:36:42.103934,-0.0313584700107118
2023-01-28 15:36:42.108934,-0.019256472587585425
2023-01-28 15:36:42.113934,-0.005839215748563479
2023-01-28 15:36:42.118934,0.008318027481436615
2023-01-28 15:36:42.123934,0.02210041307715455
2023-01-28 15:36:42.128934,0.03432989120483389
2023-01-28 15:36:42.133934,0.04432850566831602
2023-01-28 15:36:42.138934,0.05180736631155011
2023-01-28 15:36:42.143934,0.05651294191979855
2023-01-28 15:36:42.148934,0.058322351425886
2023-01-28 15:36:42.153934,0.057392683445835944
2023-01-28 15:36:42.158934,0.05380272865295409
2023-01-28 15:36:42.163934,0.04723680758765543
2023-01-28 15:36:42.168934,0.037358999252319315
2023-01-28 15:36:42.173934,0.024303425483170243
2023-01-28 15:36:42.178934,0.008534392341971297
2023-01-28 15:36:42.183934,-0.009455692332137493
2023-01-28 15:36:42.188934,-0.02894481085240837
2023-01-28 15:36:42.193934,-0.048778462106184584
2023-01-28 15:36:42.198934,-0.06779432296752926
2023-01-28 15:36:42.203934,-0.0852767394910148
2023-01-28 15:36:42.208934,-0.10072986781597129
2023-01-28 15:36:42.213934,-0.11355278070899325
2023-01-28 15:36:42.218934,-0.12335201352834699
2023-01-28 15:36:42.223934,-0.13031440370309727
2023-01-28 15:36:42.228934,-0.13489148020744327
2023-01-28 15:36:42.233934,-0.1373681095502619
2023-01-28 15:36:42.238934,-0.13806483149528498
2023-01-28 15:36:42.243934,-0.13760087735860846
2023-01-28 15:36:42.248934,-0.1365021914243699
2023-01-28 15:36:42.253934,-0.13480943755534755
2023-01-28 15:36:42.258934,-0.13246338069438923
2023-01-28 15:36:42.263934,-0.12978574713792518
2023-01-28 15:36:42.268934,-0.12719850242137892
2023-01-28 15:36:42.273934,-0.12480993180002417
2023-01-28 15:36:42.278934,-0.12270291894674304
2023-01-28 15:36:42.283934,-0.12127761201111444
2023-01-28 15:36:42.288934,-0.12082775682210924
2023-01-28 15:36:42.293934,-0.12108269473756672
2023-01-28 15:36:42.298934,-0.12162109464406956
2023-01-28 15:36:42.303934,-0.12241733370893351
2023-01-28 15:36:42.308934,-0.12354433536529544
2023-01-28 15:36:42.313934,-0.12473313681687216
2023-01-28 15:36:42.318934,-0.12575607001781458
2023-01-28 15:36:42.323934,-0.12689503669963506
2023-01-28 15:36:42.328934,-0.12849669158458693
2023-01-28 15:36:42.333934,-0.1304038858951527
2023-01-28 15:36:42.338934,-0.13234317302703844
2023-01-28 15:36:42.343934,-0.13448211696705253
2023-01-28 15:36:42.348934,-0.13703107833862294
2023-01-28 15:36:42.353934,-0.1396871372770015
2023-01-28 15:36:42.358934,-0.14207959175109866
2023-01-28 15:36:42.363934,-0.14437166931798417
2023-01-28 15:36:42.368934,-0.1467915475368499
2023-01-28 15:36:42.373934,-0.1489868912780057
2023-01-28 15:36:42.378934,-0.15051782131195057
2023-01-28 15:36:42.383934,-0.15154028538068384
2023-01-28 15:36:42.388934,-0.15224874019622803
2023-01-28 15:36:42.393934,-0.15208346973107773
2023-01-28 15:36:42.398934,-0.15030145645141604
2023-01-28 15:36:42.403934,-0.1468972220997395
2023-01-28 15:36:42.408934,-0.14212767779827112
2023-01-28 15:36:42.413934,-0.13568994660588243
2023-01-28 15:36:42.418934,-0.1274629533290864
2023-01-28 15:36:42.423934,-0.11863865499232683
2023-01-28 15:36:42.428934,-0.11097113788127891
2023-01-28 15:36:42.433934,-0.1053280048058217
2023-01-28 15:36:42.438934,-0.10224442183971405
2023-01-28 15:36:42.443934,-0.10331518081544114
2023-01-28 15:36:42.448934,-0.110081635415554
2023-01-28 15:36:42.453934,-0.12141789950849888
2023-01-28 15:36:42.458934,-0.1339058130979537
2023-01-28 15:36:42.463934,-0.145371352057809
2023-01-28 15:36:42.468934,-0.1564317941665649
2023-01-28 15:36:42.473934,-0.16790485291329013
2023-01-28 15:36:42.478934,-0.17850100994110096
2023-01-28 15:36:42.483934,-0.18640602759613625
2023-01-28 15:36:42.488934,-0.19181947410106648
2023-01-28 15:36:42.493934,-0.196235463661712
2023-01-28 15:36:42.498934,-0.19968073070049278
2023-01-28 15:36:42.503934,-0.19981803001119064
2023-01-28 15:36:42.508934,-0.19326190650463096
2023-01-28 15:36:42.513934,-0.17672111548090616
2023-01-28 15:36:42.518934,-0.1477291285991669
2023-01-28 15:36:42.523934,-0.10658210201523051
2023-01-28 15:36:42.528934,-0.05887528508901589
2023-01-28 15:36:42.533934,-0.01581349381528532
2023-01-28 15:36:42.538934,0.008870959281921264
2023-01-28 15:36:42.543934,0.003780051570468037
2023-01-28 15:36:42.548934,-0.035555958747863776
2023-01-28 15:36:42.553934,-0.10379494840445767
2023-01-28 15:36:42.558934,-0.18621802330017082
2023-01-28 15:36:42.563934,-0.2633734454210771
2023-01-28 15:36:42.568934,-0.3181284666061401
2023-01-28 15:36:42.573934,-0.3413921142632347
2023-01-28 15:36:42.578934,-0.33394715189933766
2023-01-28 15:36:42.583934,-0.3044271270524124
2023-01-28 15:36:42.588934,-0.26495081186294556
2023-01-28 15:36:42.593934,-0.22634214177551
2023-01-28 15:36:42.598934,-0.1949687898159027
2023-01-28 15:36:42.603934,-0.17238262758693818
2023-01-28 15:36:42.608934,-0.15708088874816895
2023-01-28 15:36:42.613934,-0.14660545787624002
2023-01-28 15:36:42.618934,-0.13885816931724537
2023-01-28 15:36:42.623934,-0.13260030372196216
2023-01-28 15:36:42.628934,-0.12736678123474132
2023-01-28 15:36:42.633934,-0.12298700741231786
2023-01-28 15:36:42.638934,-0.1191449165344238
2023-01-28 15:36:42.643934,-0.11536185057834279
2023-01-28 15:36:42.648934,-0.11123558133840557
2023-01-28 15:36:42.653934,-0.10655080247199043
2023-01-28 15:36:42.658934,-0.10125875473022455
