141.72
149.84
158.18
165.96
172.66
178.15
182.63
186.42
189.61
191.99
193.07
192.34
189.46
184.44
177.51
168.97
159.01
147.65
134.89
120.8
105.77
90.49
75.88
62.89
52.21
44.05
38
33.15
28.3
22.46
15.11
6.48
-2.64
-11.32
-19.06
-26.22
-34.03
-44.22
-58.31
-76.99
-99.69
-125.02
-151.28
-177.22
-202.65
-228.37
-256.04
-287.86
-326.29
-373.48
-430.06
-493.79
-558.76
-616.06
-656.14
-672.11
-662.22
-630.41
-584.37
-532.3
-479.97
-429.56
-380.48
-331.13
-280.54
-228.91
-177.25
-126.72
-78.22
-32.52
9.47
46.7
78.26
103.51
122.52
136.01
145.29
151.95
157.5
162.86
168
171.88
172.78
169.12
160.23
146.9
131.2
115.86
103.36
95.19
91.5
91.22
92.61
93.82
93.39
90.48
84.83
76.61
66.23
54.37
42.02
30.59
21.75
17.04
17.27
22.04
29.81
38.41
45.87
51.13
54.23
55.84
56.65
56.75
55.6
52.35
46.47
38.11
28.12
17.7
7.89
-0.76
-8.31
-15.2
-21.93
-28.67
-35.07
-40.33
-43.59
-44.49
-43.65
-42.86
-44.74
-51.91
-66.07
-87.04
-112.54
-138.6
-160.67
-174.69
-178.09
-170.15
-152.13
-127.05
-99.22
-73.33
-53.23
-40.65
-34.42
-30.82
-24.98
-12.87
7.12
33.77
63.84
93.55
119.95
141.49
158
170.26
179.69
188.12
197.37
208.7
222.25
236.84
250.43
260.7
265.68
263.9
254.25
235.86
208.36
172.44
130.2
85
40.57
-0.03
-35.24
-65
-90.17
-111.6
-129.69
-144.3
-155.2
-162.45
-166.51
-168.07
-167.72
-165.71
-161.98
-156.26
-148.4
-138.52
-127.08
-114.79
-102.39
-90.45
-79.23
-68.68
-58.6
-48.81
-39.39
-30.71
-23.42
-18.21
-15.6
-15.66
-17.81
-20.82
-23.01
-22.61
-18.28
-9.54
3.08
18.16
33.9
48.53
60.85
70.28
76.72
80.43
81.73
81
78.69
75.32
71.39
67.3
63.18
58.93
54.32
49.16
43.54
37.8
32.43
27.83
24.06
20.79
17.36
12.98
7.04
-0.55
-9.25
-17.75
-24.28
-27.1
-25.11
-18.35
-8.05
3.68
14.63
23.13
28.38
30.43
29.78
26.9
22.04
15.3
6.89
-2.69
-12.51
-21.45
-28.33
-32.09
-31.97
-27.66
-19.47
-8.51
3.37
13.92
21.04
23.38
20.7
13.85
4.41
-5.77
-14.91
-21.55
-24.58
-23.3
-17.6
-8.18
3.48
15.43
25.75
33.09
37.08
38.22
37.67
36.79
36.7
38.13
41.3
46.02
51.89
58.48
65.47
72.71
80.09
87.44
94.43
100.64
105.74
109.63
112.56
114.91
117
118.82
120.04
120.22
119.2
117.42
116.01
116.53
120.52
129.03
142.32
159.79
179.93
200.4
218.14
229.75
232.21
223.74
204.53
176.84
144.41
111.2
80.15
52.4
27.33
3.28
-21.54
-48.36
-77.65
-109.21
-142.4
-176.18
-209.28
-240.41
-268.75
-294.31
-318.07
-341.43
-365.29
-389.06
-410.33
-425.35
-430.35
-423
-403.46
-374.28
-339.37
-302.56
-266.29
-231.12
-196.27
-160.61
-123.83
-87
-52.3
-22.18
1.75
19.29
31.63
40.73
48.43
55.81
63.09
69.86
75.62
80.22
83.96
87.48
91.49
96.51
102.66
109.57
116.46
122.31
126.25
127.88
127.53
126.15
124.95
124.86
126.15
128.41
130.78
132.49
133.24
133.2
132.73
131.89
130.09
126.18
118.77
106.79
89.96
68.93
45.12
20.24
-4.12
-26.8
-47.15
-64.93
-80.02
-92.33
-101.73
-108.23
-112.13
-114.07
-114.99
-115.83
-117.12
-118.73
-119.73
-118.72
-114.29
-105.62
-92.79
-76.84
-59.36
-42.05
-26.24
-12.7
-1.66
6.97
13.42
17.95
20.76
22.09
22.18
21.32
19.83
18.04
16.24
14.59
13.16
11.82
10.39
8.67
6.52
3.87
0.63
-3.32
-8.11
-13.73
-19.76
-25.32
-29.19
-30.16
-27.49
-21.27
-12.4
-2.43
7
14.58
19.65
22.23
22.84
22.19
20.92
19.47
18.07
16.88
16.02
15.68
15.96
16.74
17.56
17.78
16.79
14.37
10.8
6.7
2.69
-1.07
-4.93
-9.54
-15.19
-21.35
-26.49
-28.66
-26.22
-18.68
-6.88
7.3
21.77
34.95
46.18
55.61
63.72
70.95
77.49
83.33
88.46
93
97.1
100.78
103.77
105.51
105.33
102.72
97.58
90.28
81.67
72.76
64.49
57.49
51.87
47.31
43.28
39.42
35.81
33.09
32.23
33.95
38.22
43.99
49.47
52.82
53
50.07
45.16
39.7
34.76
30.55
26.41
21.29
14.25
4.92
-6.22
-17.87
-28.26
-35.6
-38.82
-38.35
-36.46
-37.1
-45.13
-65.22
-100.59
-151.75
-215.69
-285.77
-352.84
-407.34
-442.08
-454.35
-446.49
-424.57
-395.72
-365.62
-337.06
-310.48
-285.26
-261.27
-239.11
-219.44
-201.79
-184.17
-163.66
-137.92
-106.48
-71.25
-35.75
-3.61
23.09
44.77
64.16
85.31
112.18
147.43
191.62
242.77
296.35
346.14
385.9
411.61
423.09
424.2
421.33
420.7
425.82
436.21
447.9
455.34
453.62
440.26
415.91
384.08
350.1
319.49
296.2
281.34
272.94
266.95
259.31
247.55
231.38
211.84
189.89
165.34
137.08
104.08
66.78
27.71
-8.84
-38.14
-56.46
-62.19
-56.42
-42.62
-25.72
-10.7
-1.18
1.5
-1.75
-8.68
-16.95
-25.2
-33.22
-41.34
-49.63
-57.33
-63.16
-66.06
-66.02
-64.28
-62.82
-63.52
-67.36
-74.27
-83.39
-93.76
-104.85
-116.8
-130.26
-146.15
-165.31
-188.23
-214.98
-245.14
-277.96
-312.57
-348.14
-383.83
-418.57
-450.7
-477.7
-496.52
-504.31
-499.53
-482.78
-456.83
-425.92
-394.39
-365.52
-340.86
-320.44
-303.4
-288.67
-275.43
-263.07
-251.09
-238.99
-226.33
-212.93
-199.06
-185.2
-171.91
-159.42
-147.51
-135.58
-122.95
-109.2
-94.41
-79.13
-64.1
-49.88
-36.57
-23.71
-10.54
3.66
19.17
35.8
52.86
69.62
85.54
100.62
115.43
131.11
149.11
170.82
196.81
226.1
255.77
281.14
297.06
299.67
288.09
265.06
236.16
207.83
185.11
170.22
162.39
158.93
156.74
153.39
147.61
139.06
128.12
115.75
103.49
93.28
86.9
85.26
87.68
91.95
95.03
94.3
88.5
78.16
65.24
52.13
40.83
32.31
26.48
22.61
19.77
17.39
15.34
13.98
13.78
14.97
17.31
20.06
22.29
23.28
22.83
21.21
18.89
16.12
12.79
8.59
3.44
-2.08
-6.81
-9.36
-8.77
-4.91
1.39
8.67
15.37
20.34
23.14
24.01
23.72
23.07
22.7
22.78
23.07
23.1
22.49
21.16
19.28
17.12
14.85
12.43
9.77
6.92
4.25
2.35
1.74
2.43
3.8
4.65
3.74
0.35
-5.28
-11.98
-18.05
-21.96
-22.8
-20.62
-16.13
-10.37
-4.16
2.05
8.2
14.34
20.41
26.16
31.21
35.25
38.12
39.88
40.69
40.65
39.78
37.98
35.23
31.67
27.63
23.58
19.91
16.75
13.78
10.4
5.99
0.23
-6.62
-13.7
-19.78
-23.62
-24.31
-21.53
-15.55
-7.16
2.53
12.33
21.13
28.15
33.02
35.87
37.15
37.47
37.37
37.13
36.76
36.08
34.9
33.09
30.75
28.12
25.49
23.13
21.19
19.6
18.09
16.27
13.75
10.41
6.53
2.9
0.59
0.69
3.85
10.01
18.39
27.74
36.76
44.48
50.45
54.61
57.17
58.4
58.54
57.8
56.47
54.81
53.07
51.32
49.52
47.48
45.1
42.41
39.59
36.86
34.3
31.72
28.56
24.03
17.4
8.35
-2.76
-14.76
-25.94
-34.56
-39.41
-40.19
-37.58
-32.88
-27.49
-22.4
-18
-14.18
-10.67
-7.33
-4.26
-1.68
0.24
1.54
2.41
3.08
3.68
4.15
4.34
4.11
3.41
2.31
0.95
-0.58
-2.32
-4.44
-7.21
-10.84
-15.28
-20.05
-24.22
-26.67
-26.43
-23.11
-17.06
-9.34
-1.26
6.01
11.82
16
18.73
20.27
20.78
20.3
18.93
16.88
14.51
12.19
10.19
8.6
7.36
6.28
5.2
4.03
2.74
1.32
-0.29
-2.22
-4.67
-7.82
-11.65
-15.83
-19.67
-22.25
-22.7
-20.55
-15.93
-9.57
-2.52
4.2
9.85
14.11
16.97
18.57
19.03
18.5
17.12
15.1
12.72
10.23
7.78
5.42
3.09
0.71
-1.8
-4.39
-7.03
-9.66
-12.33
-15.17
-18.37
-22.12
-26.53
-31.54
-36.8
-41.65
-45.25
-46.73
-45.56
-41.72
-35.8
-28.75
-21.66
-15.35
-10.26
-6.5
-4.05
-2.87
-2.9
-4.01
-5.81
-7.7
-9.04
-9.39
-8.64
-7.04
-4.94
-2.68
-0.42
1.8
3.96
5.95
7.51
8.29
7.94
6.2
3.06
-1.17
-5.84
-10.01
-12.62
-12.79
-10.12
-4.86
2.16
9.78
16.89
22.76
27.14
30.17
32.14
33.28
33.72
33.55
32.85
31.82
30.72
29.68
28.74
27.74
26.44
24.67
22.36
19.57
16.39
12.86
8.9
4.35
-0.98
-7.11
-13.83
-20.58
-26.59
-31
-33.15
-32.81
-30.3
-26.36
-21.91
-17.79
-14.51
-12.16
-10.51
-9.11
-7.52
-5.39
-2.57
0.9
4.85
9.02
13.21
17.23
20.9
24.06
26.55
28.3
29.29
29.57
29.19
28.12
26.24
23.44
19.8
15.71
11.9
9.22
8.38
9.67
12.85
17.27
22.02
26.3
29.5
31.37
31.93
31.37
29.91
27.78
25.15
22.19
19.13
16.18
13.52
11.2
9.17
7.28
5.37
3.39
1.39
-0.55
-2.37
-4.17
-6.16
-8.65
-11.8
-15.54
-19.42
-22.69
-24.52
-24.26
-21.73
-17.25
-11.58
-5.6
-0.09
4.48
7.98
10.47
12.13
13.12
13.52
13.38
12.72
11.65
10.32
8.91
7.57
6.44
5.54
4.84
4.21
3.48
2.51
1.18
-0.61
-2.92
-5.76
-9.07
-12.67
-16.21
-19.19
-21.11
-21.55
-20.44
-18.04
-14.91
-11.78
-9.24
-7.62
-6.95
-6.97
-7.35
-7.77
-8.02
-8.04
-7.88
-7.61
-7.33
-7.11
-7.02
-7.08
-7.31
-7.71
-8.23
-8.79
-9.34
-9.92
-10.7
-11.92
-13.82
-16.49
-19.7
-22.88
-25.3
-26.26
-25.41
-22.87
-19.26
-15.48
-12.37
-10.39
-9.53
-9.36
-9.28
-8.96
-8.36
-7.81
-7.74
-8.41
-9.81
-11.63
-13.48
-15.02
-16.11
-16.74
-16.96
-16.79
-16.27
-15.45
-14.46
-13.4
-12.39
-11.48
-10.72
-10.18
-10.01
-10.4
-11.48
-13.16
-15.1
-16.62
-16.93
-15.32
-11.42
-5.31
2.43
10.96
19.5
27.56
35.04
42
48.48
54.26
58.9
61.99
63.41
63.49
62.92
62.48
62.77
64
65.96
68.15
69.83
70.19
68.44
64.08
57.15
48.45
39.45
31.85
26.93
25.01
25.22
25.83
24.93
21.24
14.6
6.02
-2.83
-10.27
-15.24
-17.57
-17.84
-16.99
-15.88
-15.04
-14.63
-14.67
-15.2
-16.36
-18.3
-20.98
-23.99
-26.63
-28.15
-28.12
-26.63
-24.33
-22.09
-20.63
-20.18
-20.38
-20.48
-19.76
-17.79
-14.73
-11.14
-7.82
-5.41
-4.23
-4.26
-5.2
-6.61
-8
-8.84
-8.59
-6.79
-3.18
2.16
8.77
15.96
23.01
29.46
35.11
39.98
44.1
47.38
49.61
50.51
49.91
47.87
44.7
40.85
36.77
32.68
28.49
23.81
18.15
11.11
2.64
-6.88
-16.78
-26.35
-35.11
-42.93
-49.94
-56.32
-62.12
-67.21
-71.41
-74.65
-77.1
-79.01
-80.52
-81.46
-81.34
-79.51
-75.57
-69.55
-62.06
-54
-46.26
-39.44
-33.78
-29.28
-25.93
-23.84
-23.16
-23.85
-25.49
-27.2
-27.9
-26.6
-22.86
-16.92
-9.64
-2.16
4.55
9.89
13.74
16.3
17.86
18.64
18.71
18.07
16.75
14.85
12.5
9.77
6.7
3.43
0.25
-2.27
-3.42
-2.65
0.18
4.67
10.02
15.29
19.82
23.34
25.9
27.72
28.86
29.21
28.56
26.73
23.8
20.02
15.75
11.34
7.08
3.16
-0.24
-2.99
-5.05
-6.48
-7.49
-8.34
-9.26
-10.37
-11.66
-13.04
-14.44
-15.89
-17.53
-19.62
-22.37
-25.86
-29.85
-33.75
-36.71
-37.89
-36.68
-33.05
-27.46
-20.77
-13.89
-7.43
-1.66
3.47
8.01
11.89
14.9
16.85
17.72
17.8
17.53
17.29
17.25
17.34
17.33
17.03
16.36
15.38
14.16
12.79
11.31
9.73
8.02
6.13
3.94
1.28
-2.01
-6.02
-10.68
-15.69
-20.57
-24.67
-27.38
-28.23
-27.02
-23.94
-19.42
-14.07
-8.43
-2.92
2.23
6.87
10.83
13.92
15.97
16.9
16.74
15.7
14.12
12.32
10.59
9.06
7.76
6.56
5.32
3.95
2.47
1.06
-0.05
-0.66
-0.7
-0.3
0.3
0.82
1.09
1.16
1.28
1.9
3.47
6.36
10.65
16.22
22.7
29.6
36.36
42.38
47.15
50.21
51.28
50.31
47.52
43.39
38.54
33.62
29.14
25.47
22.69
20.7
19.2
17.77
16
13.58
10.44
6.69
2.57
-1.62
-5.71
-9.67
-13.64
-17.84
-22.49
-27.65
-33.14
-38.53
-43.17
-46.36
-47.54
-46.54
-43.58
-39.25
-34.25
-29.25
-24.63
-20.5
-16.82
-13.49
-10.48
-7.83
-5.64
-3.97
-2.81
-2.01
-1.39
-0.75
-0.02
0.76
1.38
1.52
0.9
-0.64
-3.05
-6.08
-9.35
-12.47
-15.17
-17.43
-19.4
-21.41
-23.78
-26.77
-30.36
-34.24
-37.76
-40.1
-40.45
-38.31
-33.64
-26.91
-18.89
-10.42
-2.15
5.53
12.45
18.45
23.37
27
29.28
30.45
31.06
31.85
33.46
36.21
39.93
44.05
47.83
50.63
52.08
52.16
51.08
49.13
46.52
43.4
39.8
35.75
31.33
26.55
21.44
15.94
10.05
3.96
-1.86
-6.69
-9.7
-10.34
-8.48
-4.62
0.33
5.36
9.6
12.59
14.22
14.62
13.9
12.14
9.32
5.49
0.9
-4.04
-8.84
-13.12
-16.76
-19.92
-22.93
-26.09
-29.45
-32.77
-35.6
-37.49
-38.21
-37.9
-36.99
-36.09
-35.76
-36.3
-37.69
-39.56
-41.27
-42.06
-41.28
-38.56
-33.94
-27.83
-20.9
-13.82
-7.16
-1.26
3.66
7.46
10.04
11.36
11.49
10.7
9.36
7.89
6.54
5.4
4.39
3.32
2.02
0.34
-1.72
-4.06
-6.49
-8.82
-10.92
-12.8
-14.67
-16.8
-19.48
-22.88
-26.93
-31.3
-35.42
-38.63
-40.25
-39.85
-37.31
-32.92
-27.32
-21.26
-15.41
-10.23
-5.87
-2.3
0.55
2.67
3.95
4.21
3.42
1.77
-0.31
-2.24
-3.52
-3.92
-3.6
-2.98
-2.48
-2.28
-2.22
-1.85
-0.74
1.23
3.83
6.48
8.55
9.58
9.53
8.72
7.84
7.71
9.15
12.74
18.72
26.88
36.53
46.71
56.36
64.59
70.81
74.8
76.58
76.34
74.31
70.7
65.82
60
53.69
47.31
41.17
35.39
29.93
24.7
19.7
15.06
11.02
7.75
5.24
3.2
1.15
-1.4
-4.85
-9.4
-14.97
-21.18
-27.36
-32.56
-35.82
-36.43
-34.25
-29.79
-24.07
-18.21
-13.08
-9.06
-6.08
-3.86
-2.18
-1
-0.46
-0.62
-1.4
-2.51
-3.56
-4.16
-4.11
-3.46
-2.53
-1.79
-1.71
-2.66
-4.71
-7.72
-11.36
-15.25
-19.08
-22.73
-26.23
-29.75
-33.47
-37.42
-41.34
-44.7
-46.78
-46.95
-44.93
-40.89
-35.45
-29.38
-23.38
-17.85
-12.89
-8.46
-4.61
-1.56
0.3
0.63
-0.69
-3.36
-6.79
-10.21
-12.97
-14.76
-15.64
-15.94
-16.02
-16.09
-16.12
-15.97
-15.44
-14.51
-13.34
-12.23
-11.47
-11.27
-11.7
-12.73
-14.25
-16.22
-18.52
-20.96
-23.12
-24.38
-24.05
-21.64
-17.03
-10.61
-3.14
4.53
11.68
17.9
23.08
27.26
30.55
33.02
34.66
35.44
35.34
34.34
32.5
30
27.15
24.33
21.89
20.04
18.83
18.09
17.55
16.89
15.85
14.23
11.89
8.8
5.02
0.76
-3.72
-8.12
-12.24
-16.05
-19.73
-23.62
-27.99
-32.83
-37.73
-41.91
-44.39
-44.42
-41.68
-36.43
-29.37
-21.39
-13.32
-5.74
0.99
6.69
11.22
14.53
16.59
17.5
17.54
17.11
16.74
16.85
17.69
19.18
20.91
22.41
23.24
23.35
23.01
22.71
22.82
23.44
24.3
24.92
24.85
23.85
21.92
19.24
15.98
12.33
8.5
4.84
1.93
0.47
1.03
3.88
8.78
15.11
21.98
28.56
34.28
38.93
42.6
45.53
47.91
49.73
50.73
50.45
48.35
43.97
37.18
28.27
17.93
7.1
-3.3
-12.57
-20.42
-26.83
-31.97
-35.92
-38.61
-39.89
-39.7
-38.22
-35.95
-33.49
-31.46
-30.19
-29.66
-29.5
-29.13
-27.91
-25.27
-20.9
-14.79
-7.28
1.04
9.4
17.09
23.63
28.85
32.89
35.99
38.29
39.76
40.16
39.28
37.03
33.58
29.31
24.73
20.29
16.41
13.4
11.44
10.62
10.78
11.61
12.6
13.2
12.91
11.37
8.38
3.83
-2.24
-9.69
-18.18
-27.1
-35.56
-42.48
-46.83
-47.98
-45.87
-41.04
-34.48
-27.2
-19.97
-13.15
-6.82
-0.97
4.34
8.9
12.52
15.19
17.16
18.9
20.94
23.68
27.23
31.43
35.83
39.84
42.83
44.28
43.88
41.58
37.53
32.04
25.45
18.1
10.3
2.39
-5.35
-12.72
-19.76
-26.74
-33.93
-41.43
-48.87
-55.49
-60.34
-62.76
-62.7
-60.76
-57.94
-55.2
-53.12
-51.79
-50.93
-50.19
-49.35
-48.39
-47.31
-46.05
-44.34
-41.86
-38.27
-33.48
-27.68
-21.31
-14.96
-9.14
-4.18
-0.09
3.35
6.38
9.16
11.64
13.56
14.64
14.69
13.62
11.45
8.24
4.15
-0.47
-4.98
-8.48
-10.02
-8.99
-5.36
0.23
6.75
13.14
18.7
23.13
26.47
28.79
30.05
30.01
28.49
25.49
21.31
16.53
11.73
7.42
3.83
0.96
-1.33
-3.21
-4.84
-6.33
-7.72
-9.04
-10.31
-11.58
-12.98
-14.64
-16.71
-19.27
-22.31
-25.71
-29.25
-32.58
-35.26
-36.78
-36.65
-34.62
-30.73
-25.39
-19.27
-13.13
-7.62
-3.15
0.12
2.14
2.95
2.62
1.3
-0.74
-3.12
-5.51
-7.67
-9.55
-11.28
-13.03
-14.92
-16.96
-19.09
-21.23
-23.43
-25.79
-28.46
-31.49
-34.76
-38.04
-41.09
-43.75
-45.93
-47.53
-48.38
-48.2
-46.7
-43.7
-39.27
-33.76
-27.76
-21.95
-17.01
-13.51
-11.87
-12.34
-14.92
-19.28
-24.7
-30.2
-34.74
-37.51
-38.14
-36.8
-34.01
-30.4
-26.37
-22
-17.05
-11.24
-4.47
3.01
10.67
17.89
24.22
29.62
34.5
39.55
45.52
52.89
61.72
71.63
81.91
91.68
100.06
106.17
109.21
108.55
104.04
96.19
86.29
76.16
67.68
62.24
60.25
61.19
63.86
66.91
69.16
69.87
68.7
65.62
60.81
54.6
47.36
39.49
31.29
22.98
14.81
7.23
0.83
-3.7
-5.88
-5.68
-3.6
-0.51
2.66
5.17
6.66
7.05
6.41
4.88
2.61
-0.17
-3.16
-5.99
-8.38
-10.22
-11.61
-12.71
-13.72
-14.69
-15.61
-16.41
-17.06
-17.65
-18.36
-19.43
-21.04
-23.27
-25.97
-28.74
-30.94
-31.82
-30.73
-27.32
-21.71
-14.44
-6.39
1.54
8.63
14.46
18.89
21.94
23.64
23.97
22.93
20.59
17.17
13.02
8.53
4.03
-0.27
-4.28
-7.9
-11.1
-13.84
-16.16
-18.22
-20.25
-22.5
-25.21
-28.46
-32.21
-36.23
-40.06
-43.03
-44.44
-43.7
-40.62
-35.46
-28.9
-21.82
-15.01
-8.97
-3.91
0.15
3.25
5.37
6.48
6.68
6.26
5.61
5.09
4.92
5.01
5.13
4.99
4.48
3.68
2.79
1.98
1.23
0.38
-0.91
-2.94
-5.87
-9.68
-14.11
-18.65
-22.59
-25.17
-25.72
-23.91
-19.85
-14.14
-7.62
-1.16
4.67
9.63
13.73
17.08
19.66
21.33
21.91
21.31
19.7
17.49
15.19
13.26
11.93
11.1
10.49
9.71
8.52
6.8
4.65
2.24
-0.24
-2.68
-5.12
-7.66
-10.53
-13.97
-18.13
-23.06
-28.58
-34.27
-39.47
-43.44
-45.59
-45.66
-43.86
-40.81
-37.27
-33.94
-31.22
-29.22
-27.85
-27.04
-26.91
-27.68
-29.63
-32.84
-37.16
-42.06
-46.83
-50.61
-52.69
-52.65
-50.51
-46.71
-42.01
-37.21
-32.96
-29.62
-27.22
-25.63
-24.62
-24.06
-24.01
-24.72
-26.44
-29.18
-32.39
-34.92
-35.22
-31.92
-24.33
-12.81
1.38
16.55
31.23
44.5
56.06
65.92
74.14
80.66
85.39
88.39
90.01
90.79
91.26
91.71
92.06
91.98
91.08
89.15
86.38
83.27
80.57
78.9
78.5
79.05
79.66
79.19
76.56
71.2
63.29
53.72
43.91
35.4
29.45
26.77
27.38
30.73
35.95
42.05
48.15
53.53
57.69
60.27
61.05
59.97
57.13
52.82
47.42
41.32
34.84
28.19
21.49
14.9
8.55
2.67
-2.59
-7.12
-10.97
-14.32
-17.42
-20.5
-23.7
-27.07
-30.58
-34.22
-38.07
-42.31
-47.21
-52.93
-59.4
-66.26
-72.83
-78.34
-82.16
-84
-84.03
-82.76
-80.94
-79.2
-77.96
-77.29
-77.02
-76.78
-76.19
-74.98
-72.99
-70.25
-66.86
-62.94
-58.5
-53.47
-47.7
-41.13
-33.85
-26.12
-18.36
-11.05
-4.63
0.55
4.23
6.36
7.03
6.47
4.96
2.74
0.01
-3.01
-6.01
-8.53
-10.04
-10.09
-8.51
-5.47
-1.45
2.97
7.3
11.24
14.64
17.5
19.76
21.39
22.32
22.52
22.07
21.18
20.14
19.29
18.92
19.17
19.99
21.11
22.15
22.79
22.87
22.44
21.66
20.66
19.41
17.73
15.34
12.14
8.22
4
0.08
-2.88
-4.42
-4.31
-2.66
0.08
3.3
6.31
8.5
9.53
9.33
8.09
6.18
3.96
1.76
-0.19
-1.8
-3.01
-3.83
-4.28
-4.44
-4.4
-4.33
-4.35
-4.58
-4.97
-5.41
-5.77
-6.03
-6.34
-7.05
-8.49
-10.79
-13.66
-16.38
-18.06
-17.92
-15.66
-11.52
-6.18
-0.44
5.07
9.96
14.07
17.31
19.57
20.71
20.71
19.78
18.3
16.7
15.31
14.22
13.29
12.32
11.15
9.8
8.41
7.16
6.14
5.37
4.71
3.95
2.82
1.13
-1.19
-3.94
-6.62
-8.53
-9.02
-7.67
-4.44
0.26
5.82
11.58
17.01
21.77
25.67
28.6
30.51
31.47
31.57
31.07
30.21
29.23
28.29
27.47
26.73
26.02
25.26
24.41
23.52
22.66
22.01
21.66
21.68
21.95
22.24
22.22
21.54
20.06
17.88
15.48
13.66
13.28
15.07
19.33
25.87
34.09
43.12
52.08
60.25
67.11
72.25
75.32
76.02
74.18
69.91
63.71
56.37
48.88
42.01
36.1
30.97
26.04
20.56
13.97
5.97
-3.41
-13.97
-25.32
-36.95
-48.12
-57.88
-65.22
-69.39
-70.12
-67.75
-63.12
-57.3
-51.25
-45.53
-40.35
-35.56
-30.92
-26.28
-21.63
-17.1
-12.94
-9.36
-6.53
-4.58
-3.64
-3.78
-5.09
-7.53
-10.91
-14.87
-18.93
-22.7
-25.99
-28.84
-31.51
-34.27
-37.26
-40.43
-43.62
-46.72
-49.8
-53.09
-56.82
-60.93
-64.91
-67.86
-68.76
-66.88
-62.07
-54.78
-45.93
-36.5
-27.29
-18.75
-11.07
-4.33
1.37
5.94
9.31
11.53
12.85
13.58
14.05
14.46
14.89
15.29
15.61
15.8
15.85
15.82
15.77
15.71
15.66
15.62
15.57
15.41
14.9
13.69
11.4
7.83
3.09
-2.25
-7.39
-11.47
-13.88
-14.37
-13.06
-10.26
-6.25
-1.19
4.83
11.69
19.09
26.49
33.18
38.49
41.85
42.97
41.82
38.59
33.71
27.75
21.5
15.77
11.32
8.65
7.84
8.51
9.97
11.33
11.8
10.79
8
3.42
-2.74
-9.98
-17.65
-24.94
-31.11
-35.58
-38.11
-38.8
-38
-36.16
-33.71
-30.93
-27.98
-24.94
-21.98
-19.28
-17.08
-15.5
-14.58
-14.15
-14.04
-14.06
-14.17
-14.45
-15.01
-15.91
-17.1
-18.45
-19.83
-21.12
-22.21
-22.95
-23.13
-22.53
-21.06
-18.74
-15.69
-11.96
-7.48
-1.98
4.75
12.6
21.05
29.18
35.97
40.68
43.06
43.45
42.48
40.85
39
37.08
35.06
32.86
30.48
28.03
25.6
23.19
20.74
18.12
15.29
12.28
9.21
6.16
3.1
-0.11
-3.67
-7.74
-12.4
-17.54
-22.92
-28.1
-32.5
-35.54
-36.81
-36.19
-34.01
-30.85
-27.39
-24.14
-21.36
-19.15
-17.57
-16.79
-17.07
-18.61
-21.38
-25
-28.87
-32.34
-34.93
-36.44
-36.92
-36.54
-35.44
-33.64
-31.12
-27.85
-23.9
-19.5
-15.01
-10.86
-7.4
-4.91
-3.48
-3.04
-3.26
-3.58
-3.36
-1.95
1.02
5.62
11.56
18.35
25.45
32.43
38.95
44.76
49.64
53.38
55.83
57.07
57.37
57.17
56.9
56.75
56.51
55.59
53.12
48.31
40.8
30.85
19.46
8.04
-1.99
-9.65
-14.62
-17.27
-18.47
-19.17
-20.21
-22.06
-24.84
-28.3
-31.93
-35
-36.73
-36.52
-34.07
-29.59
-23.74
-17.38
-11.36
-6.23
-2.24
0.62
2.46
3.41
3.57
3.11
2.25
1.3
0.47
-0.13
-0.54
-0.89
-1.29
-1.74
-2.19
-2.56
-2.86
-3.21
-3.85
-5.09
-7.18
-10.21
-14.02
-18.06
-21.53
-23.58
-23.53
-21.14
-16.71
-10.97
-4.78
1.13
6.33
10.69
14.27
17.1
19.12
20.21
20.35
19.68
18.55
17.35
16.44
16.02
16.12
16.65
17.44
18.28
18.96
19.29
19.09
18.24
16.71
14.52
11.72
8.34
4.35
-0.26
-5.4
-10.79
-15.87
-19.92
-22.25
-22.47
-20.63
-17.25
-13.06
-8.73
-4.66
-0.95
2.46
5.53
8.07
9.8
10.56
10.46
9.93
9.52
9.69
10.61
12.13
13.92
15.63
17.02
18
18.55
18.71
18.5
17.99
17.18
16.1
14.64
12.58
9.6
5.36
-0.28
-7.11
-14.45
-21.27
-26.43
-28.99
-28.53
-25.34
-20.23
-14.29
-8.51
-3.5
0.48
3.47
5.6
6.96
7.65
7.78
7.54
7.17
6.91
6.89
7.13
7.48
7.77
7.85
7.64
7.14
6.45
5.69
4.97
4.38
3.91
3.49
3.02
2.36
1.36
-0.11
-2.15
-4.78
-7.85
-10.91
-13.32
-14.3
-13.25
-10
-4.91
1.24
7.47
12.97
17.28
20.32
22.25
23.28
23.57
23.22
22.32
21.01
19.49
17.96
16.54
15.27
14.1
12.95
11.76
10.45
9
7.34
5.46
3.34
1.05
-1.32
-3.65
-5.87
-8.02
-10.28
-12.88
-16.04
-19.84
-24.11
-28.44
-32.24
-34.83
-35.67
-34.51
-31.51
-27.19
-22.24
-17.32
-12.84
-8.98
-5.73
-3.1
-1.18
-0.15
-0.16
-1.27
-3.33
-5.98
-8.69
-10.8
-11.73
-11.12
-9.08
-6.17
-3.31
-1.43
-1.14
-2.59
-5.51
-9.37
-13.64
-17.86
-21.67
-24.75
-26.83
-27.8
-27.85
-27.41
-26.98
-26.86
-26.98
-26.83
-25.77
-23.25
-19.16
-13.89
-8.15
-2.78
1.59
4.67
6.52
7.44
7.84
8.06
8.38
8.9
9.61
10.43
11.25
12.02
12.8
13.67
14.8
16.29
18.18
20.38
22.64
24.48
25.24
24.2
20.83
15.05
7.46
-0.79
-8.29
-13.87
-16.94
-17.65
-16.62
-14.63
-12.16
-9.34
-5.93
-1.66
3.58
9.59
15.94
22.08
27.51
31.88
35.05
37.04
38.02
38.21
37.92
37.44
37.03
36.92
37.19
37.84
38.72
39.56
40.05
39.93
39.03
37.37
35.07
32.29
29.17
25.83
22.31
18.68
14.97
11.18
7.24
2.99
-1.79
-7.29
-13.57
-20.45
-27.46
-33.91
-39.02
-42.08
-42.7
-40.96
-37.37
-32.8
-28.11
-23.98
-20.74
-18.3
-16.35
-14.5
-12.49
-10.27
-7.99
-5.89
-4.16
-2.77
-1.55
-0.25
1.23
2.74
3.95
4.54
4.38
3.62
2.66
1.87
1.36
0.92
0.11
-1.45
-3.95
-7.28
-11.19
-15.38
-19.61
-23.63
-27.11
-29.62
-30.74
-30.31
-28.57
-26.13
-23.73
-21.94
-20.91
-20.35
-19.74
-18.64
-16.88
-14.58
-12.08
-9.68
-7.56
-5.73
-4.04
-2.25
-0.13
2.49
5.72
9.5
13.67
17.98
22.1
25.69
28.39
29.92
30.16
29.22
27.39
25.14
22.85
20.72
18.69
16.51
13.91
10.78
7.27
3.8
0.92
-0.81
-1.01
0.45
3.37
7.28
11.46
15.17
17.8
19.05
18.9
17.62
15.56
13
10.13
7.09
4.03
1.21
-1.15
-2.86
-3.98
-4.75
-5.55
-6.65
-8.15
-9.92
-11.72
-13.35
-14.69
-15.83
-16.88
-18.03
-19.41
-21.11
-23.17
-25.58
-28.22
-30.77
-32.81
-33.79
-33.24
-30.87
-26.7
-21.06
-14.5
-7.66
-1.11
4.78
9.91
14.42
18.51
22.37
26.02
29.35
32.17
34.32
35.72
36.38
36.31
35.57
34.27
32.59
30.81
29.23
28.14
27.65
27.72
28.14
28.55
28.54
27.65
25.42
21.55
16.06
9.42
2.5
-3.62
-7.99
-10.11
-10.01
-8.18
-5.33
-2.11
1.03
3.76
5.81
6.8
6.25
3.74
-0.92
-7.57
-15.62
-24.25
-32.58
-39.92
-45.91
-50.47
-53.74
-55.9
-57.07
-57.32
-56.74
-55.51
-53.93
-52.32
-50.95
-50
-49.52
-49.49
-49.78
-50.16
-50.27
-49.59
-47.62
-43.98
-38.62
-31.84
-24.25
-16.6
-9.53
-3.5
1.31
4.9
7.38
8.93
9.74
10.06
10.09
9.98
9.78
9.48
8.98
8.19
7.07
5.61
3.85
1.84
-0.38
-2.74
-5.14
-7.39
-9.33
-10.89
-12.15
-13.38
-14.92
-16.97
-19.44
-21.83
-23.4
-23.38
-21.26
-16.95
-10.74
-3.15
5.22
13.83
22.21
29.94
36.7
42.31
46.71
50
52.3
53.69
54.24
54
53.1
51.82
50.53
49.59
49.21
49.28
49.4
48.82
46.66
42.23
35.26
26.12
15.75
5.25
-4.45
-12.92
-20.19
-26.51
-31.95
-36.25
-38.87
-39.26
-37.19
-32.87
-26.96
-20.25
-13.42
-6.88
-0.74
5.04
10.52
15.65
20.23
24.02
26.8
28.5
29.21
29.13
28.52
27.53
26.24
24.63
22.73
20.64
18.56
16.73
15.33
14.32
13.5
12.56
11.21
9.33
7.02
4.48
1.97
-0.34
-2.46
-4.6
-7.07
-10.19
-14.09
-18.59
-23.11
-26.86
-29.04
-29.16
-27.19
-23.53
-18.87
-13.87
-9.02
-4.55
-0.55
2.94
5.81
7.95
9.28
9.85
9.85
9.5
9.04
8.58
8.15
7.73
7.31
6.87
6.42
5.93
5.35
4.65
3.79
2.74
1.47
-0.12
-2.07
-4.41
-7.06
-9.87
-12.71
-15.53
-18.4
-21.47
-24.83
-28.34
-31.58
-33.87
-34.5
-33.03
-29.41
-24.07
-17.71
-11.11
-4.86
0.65
5.28
9.01
11.83
13.79
14.95
15.49
15.67
15.75
15.91
16.22
16.57
16.78
16.68
16.21
15.43
14.54
13.7
12.99
12.32
11.45
10.19
8.43
6.26
3.89
1.5
-0.82
-3.2
-5.87
-9.09
-12.95
-17.29
-21.62
-25.29
-27.64
-28.17
-26.69
-23.33
-18.54
-12.94
-7.21
-1.92
2.54
6.09
8.86
11.12
13.08
14.82
16.28
17.35
18.01
18.38
18.65
19.03
19.56
20.22
20.89
21.53
22.18
22.84
23.49
23.98
24.09
23.64
22.57
21.02
19.21
17.41
15.72
14.1
12.26
9.77
6.21
1.46
-4.16
-9.84
-14.5
-17.15
-17.24
-14.86
-10.58
-5.23
0.45
5.97
11.08
15.59
19.37
22.24
24.09
24.94
24.96
24.37
23.42
22.24
20.9
19.42
17.8
16.05
14.21
12.31
10.39
8.42
6.36
4.13
1.69
-0.92
-3.61
-6.23
-8.66
-10.85
-12.86
-14.87
-17.09
-19.75
-23
-26.8
-30.84
-34.57
-37.29
-38.32
-37.23
-34.03
-29.15
-23.31
-17.32
-11.79
-7.06
-3.15
0.05
2.7
4.8
6.18
6.62
5.96
4.28
1.93
-0.55
-2.59
-3.82
-4.08
-3.4
-1.94
0.12
2.58
5.21
7.73
9.84
11.34
12.16
12.42
12.26
11.74
10.78
9.22
6.86
3.67
-0.24
-4.56
-8.88
-12.6
-15.09
-15.68
-13.85
-9.4
-2.58
5.92
15.14
24.12
32.08
38.54
43.36
46.64
48.56
49.37
49.33
48.71
47.85
47.05
46.56
46.44
46.46
46.2
45.2
43.15
40.1
36.39
32.51
28.84
25.49
22.27
18.93
15.28
11.39
7.53
3.95
0.74
-2.27
-5.39
-8.93
-13.01
-17.41
-21.64
-25.02
-26.9
-26.82
-24.71
-20.92
-16.13
-11.13
-6.58
-2.86
-0.02
2.04
3.34
3.76
3.07
1.1
-2.06
-6.01
-10.21
-14.2
-17.8
-21.17
-24.69
-28.76
-33.66
-39.46
-46.06
-53.19
-60.39
-67.11
-72.75
-76.9
-79.46
-80.85
-81.88
-83.42
-86.07
-89.92
-94.43
-98.65
-101.5
-102.04
-99.69
-94.3
-86.13
-75.78
-64.09
-51.99
-40.3
-29.55
-19.9
-11.21
-3.17
4.47
11.76
18.52
24.41
29.12
32.44
34.41
35.28
35.43
35.33
35.46
36.18
37.74
40.14
43.05
45.88
47.91
48.47
47.18
44.06
39.44
33.76
27.43
20.7
13.78
7.05
1.06
-3.4
-5.62
-5.25
-2.53
1.68
6.21
9.94
12.19
12.89
12.47
11.58
10.68
9.83
8.7
6.78
3.72
-0.54
-5.73
-11.4
-17.2
-22.86
-28.18
-32.9
-36.6
-38.77
-39.03
-37.29
-33.88
-29.38
-24.5
-19.75
-15.45
-11.73
-8.64
-6.28
-4.75
-4.07
-4.01
-4.1
-3.67
-2.14
0.78
4.94
9.87
14.9
19.53
23.55
27
30.08
32.9
35.41
37.3
38.2
37.79
35.95
32.88
29.05
25.13
21.67
19.02
17.17
15.84
14.71
13.54
12.27
10.93
9.54
8.04
6.27
4.12
1.53
-1.45
-4.78
-8.43
-12.36
-16.4
-20.17
-23.09
-24.64
-24.49
-22.74
-19.76
-16.08
-12.18
-8.35
-4.73
-1.39
1.57
3.97
5.66
6.6
6.94
6.95
7
7.43
8.43
10.08
12.28
14.75
17.17
19.19
20.51
21.02
20.72
19.76
18.33
16.53
14.35
11.72
8.54
4.75
0.37
-4.62
-10.28
-16.64
-23.55
-30.53
-36.73
-41.09
-42.64
-40.85
-35.88
-28.48
-19.69
-10.55
-1.77
6.28
13.45
19.66
24.77
28.62
31.12
32.33
32.44
31.79
30.69
29.42
28.12
26.89
25.72
24.56
23.28
21.77
19.87
17.52
14.68
11.39
7.75
3.85
-0.16
-4.21
-8.31
-12.58
-17.22
-22.44
-28.21
-34.16
-39.55
-43.46
-45.06
-43.94
-40.3
-34.84
-28.55
-22.41
-17.1
-12.94
-9.95
-7.98
-6.81
-6.24
-6.06
-6.05
-5.98
-5.61
-4.85
-3.67
-2.22
-0.62
0.99
2.63
4.36
6.25
8.23
10.11
11.54
12.14
11.54
9.5
5.93
0.95
-5.16
-11.91
-18.68
-24.73
-29.38
-32.1
-32.56
-30.74
-26.86
-21.31
-14.5
-6.81
1.53
10.33
19.32
28.1
35.98
42.23
46.28
47.95
47.64
46.14
44.38
43.09
42.6
42.72
43.01
42.94
42.08
40.16
37.04
32.7
27.22
20.83
13.92
6.97
0.37
-5.62
-10.91
-15.46
-19.17
-21.8
-23.08
-22.83
-21.02
-17.92
-13.93
-9.49
-5.06
-0.98
2.45
5.03
6.62
7.21
6.89
5.84
4.25
2.32
0.24
-1.79
-3.6
-5.09
-6.22
-7.1
-7.86
-8.65
-9.56
-10.55
-11.57
-12.55
-13.52
-14.59
-15.98
-17.86
-20.3
-23.18
-26.21
-28.88
-30.61
-30.78
-28.99
-25.08
-19.36
-12.47
-5.26
1.48
7.18
11.65
15.01
17.54
19.49
21.02
22.2
23.03
23.55
23.82
23.89
23.79
23.47
22.88
21.97
20.75
19.27
17.63
15.89
14.08
12.19
10.19
8.01
5.62
2.99
0.12
-3
-6.42
-10.1
-13.87
-17.33
-19.9
-20.98
-20.16
-17.37
-12.94
-7.51
-1.78
3.68
8.51
12.6
15.98
18.67
20.74
22.2
23.13
23.59
23.62
23.25
22.52
21.53
20.49
19.65
19.21
19.24
19.61
20.04
20.18
19.76
18.66
16.9
14.66
12.1
9.39
6.62
3.8
0.85
-2.35
-5.97
-10.09
-14.61
-19.22
-23.38
-26.41
-27.77
-27.15
-24.63
-20.65
-15.86
-10.93
-6.41
-2.65
0.25
2.33
3.75
4.71
5.42
6.07
6.83
7.77
8.91
10.14
11.29
12.11
12.43
12.12
11.23
9.91
8.31
6.56
4.7
2.69
0.54
-1.72
-3.99
-6.19
-8.29
-10.35
-12.47
-14.78
-17.37
-20.25
-23.29
-26.15
-28.38
-29.46
-29.01
-26.92
-23.46
-19.11
-14.44
-9.9
-5.64
-1.63
2.23
5.93
9.3
12.04
13.85
14.6
14.37
13.39
11.96
10.29
8.5
6.64
4.76
2.96
1.36
0.03
-1.03
-1.92
-2.8
-3.75
-4.81
-5.93
-7.06
-8.2
-9.48
-11.11
-13.31
-16.11
-19.22
-22.07
-23.92
-24.13
-22.39
-18.81
-13.88
-8.24
-2.53
2.81
7.5
11.36
14.3
16.25
17.25
17.44
17.08
16.49
15.94
15.55
15.33
15.17
14.97
14.64
14.18
13.6
12.89
12
10.83
9.3
7.36
5.01
2.31
-0.7
-4
-7.6
-11.48
-15.56
-19.61
-23.31
-26.22
-27.9
-28.06
-26.63
-23.87
-20.25
-16.35
-12.67
-9.55
-7.17
-5.57
-4.73
-4.65
-5.29
-6.62
-8.52
-10.83
-13.35
-15.92
-18.43
-20.92
-23.53
-26.33
-29.24
-31.9
-33.73
-34.18
-32.94
-30.15
-26.33
-22.16
-18.23
-14.84
-12.1
-10.01
-8.59
-7.87
-7.74
-7.84
-7.54
-6.16
-3.23
1.26
6.86
12.81
18.31
22.81
26.15
28.48
30.11
31.34
32.27
32.86
32.97
32.55
31.67
30.54
29.39
28.33
27.36
26.33
25.08
23.49
21.53
19.28
16.89
14.5
12.2
10.04
7.94
5.76
3.35
0.58
-2.53
-5.84
-9.09
-11.94
-14.01
-14.95
-14.48
-12.49
-9.05
-4.5
0.6
5.67
10.21
13.94
16.84
19.03
20.64
21.75
22.29
22.18
21.41
20.05
18.3
16.43
14.72
13.33
12.31
11.54
10.76
9.67
8.05
5.81
3.06
0.03
-3.05
-6.04
-8.98
-12.04
-15.44
-19.33
-23.67
-28.18
-32.34
-35.55
-37.22
-36.99
-34.83
-31.05
-26.19
-20.83
-15.49
-10.46
-5.86
-1.71
2
5.23
7.93
10.09
11.79
13.25
14.69
16.37
18.33
20.5
22.66
24.6
26.2
27.54
28.8
30.14
31.62
33.08
34.32
35.06
35.15
34.51
33.14
31.15
28.74
26.21
23.94
22.26
21.33
21.1
21.3
21.56
21.56
21.09
20.13
18.74
17.01
15.03
12.83
10.45
8
5.66
3.68
2.26
1.5
1.3
1.41
1.51
1.36
0.93
0.39
-0.08
-0.34
-0.45
-0.64
-1.21
-2.44
-4.44
-7.24
-10.65
-14.36
-17.86
-20.55
-21.85
-21.38
-19.14
-15.48
-11.03
-6.47
-2.3
1.19
3.89
5.76
6.73
6.7
5.61
3.55
0.82
-2.11
-4.84
-7.1
-8.93
-10.55
-12.22
-14.08
-16.06
-17.98
-19.68
-21.19
-22.7
-24.53
-26.92
-30.03
-33.83
-38.2
-42.94
-47.77
-52.3
-55.98
-58.21
-58.52
-56.76
-53.1
-48.11
-42.47
-36.84
-31.7
-27.24
-23.41
-20.07
-17.07
-14.35
-11.93
-9.84
-8.06
-6.44
-4.74
-2.79
-0.58
1.72
3.82
5.47
6.57
7.24
7.68
8.09
8.54
8.92
8.98
8.5
7.27
5.29
2.76
0.12
-1.98
-2.86
-1.98
0.87
5.48
11.29
17.55
23.6
29.01
33.63
37.48
40.71
43.35
45.38
46.66
47.09
46.66
45.58
44.18
42.9
42.05
41.78
41.91
42.13
42.09
41.53
40.38
38.71
36.64
34.24
31.5
28.31
24.52
19.95
14.4
7.78
0.18
-7.99
-16.02
-22.99
-28.04
-30.69
-31.01
-29.57
-27.28
-24.95
-23.07
-21.71
-20.69
-19.81
-19.08
-18.79
-19.27
-20.69
-22.89
-25.39
-27.63
-29.27
-30.32
-31.12
-32.11
-33.57
-35.5
-37.64
-39.69
-41.49
-43.14
-44.95
-47.28
-50.41
-54.48
-59.52
-65.37
-71.77
-78.32
-84.46
-89.6
-93.27
-95.18
-95.37
-94.05
-91.58
-88.35
-84.67
-80.9
-77.36
-74.45
-72.51
-71.77
-72.25
-73.69
-75.53
-77.01
-77.27
-75.61
-71.7
-65.76
-58.51
-50.98
-44.12
-38.54
-34.35
-31.32
-29.13
-27.55
-26.51
-25.97
-25.77
-25.5
-24.54
-22.18
-17.83
-11.13
-2
9.33
22.4
36.46
50.58
63.8
75.28
84.56
91.59
96.65
100.14
102.39
103.49
103.38
102.04
99.6
96.4
92.88
89.4
86.1
82.88
79.57
76
72.14
68.07
63.92
59.72
55.42
50.83
45.76
40.08
33.81
27.15
20.46
14.21
8.89
4.86
2.37
1.53
2.24
4.37
7.69
11.9
16.62
21.42
25.83
29.38
31.71
32.63
32.22
30.79
28.85
26.87
25.16
23.82
22.74
21.75
20.71
19.61
18.4
17.02
15.33
13.24
10.82
8.34
6.15
4.52
3.49
2.81
2.18
1.48
0.84
0.71
1.61
3.91
7.68
12.65
18.31
24.06
29.36
33.82
37.25
39.66
41.2
42.12
42.68
43.11
43.61
44.26
45.03
45.82
46.43
46.64
46.26
45.2
43.54
41.46
39.3
37.34
35.72
34.32
32.8
30.64
27.38
22.8
17.01
10.46
3.77
-2.43
-7.63
-11.49
-13.93
-15.05
-15.18
-14.81
-14.49
-14.71
-15.75
-17.65
-20.25
-23.32
-26.65
-30.14
-33.75
-37.41
-40.94
-44.07
-46.56
-48.31
-49.42
-50.18
-50.88
-51.74
-52.71
-53.66
-54.41
-54.92
-55.33
-55.91
-56.93
-58.56
-60.86
-63.74
-67.04
-70.42
-73.39
-75.34
-75.63
-73.87
-70.05
-64.55
-58.06
-51.31
-44.89
-39.16
-34.35
-30.63
-28.17
-27.17
-27.65
-29.42
-32
-34.82
-37.35
-39.32
-40.75
-41.88
-43.08
-44.64
-46.61
-48.82
-50.88
-52.39
-53.17
-53.37
-53.46
-54.05
-55.65
-58.42
-62.01
-65.62
-68.06
-68.06
-64.53
-56.79
-44.86
-29.48
-12.03
5.78
22.31
36.46
47.84
56.74
63.85
69.89
75.28
80.12
84.23
87.42
89.59
90.89
91.55
91.81
91.74
91.26
90.19
88.42
85.95
82.92
79.51
75.89
72.13
68.21
64.04
59.53
54.63
49.28
43.43
37.03
30.14
23
16.15
10.28
6.14
4.22
4.61
6.93
10.4
14.15
17.41
19.68
20.75
20.72
19.83
18.38
16.74
15.23
14.14
13.67
13.9
14.74
15.97
17.25
18.25
18.78
18.81
18.46
17.9
17.33
16.82
16.31
15.7
14.76
13.26
10.93
7.57
3.17
-1.95
-7.1
-11.34
-13.68
-13.48
-10.57
-5.32
1.52
9.07
16.61
23.68
30.1
35.86
40.98
45.4
48.93
51.35
52.45
52.15
50.56
47.95
44.72
41.21
37.68
34.13
30.25
25.57
19.51
11.61
1.72
-9.97
-22.94
-36.53
-50.12
-63.33
-76.02
-88.21
-99.98
-111.4
-122.53
-133.34
-143.66
-153.04
-160.72
-165.79
-167.39
-165.05
-158.83
-149.31
-137.35
-123.7
-108.9
-93.17
-76.58
-59.21
-41.32
-23.34
-5.9
10.29
24.51
36.24
45.37
52.17
57.3
61.53
65.41
69.11
72.45
75.05
76.59
77.01
76.42
75.04
72.98
70.24
66.71
62.33
57.13
51.23
44.83
38.15
31.45
25.13
19.72
15.85
14.01
14.41
16.86
20.78
25.39
29.93
33.82
36.69
38.36
38.75
37.87
35.85
32.92
29.45
25.87
22.68
20.28
18.94
18.69
19.28
20.27
21.08
21.21
20.39
18.61
16.13
13.29
10.37
7.5
4.69
1.81
-1.25
-4.58
-8.19
-11.94
-15.46
-18.07
-18.96
-17.38
-12.98
-5.98
2.83
12.38
21.64
29.95
37.04
42.97
47.85
51.75
54.64
56.55
57.61
58.04
58.04
57.72
57.07
56.02
54.54
52.62
50.28
47.49
44.15
40.17
35.55
30.4
24.85
18.96
12.64
5.73
-1.85
-10
-18.45
-26.95
-35.43
-43.96
-52.63
-61.23
-69.13
-75.42
-79.23
-80.26
-78.87
-76.11
-73.24
-71.29
-70.78
-71.73
-73.8
-76.67
-80.13
-84.16
-88.75
-93.89
-99.41
-105.12
-110.8
-116.3
-121.44
-125.9
-129.12
-130.33
-128.68
-123.48
-114.41
-101.6
-85.66
-67.51
-48.29
-29.25
-11.62
3.51
15.34
23.6
28.59
31.19
32.65
34.24
36.95
41.29
47.21
54.27
61.77
69.02
75.46
80.77
84.89
87.9
89.94
91.04
91.12
90.01
87.62
84.04
79.63
74.9
70.34
66.24
62.58
59.14
55.59
51.72
47.48
42.93
38.11
33.01
27.51
21.51
14.97
7.96
0.7
-6.4
-12.74
-17.62
-20.37
-20.61
-18.4
-14.18
-8.66
-2.48
3.85
10.02
15.69
20.45
23.82
25.4
25.14
23.34
20.61
17.58
14.75
12.29
10.16
8.22
6.3
4.3
2.24
0.16
-1.89
-3.91
-5.95
-8.18
-10.82
-14.14
-18.33
-23.44
-29.23
-35.19
-40.52
-44.42
-46.24
-45.76
-43.25
-39.34
-34.84
-30.37
-26.26
-22.49
-18.79
-14.87
-10.62
-6.16
-1.81
2.06
5.19
7.57
9.37
10.87
12.25
13.52
14.53
15.06
15.03
14.51
13.75
12.98
12.27
11.51
10.42
8.69
6.06
2.46
-1.93
-6.7
-11.21
-14.72
-16.55
-16.28
-13.92
-9.92
-5.06
-0.14
4.24
7.79
10.5
12.49
13.85
14.54
14.51
13.72
12.3
10.53
8.73
7.21
6.12
5.45
5.03
4.68
4.25
3.65
2.88
1.96
0.87
-0.42
-2.04
-4.14
-6.87
-10.37
-14.61
-19.35
-24.05
-27.93
-30.12
-30
-27.48
-23.02
-17.56
-12.17
-7.74
-4.87
-3.77
-4.35
-6.22
-8.86
-11.58
-13.69
-14.66
-14.22
-12.44
-9.63
-6.26
-2.77
0.49
3.28
5.43
6.85
7.5
7.43
6.73
5.45
3.57
0.96
-2.55
-7.19
-13
-19.8
-27.11
-34.07
-39.71
-43.09
-43.63
-41.31
-36.62
-30.43
-23.62
-16.79
-10.16
-3.67
2.81
9.18
15.11
20.11
23.75
25.87
26.59
26.22
25.07
23.42
21.47
19.48
17.79
16.77
16.64
17.4
18.75
20.18
21.13
21.13
19.9
17.42
13.83
9.4
4.53
-0.32
-4.64
-7.96
-9.93
-10.39
-9.41
-7.2
-4.08
-0.34
3.76
7.94
11.95
15.45
18.15
19.92
20.82
21.18
21.5
22.21
23.52
25.27
27.06
28.44
29.08
29.01
28.6
28.47
29.3
31.58
35.31
39.89
44.09
46.42
45.5
40.55
31.71
20.01
7.22
-4.57
-13.4
-17.91
-17.64
-13.18
-5.97
2.19
9.69
15.53
19.42
21.49
21.99
20.95
18.3
14.1
8.75
2.96
-2.56
-7.41
-11.65
-15.6
-19.59
-23.67
-27.56
-30.8
-32.98
-33.94
-33.85
-33.2
-32.63
-32.8
-34.16
-36.84
-40.56
-44.65
-48.19
-50.24
-50.03
-47.19
-41.81
-34.35
-25.56
-16.21
-6.99
1.62
9.32
15.93
21.33
25.43
28.19
29.69
30.11
29.71
28.77
27.5
26.02
24.36
22.51
20.44
18.17
15.84
13.59
11.54
9.72
7.97
5.96
3.33
-0.26
-4.92
-10.46
-16.38
-21.91
-26.15
-28.35
-28.05
-25.28
-20.5
-14.49
-8.08
-1.99
3.3
7.49
10.46
12.12
12.48
11.62
9.76
7.19
4.25
1.25
-1.6
-4.2
-6.53
-8.63
-10.58
-12.41
-14.08
-15.48
-16.5
-17.11
-17.45
-17.85
-18.68
-20.28
-22.75
-25.93
-29.36
-32.4
-34.39
-34.8
-33.36
-30.1
-25.31
-19.5
-13.18
-6.89
-1.02
4.06
8.08
10.79
12.09
12.05
10.98
9.43
8.01
7.18
7.06
7.45
7.88
7.9
7.21
5.85
4.07
2.23
0.58
-0.84
-2.21
-3.8
-5.91
-8.69
-12.15
-16.08
-20.15
-23.84
-26.59
-27.87
-27.22
-24.49
-19.78
-13.5
-6.28
1.2
8.35
14.78
20.28
24.83
28.49
31.36
33.53
35.19
36.53
37.79
39.11
40.55
42.04
43.43
44.6
45.56
46.45
47.44
48.66
50.05
51.42
52.46
52.89
52.57
51.56
50.01
48.16
46.28
44.78
44.34
45.95
50.84
60.06
74.06
92.32
113.19
134.25
152.87
166.8
174.64
175.91
170.9
160.43
145.68
128.13
109.42
91.14
74.43
59.6
46.06
32.67
18.33
2.63
-14.01
-30.6
-46.43
-61.62
-77.34
-95.29
-116.89
-142.59
-171.61
-202.35
-232.96
-261.88
-287.93
-310.18
-327.71
-339.44
-344.28
-341.33
-330.26
-311.43
-285.95
-255.55
-222.17
-187.52
-152.58
-117.59
-82.43
-47.47
-14.19
14.86
36.9
50.32
55.59
55.25
52.83
51.23
51.57
53.13
54.3
53.79
51.51
48.38
45.62
43.88
42.96
42.16
40.93
39.49
38.71
39.76
43.42
49.66
57.58
65.86
73.17
78.67
82.04
83.37
82.82
80.51
76.44
70.63
63.3
54.88
45.96
37.11
28.8
21.28
14.58
8.53
2.78
-3.08
-9.38
-16.24
-23.47
-30.64
-37.31
-43.2
-48.33
-52.85
-56.76
-59.78
-61.35
-60.85
-58.03
-53.13
-46.85
-40.05
-33.41
-27.25
-21.66
-16.75
-12.75
-10.07
-9.03
-9.66
-11.67
-14.5
-17.59
-20.45
-22.74
-24.07
-23.96
-21.95
-17.84
-11.91
-5.04
1.53
6.54
9.12
8.94
6.26
1.75
-3.73
-9.17
-13.58
-16.06
-15.87
-12.58
-6.16
3.02
14.3
26.83
39.79
52.33
63.7
73.16
80.04
83.79
84.14
81.09
74.97
66.32
55.76
43.9
31.28
18.4
5.76
-6.11
-16.7
-25.57
-32.46
-37.3
-40.22
-41.6
-42
-42.13
-42.69
-44.21
-46.78
-49.95
-52.76
-54.06
-52.87
-48.76
-42.04
-33.59
-24.54
-15.83
-7.99
-1.11
4.98
10.42
15.21
19.17
22.11
23.95
24.8
24.89
24.47
23.73
22.75
21.58
20.28
18.98
17.84
17.02
16.65
16.81
17.54
18.75
20.2
21.55
22.42
22.48
21.51
19.46
16.36
12.41
7.98
3.65
0.13
-1.85
-1.77
0.47
4.54
9.87
15.77
21.65
27.08
31.72
35.21
37.19
37.35
35.63
32.25
27.81
23.15
19.25
16.93
16.67
18.38
21.42
24.85
27.78
29.82
31.25
32.78
35.14
38.57
42.63
46.33
48.64
48.89
46.99
43.38
38.78
33.9
29.44
26.02
24.16
24.19
26.06
29.24
32.82
35.81
37.46
37.48
36.05
33.57
30.37
26.47
21.57
15.29
7.46
-1.62
-11.11
-19.87
-26.89
-31.73
-34.69
-36.68
-38.71
-41.45
-44.93
-48.68
-52.05
-54.62
-56.39
-57.71
-59.01
-60.65
-62.89
-65.93
-69.87
-74.47
-78.89
-81.67
-81.1
-75.91
-65.99
-52.63
-38.16
-25.14
-15.53
-10.18
-8.82
-10.47
-13.82
-17.36
-19.47
-18.53
-13.24
-3.16
10.98
27.36
43.56
57.36
67.35
73.2
75.5
75.28
73.57
71.03
67.97
64.46
60.52
56.22
51.71
47.06
42.25
37.04
31.13
24.37
16.93
9.49
2.96
-1.71
-3.98
-3.87
-1.93
1.02
4.23
7.22
9.91
12.41
14.83
17.18
19.26
20.77
21.47
21.25
20.21
18.61
16.79
15.04
13.53
12.24
11.08
9.87
8.47
6.79
4.82
2.56
-0.01
-2.94
-6.33
-10.25
-14.7
-19.63
-24.94
-30.48
-36.09
-41.48
-46.28
-49.98
-52.09
-52.27
-50.48
-47.1
-42.81
-38.42
-34.63
-31.82
-30
-28.92
-28.25
-27.79
-27.52
-27.52
-27.83
-28.36
-28.85
-29
-28.59
-27.59
-26.01
-23.87
-21.07
-17.45
-13.01
-8.09
-3.35
0.4
2.54
2.89
1.71
-0.5
-3.35
-6.69
-10.54
-14.76
-18.82
-21.68
-22.07
-18.94
-11.88
-1.32
11.57
25.24
38.18
49.24
57.77
63.58
66.75
67.51
66.15
63.02
58.62
53.61
48.74
44.67
41.76
39.94
38.76
37.63
36.03
33.78
31.02
28.11
25.37
22.95
20.68
18.17
14.96
10.73
5.38
-0.81
-7.23
-13.06
-17.38
-19.45
-18.95
-16.02
-11.28
-5.52
0.54
6.43
11.96
17.09
21.81
26.05
29.72
32.75
35.15
37.05
38.6
39.96
41.29
42.71
44.29
45.93
47.33
48
47.48
45.47
41.95
37.1
31.12
24.03
15.63
5.62
-6.12
-19.43
-33.79
-48.35
-62.06
-73.82
-82.61
-87.73
-88.97
-86.77
-82.15
-76.42
-70.79
-65.97
-62.08
-58.74
-55.45
-51.9
-48.16
-44.68
-42.13
-41.1
-41.87
-44.17
-47.21
-49.79
-50.73
-49.27
-45.35
-39.7
-33.52
-28.08
-24.19
-21.95
-20.7
-19.26
-16.36
-11.03
-2.97
7.4
18.95
30.14
39.44
45.81
48.99
49.56
48.71
47.79
47.9
49.64
53.05
57.78
63.26
68.84
73.86
77.75
80.11
80.84
80.19
78.72
77.02
75.53
74.28
72.94
70.92
67.62
62.67
56.09
48.2
39.57
30.81
22.36
14.44
6.97
-0.29
-7.61
-15.21
-23.14
-31.35
-39.76
-48.32
-57.04
-65.87
-74.6
-82.77
-89.71
-94.76
-97.52
-98.07
-97.01
-95.28
-93.91
-93.68
-95.01
-98
-102.43
-107.79
-113.24
-117.7
-119.98
-119.11
-114.56
-106.35
-94.91
-80.95
-65.19
-48.39
-31.35
-14.86
0.38
13.88
25.49
35.42
43.98
51.5
58.16
63.99
68.94
72.88
75.59
76.71
75.89
72.89
67.7
60.67
52.33
43.24
33.83
24.36
15.07
6.31
-1.32
-7.03
-10.14
-10.3
-7.73
-3.21
2.11
7.02
10.56
12.25
12.19
11.03
9.68
9.05
9.64
11.44
13.91
16.31
17.95
18.52
18.12
17.13
16.01
15.12
14.58
14.29
13.95
13.13
11.37
8.33
3.97
-1.31
-6.68
-11.05
-13.41
-13.12
-10.13
-4.95
1.49
8.11
13.92
18.19
20.48
20.66
18.82
15.17
9.98
3.51
-4.07
-12.63
-22.04
-32.09
-42.54
-53.07
-63.36
-73.11
-81.99
-89.61
-95.45
-98.98
-99.81
-97.91
-93.66
-87.77
-81.13
-74.51
-68.51
-63.49
-59.64
-56.93
-55.03
-53.17
-50.21
-44.87
-36.22
-24.06
-9.07
7.39
23.69
38.48
50.96
60.85
68.35
73.76
77.42
79.65
80.81
81.31
81.57
81.9
82.4
82.88
82.98
82.36
80.89
78.74
76.39
74.34
72.97
72.24
71.71
70.73
68.64
64.98
59.55
52.5
44.2
35.22
26.33
18.31
11.88
7.42
4.93
4.03
4.15
4.75
5.53
6.44
7.53
8.77
10
10.84
10.98
10.27
8.82
7
5.25
4
3.48
3.7
4.47
5.43
6.2
6.51
6.26
5.62
4.83
4.11
3.51
2.77
1.5
-0.64
-3.78
-7.7
-11.91
-15.76
-18.64
-20.08
-19.8
-17.8
-14.44
-10.35
-6.34
-3.2
-1.41
-1.02
-1.68
-2.89
-4.27
-5.73
-7.43
-9.55
-12.06
-14.6
-16.68
-17.88
-18.1
-17.61
-16.91
-16.49
-16.6
-17.25
-18.31
-19.63
-21.14
-22.87
-24.83
-27.03
-29.43
-32.01
-34.84
-38.01
-41.55
-45.27
-48.67
-50.99
-51.44
-49.44
-44.88
-38.15
-29.98
-21.17
-12.4
-4.04
3.76
10.98
17.56
23.35
28.08
31.55
33.63
34.44
34.27
33.55
32.66
31.84
31.11
30.37
29.54
28.63
27.68
26.68
25.42
23.54
20.63
16.43
10.98
4.55
-2.41
-9.45
-16.16
-22.09
-26.73
-29.54
-30.05
-28.06
-23.74
-17.61
-10.39
-2.85
4.46
11.15
17.06
22.07
26.11
29.06
30.88
31.66
31.66
31.25
30.83
30.66
30.76
30.92
30.71
29.65
27.31
23.5
18.22
11.78
4.61
-2.81
-10.18
-17.41
-24.53
-31.56
-38.29
-44.28
-48.92
-51.64
-52.14
-50.44
-46.85
-41.88
-36.13
-30.23
-24.72
-20.05
-16.48
-14.1
-12.78
-12.2
-11.91
-11.33
-9.86
-7.12
-3.07
1.86
6.92
11.32
14.53
16.43
17.24
17.28
16.79
15.83
14.36
12.32
9.75
6.69
3.24
-0.47
-4.1
-7.03
-8.41
-7.36
-3.31
3.73
13.12
23.81
34.61
44.49
52.73
58.9
62.88
64.69
64.58
62.9
60.15
56.86
53.48
50.34
47.61
45.36
43.5
41.75
39.55
36.12
30.75
23.2
13.86
3.82
-5.57
-13.18
-18.53
-21.9
-24.15
-26.27
-29.05
-32.87
-37.66
-43.01
-48.27
-52.73
-55.67
-56.58
-55.27
-51.95
-47.14
-41.58
-35.94
-30.64
-25.87
-21.54
-17.47
-13.51
-9.67
-6.13
-3.17
-1.15
-0.36
-1.01
-3.24
-6.98
-11.98
-17.63
-23.05
-27.12
-28.84
-27.56
-23.25
-16.52
-8.47
-0.39
6.57
11.6
14.32
14.75
13.25
10.39
6.92
3.6
1.17
0.16
0.87
3.23
6.88
11.27
15.72
19.64
22.58
24.33
24.88
24.39
23.09
21.24
19.08
16.78
14.48
12.26
10.15
8.17
6.34
4.63
3.04
1.5
-0.08
-1.82
-3.78
-5.91
-8
-9.82
-11.17
-12.04
-12.69
-13.48
-14.7
-16.33
-17.98
-18.94
-18.5
-16.22
-12.1
-6.58
-0.37
5.84
11.54
16.51
20.76
24.4
27.48
29.91
31.52
32.14
31.78
30.63
29.05
27.39
25.82
24.24
22.4
20.06
17.22
14.17
11.37
9.27
8.07
7.58
7.35
6.8
5.52
3.38
0.57
-2.45
-5.08
-6.73
-6.91
-5.36
-2.14
2.39
7.56
12.63
16.97
20.2
22.23
23.21
23.38
23
22.3
21.52
20.88
20.52
20.46
20.59
20.7
20.66
20.46
20.21
20.07
20.08
20.1
19.81
18.82
16.78
13.48
8.86
2.99
-4.07
-12.28
-21.71
-32.46
-44.53
-57.57
-70.82
-82.98
-92.48
-97.71
-97.49
-91.27
-79.3
-62.54
-42.55
-21.26
-0.77
16.96
30.42
38.84
42.41
42.09
39.44
36.08
33.35
31.96
32.01
33.03
34.29
35.05
34.75
33.23
30.64
27.4
24
20.78
17.92
15.34
12.9
10.42
7.72
4.64
1.02
-3.26
-8.13
-13.27
-18.12
-22.03
-24.54
-25.5
-25.13
-23.88
-22.15
-20.24
-18.26
-16.24
-14.27
-12.46
-10.92
-9.72
-8.82
-8.17
-7.78
-7.73
-8.08
-8.81
-9.76
-10.65
-11.25
-11.49
-11.52
-11.61
-12.03
-12.92
-14.23
-15.81
-17.53
-19.37
-21.36
-23.52
-25.82
-28.15
-30.44
-32.8
-35.53
-38.93
-43.09
-47.74
-52.17
-55.48
-56.95
-56.29
-53.77
-50.01
-45.72
-41.4
-37.25
-33.2
-29.09
-24.73
-20.05
-15.04
-9.81
-4.5
0.64
5.37
9.47
12.87
15.68
18.12
20.48
22.99
25.74
28.75
31.95
35.18
38.26
40.85
42.57
43.04
42.03
39.54
35.85
31.37
26.46
21.27
15.78
9.96
4.06
-1.21
-4.8
-5.67
-3.26
2.18
9.56
17.36
24.13
29.05
32.04
33.59
34.37
34.85
35.07
34.82
33.83
31.99
29.54
26.86
24.38
22.33
20.61
18.88
16.63
13.51
9.37
4.3
-1.5
-7.95
-15.08
-22.94
-31.34
-39.62
-46.68
-51.41
-53.2
-52.28
-49.76
-47.08
-45.37
-45.01
-45.57
-46.27
-46.49
-46.06
-45.08
-43.45
-40.51
-35.12
-26.15
-13.29
2.55
19.27
34.27
45.32
51.29
52.26
49.3
43.83
37.21
30.47
24.25
18.89
14.59
11.37
9.21
8
7.54
7.45
7.14
5.88
3.03
-1.73
-8.21
-15.79
-23.76
-31.57
-38.96
-45.79
-51.78
-56.35
-58.71
-58.25
-54.85
-49.1
-42.09
-35.09
-29.06
-24.47
-21.34
-19.37
-18.17
-17.37
-16.74
-16.11
-15.4
-14.62
-13.82
-13.05
-12.26
-11.35
-10.13
-8.5
-6.47
-4.25
-2.14
-0.41
0.74
1.28
1.24
0.68
-0.33
-1.81
-3.76
-6.18
-8.94
-11.82
-14.4
-16.13
-16.39
-14.68
-10.83
-5.17
1.52
8.19
13.89
18.04
20.56
21.77
22.11
21.91
21.19
19.73
17.14
13.15
7.68
1
-6.22
-12.98
-18.03
-20.2
-18.67
-13.33
-4.85
5.41
15.82
24.89
31.63
35.61
36.86
35.71
32.57
27.89
22.09
15.65
9.06
2.84
-2.5
-6.61
-9.27
-10.52
-10.65
-10.07
-9.17
-8.24
-7.34
-6.41
-5.39
-4.27
-3.16
-2.19
-1.45
-0.93
-0.54
-0.19
0.2
0.6
0.95
1.15
1.14
0.92
0.6
0.37
0.5
1.23
2.67
4.59
6.49
7.61
7.21
4.75
0.1
-6.41
-14.06
-21.84
-28.75
-33.86
-36.52
-36.44
-33.75
-28.94
-22.73
-15.88
-9.04
-2.6
3.24
8.34
12.59
15.82
17.9
18.83
18.83
18.27
17.59
17.1
16.87
16.76
16.49
15.84
14.74
13.33
11.8
10.31
8.88
7.32
5.34
2.68
-0.82
-5.14
-10.04
-15.07
-19.63
-23.05
-24.76
-24.43
-22.2
-18.6
-14.43
-10.45
-7.24
-5
-3.73
-3.33
-3.67
-4.61
-5.9
-7.18
-8.1
-8.45
-8.33
-8.02
-7.93
-8.25
-8.95
-9.78
-10.48
-10.94
-11.24
-11.66
-12.48
-13.96
-16.24
-19.36
-23.21
-27.45
-31.49
-34.54
-35.79
-34.63
-30.92
-25.02
-17.71
-9.95
-2.57
3.92
9.4
14.01
17.91
21.13
23.53
24.9
25.15
24.46
23.21
21.84
20.67
19.8
19.1
18.4
17.58
16.67
15.79
15.04
14.34
13.44
11.92
9.38
5.66
0.94
-4.15
-8.64
-11.43
-11.67
-8.95
-3.56
3.69
11.62
19.05
25.11
29.4
32
33.32
33.87
34.08
34.27
34.59
35.06
35.52
35.69
35.15
33.53
30.66
26.73
22.27
18.05
14.75
12.81
12.28
12.87
14.12
15.5
16.54
16.81
15.98
13.83
10.34
5.8
0.76
-3.97
-7.61
-9.51
-9.45
-7.58
-4.34
-0.28
4.13
8.62
13.05
17.28
21.11
24.22
26.33
27.31
27.25
26.43
25.14
23.57
21.73
19.56
17.03
14.24
11.44
8.85
6.6
4.57
2.51
0.12
-2.75
-6.06
-9.56
-12.98
-16.12
-18.91
-21.44
-23.9
-26.45
-29.2
-32.25
-35.64
-39.31
-42.99
-46.16
-48.08
-47.97
-45.33
-40.12
-32.79
-24.14
-14.97
-5.82
3.1
11.78
20.19
28.04
34.85
40.16
43.83
46.17
47.87
49.72
52.19
55.32
58.7
61.76
64.05
65.47
66.16
66.38
66.2
65.43
63.74
60.83
56.75
51.9
46.99
42.8
39.82
38.12
37.34
36.86
36.11
34.79
33.01
31.28
30.34
30.93
33.61
38.61
45.75
54.46
63.93
73.33
82.09
90.13
97.82
105.74
114.29
123.3
131.81
138.23
140.79
138.11
129.72
116.27
99.36
81.16
63.81
48.98
37.58
29.82
25.33
23.49
23.61
25
26.97
28.77
29.59
28.73
25.72
20.52
13.5
5.24
-3.67
-12.9
-22.39
-32.15
-42.02
-51.44
-59.48
-65.19
-67.94
-67.77
-65.45
-62.08
-58.61
-55.53
-52.74
-49.78
-46.15
-41.54
-35.95
-29.84
-23.95
-19.08
-15.89
-14.65
-15.04
-16.28
-17.28
-17.11
-15.61
-13.29
-11.2
-10.49
-12.1
-16.47
-23.74
-33.66
-45.78
-60.22
-76.85
-95.18
-114.4
-133.66
-152.13
-169.64
-186.21
-201.79
-217.6
-234.31
-251.77
-269.1
-285.15
-298.48
-308.71
-315.65
-319
-320.68
-322.08
-323.58
-324.57
-324.07
-320.66
-314.76
-307.03
-297.69
-289.17
-282.35
-276.01
-267.56
-254.53
-235.01
-210.64
-184.15
-140.59
-74.3
11.03
103.36
188.59
250.39
289.97
310.64
315.89
309.56
293.26
269.42
241.62
213.87
189.28
170.38
156.85
148.05
143.82
141.99
140.83
139.28
137.03
134.23
131.9
129.82
128.04
126.97
125.73
123.62
120.31
115.92
110.86
106.03
101.53
97.57
94.5
91.93
89.37
86.45
82.98
79.02
74.99
71
67.14
63.47
59.71
55.5
50.61
45
38.87
32.6
26.41
20.44
14.78
9.54
4.95
1.44
-0.44
-0.15
2.56
7.52
14.18
21.74
29.4
36.6
43.06
48.7
53.59
57.79
61.45
64.73
67.84
70.88
73.82
76.32
77.84
77.7
75.23
69.86
61.21
49.09
33.67
15.52
-4.4
-24.85
-44.62
-62.8
-78.93
-93
-105.29
-116.27
-126.54
-136.8
-147.71
-159.73
-172.79
-186.12
-198.31
-207.73
-212.95
-213.21
-208.5
-199.41
-186.83
-171.63
-154.39
-135.35
-114.54
-91.97
-67.89
-43.01
-18.48
4.23
23.79
39.34
50.76
58.68
64.14
68.31
72.08
75.9
79.82
83.61
86.93
89.47
91.03
91.48
90.82
89.09
86.33
82.68
78.29
73.35
68.02
62.37
56.35
49.87
42.93
35.86
29.27
24.05
20.99
20.43
22.1
25.15
28.5
31.24
32.9
33.45
33.03
31.72
29.3
25.44
19.92
12.83
4.69
-3.73
-11.58
-18.17
-23.04
-26.01
-27.11
-26.64
-25.06
-22.94
-20.89
-19.38
-18.67
-18.78
-19.51
-20.57
-21.71
-22.78
-23.88
-25.29
-27.44
-30.68
-35.08
-40.29
-45.58
-49.93
-52.38
-52.24
-49.33
-43.96
-36.83
-28.87
-20.96
-13.77
-7.69
-2.79
1.07
4.12
6.55
8.43
9.75
10.49
10.67
10.44
9.98
9.48
9.01
8.52
7.91
7.09
6.06
4.9
3.72
2.54
1.3
-0.16
-2.01
-4.38
-7.3
-10.75
-14.66
-18.9
-23.23
-27.26
-30.42
-32.08
-31.73
-29.14
-24.49
-18.32
-11.31
-4.08
2.97
9.58
15.57
20.62
24.33
26.37
26.64
25.48
23.52
21.53
20.11
19.44
19.35
19.42
19.23
18.57
17.45
16.05
14.58
13.15
11.75
10.23
8.38
6
2.92
-0.92
-5.43
-10.33
-15.07
-18.97
-21.26
-21.37
-19.1
-14.71
-8.89
-2.5
3.66
9.1
13.66
17.4
20.42
22.74
24.26
24.8
24.26
22.71
20.37
17.63
14.91
12.53
10.61
9
7.38
5.31
2.49
-1.16
-5.41
-9.87
-14.07
-17.69
-20.64
-23.12
-25.45
-28.01
-31.03
-34.46
-37.91
-40.68
-41.93
-40.92
-37.26
-31.08
-22.97
-13.88
-4.8
3.46
10.44
16
20.21
23.3
25.46
26.82
27.39
27.07
25.75
23.43
20.42
17.4
15.36
15.32
17.98
23.4
30.94
39.38
47.35
53.65
57.5
58.54
56.82
52.65
46.59
39.38
31.86
24.75
18.6
13.58
9.67
6.73
4.8
4.11
4.95
7.56
11.9
17.73
24.73
32.6
41.19
50.3
59.61
68.52
76.25
81.99
85.14
85.55
83.52
79.65
74.69
69.32
63.95
58.78
53.8
48.97
44.28
39.79
35.61
31.82
28.37
25.16
22.1
19.18
16.52
14.25
12.44
10.98
9.58
7.84
5.43
2.19
-1.71
-5.83
-9.61
-12.66
-14.9
-16.65
-18.47
-20.82
-23.89
-27.57
-31.73
-36.35
-41.65
-47.8
-54.66
-61.59
-67.67
-72.13
-74.72
-75.81
-76.08
-76.05
-75.85
-75.22
-73.86
-71.83
-69.57
-67.79
-66.99
-67.18
-67.92
-68.41
-67.93
-66.06
-62.72
-58.05
-52.26
-45.4
-37.41
-28.19
-17.78
-6.4
5.53
17.53
29.18
40.2
50.4
59.73
68.18
75.79
82.57
88.44
93.11
96.13
97.02
95.49
91.62
85.91
79.11
71.93
64.8
57.81
50.81
43.66
36.28
28.74
21.16
13.66
6.35
-0.62
-7.1
-13.01
-18.42
-23.59
-28.94
-34.88
-41.56
-48.74
-55.74
-61.67
-65.61
-66.99
-65.71
-62.21
-57.3
-51.94
-46.96
-42.9
-39.93
-37.93
-36.62
-35.73
-35.14
-34.82
-34.84
-35.21
-35.81
-36.43
-36.81
-36.81
-36.4
-35.7
-34.9
-34.12
-33.43
-32.75
-32.01
-31.1
-30.02
-28.77
-27.39
-26
-24.69
-23.57
-22.75
-22.2
-21.78
-21.08
-19.53
-16.45
-11.34
-3.99
5.3
15.84
26.74
37.16
46.52
54.54
61.22
66.58
70.64
73.36
74.68
74.63
73.4
71.33
68.78
65.99
63.02
59.7
55.71
50.8
44.93
38.31
31.39
24.68
18.54
13.12
8.32
3.97
-0.17
-4.27
-8.47
-12.89
-17.53
-22.19
-26.32
-29.16
-29.9
-28
-23.51
-17.01
-9.43
-1.72
5.36
11.2
15.25
16.93
15.78
11.83
5.77
-1.18
-7.63
-12.65
-15.98
-17.95
-18.95
-19.13
-18.2
-15.78
-11.76
-6.59
-1.17
3.55
6.86
8.51
8.53
7.07
4.22
-0.01
-5.56
-12.1
-19.01
-25.4
-30.31
-32.96
-32.96
-30.41
-25.81
-19.9
-13.42
-7.03
-1.24
3.61
7.2
9.32
9.88
8.98
6.91
4.09
1.01
-1.96
-4.64
-7.06
-9.43
-12
-14.9
-18.09
-21.41
-24.64
-27.69
-30.63
-33.72
-37.25
-41.52
-46.65
-52.59
-58.92
-64.75
-68.79
-69.56
-65.84
-57.19
-44.24
-28.56
-12.24
2.78
15.18
24.41
30.56
34.04
35.33
34.9
33.23
30.82
28.21
25.86
24.01
22.68
21.69
20.8
19.77
18.49
17.02
15.51
14.18
13.19
12.53
12.03
11.38
10.24
8.36
5.71
2.5
-0.78
-3.5
-5.04
-4.97
-3.1
0.37
5.02
10.27
15.54
20.41
24.55
27.73
29.63
29.86
28.1
24.25
18.65
12.12
5.73
0.47
-3.11
-5.1
-6.11
-6.99
-8.44
-10.76
-13.85
-17.4
-21.15
-25.08
-29.42
-34.43
-40.2
-46.41
-52.38
-57.22
-60.13
-60.68
-58.86
-54.99
-49.55
-42.95
-35.47
-27.29
-18.66
-10
-1.93
4.88
9.9
13
14.43
14.8
14.74
14.67
14.61
14.19
12.87
10.14
5.84
0.21
-5.99
-11.69
-15.68
-16.99
-15.29
-11.05
-5.53
-0.36
3.07
4.12
3.16
1.29
-0.15
-0.19
1.46
4.44
8.13
11.96
15.62
18.99
21.98
24.36
25.81
26.07
25.12
23.3
21.18
19.36
18.15
17.54
17.15
16.49
15.14
12.98
10.24
7.36
4.81
2.87
1.48
0.28
-1.26
-3.61
-6.91
-10.91
-14.92
-18.02
-19.29
-18.14
-14.4
-8.44
-0.99
7.05
14.85
21.85
27.82
32.79
36.89
40.28
42.97
44.99
46.34
47.15
47.73
48.47
49.75
51.71
54.15
56.54
58.17
58.36
56.7
53.12
47.85
41.25
33.66
25.26
16.19
6.63
-3.13
-12.72
-21.74
-29.93
-37.1
-43.12
-47.71
-50.52
-51.11
-49.28
-45.15
-39.36
-32.79
-26.38
-20.82
-16.42
-13.18
-10.96
-9.68
-9.3
-9.69
-10.52
-11.19
-10.94
-9.27
-6.14
-2.07
2.03
5.33
7.39
8.34
8.65
8.85
9.18
9.51
9.46
8.6
6.68
3.67
-0.24
-4.61
-8.88
-12.32
-14.23
-14.07
-11.67
-7.28
-1.54
4.72
10.68
15.7
19.42
21.65
22.36
21.59
19.4
15.89
11.1
5.07
-2.2
-10.72
-20.42
-31.05
-42.01
-52.34
-60.77
-65.96
-66.86
-63.09
-55.15
-44.34
-32.54
-21.68
-13.37
-8.46
-7.02
-8.33
-11.14
-14
-15.56
-14.89
-11.58
-5.84
1.71
10.26
18.99
27.28
34.7
40.97
45.89
49.35
51.39
52.17
52.01
51.3
50.36
49.32
48.14
46.66
44.67
42.05
38.82
35.09
31
26.69
22.16
17.28
11.8
5.36
-2.36
-11.51
-21.85
-32.71
-43.02
-51.55
-57.25
-59.58
-58.57
-54.83
-49.23
-42.69
-35.95
-29.52
-23.74
-18.87
-15.12
-12.66
-11.54
-11.63
-12.62
-14.02
-15.31
-16.01
-15.85
-14.83
-13.2
-11.39
-9.84
-8.84
-8.44
-8.48
-8.63
-8.55
-7.99
-6.92
-5.48
-4.03
-3.05
-3.03
-4.39
-7.31
-11.67
-16.92
-22.18
-26.32
-28.33
-27.54
-23.9
-17.97
-10.73
-3.25
3.67
9.65
14.73
19.15
23.16
26.87
30.28
33.36
36.18
38.88
41.66
44.64
47.84
51.1
54.12
56.51
57.9
57.99
56.71
54.17
50.65
46.49
41.97
37.25
32.35
27.24
21.85
16.12
10.06
3.79
-2.39
-7.94
-12.13
-14.23
-13.8
-10.95
-6.34
-1.07
3.74
7.3
9.28
9.82
9.29
8.03
6.29
4.28
2.23
0.47
-0.6
-0.66
0.38
2.4
5.11
8.17
11.38
14.58
17.72
20.71
23.43
25.72
27.45
28.51
28.83
28.3
26.81
24.22
20.47
15.61
9.83
3.5
-2.92
-8.9
-13.97
-17.72
-19.91
-20.54
-19.84
-18.26
-16.36
-14.69
-13.67
-13.49
-14.15
-15.57
-17.63
-20.17
-22.84
-24.92
-25.36
-23.07
-17.45
-8.8
1.58
11.78
19.97
25
26.75
25.88
23.35
19.98
16.21
12.2
8.08
4.06
0.42
-2.68
-5.31
-7.77
-10.53
-13.94
-18.12
-22.75
-27.19
-30.55
-31.93
-30.74
-26.91
-20.97
-13.89
-6.75
-0.41
4.74
8.75
11.94
14.66
17.02
19.02
20.55
21.58
22.2
22.53
22.62
22.39
21.61
19.91
16.96
12.54
6.73
-0.02
-6.98
-13.23
-18.03
-21.05
-22.44
-22.83
-23
-23.63
-25.07
-27.39
-30.41
-33.89
-37.51
-40.88
-43.51
-44.87
-44.51
-42.22
-38.19
-32.97
-27.42
-22.45
-18.72
-16.51
-15.64
-15.58
-15.65
-15.25
-13.99
-11.75
-8.66
-5.04
-1.27
2.24
5.19
7.38
8.8
9.57
9.88
9.9
9.72
9.45
9.21
9.21
9.66
10.65
12.01
13.27
13.8
13.13
11.21
8.57
6.2
5.18
6.25
9.51
14.4
19.93
25.1
29.15
31.7
32.73
32.42
31.01
28.76
25.98
23.02
20.22
17.87
16.11
14.92
14.21
13.84
13.67
13.56
13.39
13.04
12.42
11.53
10.44
9.35
8.48
8.02
8
8.26
8.49
8.31
7.35
5.4
2.44
-1.28
-5.28
-8.91
-11.5
-12.5
-11.62
-8.94
-4.82
0.11
5.14
9.61
12.9
14.49
13.9
10.79
5
-3.2
-13.07
-23.43
-32.87
-40.15
-44.46
-45.65
-44.13
-40.71
-36.31
-31.75
-27.65
-24.47
-22.47
-21.72
-22.11
-23.33
-25.01
-26.87
-28.84
-31.06
-33.69
-36.76
-39.98
-42.73
-44.32
-44.19
-42.23
-38.78
-34.51
-30.12
-26.09
-22.59
-19.55
-16.85
-14.46
-12.52
-11.16
-10.45
-10.31
-10.58
-11.16
-12.02
-13.26
-14.87
-16.64
-18.14
-18.83
-18.38
-16.83
-14.6
-12.34
-10.68
-9.98
-10.34
-11.7
-13.98
-17.1
-20.93
-25.09
-28.86
-31.32
-31.61
-29.28
-24.5
-17.98
-10.73
-3.65
2.69
8.12
12.74
16.63
19.76
22.03
23.34
23.82
23.79
23.7
23.87
24.4
25.09
25.58
25.56
24.88
23.6
21.85
19.76
17.31
14.35
10.67
6.14
0.78
-5.12
-11.04
-16.3
-20.21
-22.21
-22.09
-19.98
-16.36
-11.88
-7.22
-2.86
0.91
3.98
6.31
7.8
8.24
7.37
5.01
1.19
-3.75
-9.17
-14.3
-18.45
-21.19
-22.55
-22.92
-22.97
-23.36
-24.5
-26.47
-29.03
-31.81
-34.55
-37.14
-39.63
-41.98
-43.86
-44.63
-43.5
-39.84
-33.5
-24.93
-15.01
-4.77
4.99
13.83
21.67
28.55
34.47
39.29
42.94
45.46
47.21
48.65
50.2
51.98
53.79
55.2
55.88
55.7
54.86
53.72
52.57
51.52
50.44
49.08
47.12
44.26
40.3
35.12
28.89
22.07
15.5
10.18
6.99
6.39
8.2
11.73
15.99
20.1
23.51
26.09
27.93
29.15
29.72
29.48
28.22
25.9
22.66
18.86
14.91
11.14
7.68
4.51
1.54
-1.4
-4.35
-7.34
-10.35
-13.37
-16.41
-19.48
-22.62
-25.86
-29.17
-32.53
-35.87
-39.19
-42.47
-45.62
-48.41
-50.37
-50.86
-49.24
-45.13
-38.63
-30.34
-21.27
-12.47
-4.8
1.29
5.75
8.77
10.63
11.59
11.83
11.48
10.64
9.43
8
6.52
5.17
4.06
3.23
2.59
1.97
1.19
0.07
-1.47
-3.4
-5.63
-8.09
-10.72
-13.55
-16.67
-20.15
-24.03
-28.3
-32.83
-37.43
-41.74
-45.27
-47.42
-47.62
-45.49
-41.04
-34.69
-27.18
-19.32
-11.81
-5.06
0.85
5.99
10.44
14.16
17.02
18.92
19.88
20.18
20.26
20.54
21.29
22.47
23.82
24.96
25.65
25.85
25.75
25.57
25.44
25.24
24.68
23.44
21.29
18.18
14.24
9.65
4.61
-0.63
-5.72
-10.14
-13.21
-14.33
-13.13
-9.72
-4.62
1.33
7.29
12.65
17.1
20.61
23.29
25.23
26.49
27.06
26.98
26.37
25.42
24.38
23.47
22.74
22.13
21.46
20.55
19.23
17.49
15.44
13.19
10.9
8.61
6.29
3.87
1.21
-1.84
-5.39
-9.49
-13.98
-18.47
-22.36
-24.93
-25.59
-24.09
-20.57
-15.55
-9.74
-3.82
1.7
6.55
10.64
13.96
16.54
18.41
19.59
20.15
20.15
19.68
18.86
17.83
16.76
15.79
15
14.35
13.74
12.98
11.96
10.64
9.1
7.43
5.71
3.93
1.99
-0.26
-2.9
-5.95
-9.36
-13.03
-16.82
-20.48
-23.65
-25.86
-26.57
-25.38
-22.2
-17.28
-11.23
-4.83
1.19
6.32
10.35
13.32
15.41
16.86
17.81
18.38
18.63
18.62
18.43
18.11
17.72
17.25
16.7
16
15.1
13.95
12.52
10.83
8.93
6.89
4.75
2.54
0.23
-2.19
-4.74
-7.4
-10.17
-13.07
-16.16
-19.44
-22.86
-26.15
-28.9
-30.61
-30.78
-29.12
-25.65
-20.73
-14.96
-9.09
-3.78
0.54
3.67
5.64
6.61
6.76
6.24
5.25
3.99
2.68
1.5
0.54
-0.24
-0.9
-1.49
-1.9
-1.89
-1.15
0.53
3.13
6.41
9.94
13.29
16.14
18.44
20.23
21.55
22.29
22.1
20.54
17.3
12.44
6.48
0.43
-4.51
-7.2
-6.8
-2.99
4.05
13.66
24.83
36.33
46.9
55.47
61.34
64.32
64.7
63.1
60.27
56.89
53.49
50.36
47.58
45.04
42.44
39.42
35.65
30.94
25.29
18.85
11.86
4.52
-2.99
-10.48
-17.62
-24.01
-29.19
-32.79
-34.71
-35.12
-34.49
-33.4
-32.45
-31.99
-32.01
-32.08
-31.51
-29.66
-26.28
-21.61
-16.36
-11.33
-7.1
-3.83
-1.35
0.53
1.77
2.03
0.86
-1.97
-6.3
-11.6
-17.24
-22.81
-28.32
-34.07
-40.49
-47.77
-55.74
-63.81
-70.99
-76.06
-77.91
-75.86
-70.06
-61.56
-52.06
-43.48
-37.31
-34.3
-34.23
-36.14
-38.5
-39.7
-38.46
-34.22
-27.38
-19.16
-11.14
-4.61
-0.01
3.08
5.61
8.35
11.55
14.89
17.84
20.08
21.69
23.02
24.38
25.87
27.3
28.45
29.18
29.57
29.81
30.07
30.41
30.67
30.64
30.05
28.75
26.72
24.05
20.84
17.11
12.67
7.29
0.79
-6.66
-14.48
-21.71
-27.27
-30.32
-30.49
-27.99
-23.47
-17.81
-11.9
-6.46
-1.99
1.23
3.15
3.88
3.7
2.9
1.8
0.6
-0.63
-1.91
-3.33
-4.92
-6.58
-8.04
-8.93
-8.92
-7.86
-5.91
-3.5
-1.22
0.42
1.16
1.02
0.3
-0.5
-0.86
-0.29
1.59
4.98
9.83
15.77
22.22
28.42
33.72
37.69
40.25
41.63
42.21
42.34
42.19
41.73
40.85
39.48
37.74
35.88
34.24
32.97
32.04
31.15
30
28.36
26.27
23.95
21.71
19.72
17.9
15.97
13.53
10.26
6.01
0.9
-4.76
-10.55
-16.04
-20.87
-24.72
-27.32
-28.44
-27.98
-26.06
-23.02
-19.39
-15.71
-12.38
-9.52
-7.02
-4.67
-2.34
-0.03
2.15
4.13
5.89
7.48
8.91
10.06
10.69
10.54
9.5
7.66
5.32
2.87
0.59
-1.48
-3.5
-5.83
-8.82
-12.69
-17.42
-22.78
-28.34
-33.56
-37.84
-40.62
-41.41
-40.02
-36.57
-31.56
-25.69
-19.66
-14
-8.95
-4.52
-0.63
2.77
5.62
7.8
9.27
10.09
10.49
10.75
11.1
11.64
12.3
12.89
13.19
13
12.19
10.77
8.8
6.4
3.72
0.8
-2.31
-5.69
-9.42
-13.61
-18.25
-23.23
-28.2
-32.58
-35.7
-36.94
-35.93
-32.75
-27.89
-22.16
-16.36
-11.1
-6.66
-3.05
-0.14
2.16
3.89
5.01
5.5
5.44
4.96
4.27
3.54
2.88
2.34
1.9
1.45
0.91
0.18
-0.79
-1.98
-3.35
-4.82
-6.39
-8.11
-10.1
-12.51
-15.52
-19.19
-23.5
-28.17
-32.68
-36.36
-38.51
-38.62
-36.56
-32.6
-27.29
-21.34
-15.33
-9.71
-4.75
-0.59
2.64
4.88
6.17
6.63
6.52
6.13
5.75
5.53
5.49
5.52
5.44
5.11
4.49
3.68
2.91
2.36
2.07
1.88
1.49
0.55
-1.21
-3.88
-7.36
-11.41
-15.62
-19.46
-22.3
-23.52
-22.73
-19.88
-15.34
-9.79
-3.99
1.48
6.26
10.23
13.36
15.6
16.86
17.12
16.49
15.25
13.79
12.39
11.18
10.04
8.76
7.14
5.15
2.9
0.59
-1.59
-3.6
-5.52
-7.52
-9.84
-12.64
-16.07
-20.17
-24.77
-29.46
-33.6
-36.49
-37.52
-36.5
-33.6
-29.39
-24.52
-19.59
-15.01
-11.03
-7.78
-5.37
-3.85
-3.18
-3.23
-3.73
-4.35
-4.78
-4.78
-4.26
-3.23
-1.82
-0.18
1.53
3.18
4.66
5.89
6.86
7.59
8.18
8.76
9.44
10.33
11.56
13.28
15.68
18.95
23.22
28.49
34.53
40.96
47.24
52.8
57.1
59.75
60.55
59.47
56.7
52.56
47.42
41.72
35.84
30.2
25.17
21.08
18.11
16.21
15.09
14.37
13.63
12.66
11.47
10.18
8.95
7.8
6.63
5.23
3.44
1.16
-1.53
-4.39
-7.07
-9.08
-9.95
-9.27
-6.87
-2.88
2.3
8.11
13.92
19.16
23.39
26.28
27.6
27.22
25.16
21.63
16.93
11.43
5.41
-1.01
-7.84
-15.15
-22.96
-31.12
-39.22
-46.58
-52.28
-55.29
-54.7
-49.98
-41.28
-29.5
-16.27
-3.54
6.81
13.49
16.09
15.05
11.55
7.06
3.08
0.78
0.88
3.59
8.64
15.47
23.32
31.41
39.08
45.87
51.62
56.37
60.35
63.78
66.81
69.47
71.68
73.35
74.42
74.87
74.64
73.53
71.2
67.22
61.26
53.38
44.04
34.13
24.65
16.42
9.8
4.64
0.46
-3.36
-7.26
-11.46
-15.88
-20.25
-24.16
-27.06
-28.41
-27.79
-25.12
-20.79
-15.61
-10.57
-6.52
-3.92
-2.68
-2.4
-2.6
-3.1
-4.03
-5.69
-8.22
-11.36
-14.45
-16.84
-18.4
-19.84
-22.62
-28.36
-38.05
-51.58
-67.69
-84.47
-99.96
-112.47
-120.63
-123.3
-119.74
-110.07
-95.66
-79.25
-64.26
-53.65
-48.82
-49.19
-52.57
-56.24
-58.03
-56.95
-53.12
-47.34
-40.53
-33.38
-26.23
-19.1
-11.85
-4.37
3.33
11.05
18.61
26.04
33.67
42.02
51.45
61.72
71.79
80.12
85.14
86.02
82.94
77.02
69.78
62.45
55.61
49.17
42.7
35.8
28.38
20.64
12.96
5.76
-0.63
-5.9
-9.76
-11.96
-12.41
-11.25
-8.85
-5.69
-2.19
1.28
4.49
7.2
9.15
10.15
10.12
9.17
7.62
5.81
4.04
2.5
1.28
0.35
-0.45
-1.38
-2.83
-5.2
-8.71
-13.33
-18.74
-24.54
-30.41
-36.32
-42.5
-49.21
-56.49
-63.9
-70.49
-75.01
-76.34
-73.83
-67.64
-58.65
-48.22
-37.76
-28.33
-20.51
-14.37
-9.79
-6.61
-4.88
-4.75
-6.4
-9.9
-15.02
-21.15
-27.29
-32.1
-34.17
-32.39
-26.3
-16.29
-3.6
10.11
23.13
34.19
42.55
47.97
50.43
50.02
46.84
41.08
33.07
23.35
12.65
1.92
-7.74
-15.14
-19.18
-19.12
-14.76
-6.58
4.38
16.79
29.4
41.2
51.53
60.01
66.36
70.35
71.91
71.23
68.87
65.65
62.39
59.54
57.02
54.22
50.31
44.63
37.01
27.86
17.96
8.17
-0.86
-8.88
-15.99
-22.54
-28.98
-35.73
-43.05
-50.97
-59.16
-66.93
-73.38
-77.66
-79.24
-78.11
-74.82
-70.21
-65.16
-60.36
-56.27
-53.17
-51.23
-50.45
-50.53
-50.84
-50.52
-48.69
-44.78
-38.62
-30.42
-20.56
-9.51
2.24
14.01
24.96
34.15
40.85
44.78
46.12
45.37
43.03
39.33
34.21
27.61
19.66
10.95
2.43
-4.8
-9.83
-12.15
-11.85
-9.41
-5.54
-0.9
4
8.84
13.4
17.44
20.63
22.64
23.25
22.5
20.73
18.46
16.29
14.61
13.52
12.84
12.22
11.39
10.27
9.04
8.02
7.46
7.39
7.52
7.34
6.31
4.08
0.59
-3.85
-8.7
-13.22
-16.63
-18.27
-17.78
-15.17
-10.83
-5.41
0.44
6.22
11.7
16.77
21.31
25.07
27.68
28.88
28.68
27.43
25.68
23.97
22.6
21.53
20.53
19.33
17.79
15.97
14.04
12.18
10.46
8.83
7.2
5.52
3.76
1.94
0.02
-2.03
-4.25
-6.56
-8.63
-9.97
-9.94
-8.07
-4.22
1.29
7.77
14.38
20.47
25.68
29.94
33.3
35.68
36.86
36.57
34.74
31.61
27.74
23.79
20.28
17.44
15.19
13.24
11.35
9.34
7.19
4.96
2.69
0.38
-1.99
-4.47
-7.1
-9.94
-13.05
-16.57
-20.68
-25.48
-30.92
-36.63
-41.89
-45.75
-47.3
-45.98
-41.75
-35.17
-27.14
-18.65
-10.48
-3.1
3.37
8.97
13.79
17.89
21.28
23.98
26.02
27.39
28.08
28.05
27.31
25.97
24.27
22.55
21.08
19.91
18.86
17.53
15.58
12.83
9.37
5.52
1.61
-2.11
-5.63
-9.1
-12.76
-16.83
-21.43
-26.47
-31.61
-36.3
-39.79
-41.37
-40.5
-37.08
-31.42
-24.21
-16.29
-8.44
-1.26
4.91
9.97
13.93
16.92
19.11
20.66
21.74
22.5
23.03
23.44
23.75
23.96
24.06
24
23.79
23.44
23.02
22.51
21.86
20.87
19.32
17.08
14.21
10.92
7.58
4.48
1.75
-0.71
-3.19
-6.03
-9.51
-13.75
-18.63
-23.76
-28.51
-32.09
-33.71
-32.88
-29.58
-24.32
-17.97
-11.47
-5.5
-0.35
4
7.73
10.96
13.62
15.54
16.6
16.79
16.23
15.16
13.77
12.2
10.47
8.59
6.63
4.69
2.97
1.67
0.9
0.67
0.81
1.07
1.2
1.01
0.5
-0.23
-1.01
-1.72
-2.26
-2.62
-2.88
-3.14
-3.56
-4.2
-4.98
-5.59
-5.53
-4.08
-0.48
5.81
14.88
26.21
38.64
50.71
60.98
68.44
72.79
74.46
74.38
73.59
72.82
72.32
71.92
71.07
69.23
66.17
62.2
58.11
54.75
52.63
51.77
51.74
51.54
50.02
46.29
40.17
32.36
23.95
16.16
10.01
6.21
4.6
4.38
4.64
4.91
5.56
7.17
10.28
15.38
22.8
31.89
41.03
48.01
50.64
47.81
39.23
25.68
8.33
-9.24
-22.86
-29.96
-31.13
-31.31
-32.85
-36.02
-40.49
-46.85
-55.06
-67.15
-85.74
-112.6
-147.56
-187.84
-229.2
-266.87
-296.42
-314.69
-321.01
-317.04
-305.97
-291.28
-275.27
-258.78
-240.96
-219.53
-191.94
-157.15
-116.55
-73.88
-34.11
-1.38
22.31
37.84
48.39
57.8
68.44
80.47
92.21
101.46
107.07
109.26
109.33
108.68
107.96
106.65
103.6
97.86
89.34
79.1
68.98
60.87
55.99
54.6
55.83
58.23
60.27
60.88
59.73
57.08
53.48
49.39
44.93
39.9
34
27.02
18.99
10.1
0.59
-9.27
-19.18
-28.54
-36.28
-40.87
-40.68
-34.56
-22.33
-5.05
15.16
35.73
54.25
69
79.14
84.65
86.06
84.26
80.25
75.07
69.62
64.54
60.18
56.5
53.26
50
46.28
41.68
36.01
29.39
22.39
15.93
11.01
8.32
7.82
8.64
9.26
8.08
3.98
-3.28
-13.04
-24.04
-34.91
-44.52
-52.06
-57.06
-59.22
-58.49
-55.11
-49.71
-43.21
-36.62
-30.71
-25.78
-21.77
-18.37
-15.33
-12.57
-10.12
-8
-6.11
-4.18
-1.94
0.7
3.56
6.25
8.29
9.42
9.63
9.07
8.02
6.77
5.5
4.36
3.39
2.51
1.62
0.47
-1.41
-4.4
-8.58
-13.58
-18.61
-22.71
-25.02
-24.77
-21.72
-16.24
-9.1
-1.16
6.79
14.17
20.51
25.59
29.96
34.4
39.76
46.75
55.97
67.65
81.64
97.13
113.05
128.78
143.53
156.03
164.51
167.16
162.63
150.65
131.94
106.06
76.28
48.29
27.53
16.27
13.44
14.73
16.75
16.92
13.3
4.93
-8.82
-26.57
-47.05
-68.87
-91.01
-112.98
-135.42
-159.88
-188.15
-222.1
-262.64
-308.5
-354.89
-393.94
-416.75
-416.81
-392.54
-347.74
-290.35
-229.32
-171.56
-120
-74
-31.31
9.5
47.92
81.92
109.05
127.77
137.96
141
138.96
133.89
127.06
119.14
110.74
102.8
96.67
93.68
94.47
98.48
103.94
108.49
110.06
107.74
101.95
94.06
85.6
77.58
70.18
62.97
55.38
47.19
38.73
30.74
23.96
18.79
15.15
12.54
10.29
7.83
4.84
1.27
-2.73
-6.96
-11.25
-15.49
-19.75
-24.13
-28.74
-33.59
-38.47
-42.92
-46.37
-48.31
-48.45
-46.88
-44.03
-40.5
-36.83
-33.39
-30.27
-27.48
-25.1
-23.29
-22.34
-22.46
-23.71
-25.89
-28.64
-31.55
-34.26
-36.58
-38.38
-39.64
-40.29
-40.25
-39.5
-38.09
-36.17
-33.97
-31.68
-29.45
-27.33
-25.38
-23.69
-22.45
-21.87
-22.04
-22.73
-23.35
-23.04
-20.96
-16.59
-9.96
-1.64
7.43
16.28
24.23
30.95
36.52
41.13
44.96
48.03
50.27
51.63
52.21
52.27
52.17
52.21
52.49
52.86
53.06
52.81
51.98
50.61
48.86
46.84
44.55
41.88
38.75
35.2
31.42
27.67
24.15
20.82
17.41
13.61
9.28
4.64
0.33
-2.82
-4.05
-2.99
0.25
5.12
10.84
16.65
21.95
26.44
29.97
32.47
33.91
34.26
33.55
31.94
29.71
27.21
24.76
22.55
20.59
18.82
17.13
15.47
13.87
12.3
10.7
8.94
6.89
4.45
1.67
-1.34
-4.42
-7.44
-10.33
-13.1
-15.87
-18.9
-22.5
-26.91
-32.12
-37.66
-42.61
-45.83
-46.34
-43.66
-38.05
-30.36
-21.73
-13.19
-5.38
1.48
7.46
12.67
17.11
20.66
23.19
24.7
25.4
25.59
25.58
25.55
25.42
25.06
24.34
23.24
21.89
20.44
18.98
17.45
15.64
13.26
10.12
6.1
1.25
-4.23
-10.03
-15.77
-21.1
-25.9
-30.25
-34.54
-39.22
-44.58
-50.49
-56.28
-60.94
-63.44
-63.19
-60.22
-55.22
-49.2
-43.13
-37.62
-32.86
-28.69
-24.87
-21.23
-17.8
-14.73
-12.21
-10.34
-9.14
-8.46
-8.08
-7.73
-7.17
-6.23
-4.85
-3.1
-1.16
0.8
2.6
4.16
5.46
6.57
7.55
8.4
9.06
9.39
9.31
8.76
7.77
6.45
5
3.78
3.33
4.35
7.41
12.78
20.16
28.68
37.18
44.59
50.28
54.19
56.71
58.33
59.4
59.95
59.79
58.73
56.76
54.1
51.15
48.31
45.81
43.56
41.15
37.95
33.32
26.86
18.7
9.55
0.59
-6.9
-12.02
-14.55
-15.06
-14.68
-14.65
-15.98
-19.12
-23.94
-29.84
-35.91
-41.21
-44.89
-46.49
-45.94
-43.6
-40.11
-36.21
-32.51
-29.4
-27.06
-25.48
-24.5
-23.79
-22.89
-21.23
-18.3
-13.81
-7.8
-0.75
6.57
13.19
18.24
21.21
22.15
21.63
20.6
19.96
20.21
21.31
22.63
23.31
22.58
20.08
16.01
11.04
6.15
2.31
0.38
0.8
3.56
8.16
13.71
19.18
23.77
27.13
29.37
30.91
32.14
33.17
33.64
32.9
30.19
25
17.32
7.73
-2.59
-12.12
-19.27
-22.88
-22.52
-18.67
-12.61
-5.99
-0.26
3.61
5.34
5.18
3.57
0.95
-2.3
-5.8
-9.06
-11.4
-12.17
-10.92
-7.65
-2.87
2.61
7.95
12.7
16.99
21.38
26.44
32.12
37.43
40.5
39.19
31.97
18.74
1.14
-17.81
-34.65
-46.67
-52.74
-53.61
-51.39
-48.6
-47.13
-47.72
-49.93
-52.71
-55.11
-56.77
-58
-59.47
-61.81
-65.37
-70.12
-75.66
-81.23
-85.65
-87.4
-84.91
-77
-63.38
-44.95
-23.68
-2.09
17.31
32.67
43.04
48.4
49.39
47.06
42.61
37.3
32.35
28.86
27.72
29.34
33.48
39.17
44.89
49.06
50.6
49.29
45.81
41.36
37.09
33.61
30.94
28.63
26.16
23.2
19.66
15.58
11.1
6.38
1.79
-2.11
-4.62
-5.1
-3.27
0.69
6.07
11.89
17.19
21.22
23.69
24.74
24.81
24.36
23.62
22.43
20.29
16.62
11.17
4.15
-3.72
-11.5
-18.46
-24.26
-29.02
-33.12
-36.98
-40.95
-45.26
-50.12
-55.72
-62.07
-68.85
-75.23
-80.05
-82.06
-80.41
-74.86
-66.02
-55.05
-43.34
-32.15
-22.29
-14.06
-7.31
-1.67
3.25
7.73
11.77
15.19
17.64
18.76
18.38
16.66
14.16
11.76
10.38
10.64
12.67
16.06
20.05
23.99
27.49
30.58
33.52
36.49
39.43
42.02
43.78
44.37
43.72
42.13
40.26
38.99
39.21
41.6
46.34
53.04
60.74
68.19
74.19
77.9
79.04
77.75
74.39
69.34
62.86
55.16
46.55
37.47
28.52
20.19
12.77
6.23
0.27
-5.49
-11.36
-17.43
-23.69
-30.02
-36.31
-42.49
-48.56
-54.53
-60.39
-65.85
-70.39
-73.19
-73.47
-70.9
-65.85
-59.31
-52.51
-46.37
-41.24
-36.92
-33.12
-29.85
-27.57
-26.91
-28.19
-31.12
-34.86
-38.39
-40.91
-42.16
-42.21
-41.28
-39.48
-36.83
-33.36
-29.38
-25.48
-22.39
-20.7
-20.62
-21.84
-23.7
-25.4
-26.24
-25.75
-23.74
-20.23
-15.45
-9.76
-3.68
2.25
7.62
12.25
16.31
20.12
23.95
27.77
31.17
33.56
34.48
33.81
31.84
29.14
26.21
23.35
20.59
17.86
15.19
12.71
10.68
9.19
8.06
6.82
4.86
1.69
-2.79
-8.26
-13.83
-18.39
-20.83
-20.46
-17.29
-12
-5.83
-0.05
4.4
7.08
8.09
7.68
6.12
3.46
-0.35
-5.36
-11.42
-18.08
-24.61
-29.96
-32.98
-32.61
-28.23
-19.89
-8.41
4.69
17.65
28.86
37.25
42.35
44.12
42.79
38.68
32.26
24.21
15.56
7.59
1.53
-1.7
-1.78
0.99
5.84
11.81
18.04
23.9
29.01
33.07
35.82
36.97
36.37
34.11
30.57
26.42
22.37
18.94
16.3
14.25
12.34
10.1
7.25
3.75
-0.17
-4.24
-8.27
-12.23
-16.36
-20.98
-26.35
-32.49
-39.11
-45.56
-50.99
-54.57
-55.7
-54.2
-50.33
-44.74
-38.26
-31.67
-25.55
-20.27
-15.96
-12.63
-10.2
-8.5
-7.29
-6.35
-5.53
-4.87
-4.55
-4.77
-5.62
-6.96
-8.46
-9.76
-10.75
-11.6
-12.85
-15.13
-18.95
-24.46
-31.3
-38.54
-44.81
-48.53
-48.33
-43.33
-33.5
-19.7
-3.47
13.34
29.05
42.44
52.88
60.34
65.12
67.74
68.75
68.63
67.8
66.55
65.02
63.24
61.16
58.77
56.14
53.42
50.85
48.64
46.88
45.37
43.62
40.83
36.09
28.7
18.36
5.52
-8.76
-22.88
-35.17
-44.22
-49.3
-50.39
-48.1
-43.38
-37.18
-30.31
-23.36
-16.77
-10.97
-6.44
-3.63
-2.79
-3.85
-6.34
-9.49
-12.43
-14.46
-15.19
-14.65
-13.21
-11.44
-9.91
-9.02
-8.94
-9.63
-10.99
-12.92
-15.48
-18.82
-23.1
-28.38
-34.47
-40.89
-46.76
-50.94
-52.19
-49.6
-42.9
-32.66
-20.12
-6.82
5.91
17.25
26.94
35.1
41.85
47.21
51.1
53.47
54.45
54.37
53.53
52.15
50.31
47.99
45.27
42.37
39.58
37.19
35.35
33.99
32.84
31.55
29.77
27.28
24.02
20.13
15.86
11.53
7.45
3.74
0.38
-2.89
-6.43
-10.49
-15.06
-19.74
-23.76
-26.24
-26.43
-24.09
-19.55
-13.69
-7.61
-2.23
1.95
4.92
6.99
8.53
9.74
10.61
10.99
10.78
10.06
9.06
8.04
7.24
6.74
6.49
6.42
6.49
6.67
6.99
7.4
7.74
7.78
7.23
5.85
3.54
0.39
-3.28
-7.07
-10.63
-13.78
-16.67
-19.63
-23.06
-27.18
-31.84
-36.5
-40.33
-42.44
-42.14
-39.18
-33.82
-26.69
-18.66
-10.6
-3.13
3.4
8.95
13.62
17.54
20.73
23.16
24.79
25.65
25.97
25.98
25.97
26.06
26.23
26.34
26.25
25.87
25.21
24.36
23.29
21.9
20.01
17.52
14.46
11.05
7.63
4.48
1.69
-0.86
-3.49
-6.6
-10.45
-15.05
-20.09
-24.96
-28.87
-31.08
-31.07
-28.73
-24.36
-18.58
-12.12
-5.65
0.36
5.67
10.15
13.77
16.56
18.59
19.95
20.77
21.19
21.33
21.32
21.24
21.18
21.12
20.99
20.68
20.09
19.23
18.17
17.02
15.84
14.55
13.03
11.12
8.76
6.03
3.07
0.06
-2.92
-5.86
-8.84
-11.93
-15.16
-18.53
-21.96
-25.3
-28.29
-30.47
-31.3
-30.21
-26.79
-20.92
-12.88
-3.26
7.12
17.4
26.8
34.71
40.76
44.85
47.2
48.25
48.54
48.47
48.16
47.33
45.5
42.23
37.33
31.01
23.83
16.55
9.87
4.31
0.06
-2.96
-5.06
-6.63
-8
-9.3
-10.52
-11.46
-11.94
-11.9
-11.51
-11.11
-11.13
-11.97
-13.89
-16.95
-21.01
-25.72
-30.47
-34.53
-37.07
-37.45
-35.36
-30.99
-24.96
-18.14
-11.42
-5.43
-0.5
3.33
6.17
8.17
9.5
10.38
11.05
11.77
12.71
13.87
15.05
15.93
16.17
15.6
14.2
12.12
9.55
6.62
3.33
-0.44
-4.88
-10.07
-15.99
-22.4
-29
-35.47
-41.62
-47.44
-53.05
-58.66
-64.48
-70.63
-76.99
-83.11
-88.14
-90.89
-90.1
-84.86
-74.94
-61.02
-44.56
-27.47
-11.61
1.61
11.42
17.68
20.68
21.06
19.72
17.78
16.4
16.61
18.98
23.48
29.52
36.3
43.12
49.74
56.29
63.01
69.96
76.77
82.79
87.38
90.14
91.02
90.25
88.1
84.75
80.33
74.95
68.77
61.99
54.76
47.28
39.81
32.75
26.68
22.2
19.72
19.31
20.65
23.15
26.11
28.83
30.66
31.03
29.37
25.32
18.81
10.27
0.57
-9.08
-17.57
-24.18
-28.8
-31.89
-34.17
-36.29
-38.58
-40.99
-43.27
-45.09
-46.15
-46.3
-45.41
-43.51
-40.85
-37.97
-35.67
-34.81
-35.93
-38.98
-43.29
-47.78
-51.33
-53.19
-53.16
-51.62
-49.29
-46.92
-44.84
-42.81
-40.05
-35.53
-28.49
-18.85
-7.33
4.74
15.97
25.38
32.7
38.28
42.8
46.86
50.82
54.74
58.47
61.69
63.83
63.99
60.99
53.58
40.98
23.25
1.61
-21.83
-44.55
-64.37
-79.91
-90.76
-97.16
-99.6
-98.54
-94.32
-87.36
-78.29
-67.97
-57.29
-47
-37.58
-29.3
-22.29
-16.65
-12.32
-9.14
-6.69
-4.43
-1.88
1.19
4.61
7.91
10.42
11.57
11
8.69
4.87
-0.03
-5.58
-11.48
-17.62
-24.02
-30.72
-37.64
-44.39
-50.19
-53.99
-54.7
-51.6
-44.64
-34.55
-22.62
-10.38
0.78
9.93
16.59
20.65
22.27
21.81
19.79
16.89
13.86
11.31
9.57
8.56
7.9
7.02
5.49
3.11
0.06
-3.17
-5.96
-7.74
-8.15
-7.13
-4.92
-2.01
0.96
3.3
4.39
3.92
1.98
-0.85
-3.58
-5.07
-4.37
-1.01
4.88
12.67
21.46
30.37
38.73
46.2
52.63
57.88
61.61
63.22
62
57.42
49.54
39.12
27.56
16.53
7.41
0.94
-2.93
-4.86
-5.73
-6.36
-7.25
-8.73
-11.06
-14.49
-19.12
-24.56
-29.87
-33.69
-34.84
-32.91
-28.57
-23.28
-18.55
-15.22
-13.09
-11.24
-8.69
-5.04
-0.51
4.45
9.67
15.55
22.65
31.05
39.79
46.98
50.41
48.58
41.44
30.4
17.8
5.97
-3.55
-10.24
-14.39
-16.52
-16.94
-15.51
-11.89
-5.86
2.25
11.49
