2023-01-28 15:52:10.043303,0.1672019660472869
2023-01-28 15:52:10.048303,0.19369850519013998
2023-01-28 15:52:10.053303,0.16179284453392023
2023-01-28 15:52:10.058303,0.14503890358929705
2023-01-28 15:52:10.063303,0.16229769587516785
2023-01-28 15:52:10.068303,0.17383773829371338
2023-01-28 15:52:10.073303,0.16169667243957514
2023-01-28 15:52:10.078303,0.15210315975960603
2023-01-28 15:52:10.083303,0.16059081256389618
2023-01-28 15:52:10.088303,0.16879782004224517
2023-01-28 15:52:10.093303,0.16491810977458957
2023-01-28 15:52:10.098303,0.16441595866381808
2023-01-28 15:52:10.103303,0.17761151492595673
2023-01-28 15:52:10.108303,0.19086628117565005
2023-01-28 15:52:10.113303,0.1934782713651657
2023-01-28 15:52:10.118303,0.19505564968540284
2023-01-28 15:52:10.123303,0.20323872566223145
2023-01-28 15:52:10.128303,0.20851260509916342
2023-01-28 15:52:10.133303,0.20381569862365725
2023-01-28 15:52:10.138303,0.19822645367691227
2023-01-28 15:52:10.143303,0.1991277933120729
2023-01-28 15:52:10.148303,0.19909918105615285
2023-01-28 15:52:10.153303,0.19165119528770438
2023-01-28 15:52:10.158303,0.18349122498682796
2023-01-28 15:52:10.163303,0.18071274459362044
2023-01-28 15:52:10.168303,0.17784312040037897
2023-01-28 15:52:10.173303,0.1705916821956634
2023-01-28 15:52:10.178303,0.16573882747419127
2023-01-28 15:52:10.183303,0.1687165200710295
2023-01-28 15:52:10.188303,0.17364894811694204
2023-01-28 15:52:10.193303,0.17453432083129872
2023-01-28 15:52:10.198303,0.1748078153596287
2023-01-28 15:52:10.203303,0.17756342887878418
2023-01-28 15:52:10.208303,0.1773717733802614
2023-01-28 15:52:10.213303,0.170158952474594
2023-01-28 15:52:10.218303,0.1612819473759387
2023-01-28 15:52:10.223303,0.15604715049266804
2023-01-28 15:52:10.228303,0.15144722622951176
2023-01-28 15:52:10.233303,0.1443874835968016
2023-01-28 15:52:10.238303,0.13899119050754133
2023-01-28 15:52:10.243303,0.13861775398254395
2023-01-28 15:52:10.248303,0.13910315322653832
2023-01-28 15:52:10.253303,0.13679067790508279
2023-01-28 15:52:10.258303,0.13538322123482383
2023-01-28 15:52:10.263303,0.13837735354900355
2023-01-28 15:52:10.268303,0.1422657361189995
2023-01-28 15:52:10.273303,0.14342586696147908
2023-01-28 15:52:10.278303,0.1444731775751755
2023-01-28 15:52:10.283303,0.1478012502193451
2023-01-28 15:52:10.288303,0.1498384678971469
2023-01-28 15:52:10.293303,0.14760892093181593
2023-01-28 15:52:10.298303,0.14439215904618952
2023-01-28 15:52:10.303303,0.14323353767395008
2023-01-28 15:52:10.308303,0.14114369067124394
2023-01-28 15:52:10.313303,0.13513188064098342
2023-01-28 15:52:10.318303,0.12792134357193946
2023-01-28 15:52:10.323303,0.12253463268280025
2023-01-28 15:52:10.328303,0.11720287996417035
2023-01-28 15:52:10.333303,0.11075477302074427
2023-01-28 15:52:10.338303,0.10725945866636925
2023-01-28 15:52:10.343303,0.11015375703573213
2023-01-28 15:52:10.348303,0.11698972014189238
2023-01-28 15:52:10.353303,0.12462615966796865
2023-01-28 15:52:10.358303,0.13429438486256512
2023-01-28 15:52:10.363303,0.1469598263502121
2023-01-28 15:52:10.368303,0.15899290852571044
2023-01-28 15:52:10.373303,0.16720196604728688
2023-01-28 15:52:10.378303,0.17335460158360586
2023-01-28 15:52:10.383303,0.17934243381023407
2023-01-28 15:52:10.388303,0.1826304980979066
2023-01-28 15:52:10.393303,0.18071274459362024
2023-01-28 15:52:10.398303,0.17533326298551188
2023-01-28 15:52:10.403303,0.16809146106243122
2023-01-28 15:52:10.408303,0.15649516329582847
2023-01-28 15:52:10.413303,0.13864180445671084
2023-01-28 15:52:10.418303,0.11760434523181136
2023-01-28 15:52:10.423303,0.0973161086440087
2023-01-28 15:52:10.428303,0.07835378844859088
2023-01-28 15:52:10.433303,0.0613995417952538
2023-01-28 15:52:10.438303,0.05018550487207193
2023-01-28 15:52:10.443303,0.04663864895701391
2023-01-28 15:52:10.448303,0.04685118910376263
2023-01-28 15:52:10.453303,0.04574915021657942
2023-01-28 15:52:10.458303,0.042580026195704425
2023-01-28 15:52:10.463303,0.03945052623748771
2023-01-28 15:52:10.468303,0.039649150503073445
2023-01-28 15:52:10.473303,0.05156695842742902
2023-01-28 15:52:10.478303,0.08960954728839617
2023-01-28 15:52:10.483303,0.16520659625530254
2023-01-28 15:52:10.488303,0.2770500555427069
2023-01-28 15:52:10.493303,0.4103479981422422
2023-01-28 15:52:10.498303,0.5406786785807712
2023-01-28 15:52:10.503303,0.6368579864501953
2023-01-28 15:52:10.508303,0.6683149410945938
2023-01-28 15:52:10.513303,0.6194766759872434
2023-01-28 15:52:10.518303,0.49933714194945483
2023-01-28 15:52:10.523303,0.3365435302257538
2023-01-28 15:52:10.528303,0.16712560325100165
2023-01-28 15:52:10.533303,0.025050243362784254
2023-01-28 15:52:10.538303,-0.0656402729901673
2023-01-28 15:52:10.543303,-0.09902298450469961
2023-01-28 15:52:10.548303,-0.08805405335990764
2023-01-28 15:52:10.553303,-0.05389889329671852
2023-01-28 15:52:10.558303,-0.014289964433677046
2023-01-28 15:52:10.563303,0.019352635368704758
2023-01-28 15:52:10.568303,0.0406610627773
2023-01-28 15:52:10.573303,0.049523513764143025
2023-01-28 15:52:10.578303,0.05162498464872647
2023-01-28 15:52:10.583303,0.05250453948974607
2023-01-28 15:52:10.588303,0.05320178401243688
2023-01-28 15:52:10.593303,0.05312959477305414
2023-01-28 15:52:10.598303,0.053544513411035645
2023-01-28 15:52:10.603303,0.05534132570028302
2023-01-28 15:52:10.608303,0.05671833762601444
2023-01-28 15:52:10.613303,0.056230824440717524
2023-01-28 15:52:10.618303,0.05556659470780793
2023-01-28 15:52:10.623303,0.056687593460083084
2023-01-28 15:52:10.628303,0.059047804031252066
2023-01-28 15:52:10.633303,0.06221691891551009
2023-01-28 15:52:10.638303,0.06827178215083005
2023-01-28 15:52:10.643303,0.07873277366161344
2023-01-28 15:52:10.648303,0.09175890959296627
2023-01-28 15:52:10.653303,0.10498504340648662
2023-01-28 15:52:10.658303,0.11850983951819023
2023-01-28 15:52:10.663303,0.13265570998191836
2023-01-28 15:52:10.668303,0.1456900493172666
2023-01-28 15:52:10.673303,0.15657603740692133
2023-01-28 15:52:10.678303,0.16746181927208076
2023-01-28 15:52:10.683303,0.180808901786804
2023-01-28 15:52:10.688303,0.1963957492992575
2023-01-28 15:52:10.693303,0.21340787410736067
2023-01-28 15:52:10.698303,0.23273157834935973
2023-01-28 15:52:10.703303,0.2545412480831144
2023-01-28 15:52:10.708303,0.27607999942579803
2023-01-28 15:52:10.713303,0.2944245040416716
2023-01-28 15:52:10.718303,0.30925919748077224
2023-01-28 15:52:10.723303,0.3207488954067229
2023-01-28 15:52:10.728303,0.3272535556808051
2023-01-28 15:52:10.733303,0.3276485204696654
2023-01-28 15:52:10.738303,0.32357088260528627
2023-01-28 15:52:10.743303,0.31692644953727717
2023-01-28 15:52:10.748303,0.3073171476818404
2023-01-28 15:52:10.753303,0.29406389594078053
2023-01-28 15:52:10.758303,0.27834255019572285
2023-01-28 15:52:10.763303,0.2609600722789763
2023-01-28 15:52:10.768303,0.24031508395096557
2023-01-28 15:52:10.773303,0.21499454975128166
2023-01-28 15:52:10.778303,0.18640806537343246
2023-01-28 15:52:10.783303,0.156792402267456
2023-01-28 15:52:10.788303,0.12680349518729525
2023-01-28 15:52:10.793303,0.09712378680705998
2023-01-28 15:52:10.798303,0.07002451219003576
2023-01-28 15:52:10.803303,0.04687905311584484
2023-01-28 15:52:10.808303,0.02609246763763795
2023-01-28 15:52:10.813303,0.005697607994079599
2023-01-28 15:52:10.818303,-0.01384003094767963
2023-01-28 15:52:10.823303,-0.03120462223887436
2023-01-28 15:52:10.828303,-0.04633686054932547
2023-01-28 15:52:10.833303,-0.05889932438731195
2023-01-28 15:52:10.838303,-0.0669048981878293
2023-01-28 15:52:10.843303,-0.06923675537109349
2023-01-28 15:52:10.848303,-0.06776314052196383
2023-01-28 15:52:10.853303,-0.06498157978057861
2023-01-28 15:52:10.858303,-0.06142317649993926
2023-01-28 15:52:10.863303,-0.057168405503034474
2023-01-28 15:52:10.868303,-0.05374177441033874
2023-01-28 15:52:10.873303,-0.05236029624938955
2023-01-28 15:52:10.878303,-0.05219282205409925
2023-01-28 15:52:10.883303,-0.05236029624938953
2023-01-28 15:52:10.888303,-0.05381027173063499
2023-01-28 15:52:10.893303,-0.05728860944509479
2023-01-28 15:52:10.898303,-0.06132692025986428
2023-01-28 15:52:10.903303,-0.06416420638561203
2023-01-28 15:52:10.908303,-0.06586730016625608
2023-01-28 15:52:10.913303,-0.06678462028503394
2023-01-28 15:52:10.918303,-0.0659088915222114
2023-01-28 15:52:10.923303,-0.06279389560222616
2023-01-28 15:52:10.928303,-0.05932886476056364
2023-01-28 15:52:10.933303,-0.05767325684428212
2023-01-28 15:52:10.938303,-0.05801444914605639
2023-01-28 15:52:10.943303,-0.05993306636810278
2023-01-28 15:52:10.948303,-0.06399434101901
2023-01-28 15:52:10.953303,-0.07010221481323241
2023-01-28 15:52:10.958303,-0.07614305779187519
2023-01-28 15:52:10.963303,-0.08029540628194776
2023-01-28 15:52:10.968303,-0.08321115111181143
2023-01-28 15:52:10.973303,-0.08630554378032691
2023-01-28 15:52:10.978303,-0.08961243645745717
2023-01-28 15:52:10.983303,-0.09294073283672317
2023-01-28 15:52:10.988303,-0.09723137915356468
2023-01-28 15:52:10.993303,-0.10284543037414536
2023-01-28 15:52:10.998303,-0.10813204256366876
2023-01-28 15:52:11.003303,-0.11150002479553205
2023-01-28 15:52:11.008303,-0.11341463893897318
2023-01-28 15:52:11.013303,-0.11479358375072474
2023-01-28 15:52:11.018303,-0.1151392318395464
2023-01-28 15:52:11.023303,-0.11392812430858601
2023-01-28 15:52:11.028303,-0.11216903101022713
2023-01-28 15:52:11.033303,-0.11087497323751441
2023-01-28 15:52:11.038303,-0.10959057545633352
2023-01-28 15:52:11.043303,-0.10808627307414993
2023-01-28 15:52:11.048303,-0.10789662454076199
2023-01-28 15:52:11.053303,-0.11046628654003146
2023-01-28 15:52:11.058303,-0.1152145137683495
2023-01-28 15:52:11.063303,-0.12092392146587366
2023-01-28 15:52:11.068303,-0.12743609950800264
2023-01-28 15:52:11.073303,-0.13443470001220695
2023-01-28 15:52:11.078303,-0.14025195311540734
2023-01-28 15:52:11.083303,-0.14366626739501953
2023-01-28 15:52:11.088303,-0.14552198458524437
2023-01-28 15:52:11.093303,-0.147055983543396
2023-01-28 15:52:11.098303,-0.14804816346217312
2023-01-28 15:52:11.103303,-0.14801761507987962
2023-01-28 15:52:11.108303,-0.14760688261863952
2023-01-28 15:52:11.113303,-0.1471761912107467
2023-01-28 15:52:11.118303,-0.1455412473239421
2023-01-28 15:52:11.123303,-0.14176706969738
2023-01-28 15:52:11.128303,-0.13694480527227948
2023-01-28 15:52:11.133303,-0.13279995322227467
2023-01-28 15:52:11.138303,-0.12990285222154654
2023-01-28 15:52:11.143303,-0.12849669158458704
2023-01-28 15:52:11.148303,-0.1293912992117363
2023-01-28 15:52:11.153303,-0.1323672235012053
2023-01-28 15:52:11.158303,-0.13505069633587463
2023-01-28 15:52:11.163303,-0.13498763740062683
2023-01-28 15:52:11.168303,-0.1318320472598569
2023-01-28 15:52:11.173303,-0.12647728621959686
2023-01-28 15:52:11.178303,-0.11959439674279064
2023-01-28 15:52:11.183303,-0.1123414486646654
2023-01-28 15:52:11.188303,-0.10690490940358148
2023-01-28 15:52:11.193303,-0.10464847087860107
2023-01-28 15:52:11.198303,-0.10475395705298618
2023-01-28 15:52:11.203303,-0.10587453842163089
2023-01-28 15:52:11.208303,-0.10794203823933081
2023-01-28 15:52:11.213303,-0.11135578155517567
2023-01-28 15:52:11.218303,-0.11590638059245058
2023-01-28 15:52:11.223303,-0.12174129486083982
2023-01-28 15:52:11.228303,-0.12998204948399542
2023-01-28 15:52:11.233303,-0.1410698890686036
2023-01-28 15:52:11.238303,-0.15360845425128736
2023-01-28 15:52:11.243303,-0.16575953364372248
2023-01-28 15:52:11.248303,-0.17653473130283745
2023-01-28 15:52:11.253303,-0.18516024947166443
2023-01-28 15:52:11.258303,-0.19112031214046835
2023-01-28 15:52:11.263303,-0.19593040645122523
2023-01-28 15:52:11.268303,-0.202914988897119
2023-01-28 15:52:11.273303,-0.21345596015453344
2023-01-28 15:52:11.278303,-0.22410209945094933
2023-01-28 15:52:11.283303,-0.22744755446910836
2023-01-28 15:52:11.288303,-0.21380742302353628
2023-01-28 15:52:11.293303,-0.17201006412506104
2023-01-28 15:52:11.298303,-0.09306517907339838
2023-01-28 15:52:11.303303,0.022165378555655365
2023-01-28 15:52:11.308303,0.15784997061957246
2023-01-28 15:52:11.313303,0.2862266898155211
2023-01-28 15:52:11.318303,0.3760576225019903
2023-01-28 15:52:11.323303,0.4014770388603209
2023-01-28 15:52:11.328303,0.35042696542897583
2023-01-28 15:52:11.333303,0.23131808638572693
2023-01-28 15:52:11.338303,0.07221850723465975
2023-01-28 15:52:11.343303,-0.0897433385252952
2023-01-28 15:52:11.348303,-0.22195422808550905
2023-01-28 15:52:11.353303,-0.30485808849334717
2023-01-28 15:52:11.358303,-0.33461391925293776
2023-01-28 15:52:11.363303,-0.3219749629497525
2023-01-28 15:52:11.368303,-0.2866627046188959
2023-01-28 15:52:11.373303,-0.24800221621990196
2023-01-28 15:52:11.378303,-0.21788732029710756
2023-01-28 15:52:11.383303,-0.20040194690227497
2023-01-28 15:52:11.388303,-0.194762129539733
2023-01-28 15:52:11.393303,-0.19698819518089294
2023-01-28 15:52:11.398303,-0.20131961584115965
2023-01-28 15:52:11.403303,-0.20328681170940405
2023-01-28 15:52:11.408303,-0.20168736520393252
2023-01-28 15:52:11.413303,-0.19703626632690432
2023-01-28 15:52:11.418303,-0.18956192635761476
2023-01-28 15:52:11.423303,-0.17984728515148163
2023-01-28 15:52:11.428303,-0.16971253853387733
2023-01-28 15:52:11.433303,-0.16068696975708008
2023-01-28 15:52:11.438303,-0.1526383865881745
2023-01-28 15:52:11.443303,-0.14518082141876215
2023-01-28 15:52:11.448303,-0.13915170730443807
2023-01-28 15:52:11.453303,-0.1353242099285124
2023-01-28 15:52:11.458303,-0.13286964628878514
2023-01-28 15:52:11.463303,-0.13039588928222645
2023-01-28 15:52:11.468303,-0.12726569484238415
2023-01-28 15:52:11.473303,-0.12263079732656464
2023-01-28 15:52:11.478303,-0.11455879605119099
2023-01-28 15:52:11.483303,-0.10166744887828816
2023-01-28 15:52:11.488303,-0.08461203848115582
2023-01-28 15:52:11.493303,-0.06474117934703819
2023-01-28 15:52:11.498303,-0.04244929774569118
2023-01-28 15:52:11.503303,-0.01803040504455557
2023-01-28 15:52:11.508303,0.007181094175774916
2023-01-28 15:52:11.513303,0.031901799142360514
2023-01-28 15:52:11.518303,0.05594975649679558
2023-01-28 15:52:11.523303,0.07890105247497547
2023-01-28 15:52:11.528303,0.09887094841928828
2023-01-28 15:52:11.533303,0.11395215988159164
2023-01-28 15:52:11.538303,0.12381371639219337
2023-01-28 15:52:11.543303,0.1287611424922942
2023-01-28 15:52:11.548303,0.1284811652346852
2023-01-28 15:52:11.553303,0.12296736240386964
2023-01-28 15:52:11.558303,0.11340178995757505
2023-01-28 15:52:11.563303,0.10068178176879879
2023-01-28 15:52:11.568303,0.08409025895162764
2023-01-28 15:52:11.573303,0.06267368793487539
2023-01-28 15:52:11.578303,0.03694028141170136
2023-01-28 15:52:11.583303,0.008173784241080208
2023-01-28 15:52:11.588303,-0.022616804313146416
2023-01-28 15:52:11.593303,-0.053802728652954136
2023-01-28 15:52:11.598303,-0.08251435291923402
2023-01-28 15:52:11.603303,-0.10649959743022913
2023-01-28 15:52:11.608303,-0.12587432732032106
2023-01-28 15:52:11.613303,-0.14205555617809296
2023-01-28 15:52:11.618303,-0.15605932206567527
2023-01-28 15:52:11.623303,-0.16881267726421345
2023-01-28 15:52:11.628303,-0.1816589048388759
2023-01-28 15:52:11.633303,-0.1949928253889084
2023-01-28 15:52:11.638303,-0.20733515970625194
2023-01-28 15:52:11.643303,-0.21706204116344452
2023-01-28 15:52:11.648303,-0.22423939095479106
2023-01-28 15:52:11.653303,-0.22982756793498987
2023-01-28 15:52:11.658303,-0.23428086447471752
2023-01-28 15:52:11.663303,-0.23804943263530742
2023-01-28 15:52:11.668303,-0.2421600285778955
2023-01-28 15:52:11.673303,-0.2468482702970503
2023-01-28 15:52:11.678303,-0.25053605493655423
2023-01-28 15:52:11.683303,-0.25141596794128435
2023-01-28 15:52:11.688303,-0.24926142526236836
2023-01-28 15:52:11.693303,-0.24482886493206016
2023-01-28 15:52:11.698303,-0.23874216311044497
2023-01-28 15:52:11.703303,-0.2321354597806931
2023-01-28 15:52:11.708303,-0.2271354026055297
2023-01-28 15:52:11.713303,-0.2252117842435836
2023-01-28 15:52:11.718303,-0.22578587983775267
2023-01-28 15:52:11.723303,-0.22747159004211406
2023-01-28 15:52:11.728303,-0.22970311471231963
2023-01-28 15:52:11.733303,-0.23218354582786563
2023-01-28 15:52:11.738303,-0.2339940511752203
2023-01-28 15:52:11.743303,-0.23456355929374695
2023-01-28 15:52:11.748303,-0.23454611242779833
2023-01-28 15:52:11.753303,-0.23456355929374695
2023-01-28 15:52:11.758303,-0.23404589494284384
2023-01-28 15:52:11.763303,-0.23242394626140572
2023-01-28 15:52:11.768303,-0.23045932441319375
2023-01-28 15:52:11.773303,-0.22927463054656963
2023-01-28 15:52:11.778303,-0.22905820625528037
2023-01-28 15:52:11.783303,-0.22977948188781733
2023-01-28 15:52:11.788303,-0.23206303804915168
2023-01-28 15:52:11.793303,-0.23612618446350078
2023-01-28 15:52:11.798303,-0.24081367985978316
2023-01-28 15:52:11.803303,-0.24485290050506606
2023-01-28 15:52:11.808303,-0.24818868274473752
2023-01-28 15:52:11.813303,-0.25110346078872686
2023-01-28 15:52:11.818303,-0.2531123364429348
2023-01-28 15:52:11.823303,-0.25386810302734364
2023-01-28 15:52:11.828303,-0.2541338205354831
2023-01-28 15:52:11.833303,-0.2546854913234712
2023-01-28 15:52:11.838303,-0.25516645189274406
2023-01-28 15:52:11.843303,-0.2550701498985291
2023-01-28 15:52:11.848303,-0.254842816766785
2023-01-28 15:52:11.853303,-0.25492590665817283
2023-01-28 15:52:11.858303,-0.2547277890634152
2023-01-28 15:52:11.863303,-0.25367578864097584
2023-01-28 15:52:11.868303,-0.2523256442050527
2023-01-28 15:52:11.873303,-0.251343846321106
2023-01-28 15:52:11.878303,-0.2503674188587567
2023-01-28 15:52:11.883303,-0.24893979728221907
2023-01-28 15:52:11.888303,-0.24755865487151743
2023-01-28 15:52:11.893303,-0.24667999148368838
2023-01-28 15:52:11.898303,-0.24567774344804585
2023-01-28 15:52:11.903303,-0.24393936991691595
2023-01-28 15:52:11.908303,-0.24208601444860925
2023-01-28 15:52:11.913303,-0.24105450510978682
2023-01-28 15:52:11.918303,-0.2409209498149027
2023-01-28 15:52:11.923303,-0.24163147807121266
2023-01-28 15:52:11.928303,-0.2437799099546858
2023-01-28 15:52:11.933303,-0.2474252432584761
2023-01-28 15:52:11.938303,-0.2510545474038665
2023-01-28 15:52:11.943303,-0.25290650129318254
2023-01-28 15:52:11.948303,-0.2525645656243992
2023-01-28 15:52:11.953303,-0.2503581941127776
2023-01-28 15:52:11.958303,-0.2462857674113227
2023-01-28 15:52:11.963303,-0.240669846534729
2023-01-28 15:52:11.968303,-0.23486887916688878
2023-01-28 15:52:11.973303,-0.2300920188426972
2023-01-28 15:52:11.978303,-0.22625707067251694
2023-01-28 15:52:11.983303,-0.22295197844505332
2023-01-28 15:52:11.988303,-0.22050015189312655
2023-01-28 15:52:11.993303,-0.2189612388610838
2023-01-28 15:52:11.998303,-0.2170533732481123
2023-01-28 15:52:12.003303,-0.21328768134117118
2023-01-28 15:52:12.008303,-0.20746614631292687
2023-01-28 15:52:12.013303,-0.20020961761474582
2023-01-28 15:52:12.018303,-0.19207269656835
2023-01-28 15:52:12.023303,-0.18419861793518066
2023-01-28 15:52:12.028303,-0.17876964713061747
2023-01-28 15:52:12.033303,-0.17746727168560023
2023-01-28 15:52:12.038303,-0.18011618308571156
2023-01-28 15:52:12.043303,-0.18571317195892345
2023-01-28 15:52:12.048303,-0.1938174757065467
2023-01-28 15:52:12.053303,-0.2039359062910077
2023-01-28 15:52:12.058303,-0.21460747503794672
2023-01-28 15:52:12.063303,-0.22432228922843947
2023-01-28 15:52:12.068303,-0.23257069418780502
2023-01-28 15:52:12.073303,-0.239083170890808
2023-01-28 15:52:12.078303,-0.2431642884784442
2023-01-28 15:52:12.083303,-0.24504522979259521
2023-01-28 15:52:12.088303,-0.24702938488580908
2023-01-28 15:52:12.093303,-0.2519929409027098
2023-01-28 15:52:12.098303,-0.2610371542616772
2023-01-28 15:52:12.103303,-0.27269184589386003
2023-01-28 15:52:12.108303,-0.28244522495804747
2023-01-28 15:52:12.113303,-0.28141856193542464
2023-01-28 15:52:12.118303,-0.25699070721735257
2023-01-28 15:52:12.123303,-0.19780556857585907
2023-01-28 15:52:12.128303,-0.10036346786144137
2023-01-28 15:52:12.133303,0.027117729187011642
2023-01-28 15:52:12.138303,0.16433866579953624
2023-01-28 15:52:12.143303,0.28170704841613736
2023-01-28 15:52:12.148303,0.3478844237828012
2023-01-28 15:52:12.153303,0.3414478003978731
2023-01-28 15:52:12.158303,0.2603423755958137
2023-01-28 15:52:12.163303,0.12296736240386924
2023-01-28 15:52:12.168303,-0.03855155922351532
2023-01-28 15:52:12.173303,-0.1885018795728683
2023-01-28 15:52:12.178303,-0.2982988574367653
2023-01-28 15:52:12.183303,-0.3551028370857239
2023-01-28 15:52:12.188303,-0.3637825131561752
2023-01-28 15:52:12.193303,-0.3406544625759122
2023-01-28 15:52:12.198303,-0.3041785479353265
2023-01-28 15:52:12.203303,-0.26879727840423573
2023-01-28 15:52:12.208303,-0.2426233319018536
2023-01-28 15:52:12.213303,-0.22703886032104456
2023-01-28 15:52:12.218303,-0.21855957174636628
2023-01-28 15:52:12.223303,-0.21304726600646973
2023-01-28 15:52:12.228303,-0.20877710026458005
2023-01-28 15:52:12.233303,-0.20571491122245766
2023-01-28 15:52:12.238303,-0.20357456186198283
2023-01-28 15:52:12.243303,-0.20186841487884521
2023-01-28 15:52:12.248303,-0.20056724650314187
2023-01-28 15:52:12.253303,-0.19915184378623954
2023-01-28 15:52:12.258303,-0.19588384910211826
2023-01-28 15:52:12.263303,-0.1893913745880127
2023-01-28 15:52:12.268303,-0.18024182504767963
2023-01-28 15:52:12.273303,-0.16987046599388106
2023-01-28 15:52:12.278303,-0.15893461687487917
2023-01-28 15:52:12.283303,-0.14780125021934515
2023-01-28 15:52:12.288303,-0.13736333702586265
2023-01-28 15:52:12.293303,-0.12782356142997753
2023-01-28 15:52:12.298303,-0.1176042502269496
2023-01-28 15:52:12.303303,-0.10491292178630834
2023-01-28 15:52:12.308303,-0.08961128004682069
2023-01-28 15:52:12.313303,-0.07243414968252171
2023-01-28 15:52:12.318303,-0.05357021298235783
2023-01-28 15:52:12.323303,-0.033416353166103384
2023-01-28 15:52:12.328303,-0.013486370481735795
2023-01-28 15:52:12.333303,0.0051446757279335975
2023-01-28 15:52:12.338303,0.023376496231373976
2023-01-28 15:52:12.343303,0.04255175590515116
2023-01-28 15:52:12.348303,0.06238499709999723
2023-01-28 15:52:12.353303,0.08183400332927677
2023-01-28 15:52:12.358303,0.10071127936861644
2023-01-28 15:52:12.363303,0.11864006519317603
2023-01-28 15:52:12.368303,0.13366094206901374
2023-01-28 15:52:12.373303,0.1439066827297208
2023-01-28 15:52:12.378303,0.1496057474879935
2023-01-28 15:52:12.383303,0.15143136680126168
2023-01-28 15:52:12.388303,0.14809592231173332
2023-01-28 15:52:12.393303,0.13794462382793435
2023-01-28 15:52:12.398303,0.12181415459148644
2023-01-28 15:52:12.403303,0.10166744887828796
2023-01-28 15:52:12.408303,0.07748074744217871
2023-01-28 15:52:12.413303,0.04875421524047857
2023-01-28 15:52:12.418303,0.018531626665357806
2023-01-28 15:52:12.423303,-0.007957419380545701
2023-01-28 15:52:12.428303,-0.029387240546385345
2023-01-28 15:52:12.433303,-0.0498360395431518
2023-01-28 15:52:12.438303,-0.07306076753605989
2023-01-28 15:52:12.443303,-0.09806136786937729
2023-01-28 15:52:12.448303,-0.12166469270106246
2023-01-28 15:52:12.453303,-0.14272868633270272
2023-01-28 15:52:12.458303,-0.16158214723184341
2023-01-28 15:52:12.463303,-0.17720282077789315
2023-01-28 15:52:12.468303,-0.18753244108151496
2023-01-28 15:52:12.473303,-0.19203583896160126
2023-01-28 15:52:12.478303,-0.19224725563193373
2023-01-28 15:52:12.483303,-0.19016067683696738
2023-01-28 15:52:12.488303,-0.18733598740395174
2023-01-28 15:52:12.493303,-0.18513619899749734
2023-01-28 15:52:12.498303,-0.1844714368711895
2023-01-28 15:52:12.503303,-0.1851602494716645
2023-01-28 15:52:12.508303,-0.18622782709887353
2023-01-28 15:52:12.513303,-0.18684308230876906
2023-01-28 15:52:12.518303,-0.1866328778276962
2023-01-28 15:52:12.523303,-0.1854246854782104
2023-01-28 15:52:12.528303,-0.18322404830492292
2023-01-28 15:52:12.533303,-0.1803281009197233
2023-01-28 15:52:12.538303,-0.17713106421137872
2023-01-28 15:52:12.543303,-0.17390927672386164
2023-01-28 15:52:12.548303,-0.17088799412771033
2023-01-28 15:52:12.553303,-0.1682357043027875
2023-01-28 15:52:12.558303,-0.16585884862994255
2023-01-28 15:52:12.563303,-0.16347567737102514
2023-01-28 15:52:12.568303,-0.16100770915209758
2023-01-28 15:52:12.573303,-0.15869161486625666
2023-01-28 15:52:12.578303,-0.15683392768553514
2023-01-28 15:52:12.583303,-0.15573462843894953
2023-01-28 15:52:12.588303,-0.15575785493122454
2023-01-28 15:52:12.593303,-0.15708088874816872
2023-01-28 15:52:12.598303,-0.15936999581704242
2023-01-28 15:52:12.603303,-0.1620092093944549
2023-01-28 15:52:12.608303,-0.16458405822292466
2023-01-28 15:52:12.613303,-0.16686539351940163
2023-01-28 15:52:12.618303,-0.16852266199477722
2023-01-28 15:52:12.623303,-0.16929349303245547
2023-01-28 15:52:12.628303,-0.16935205766610326
2023-01-28 15:52:12.633303,-0.1691492497920987
2023-01-28 15:52:12.638303,-0.16900071434214434
2023-01-28 15:52:12.643303,-0.16912519931793213
2023-01-28 15:52:12.648303,-0.16982068360450628
2023-01-28 15:52:12.653303,-0.17114460468292245
2023-01-28 15:52:12.658303,-0.1725879286863835
2023-01-28 15:52:12.663303,-0.17350058257579812
2023-01-28 15:52:12.668303,-0.17372491287595032
2023-01-28 15:52:12.673303,-0.17350058257579787
2023-01-28 15:52:12.678303,-0.17301045821988983
2023-01-28 15:52:12.683303,-0.1724187582731246
2023-01-28 15:52:12.688303,-0.1720677181635942
2023-01-28 15:52:12.693303,-0.1721302717924116
2023-01-28 15:52:12.698303,-0.17223023997213685
2023-01-28 15:52:12.703303,-0.17181774973869338
2023-01-28 15:52:12.708303,-0.1707395957044369
2023-01-28 15:52:12.713303,-0.16910116374492618
2023-01-28 15:52:12.718303,-0.16687607677910435
2023-01-28 15:52:12.723303,-0.16410073637962344
2023-01-28 15:52:12.728303,-0.16118074434670862
2023-01-28 15:52:12.733303,-0.15852332115173318
2023-01-28 15:52:12.738303,-0.15607180440578305
2023-01-28 15:52:12.743303,-0.15361905097961429
2023-01-28 15:52:12.748303,-0.15134599634864868
2023-01-28 15:52:12.753303,-0.14965236186981182
2023-01-28 15:52:12.758303,-0.14872448298790275
2023-01-28 15:52:12.763303,-0.14866670966148382
2023-01-28 15:52:12.768303,-0.14972628756386283
2023-01-28 15:52:12.773303,-0.15188813209533694
2023-01-28 15:52:12.778303,-0.1544836472508431
2023-01-28 15:52:12.783303,-0.15664815902709983
2023-01-28 15:52:12.788303,-0.1579388492897617
2023-01-28 15:52:12.793303,-0.15811464190483088
2023-01-28 15:52:12.798303,-0.1566129825713799
2023-01-28 15:52:12.803303,-0.15270552039146432
2023-01-28 15:52:12.808303,-0.14594629435634102
2023-01-28 15:52:12.813303,-0.13614158332347873
2023-01-28 15:52:12.818303,-0.12332535933799255
2023-01-28 15:52:12.823303,-0.10837475955486305
2023-01-28 15:52:12.828303,-0.09345205310877035
2023-01-28 15:52:12.833303,-0.08130510896444322
2023-01-28 15:52:12.838303,-0.0741189630740249
2023-01-28 15:52:12.843303,-0.07308324426412582
2023-01-28 15:52:12.848303,-0.07841802056850886
2023-01-28 15:52:12.853303,-0.0891423225402832
2023-01-28 15:52:12.858303,-0.10307456282102352
2023-01-28 15:52:12.863303,-0.1177024841308594
2023-01-28 15:52:12.868303,-0.13113085409818676
2023-01-28 15:52:12.873303,-0.14212767779827085
2023-01-28 15:52:12.878303,-0.14985080302102222
2023-01-28 15:52:12.883303,-0.15422007441520694
2023-01-28 15:52:12.888303,-0.15644274062098992
2023-01-28 15:52:12.893303,-0.15871565043926217
2023-01-28 15:52:12.898303,-0.16333734731063976
2023-01-28 15:52:12.903303,-0.1717936992645264
2023-01-28 15:52:12.908303,-0.18336867146652822
2023-01-28 15:52:12.913303,-0.19311766326427443
2023-01-28 15:52:12.918303,-0.1908805875201811
2023-01-28 15:52:12.923303,-0.16330739855766296
2023-01-28 15:52:12.928303,-0.09878573311660067
2023-01-28 15:52:12.933303,0.006563067436218167
2023-01-28 15:52:12.938303,0.14386505257122262
2023-01-28 15:52:12.943303,0.28980872035026534
2023-01-28 15:52:12.948303,0.4108111519047776
2023-01-28 15:52:12.953303,0.4731899499893187
2023-01-28 15:52:12.958303,0.4553837779549626
2023-01-28 15:52:12.963303,0.3565212190151213
2023-01-28 15:52:12.968303,0.1976978825553051
2023-01-28 15:52:12.973303,0.015530189499258872
2023-01-28 15:52:12.978303,-0.14985881827090952
2023-01-28 15:52:12.983303,-0.26785969734191917
2023-01-28 15:52:12.988303,-0.32572188422008824
2023-01-28 15:52:12.993303,-0.3289707601070402
2023-01-28 15:52:12.998303,-0.2952999477496358
2023-01-28 15:52:13.003303,-0.24603089690208424
2023-01-28 15:52:13.008303,-0.19871785299700112
2023-01-28 15:52:13.013303,-0.16306698322296137
2023-01-28 15:52:13.018303,-0.14101250361244838
2023-01-28 15:52:13.023303,-0.1297467947006225
2023-01-28 15:52:13.028303,-0.12495802900837395
2023-01-28 15:52:13.033303,-0.12260675430297843
2023-01-28 15:52:13.038303,-0.11978428477390464
2023-01-28 15:52:13.043303,-0.11532247066497803
2023-01-28 15:52:13.048303,-0.10957690394986208
2023-01-28 15:52:13.053303,-0.10325412452220907
2023-01-28 15:52:13.058303,-0.0966221415009807
2023-01-28 15:52:13.063303,-0.0898395031690598
2023-01-28 15:52:13.068303,-0.08327473836062439
2023-01-28 15:52:13.073303,-0.07700185477733604
2023-01-28 15:52:13.078303,-0.07050983419769799
2023-01-28 15:52:13.083303,-0.06341894716024388
2023-01-28 15:52:13.088303,-0.05606149017306362
2023-01-28 15:52:13.093303,-0.04889845848083495
2023-01-28 15:52:13.098303,-0.041757798060931085
2023-01-28 15:52:13.103303,-0.03404140472412087
2023-01-28 15:52:13.108303,-0.02521450618978023
2023-01-28 15:52:13.113303,-0.014640688896179047
2023-01-28 15:52:13.118303,-0.0014315750927503359
2023-01-28 15:52:13.123303,0.014929175376892033
2023-01-28 15:52:13.128303,0.034069993409106394
2023-01-28 15:52:13.133303,0.05524516105651842
2023-01-28 15:52:13.138303,0.07802559101244139
2023-01-28 15:52:13.143303,0.10210017859935747
2023-01-28 15:52:13.148303,0.12680629766222296
2023-01-28 15:52:13.153303,0.15131115913391116
2023-01-28 15:52:13.158303,0.1748719386100551
2023-01-28 15:52:13.163303,0.19643525779247287
2023-01-28 15:52:13.168303,0.21434485552614305
2023-01-28 15:52:13.173303,0.22701482474803916
2023-01-28 15:52:13.178303,0.2337694649792529
2023-01-28 15:52:13.183303,0.2347799241542815
2023-01-28 15:52:13.188303,0.2305834161608204
2023-01-28 15:52:13.193303,0.2220384329557419
2023-01-28 15:52:13.198303,0.210265230383947
2023-01-28 15:52:13.203303,0.19597849249839783
2023-01-28 15:52:13.208303,0.1789900840598488
2023-01-28 15:52:13.213303,0.15871565043926228
2023-01-28 15:52:13.218303,0.13496919821967032
2023-01-28 15:52:13.223303,0.10806223005056377
2023-01-28 15:52:13.228303,0.07861923025031474
2023-01-28 15:52:13.233303,0.04779259487986545
2023-01-28 15:52:13.238303,0.01733068949137363
2023-01-28 15:52:13.243303,-0.01110672950744609
2023-01-28 15:52:13.248303,-0.03662541851038902
2023-01-28 15:52:13.253303,-0.058923363685607966
2023-01-28 15:52:13.258303,-0.0778648727634208
2023-01-28 15:52:13.263303,-0.09361386299133286
2023-01-28 15:52:13.268303,-0.10681795372854828
2023-01-28 15:52:13.273303,-0.11815925687551487
2023-01-28 15:52:13.278303,-0.1278708701016125
2023-01-28 15:52:13.283303,-0.13594925403594973
2023-01-28 15:52:13.288303,-0.14249364680209956
2023-01-28 15:52:13.293303,-0.14746467769145966
2023-01-28 15:52:13.298303,-0.15044007364871015
2023-01-28 15:52:13.303303,-0.15107075870037087
2023-01-28 15:52:13.308303,-0.14961965302293334
2023-01-28 15:52:13.313303,-0.14676749706268294
2023-01-28 15:52:13.318303,-0.1431470417222562
2023-01-28 15:52:13.323303,-0.139338970184326
2023-01-28 15:52:13.328303,-0.13594696443301096
2023-01-28 15:52:13.333303,-0.1332086324691772
2023-01-28 15:52:13.338303,-0.13070419446085396
2023-01-28 15:52:13.343303,-0.12779951095581044
2023-01-28 15:52:13.348303,-0.1242448389967283
2023-01-28 15:52:13.353303,-0.1201546192169188
2023-01-28 15:52:13.358303,-0.11573472656522422
2023-01-28 15:52:13.363303,-0.11137982457876207
2023-01-28 15:52:13.368303,-0.10778385459075222
2023-01-28 15:52:13.373303,-0.10556201636791211
2023-01-28 15:52:13.378303,-0.10485265768814939
2023-01-28 15:52:13.383303,-0.10546585172414769
2023-01-28 15:52:13.388303,-0.1071670237663252
2023-01-28 15:52:13.393303,-0.10957678407430635
2023-01-28 15:52:13.398303,-0.11209805322019188
2023-01-28 15:52:13.403303,-0.11433681100606899
2023-01-28 15:52:13.408303,-0.11651499155517926
2023-01-28 15:52:13.413303,-0.11926512420177449
2023-01-28 15:52:13.418303,-0.12313814822790048
2023-01-28 15:52:13.423303,-0.12837648391723616
2023-01-28 15:52:13.428303,-0.13478989954240303
2023-01-28 15:52:13.433303,-0.1415026187896727
2023-01-28 15:52:13.438303,-0.14700655294672865
2023-01-28 15:52:13.443303,-0.14984469115734092
2023-01-28 15:52:13.448303,-0.14936968012234278
2023-01-28 15:52:13.453303,-0.1459260880947114
2023-01-28 15:52:13.458303,-0.14058516211583097
2023-01-28 15:52:13.463303,-0.1348193585872649
2023-01-28 15:52:13.468303,-0.13008573483752073
2023-01-28 15:52:13.473303,-0.12729465961456274
2023-01-28 15:52:13.478303,-0.12655595376547096
2023-01-28 15:52:13.483303,-0.12743890285491927
2023-01-28 15:52:13.488303,-0.1294077085042854
2023-01-28 15:52:13.493303,-0.13205468654632563
2023-01-28 15:52:13.498303,-0.13515072306105183
2023-01-28 15:52:13.503303,-0.13861775398254375
2023-01-28 15:52:13.508303,-0.14240055850093084
2023-01-28 15:52:13.513303,-0.146310731768608
2023-01-28 15:52:13.518303,-0.14998316073378531
2023-01-28 15:52:13.523303,-0.15292188525199873
2023-01-28 15:52:13.528303,-0.1546021201855078
2023-01-28 15:52:13.533303,-0.1547008752822874
2023-01-28 15:52:13.538303,-0.15328264890732904
2023-01-28 15:52:13.543303,-0.15058994293212882
2023-01-28 15:52:13.548303,-0.14663986356640726
2023-01-28 15:52:13.553303,-0.14123818278312666
2023-01-28 15:52:13.558303,-0.13429592407243504
2023-01-28 15:52:13.563303,-0.12575607001781447
2023-01-28 15:52:13.568303,-0.11537045615780414
2023-01-28 15:52:13.573303,-0.10323008149862274
2023-01-28 15:52:13.578303,-0.09054876701172657
2023-01-28 15:52:13.583303,-0.07921358197927454
2023-01-28 15:52:13.588303,-0.07059070225128539
2023-01-28 15:52:13.593303,-0.06570279598236074
2023-01-28 15:52:13.598303,-0.06637695283829502
2023-01-28 15:52:13.603303,-0.07438143342733362
2023-01-28 15:52:13.608303,-0.08867211654673121
2023-01-28 15:52:13.613303,-0.1052014082670212
2023-01-28 15:52:13.618303,-0.12072783289685397
2023-01-28 15:52:13.623303,-0.13532420992851252
2023-01-28 15:52:13.628303,-0.14959708922449147
2023-01-28 15:52:13.633303,-0.1611196994781492
2023-01-28 15:52:13.638303,-0.16623665387192682
2023-01-28 15:52:13.643303,-0.16484598815441123
2023-01-28 15:52:13.648303,-0.16103198304153862
2023-01-28 15:52:13.653303,-0.15914838016033164
2023-01-28 15:52:13.658303,-0.16132414803453154
2023-01-28 15:52:13.663303,-0.16809146106243106
2023-01-28 15:52:13.668303,-0.17771415516232195
2023-01-28 15:52:13.673303,-0.18302063643932304
2023-01-28 15:52:13.678303,-0.17085244884476405
2023-01-28 15:52:13.683303,-0.12717446684837339
2023-01-28 15:52:13.688303,-0.044208743196769144
2023-01-28 15:52:13.693303,0.07464587688446024
2023-01-28 15:52:13.698303,0.21252375696862952
2023-01-28 15:52:13.703303,0.3401015400886536
2023-01-28 15:52:13.708303,0.4228427166711177
2023-01-28 15:52:13.713303,0.4338355958461758
2023-01-28 15:52:13.718303,0.36516804650135
2023-01-28 15:52:13.723303,0.23117384314537048
2023-01-28 15:52:13.728303,0.06333870738590629
2023-01-28 15:52:13.733303,-0.09976824373006818
2023-01-28 15:52:13.738303,-0.2247338442415987
2023-01-28 15:52:13.743303,-0.293919652700424
2023-01-28 15:52:13.748303,-0.3090418634557054
2023-01-28 15:52:13.753303,-0.2859141528606415
2023-01-28 15:52:13.758303,-0.2450901265974532
2023-01-28 15:52:13.763303,-0.2042965143918991
2023-01-28 15:52:13.768303,-0.1742937655263983
2023-01-28 15:52:13.773303,-0.1575617045164109
2023-01-28 15:52:13.778303,-0.15020659659447225
2023-01-28 15:52:13.783303,-0.14645497500896446
2023-01-28 15:52:13.788303,-0.14233077999353128
2023-01-28 15:52:13.793303,-0.13616561889648382
2023-01-28 15:52:13.798303,-0.12763334952671598
2023-01-28 15:52:13.803303,-0.11755824089050272
2023-01-28 15:52:13.808303,-0.10776233603770172
2023-01-28 15:52:13.813303,-0.09979228675365438
2023-01-28 15:52:13.818303,-0.09390211918822755
2023-01-28 15:52:13.823303,-0.08964717388153046
2023-01-28 15:52:13.828303,-0.08669354490990099
2023-01-28 15:52:13.833303,-0.08438229560852066
2023-01-28 15:52:13.838303,-0.08130185710547443
2023-01-28 15:52:13.843303,-0.07620851695537544
2023-01-28 15:52:13.848303,-0.06894256019767285
2023-01-28 15:52:13.853303,-0.05986094474792488
2023-01-28 15:52:13.858303,-0.048986061724981635
2023-01-28 15:52:13.863303,-0.036325257271528126
2023-01-28 15:52:13.868303,-0.022328114161656174
2023-01-28 15:52:13.873303,-0.007260243408382072
2023-01-28 15:52:13.878303,0.009334551283581342
2023-01-28 15:52:13.883303,0.027862986549734927
2023-01-28 15:52:13.888303,0.04787691182022259
2023-01-28 15:52:13.893303,0.06861170381307606
2023-01-28 15:52:13.898303,0.08972279165126353
2023-01-28 15:52:13.903303,0.11085093021392811
2023-01-28 15:52:13.908303,0.13105854045713208
2023-01-28 15:52:13.913303,0.14941196143627167
2023-01-28 15:52:13.918303,0.16565669106173078
2023-01-28 15:52:13.923303,0.1797270774841308
2023-01-28 15:52:13.928303,0.19111333709139622
2023-01-28 15:52:13.933303,0.19929608702659588
2023-01-28 15:52:13.938303,0.20423275008688854
2023-01-28 15:52:13.943303,0.20576298236846938
2023-01-28 15:52:13.948303,0.2030522009219854
2023-01-28 15:52:13.953303,0.19528131186962097
2023-01-28 15:52:13.958303,0.1824564241289394
2023-01-28 15:52:13.963303,0.16501426696777338
2023-01-28 15:52:13.968303,0.14318653305049486
2023-01-28 15:52:13.973303,0.1173659190535543
2023-01-28 15:52:13.978303,0.08857508941361751
2023-01-28 15:52:13.983303,0.05793770402669912
2023-01-28 15:52:13.988303,0.026151383746944947
2023-01-28 15:52:13.993303,-0.005938013549894037
2023-01-28 15:52:13.998303,-0.03675607727903796
2023-01-28 15:52:14.003303,-0.06464501470327368
2023-01-28 15:52:14.008303,-0.08871037304599182
2023-01-28 15:52:14.013303,-0.10856708139181143
2023-01-28 15:52:14.018303,-0.12382772395658172
2023-01-28 15:52:14.023303,-0.13448278605937952
2023-01-28 15:52:14.028303,-0.14131265318427283
2023-01-28 15:52:14.033303,-0.14527699351310705
2023-01-28 15:52:14.038303,-0.14685716224614107
2023-01-28 15:52:14.043303,-0.14647901058197016
2023-01-28 15:52:14.048303,-0.14505423578700022
2023-01-28 15:52:14.053303,-0.14347395300865168
2023-01-28 15:52:14.058303,-0.14196440162391472
2023-01-28 15:52:14.063303,-0.1404688805341717
2023-01-28 15:52:14.068303,-0.13921178923625444
2023-01-28 15:52:14.073303,-0.1383533179759977
2023-01-28 15:52:14.078303,-0.13758092384732964
2023-01-28 15:52:14.083303,-0.13664643466472604
2023-01-28 15:52:14.088303,-0.13588856754844725
2023-01-28 15:52:14.093303,-0.1356607675552367
2023-01-28 15:52:14.098303,-0.13565138738412882
2023-01-28 15:52:14.103303,-0.13530015945434548
2023-01-28 15:52:14.108303,-0.1344653060409051
2023-01-28 15:52:14.113303,-0.13318459689617146
2023-01-28 15:52:14.118303,-0.13128268017256123
2023-01-28 15:52:14.123303,-0.1288092136383055
2023-01-28 15:52:14.128303,-0.1264214536306644
2023-01-28 15:52:14.133303,-0.12472232431173319
2023-01-28 15:52:14.138303,-0.123578864710359
2023-01-28 15:52:14.143303,-0.12260675430297849
2023-01-28 15:52:14.148303,-0.12190776345841536
2023-01-28 15:52:14.153303,-0.12181341648101801
2023-01-28 15:52:14.158303,-0.12236594684843059
2023-01-28 15:52:14.163303,-0.12361645698547345
2023-01-28 15:52:14.168303,-0.12595826729342294
2023-01-28 15:52:14.173303,-0.1295063942670822
2023-01-28 15:52:14.178303,-0.13350837975839636
2023-01-28 15:52:14.183303,-0.1369830071926113
2023-01-28 15:52:14.188303,-0.13963916689264083
2023-01-28 15:52:14.193303,-0.14167091250419633
2023-01-28 15:52:14.198303,-0.1430916950277735
2023-01-28 15:52:14.203303,-0.14390668272972082
2023-01-28 15:52:14.208303,-0.14457598413899894
2023-01-28 15:52:14.213303,-0.14561355113983152
2023-01-28 15:52:14.218303,-0.14691383595316165
2023-01-28 15:52:14.223303,-0.14799356460571256
2023-01-28 15:52:14.228303,-0.1486545943612046
2023-01-28 15:52:14.233303,-0.14893114566802973
2023-01-28 15:52:14.238303,-0.1486933556850319
2023-01-28 15:52:14.243303,-0.1478493213653563
2023-01-28 15:52:14.248303,-0.14671486305774611
2023-01-28 15:52:14.253303,-0.14570972323417658
2023-01-28 15:52:14.258303,-0.14490402636535216
2023-01-28 15:52:14.263303,-0.14424324035644503
2023-01-28 15:52:14.268303,-0.1438915517087798
2023-01-28 15:52:14.273303,-0.14390668272972099
2023-01-28 15:52:14.278303,-0.14389780493013465
2023-01-28 15:52:14.283303,-0.14349798858165733
2023-01-28 15:52:14.288303,-0.14294478899294047
2023-01-28 15:52:14.293303,-0.14280080795288086
2023-01-28 15:52:14.298303,-0.14336831167936995
2023-01-28 15:52:14.303303,-0.14470002055168135
2023-01-28 15:52:14.308303,-0.1467533227270979
2023-01-28 15:52:14.313303,-0.14902731776237482
2023-01-28 15:52:14.318303,-0.1503741679652192
2023-01-28 15:52:14.323303,-0.14972448348999023
2023-01-28 15:52:14.328303,-0.1468918988915231
2023-01-28 15:52:14.333303,-0.1424161642789841
2023-01-28 15:52:14.338303,-0.13698199996909552
2023-01-28 15:52:14.343303,-0.13133347034454346
2023-01-28 15:52:14.348303,-0.1262742263919337
2023-01-28 15:52:14.353303,-0.12212594598531723
2023-01-28 15:52:14.358303,-0.11834367170566516
2023-01-28 15:52:14.363303,-0.11407236754894258
2023-01-28 15:52:14.368303,-0.10892689712974205
2023-01-28 15:52:14.373303,-0.1030377596616744
2023-01-28 15:52:14.378303,-0.09682541724160582
2023-01-28 15:52:14.383303,-0.09123384952545137
2023-01-28 15:52:14.388303,-0.08785021322907867
2023-01-28 15:52:14.393303,-0.0882047414779664
2023-01-28 15:52:14.398303,-0.09295670838517799
2023-01-28 15:52:14.403303,-0.10188381373882278
2023-01-28 15:52:14.408303,-0.11420924492884463
2023-01-28 15:52:14.413303,-0.1285207271575927
2023-01-28 15:52:14.418303,-0.14276536999565503
2023-01-28 15:52:14.423303,-0.15494129061698883
2023-01-28 15:52:14.428303,-0.16382893931979214
2023-01-28 15:52:14.433303,-0.16900500655174278
2023-01-28 15:52:14.438303,-0.1707143298675785
2023-01-28 15:52:14.443303,-0.17027914524078377
2023-01-28 15:52:14.448303,-0.17030671988978474
2023-01-28 15:52:14.453303,-0.1737169474363328
2023-01-28 15:52:14.458303,-0.18200894563556627
2023-01-28 15:52:14.463303,-0.19371867179870605
2023-01-28 15:52:14.468303,-0.20325895984638195
2023-01-28 15:52:14.473303,-0.2005221545696259
2023-01-28 15:52:14.478303,-0.17273008632204756
2023-01-28 15:52:14.483303,-0.1093363761901855
2023-01-28 15:52:14.488303,-0.008185122786479457
2023-01-28 15:52:14.493303,0.12027482688426967
2023-01-28 15:52:14.498303,0.25293482060370337
2023-01-28 15:52:14.503303,0.35887718200683577
2023-01-28 15:52:14.508303,0.4086061900413607
2023-01-28 15:52:14.513303,0.3848650157451626
2023-01-28 15:52:14.518303,0.290035907367972
2023-01-28 15:52:14.523303,0.14607033133506764
2023-01-28 15:52:14.528303,-0.013019557746757556
2023-01-28 15:52:14.533303,-0.15253722667694075
2023-01-28 15:52:14.538303,-0.2478810238077689
2023-01-28 15:52:14.543303,-0.29089054465293873
2023-01-28 15:52:14.548303,-0.289439747173009
2023-01-28 15:52:14.553303,-0.2610081434249875
2023-01-28 15:52:14.558303,-0.22417194621244763
2023-01-28 15:52:14.563303,-0.19232432544231384
2023-01-28 15:52:14.568303,-0.17136241872736604
2023-01-28 15:52:14.573303,-0.16066293418407426
2023-01-28 15:52:14.578303,-0.15599320973211867
2023-01-28 15:52:14.583303,-0.1528497636318203
2023-01-28 15:52:14.588303,-0.14856759812064615
2023-01-28 15:52:14.593303,-0.14246425032615675
2023-01-28 15:52:14.598303,-0.13490729821532382
2023-01-28 15:52:14.603303,-0.1265734434127808
2023-01-28 15:52:14.608303,-0.11813212828267024
2023-01-28 15:52:14.613303,-0.1100095137953758
2023-01-28 15:52:14.618303,-0.1023149755532833
2023-01-28 15:52:14.623303,-0.09510438144206985
2023-01-28 15:52:14.628303,-0.0886012122421798
2023-01-28 15:52:14.633303,-0.08298794925212878
2023-01-28 15:52:14.638303,-0.07805933060576306
2023-01-28 15:52:14.643303,-0.07320344448089568
2023-01-28 15:52:14.648303,-0.06764460784012727
2023-01-28 15:52:14.653303,-0.06065428256988516
2023-01-28 15:52:14.658303,-0.051720022395647595
2023-01-28 15:52:14.663303,-0.04072467610239975
2023-01-28 15:52:14.668303,-0.02797273426647833
2023-01-28 15:52:14.673303,-0.013967554084956778
2023-01-28 15:52:14.678303,0.0008899756325383425
2023-01-28 15:52:14.683303,0.01649181172251703
2023-01-28 15:52:14.688303,0.03303611074324789
2023-01-28 15:52:14.693303,0.05084574222564672
2023-01-28 15:52:14.698303,0.07010213742610646
2023-01-28 15:52:14.703303,0.09070496261119834
2023-01-28 15:52:14.708303,0.1122292182381449
2023-01-28 15:52:14.713303,0.13378560543060275
2023-01-28 15:52:14.718303,0.1539738229900237
2023-01-28 15:52:14.723303,0.17128884792327895
2023-01-28 15:52:14.728303,0.18463844404573834
2023-01-28 15:52:14.733303,0.1932859420776366
2023-01-28 15:52:14.738303,0.19651547215377296
2023-01-28 15:52:14.743303,0.1938869655132292
2023-01-28 15:52:14.748303,0.18571135051848534
2023-01-28 15:52:14.753303,0.17263512313365903
2023-01-28 15:52:14.758303,0.1548974212635418
2023-01-28 15:52:14.763303,0.132872074842453
2023-01-28 15:52:14.768303,0.10819380068967328
2023-01-28 15:52:14.773303,0.08303602784872048
2023-01-28 15:52:14.778303,0.05810275704263244
2023-01-28 15:52:14.783303,0.03286341950297353
2023-01-28 15:52:14.788303,0.00815260047552699
2023-01-28 15:52:14.793303,-0.013534824363887395
2023-01-28 15:52:14.798303,-0.03158608705140988
2023-01-28 15:52:14.803303,-0.049114823341369705
2023-01-28 15:52:14.808303,-0.06914320245491051
2023-01-28 15:52:14.813303,-0.09020011126995091
2023-01-28 15:52:14.818303,-0.1079755263290012
2023-01-28 15:52:14.823303,-0.12044310569763174
2023-01-28 15:52:14.828303,-0.12889873520999806
2023-01-28 15:52:14.833303,-0.13457894325256328
2023-01-28 15:52:14.838303,-0.1372267958400075
2023-01-28 15:52:14.843303,-0.13731956481933574
2023-01-28 15:52:14.848303,-0.1369797808176111
2023-01-28 15:52:14.853303,-0.1375840157270431
2023-01-28 15:52:14.858303,-0.1383328947877372
2023-01-28 15:52:14.863303,-0.1380888670682906
2023-01-28 15:52:14.868303,-0.13698414348412044
2023-01-28 15:52:14.873303,-0.13542036712169642
2023-01-28 15:52:14.878303,-0.13319308697561527
2023-01-28 15:52:14.883303,-0.13068437576293937
2023-01-28 15:52:14.888303,-0.12949337858581222
2023-01-28 15:52:14.893303,-0.1306843757629394
2023-01-28 15:52:14.898303,-0.1333637979435842
2023-01-28 15:52:14.903303,-0.13580501079559304
2023-01-28 15:52:14.908303,-0.13696275446156783
2023-01-28 15:52:14.913303,-0.13623774051666268
2023-01-28 15:52:14.918303,-0.13310704203065005
2023-01-28 15:52:14.923303,-0.12811204791069034
2023-01-28 15:52:14.928303,-0.12327130097760773
2023-01-28 15:52:14.933303,-0.12044310569763174
2023-01-28 15:52:14.938303,-0.11984604701198016
2023-01-28 15:52:14.943303,-0.12073159217834468
2023-01-28 15:52:14.948303,-0.12252602548901655
2023-01-28 15:52:14.953303,-0.12457808107137706
2023-01-28 15:52:14.958303,-0.12584601061299458
2023-01-28 15:52:14.963303,-0.1259003132581709
2023-01-28 15:52:14.968303,-0.12561019533506101
2023-01-28 15:52:14.973303,-0.12606859207153337
2023-01-28 15:52:14.978303,-0.12748408551135607
2023-01-28 15:52:14.983303,-0.1297227591276167
2023-01-28 15:52:14.988303,-0.13304648878298778
2023-01-28 15:52:14.993303,-0.13748785853385934
2023-01-28 15:52:14.998303,-0.14223876436125918
2023-01-28 15:52:15.003303,-0.1464790105819701
2023-01-28 15:52:15.008303,-0.1501843529750369
2023-01-28 15:52:15.013303,-0.15342673659324627
2023-01-28 15:52:15.018303,-0.15558449052912224
2023-01-28 15:52:15.023303,-0.15599906444549547
2023-01-28 15:52:15.028303,-0.15478660163713814
2023-01-28 15:52:15.033303,-0.15232086181640628
2023-01-28 15:52:15.038303,-0.14858173068089012
2023-01-28 15:52:15.043303,-0.14371435344219186
2023-01-28 15:52:15.048303,-0.13856342339358454
2023-01-28 15:52:15.053303,-0.13390581309795369
2023-01-28 15:52:15.058303,-0.1297333690537209
2023-01-28 15:52:15.063303,-0.1259724348783494
2023-01-28 15:52:15.068303,-0.12331614991157522
2023-01-28 15:52:15.073303,-0.12265484035015113
2023-01-28 15:52:15.078303,-0.1242035283184425
2023-01-28 15:52:15.083303,-0.12772738933563235
2023-01-28 15:52:15.088303,-0.13291524956812995
2023-01-28 15:52:15.093303,-0.1388341188430787
2023-01-28 15:52:15.098303,-0.1436971851723276
2023-01-28 15:52:15.103303,-0.14604628086090082
2023-01-28 15:52:15.108303,-0.14585857431219343
2023-01-28 15:52:15.113303,-0.14405092597007754
2023-01-28 15:52:15.118303,-0.14151886609120912
2023-01-28 15:52:15.123303,-0.13917069137096383
2023-01-28 15:52:15.128303,-0.13806719137153414
2023-01-28 15:52:15.133303,-0.1385937184095381
2023-01-28 15:52:15.138303,-0.1398683367616705
2023-01-28 15:52:15.143303,-0.14058908820152263
2023-01-28 15:52:15.148303,-0.14005377643178743
2023-01-28 15:52:15.153303,-0.1379446238279342
2023-01-28 15:52:15.158303,-0.13389334630536814
2023-01-28 15:52:15.163303,-0.1280399262905119
2023-01-28 15:52:15.168303,-0.12147959798372339
2023-01-28 15:52:15.173303,-0.11539459228515614
2023-01-28 15:52:15.178303,-0.11008888173599293
2023-01-28 15:52:15.183303,-0.10534565150737757
2023-01-28 15:52:15.188303,-0.10112803074537108
2023-01-28 15:52:15.193303,-0.09731610864400844
2023-01-28 15:52:15.198303,-0.09336889714710328
2023-01-28 15:52:15.203303,-0.08899807929992652
2023-01-28 15:52:15.208303,-0.08476122482606342
2023-01-28 15:52:15.213303,-0.08140127360820788
2023-01-28 15:52:15.218303,-0.07907881425146182
2023-01-28 15:52:15.223303,-0.07781922817230198
2023-01-28 15:52:15.228303,-0.07816259250379685
2023-01-28 15:52:15.233303,-0.08070409297943126
2023-01-28 15:52:15.238303,-0.08542081244143268
2023-01-28 15:52:15.243303,-0.09197910875082013
2023-01-28 15:52:15.248303,-0.10013337690494806
2023-01-28 15:52:15.253303,-0.10916809737682348
2023-01-28 15:52:15.258303,-0.11747583039022451
2023-01-28 15:52:15.263303,-0.12347221374511708
2023-01-28 15:52:15.268303,-0.1267574846160245
2023-01-28 15:52:15.273303,-0.12811204791069047
2023-01-28 15:52:15.278303,-0.12902364263541516
2023-01-28 15:52:15.283303,-0.1317181289196014
2023-01-28 15:52:15.288303,-0.138669151962871
2023-01-28 15:52:15.293303,-0.15054187178611747
2023-01-28 15:52:15.298303,-0.1639357755798845
2023-01-28 15:52:15.303303,-0.17088016867637623
2023-01-28 15:52:15.308303,-0.1601483510656501
2023-01-28 15:52:15.313303,-0.11991421878337856
2023-01-28 15:52:15.318303,-0.042334802810031325
2023-01-28 15:52:15.323303,0.07051090896129625
2023-01-28 15:52:15.328303,0.2029019699167653
2023-01-28 15:52:15.333303,0.32750427722930914
2023-01-28 15:52:15.338303,0.41291577309800653
2023-01-28 15:52:15.343303,0.4336913526058197
2023-01-28 15:52:15.348303,0.37966293619526653
2023-01-28 15:52:15.353303,0.261176437139511
2023-01-28 15:52:15.358303,0.10677351118854746
2023-01-28 15:52:15.363303,-0.04690309613943085
2023-01-28 15:52:15.368303,-0.16800587386019675
2023-01-28 15:52:15.373303,-0.23881873488426186
2023-01-28 15:52:15.378303,-0.25861449922486657
2023-01-28 15:52:15.383303,-0.24054965376853932
2023-01-28 15:52:15.388303,-0.20433259729176415
2023-01-28 15:52:15.393303,-0.16768276691436768
2023-01-28 15:52:15.398303,-0.1407886665990283
2023-01-28 15:52:15.403303,-0.12597243487834922
2023-01-28 15:52:15.408303,-0.12065008492713764
2023-01-28 15:52:15.413303,-0.1203950271010398
2023-01-28 15:52:15.418303,-0.12105565727391306
2023-01-28 15:52:15.423303,-0.12015461921691875
2023-01-28 15:52:15.428303,-0.11710177433472302
2023-01-28 15:52:15.433303,-0.1121491193771363
2023-01-28 15:52:15.438303,-0.10555887960325769
2023-01-28 15:52:15.443303,-0.09789308160543438
2023-01-28 15:52:15.448303,-0.09021076544138948
2023-01-28 15:52:15.453303,-0.08320431411266323
2023-01-28 15:52:15.458303,-0.07651192431621871
2023-01-28 15:52:15.463303,-0.06935696303844437
2023-01-28 15:52:15.468303,-0.06140848187076748
2023-01-28 15:52:15.473303,-0.05262474343180651
2023-01-28 15:52:15.478303,-0.042921939061450205
2023-01-28 15:52:15.483303,-0.032623015344142685
2023-01-28 15:52:15.488303,-0.022675173847225397
2023-01-28 15:52:15.493303,-0.013703107833862077
2023-01-28 15:52:15.498303,-0.005137399802801534
2023-01-28 15:52:15.503303,0.004303256981074753
2023-01-28 15:52:15.508303,0.01573588976469756
2023-01-28 15:52:15.513303,0.030074715614318865
2023-01-28 15:52:15.518303,0.048083731733834845
2023-01-28 15:52:15.523303,0.06964544951915723
2023-01-28 15:52:15.528303,0.09331932726872715
2023-01-28 15:52:15.533303,0.11722167581319798
2023-01-28 15:52:15.538303,0.14007782023271184
2023-01-28 15:52:15.543303,0.16114374995231615
2023-01-28 15:52:15.548303,0.17980583344414303
2023-01-28 15:52:15.553303,0.19590637087821963
2023-01-28 15:52:15.558303,0.20992448607111155
2023-01-28 15:52:15.563303,0.22211055457592022
2023-01-28 15:52:15.568303,0.23172261819833215
2023-01-28 15:52:15.573303,0.2375445812940596
2023-01-28 15:52:15.578303,0.2386883485446293
2023-01-28 15:52:15.583303,0.2344673871994017
2023-01-28 15:52:15.588303,0.22416445767644025
2023-01-28 15:52:15.593303,0.20768623054027538
2023-01-28 15:52:15.598303,0.18610684754685114
2023-01-28 15:52:15.603303,0.16102354228496552
2023-01-28 15:52:15.608303,0.13373573751887044
2023-01-28 15:52:15.613303,0.1054177731275558
2023-01-28 15:52:15.618303,0.07741821507850769
2023-01-28 15:52:15.623303,0.050677459686994455
2023-01-28 15:52:15.628303,0.025264096440832166
2023-01-28 15:52:15.633303,0.0010818243026734062
2023-01-28 15:52:15.638303,-0.02134435489999008
2023-01-28 15:52:15.643303,-0.04125356674194314
2023-01-28 15:52:15.648303,-0.05831601317949093
2023-01-28 15:52:15.653303,-0.07241010665893544
2023-01-28 15:52:15.658303,-0.08330075247305085
2023-01-28 15:52:15.663303,-0.0911617279052732
2023-01-28 15:52:15.668303,-0.09692884523202129
2023-01-28 15:52:15.673303,-0.10147511959075912
2023-01-28 15:52:15.678303,-0.1047778532662849
2023-01-28 15:52:15.683303,-0.10637938976287845
2023-01-28 15:52:15.688303,-0.10620587109376811
2023-01-28 15:52:15.693303,-0.1044561490416526
2023-01-28 15:52:15.698303,-0.10128195605633966
2023-01-28 15:52:15.703303,-0.09724398702383032
2023-01-28 15:52:15.708303,-0.09361239731297971
2023-01-28 15:52:15.713303,-0.09152233600616459
2023-01-28 15:52:15.718303,-0.0911084838710423
2023-01-28 15:52:15.723303,-0.09188294410705557
2023-01-28 15:52:15.728303,-0.09344055875453074
2023-01-28 15:52:15.733303,-0.0952726602554321
2023-01-28 15:52:15.738303,-0.09648995693637655
2023-01-28 15:52:15.743303,-0.09647469222545625
2023-01-28 15:52:15.748303,-0.09547751901186328
2023-01-28 15:52:15.753303,-0.0940465927124024
2023-01-28 15:52:15.758303,-0.09229819470864387
2023-01-28 15:52:15.763303,-0.09024818986654268
2023-01-28 15:52:15.768303,-0.08831328355361202
2023-01-28 15:52:15.773303,-0.08683443069457987
2023-01-28 15:52:15.778303,-0.0855231043097776
2023-01-28 15:52:15.783303,-0.083949565887451
2023-01-28 15:52:15.788303,-0.08214756440597747
2023-01-28 15:52:15.793303,-0.08022328466176983
2023-01-28 15:52:15.798303,-0.07791334133515909
2023-01-28 15:52:15.803303,-0.0751747712492942
2023-01-28 15:52:15.808303,-0.07275338545629925
2023-01-28 15:52:15.813303,-0.07152061164379096
2023-01-28 15:52:15.818303,-0.07160397830177301
2023-01-28 15:52:15.823303,-0.07265051454305645
2023-01-28 15:52:15.828303,-0.07442314436694926
2023-01-28 15:52:15.833303,-0.07656912505626673
2023-01-28 15:52:15.838303,-0.078364941199057
2023-01-28 15:52:15.843303,-0.07940590381622326
2023-01-28 15:52:15.848303,-0.0801611445177995
2023-01-28 15:52:15.853303,-0.08125703036785126
2023-01-28 15:52:15.858303,-0.08261971444846099
2023-01-28 15:52:15.863303,-0.08382936567068089
2023-01-28 15:52:15.868303,-0.084773704846767
2023-01-28 15:52:15.873303,-0.08534391969442363
2023-01-28 15:52:15.878303,-0.08503058807390397
2023-01-28 15:52:15.883303,-0.08351683616638174
2023-01-28 15:52:15.888303,-0.0812406178955937
2023-01-28 15:52:15.893303,-0.07875680923461904
2023-01-28 15:52:15.898303,-0.07599096868041154
2023-01-28 15:52:15.903303,-0.0726745575666427
2023-01-28 15:52:15.908303,-0.06894911568015082
2023-01-28 15:52:15.913303,-0.06488542258739471
2023-01-28 15:52:15.918303,-0.05996689955262074
2023-01-28 15:52:15.923303,-0.053802728652954
2023-01-28 15:52:15.928303,-0.04694340802965731
2023-01-28 15:52:15.933303,-0.04038810729980454
2023-01-28 15:52:15.938303,-0.03479335683267675
2023-01-28 15:52:15.943303,-0.03074785135686384
2023-01-28 15:52:15.948303,-0.029122468078626316
2023-01-28 15:52:15.953303,-0.030243000015616327
2023-01-28 15:52:15.958303,-0.03310135309400549
2023-01-28 15:52:15.963303,-0.036084853112697414
2023-01-28 15:52:15.968303,-0.038074909833548796
2023-01-28 15:52:15.973303,-0.03832062333822242
2023-01-28 15:52:15.978303,-0.0360352189644233
2023-01-28 15:52:15.983303,-0.0310603789985179
2023-01-28 15:52:15.988303,-0.024376090100749575
2023-01-28 15:52:15.993303,-0.01699666306376448
2023-01-28 15:52:15.998303,-0.008724292172781655
2023-01-28 15:52:16.003303,0.001298189163207913
2023-01-28 15:52:16.008303,0.01338141337871689
2023-01-28 15:52:16.013303,0.02738217636942868
2023-01-28 15:52:16.018303,0.04315329049753164
2023-01-28 15:52:16.023303,0.05971670150756836
2023-01-28 15:52:16.028303,0.07456660632821907
2023-01-28 15:52:16.033303,0.0850794762372971
2023-01-28 15:52:16.038303,0.09035957491468023
2023-01-28 15:52:16.043303,0.09077708423137675
2023-01-28 15:52:16.048303,0.08643907924780432
2023-01-28 15:52:16.053303,0.07765094935893989
2023-01-28 15:52:16.058303,0.06646091155690896
2023-01-28 15:52:16.063303,0.055870216339826334
2023-01-28 15:52:16.068303,0.047199689500189775
2023-01-28 15:52:16.073303,0.039642851799726236
2023-01-28 15:52:16.078303,0.03272316590780375
2023-01-28 15:52:16.083303,0.02774278447031943
2023-01-28 15:52:16.088303,0.026101901506514622
2023-01-28 15:52:16.093303,0.02723793312907214
2023-01-28 15:52:16.098303,0.029012072018015117
2023-01-28 15:52:16.103303,0.02961794659495345
2023-01-28 15:52:16.108303,0.029066549453865748
2023-01-28 15:52:16.113303,0.03036320209503168
2023-01-28 15:52:16.118303,0.04075802073839959
2023-01-28 15:52:16.123303,0.0714725255966187
2023-01-28 15:52:16.128303,0.1341467342089838
2023-01-28 15:52:16.133303,0.23475587368011488
2023-01-28 15:52:16.138303,0.367788458137387
2023-01-28 15:52:16.143303,0.513626158237457
2023-01-28 15:52:16.148303,0.6413169636102252
2023-01-28 15:52:16.153303,0.7172254920005798
2023-01-28 15:52:16.158303,0.7169241380808455
2023-01-28 15:52:16.163303,0.6351270675659175
2023-01-28 15:52:16.168303,0.4889675647169185
2023-01-28 15:52:16.173303,0.31300783157348633
2023-01-28 15:52:16.178303,0.1478253536014794
2023-01-28 15:52:16.183303,0.026684999465942143
2023-01-28 15:52:16.188303,-0.034102581523594716
2023-01-28 15:52:16.193303,-0.0373109206557272
2023-01-28 15:52:16.198303,0.0002975781343983499
2023-01-28 15:52:16.203303,0.056687593460082966
2023-01-28 15:52:16.208303,0.11281654729242513
2023-01-28 15:52:16.213303,0.15765786170959453
2023-01-28 15:52:16.218303,0.18878942825332354
2023-01-28 15:52:16.223303,0.2093690633773802
2023-01-28 15:52:16.228303,0.22412839871591062
2023-01-28 15:52:16.233303,0.2367993295192719
2023-01-28 15:52:16.238303,0.2493565489459821
2023-01-28 15:52:16.243303,0.2622101902961729
2023-01-28 15:52:16.248303,0.27488932138192357
2023-01-28 15:52:16.253303,0.28699597716331493
2023-01-28 15:52:16.258303,0.29868195502900813
2023-01-28 15:52:16.263303,0.3102191388607025
2023-01-28 15:52:16.268303,0.3214588482038612
2023-01-28 15:52:16.273303,0.3320239186286927
2023-01-28 15:52:16.278303,0.34180585742233344
2023-01-28 15:52:16.283303,0.35103997588157637
2023-01-28 15:52:16.288303,0.3602464897508095
2023-01-28 15:52:16.293303,0.37046474218368547
2023-01-28 15:52:16.298303,0.38321327064379934
2023-01-28 15:52:16.303303,0.39969801902770963
2023-01-28 15:52:16.308303,0.42008047646122537
2023-01-28 15:52:16.313303,0.4436681866645812
2023-01-28 15:52:16.318303,0.469505192202735
2023-01-28 15:52:16.323303,0.4965573549270626
2023-01-28 15:52:16.328303,0.5238342838995542
2023-01-28 15:52:16.333303,0.5509130358695984
2023-01-28 15:52:16.338303,0.5781783629296745
2023-01-28 15:52:16.343303,0.6061581969261167
2023-01-28 15:52:16.348303,0.6347622162019685
2023-01-28 15:52:16.353303,0.6633506417274474
2023-01-28 15:52:16.358303,0.6911209027702861
2023-01-28 15:52:16.363303,0.7170331478118896
2023-01-28 15:52:16.368303,0.7397561032809006
2023-01-28 15:52:16.373303,0.758238673210144
2023-01-28 15:52:16.378303,0.7721947407784112
2023-01-28 15:52:16.383303,0.7817262411117551
2023-01-28 15:52:16.388303,0.7867714205173849
2023-01-28 15:52:16.393303,0.7872555851936338
2023-01-28 15:52:16.398303,0.7834059435277607
2023-01-28 15:52:16.403303,0.7754757404327389
2023-01-28 15:52:16.408303,0.7634723250871736
2023-01-28 15:52:16.413303,0.747612714767456
2023-01-28 15:52:16.418303,0.7288050860872587
2023-01-28 15:52:16.423303,0.7083064317703244
2023-01-28 15:52:16.428303,0.6871749882355066
2023-01-28 15:52:16.433303,0.6663557291030882
2023-01-28 15:52:16.438303,0.6468456207330728
2023-01-28 15:52:16.443303,0.629237115383148
2023-01-28 15:52:16.448303,0.6133544380313325
2023-01-28 15:52:16.453303,0.5987777709960934
2023-01-28 15:52:16.458303,0.5855054364347921
2023-01-28 15:52:16.463303,0.5738236904144283
2023-01-28 15:52:16.468303,0.5639719138390199
2023-01-28 15:52:16.473303,0.5563942790031433
2023-01-28 15:52:16.478303,0.5519138711838841
2023-01-28 15:52:16.483303,0.551081299781799
2023-01-28 15:52:16.488303,0.5535359003500406
2023-01-28 15:52:16.493303,0.5583415627479553
2023-01-28 15:52:16.498303,0.5645906642669863
2023-01-28 15:52:16.503303,0.5713234543800352
2023-01-28 15:52:16.508303,0.5773928945411754
2023-01-28 15:52:16.513303,0.582093596458435
2023-01-28 15:52:16.518303,0.5857495439723367
2023-01-28 15:52:16.523303,0.5892817378044128
2023-01-28 15:52:16.528303,0.593487558335349
2023-01-28 15:52:16.533303,0.5990421772003173
2023-01-28 15:52:16.538303,0.6066092261310145
2023-01-28 15:52:16.543303,0.6162552237510681
2023-01-28 15:52:16.548303,0.627035254851597
2023-01-28 15:52:16.553303,0.637723445892334
2023-01-28 15:52:16.558303,0.6477605498027915
2023-01-28 15:52:16.563303,0.6571722030639644
2023-01-28 15:52:16.568303,0.6660585405873602
2023-01-28 15:52:16.573303,0.6746737360954282
2023-01-28 15:52:16.578303,0.6834656568946822
2023-01-28 15:52:16.583303,0.6922954320907589
2023-01-28 15:52:16.588303,0.6999108158454308
2023-01-28 15:52:16.593303,0.7048205733299255
2023-01-28 15:52:16.598303,0.7064905103229915
2023-01-28 15:52:16.603303,0.7053494453430172
2023-01-28 15:52:16.608303,0.7022410306172502
2023-01-28 15:52:16.613303,0.6985219717025754
2023-01-28 15:52:16.618303,0.6960517872597508
2023-01-28 15:52:16.623303,0.6960457563400266
2023-01-28 15:52:16.628303,0.6980692733569006
2023-01-28 15:52:16.633303,0.7007817625999447
2023-01-28 15:52:16.638303,0.7032993412406613
2023-01-28 15:52:16.643303,0.7052292823791497
2023-01-28 15:52:16.648303,0.706136790694435
2023-01-28 15:52:16.653303,0.706214904785156
2023-01-28 15:52:16.658303,0.7071124907552645
2023-01-28 15:52:16.663303,0.7107105255126949
2023-01-28 15:52:16.668303,0.716978734756806
2023-01-28 15:52:16.673303,0.7241251468658447
2023-01-28 15:52:16.678303,0.7308950418675613
2023-01-28 15:52:16.683303,0.7375156879425045
2023-01-28 15:52:16.688303,0.7441505399516308
2023-01-28 15:52:16.693303,0.7497523427009579
2023-01-28 15:52:16.698303,0.7532125067944146
2023-01-28 15:52:16.703303,0.7548008561134338
2023-01-28 15:52:16.708303,0.755676280031279
2023-01-28 15:52:16.713303,0.7564836740493774
2023-01-28 15:52:16.718303,0.7570887124922431
2023-01-28 15:52:16.723303,0.7573010921478268
2023-01-28 15:52:16.728303,0.757209022727509
2023-01-28 15:52:16.733303,0.7569885253906247
2023-01-28 15:52:16.738303,0.756925514408892
2023-01-28 15:52:16.743303,0.7576135993003846
2023-01-28 15:52:16.748303,0.7597967290782098
2023-01-28 15:52:16.753303,0.7639843225479126
2023-01-28 15:52:16.758303,0.7703285861330763
2023-01-28 15:52:16.763303,0.7787452340126035
2023-01-28 15:52:16.768303,0.7889803707105366
2023-01-28 15:52:16.773303,0.8006221055984495
2023-01-28 15:52:16.778303,0.8131471827794802
2023-01-28 15:52:16.783303,0.825912773609161
2023-01-28 15:52:16.788303,0.8381080003277517
2023-01-28 15:52:16.793303,0.848847448825836
2023-01-28 15:52:16.798303,0.8573566309834001
2023-01-28 15:52:16.803303,0.863007307052612
2023-01-28 15:52:16.808303,0.8652480122271274
2023-01-28 15:52:16.813303,0.8636804819107052
2023-01-28 15:52:16.818303,0.8582491443585838
2023-01-28 15:52:16.823303,0.8493523001670834
2023-01-28 15:52:16.828303,0.8379507320836246
2023-01-28 15:52:16.833303,0.8257445096969606
2023-01-28 15:52:16.838303,0.8150579193056031
2023-01-28 15:52:16.843303,0.8081227540969849
2023-01-28 15:52:16.848303,0.8061327029885813
2023-01-28 15:52:16.853303,0.8086757063865659
2023-01-28 15:52:16.858303,0.8136550316489644
2023-01-28 15:52:16.863303,0.8176187872886658
2023-01-28 15:52:16.868303,0.8167805472739903
2023-01-28 15:52:16.873303,0.8088920712471008
2023-01-28 15:52:16.878303,0.7953340585210865
2023-01-28 15:52:16.883303,0.7824234366416929
2023-01-28 15:52:16.888303,0.7812518596118272
2023-01-28 15:52:16.893303,0.805502355098724
2023-01-28 15:52:16.898303,0.8668174124387457
2023-01-28 15:52:16.903303,0.9685693383216855
2023-01-28 15:52:16.908303,1.1008161152620548
2023-01-28 15:52:16.913303,1.2396504878997803
2023-01-28 15:52:16.918303,1.352341435114724
2023-01-28 15:52:16.923303,1.4071168899536126
2023-01-28 15:52:16.928303,1.384380615398038
2023-01-28 15:52:16.933303,1.2848466634750362
2023-01-28 15:52:16.938303,1.1304565859132472
2023-01-28 15:52:16.943303,0.9570538997650143
2023-01-28 15:52:16.948303,0.8021075377766472
2023-01-28 15:52:16.953303,0.692992627620697
2023-01-28 15:52:16.958303,0.6402620381067262
2023-01-28 15:52:16.963303,0.6376753449439999
2023-01-28 15:52:16.968303,0.6680630075703848
2023-01-28 15:52:16.973303,0.7117923498153684
2023-01-28 15:52:16.978303,0.7536680631060593
2023-01-28 15:52:16.983303,0.7857170104980467
2023-01-28 15:52:16.988303,0.8062909896747414
2023-01-28 15:52:16.993303,0.8175226449966431
2023-01-28 15:52:16.998303,0.8227301692690657
2023-01-28 15:52:17.003303,0.8245905637741086
2023-01-28 15:52:17.008303,0.8245785092484527
2023-01-28 15:52:17.013303,0.8235087394714353
2023-01-28 15:52:17.018303,0.8221919801921039
2023-01-28 15:52:17.023303,0.8214652538299556
2023-01-28 15:52:17.028303,0.8219132208922537
2023-01-28 15:52:17.033303,0.8238212466239927
2023-01-28 15:52:17.038303,0.8272098444797722
2023-01-28 15:52:17.043303,0.8316825032234189
2023-01-28 15:52:17.048303,0.8364218941786801
2023-01-28 15:52:17.053303,0.840649604797363
2023-01-28 15:52:17.058303,0.8441478304797786
2023-01-28 15:52:17.063303,0.8473569154739377
2023-01-28 15:52:17.068303,0.8511973952194922
2023-01-28 15:52:17.073303,0.8568769693374634
2023-01-28 15:52:17.078303,0.8654926761051044
2023-01-28 15:52:17.083303,0.8773835897445675
2023-01-28 15:52:17.088303,0.8918165908267986
2023-01-28 15:52:17.093303,0.9074342250823972
2023-01-28 15:52:17.098303,0.9230437207628858
2023-01-28 15:52:17.103303,0.938109993934631
2023-01-28 15:52:17.108303,0.9528513886016508
2023-01-28 15:52:17.113303,0.9680404663085934
2023-01-28 15:52:17.118303,0.9844175305611794
2023-01-28 15:52:17.123303,1.001889586448669
2023-01-28 15:52:17.128303,1.0191788096238534
2023-01-28 15:52:17.133303,1.034296154975891
2023-01-28 15:52:17.138303,1.0453958895867912
2023-01-28 15:52:17.143303,1.0513650178909297
2023-01-28 15:52:17.148303,1.0519645706350857
2023-01-28 15:52:17.153303,1.0476146936416624
2023-01-28 15:52:17.158303,1.0389181240201895
2023-01-28 15:52:17.163303,1.02619457244873
2023-01-28 15:52:17.168303,1.0094039995994843
2023-01-28 15:52:17.173303,0.9884749054908749
2023-01-28 15:52:17.178303,0.9636758661932581
2023-01-28 15:52:17.183303,0.935754001140594
2023-01-28 15:52:17.188303,0.905779950869478
2023-01-28 15:52:17.193303,0.8747391104698179
2023-01-28 15:52:17.198303,0.8431694270945838
2023-01-28 15:52:17.203303,0.8112961053848267
2023-01-28 15:52:17.208303,0.77955562365108
2023-01-28 15:52:17.213303,0.748814761638641
2023-01-28 15:52:17.218303,0.7200996529103425
2023-01-28 15:52:17.223303,0.6944110393524168
2023-01-28 15:52:17.228303,0.6726776612200882
2023-01-28 15:52:17.233303,0.6551768779754635
2023-01-28 15:52:17.238303,0.6407931477942955
2023-01-28 15:52:17.243303,0.6276504397392271
2023-01-28 15:52:17.248303,0.6149922220877758
2023-01-28 15:52:17.253303,0.6037541627883911
2023-01-28 15:52:17.258303,0.594762060487736
2023-01-28 15:52:17.263303,0.5873104333877563
2023-01-28 15:52:17.268303,0.5805035536233923
2023-01-28 15:52:17.273303,0.5751459002494813
2023-01-28 15:52:17.278303,0.5728291461680745
2023-01-28 15:52:17.283303,0.5734630823135376
2023-01-28 15:52:17.288303,0.5751282075190459
2023-01-28 15:52:17.293303,0.5762758255004883
2023-01-28 15:52:17.298303,0.5766599433210745
2023-01-28 15:52:17.303303,0.5760353803634642
2023-01-28 15:52:17.308303,0.5735042716336083
2023-01-28 15:52:17.313303,0.5687270760536194
2023-01-28 15:52:17.318303,0.5626036660527673
2023-01-28 15:52:17.323303,0.5561298131942748
2023-01-28 15:52:17.328303,0.5494943866851539
2023-01-28 15:52:17.333303,0.5427873134613038
2023-01-28 15:52:17.338303,0.5366291586736365
2023-01-28 15:52:17.343303,0.5314882993698121
2023-01-28 15:52:17.348303,0.5271865590064644
2023-01-28 15:52:17.353303,0.5236510634422304
2023-01-28 15:52:17.358303,0.5213799408101888
2023-01-28 15:52:17.363303,0.5205498337745668
2023-01-28 15:52:17.368303,0.5203061476549354
2023-01-28 15:52:17.373303,0.5194680094718934
2023-01-28 15:52:17.378303,0.5173352147215424
2023-01-28 15:52:17.383303,0.5134097933769225
2023-01-28 15:52:17.388303,0.5071499034558509
2023-01-28 15:52:17.393303,0.4986969828605652
2023-01-28 15:52:17.398303,0.48929885796031863
2023-01-28 15:52:17.403303,0.4804021120071409
2023-01-28 15:52:17.408303,0.47269116857860805
2023-01-28 15:52:17.413303,0.4662662744522095
2023-01-28 15:52:17.418303,0.46099056240008485
2023-01-28 15:52:17.423303,0.4560971260070802
2023-01-28 15:52:17.428303,0.45013953420884756
2023-01-28 15:52:17.433303,0.4421055316925049
2023-01-28 15:52:17.438303,0.4323356024523908
2023-01-28 15:52:17.443303,0.4220317006111146
2023-01-28 15:52:17.448303,0.4123831819725038
2023-01-28 15:52:17.453303,0.4044820964336394
2023-01-28 15:52:17.458303,0.39929780955250815
2023-01-28 15:52:17.463303,0.39698144793510437
2023-01-28 15:52:17.468303,0.39655338698079085
2023-01-28 15:52:17.473303,0.39676508307457
2023-01-28 15:52:17.478303,0.3969051211955992
2023-01-28 15:52:17.483303,0.39647659659385687
2023-01-28 15:52:17.488303,0.3947619767414277
2023-01-28 15:52:17.493303,0.39130789041519176
2023-01-28 15:52:17.498303,0.386404426392255
2023-01-28 15:52:17.503303,0.3806098401546478
2023-01-28 15:52:17.508303,0.3742358739365854
2023-01-28 15:52:17.513303,0.36767601966857927
2023-01-28 15:52:17.518303,0.3616321785715396
2023-01-28 15:52:17.523303,0.3564250469207764
2023-01-28 15:52:17.528303,0.3514892756556837
2023-01-28 15:52:17.533303,0.3460395336151123
2023-01-28 15:52:17.538303,0.3398803839305479
2023-01-28 15:52:17.543303,0.3332740068435669
2023-01-28 15:52:17.548303,0.3266511958203645
2023-01-28 15:52:17.553303,0.32098931074142484
2023-01-28 15:52:17.558303,0.31791024278565383
2023-01-28 15:52:17.563303,0.3186814188957213
2023-01-28 15:52:17.568303,0.32325746499054775
2023-01-28 15:52:17.573303,0.3305093646049498
2023-01-28 15:52:17.578303,0.3388449129474543
2023-01-28 15:52:17.583303,0.346255898475647
2023-01-28 15:52:17.588303,0.350504988720418
2023-01-28 15:52:17.593303,0.35010239481925964
2023-01-28 15:52:17.598303,0.34496568890300383
2023-01-28 15:52:17.603303,0.33582231402397145
2023-01-28 15:52:17.608303,0.3233966636357288
2023-01-28 15:52:17.613303,0.30848821997642517
2023-01-28 15:52:17.618303,0.292187586820555
2023-01-28 15:52:17.623303,0.2753843963146211
2023-01-28 15:52:17.628303,0.2584413989994094
2023-01-28 15:52:17.633303,0.24182379245758057
2023-01-28 15:52:17.638303,0.22660110830439437
2023-01-28 15:52:17.643303,0.21376848220825195
2023-01-28 15:52:17.648303,0.20331740019522562
2023-01-28 15:52:17.653303,0.19424757361412054
2023-01-28 15:52:17.658303,0.1850820854715581
2023-01-28 15:52:17.663303,0.17436604201793665
2023-01-28 15:52:17.668303,0.16201791627344764
2023-01-28 15:52:17.673303,0.1517438888549804
2023-01-28 15:52:17.678303,0.15234185420367316
2023-01-28 15:52:17.683303,0.1757123172283172
2023-01-28 15:52:17.688303,0.2320869096162099
2023-01-28 15:52:17.693303,0.32454729080200173
2023-01-28 15:52:17.698303,0.44452777506616864
2023-01-28 15:52:17.703303,0.5703377723693845
2023-01-28 15:52:17.708303,0.6713077518226548
2023-01-28 15:52:17.713303,0.717658221721649
2023-01-28 15:52:17.718303,0.6917489393860642
2023-01-28 15:52:17.723303,0.5950995683670043
2023-01-28 15:52:17.728303,0.4484579533801732
2023-01-28 15:52:17.733303,0.28526505827903736
2023-01-28 15:52:17.738303,0.14053255095957198
2023-01-28 15:52:17.743303,0.039186082780361176
2023-01-28 15:52:17.748303,-0.010666586342595262
2023-01-28 15:52:17.753303,-0.016636054962873268
2023-01-28 15:52:17.758303,0.004649807389978681
2023-01-28 15:52:17.763303,0.03529151529073719
2023-01-28 15:52:17.768303,0.06198925994565216
2023-01-28 15:52:17.773303,0.07887701690196995
2023-01-28 15:52:17.778303,0.08667887146507128
2023-01-28 15:52:17.783303,0.08909424394369148
2023-01-28 15:52:17.788303,0.0893683333451497
2023-01-28 15:52:17.793303,0.08921444416046147
2023-01-28 15:52:17.798303,0.08927681334143896
2023-01-28 15:52:17.803303,0.08947889506816871
2023-01-28 15:52:17.808303,0.08930972158611898
2023-01-28 15:52:17.813303,0.08856534957885749
2023-01-28 15:52:17.818303,0.08772230457928348
2023-01-28 15:52:17.823303,0.08726716041564933
2023-01-28 15:52:17.828303,0.08706542783285727
2023-01-28 15:52:17.833303,0.08678635209798798
2023-01-28 15:52:17.838303,0.08648974897303295
2023-01-28 15:52:17.843303,0.08635362237691883
2023-01-28 15:52:17.848303,0.08632431645717933
2023-01-28 15:52:17.853303,0.08659403026103962
2023-01-28 15:52:17.858303,0.08804636440773397
2023-01-28 15:52:17.863303,0.09171466529369361
2023-01-28 15:52:17.868303,0.0980859418638419
2023-01-28 15:52:17.873303,0.10724484920501694
2023-01-28 15:52:17.878303,0.11916835985771543
2023-01-28 15:52:17.883303,0.1333769261837007
2023-01-28 15:52:17.888303,0.1487590189487936
2023-01-28 15:52:17.893303,0.16431710124015803
2023-01-28 15:52:17.898303,0.17982217805642228
2023-01-28 15:52:17.903303,0.19540151953697218
2023-01-28 15:52:17.908303,0.21092468989620594
2023-01-28 15:52:17.913303,0.22614936530590057
2023-01-28 15:52:17.918303,0.24089179342432274
2023-01-28 15:52:17.923303,0.25449317693710344
2023-01-28 15:52:17.928303,0.2655375341824865
2023-01-28 15:52:17.933303,0.2726197242736814
2023-01-28 15:52:17.938303,0.27508211643153513
2023-01-28 15:52:17.943303,0.2726918458938599
2023-01-28 15:52:17.948303,0.2651550954266793
2023-01-28 15:52:17.953303,0.2524497210979463
2023-01-28 15:52:17.958303,0.23517331285958437
2023-01-28 15:52:17.963303,0.21408101916313163
2023-01-28 15:52:17.968303,0.18971105296675478
2023-01-28 15:52:17.973303,0.1628746688365937
2023-01-28 15:52:17.978303,0.13496624141769462
2023-01-28 15:52:17.983303,0.10722081363201168
2023-01-28 15:52:17.988303,0.080020736271182
2023-01-28 15:52:17.993303,0.053297877311706654
2023-01-28 15:52:17.998303,0.02710526632965612
2023-01-28 15:52:18.003303,0.0013943513622510105
2023-01-28 15:52:18.008303,-0.02413601827500107
2023-01-28 15:52:18.013303,-0.049355231225490306
2023-01-28 15:52:18.018303,-0.07329148385930644
2023-01-28 15:52:18.023303,-0.09488801658153505
2023-01-28 15:52:18.028303,-0.11374221124001002
2023-01-28 15:52:18.033303,-0.1297467947006226
2023-01-28 15:52:18.038303,-0.1426506426643462
2023-01-28 15:52:18.043303,-0.1525372266769409
2023-01-28 15:52:18.048303,-0.16018573818058654
2023-01-28 15:52:18.053303,-0.16636054217815377
2023-01-28 15:52:18.058303,-0.17117159735523887
2023-01-28 15:52:18.063303,-0.17458240687847099
2023-01-28 15:52:18.068303,-0.17698924888855053
2023-01-28 15:52:18.073303,-0.1787894964218138
2023-01-28 15:52:18.078303,-0.1799610320053563
2023-01-28 15:52:18.083303,-0.18064062297344177
2023-01-28 15:52:18.088303,-0.18156764045514054
2023-01-28 15:52:18.093303,-0.1833572089672087
2023-01-28 15:52:18.098303,-0.18581715705546908
2023-01-28 15:52:18.103303,-0.18850187957286813
2023-01-28 15:52:18.108303,-0.19139713473163034
2023-01-28 15:52:18.113303,-0.19453606009483299
2023-01-28 15:52:18.118303,-0.19755517716116985
2023-01-28 15:52:18.123303,-0.20025770366191842
2023-01-28 15:52:18.128303,-0.203076958115247
2023-01-28 15:52:18.133303,-0.20638804137706734
2023-01-28 15:52:18.138303,-0.20991275832736506
2023-01-28 15:52:18.143303,-0.21340787410736067
2023-01-28 15:52:18.148303,-0.217390371163277
2023-01-28 15:52:18.153303,-0.22256731986999512
2023-01-28 15:52:18.158303,-0.22905536958591854
2023-01-28 15:52:18.163303,-0.23665508627891518
2023-01-28 15:52:18.168303,-0.24517746239688923
2023-01-28 15:52:18.173303,-0.25379598140716547
2023-01-28 15:52:18.178303,-0.260725203441649
2023-01-28 15:52:18.183303,-0.264397859573364
2023-01-28 15:52:18.188303,-0.26467554309671976
2023-01-28 15:52:18.193303,-0.2625226974487304
2023-01-28 15:52:18.198303,-0.2592062362832403
2023-01-28 15:52:18.203303,-0.25636833906173695
2023-01-28 15:52:18.208303,-0.2559547496686583
2023-01-28 15:52:18.213303,-0.25898873805999745
2023-01-28 15:52:18.218303,-0.26472620491590015
2023-01-28 15:52:18.223303,-0.27161002159118636
2023-01-28 15:52:18.228303,-0.2785392103820457
2023-01-28 15:52:18.233303,-0.28476020693778986
2023-01-28 15:52:18.238303,-0.2894793771177304
2023-01-28 15:52:18.243303,-0.29254934191703774
2023-01-28 15:52:18.248303,-0.2949238630729297
2023-01-28 15:52:18.253303,-0.2975738048553467
2023-01-28 15:52:18.258303,-0.30047443177217414
2023-01-28 15:52:18.263303,-0.3032954633235929
2023-01-28 15:52:18.268303,-0.30627625960571775
2023-01-28 15:52:18.273303,-0.3095700442790984
2023-01-28 15:52:18.278303,-0.31251578502313404
2023-01-28 15:52:18.283303,-0.314522385597229
2023-01-28 15:52:18.288303,-0.31599365504732013
2023-01-28 15:52:18.293303,-0.3175034224987029
2023-01-28 15:52:18.298303,-0.31884257785873277
2023-01-28 15:52:18.303303,-0.319811314344406
2023-01-28 15:52:18.308303,-0.3210546400464975
2023-01-28 15:52:18.313303,-0.3229846656322478
2023-01-28 15:52:18.318303,-0.3246801705245197
2023-01-28 15:52:18.323303,-0.32500407099723805
2023-01-28 15:52:18.328303,-0.324019414155513
2023-01-28 15:52:18.333303,-0.3221913278102875
2023-01-28 15:52:18.338303,-0.31919399594407416
2023-01-28 15:52:18.343303,-0.31488299369812
2023-01-28 15:52:18.348303,-0.31045248388588537
2023-01-28 15:52:18.353303,-0.30702173709869374
2023-01-28 15:52:18.358303,-0.3039383069811945
2023-01-28 15:52:18.363303,-0.3001221120357514
2023-01-28 15:52:18.368303,-0.2961262431955199
2023-01-28 15:52:18.373303,-0.29300612211227406
2023-01-28 15:52:18.378303,-0.2902639243806791
2023-01-28 15:52:18.383303,-0.2873565852642057
2023-01-28 15:52:18.388303,-0.2863693544814452
2023-01-28 15:52:18.393303,-0.2901933789253233
2023-01-28 15:52:18.398303,-0.298298504863099
2023-01-28 15:52:18.403303,-0.30747851729392983
2023-01-28 15:52:18.408303,-0.3169979520252807
2023-01-28 15:52:18.413303,-0.32945156097412087
2023-01-28 15:52:18.418303,-0.34529618267625267
2023-01-28 15:52:18.423303,-0.3598868846893307
2023-01-28 15:52:18.428303,-0.36826271571176783
2023-01-28 15:52:18.433303,-0.37063300609588606
2023-01-28 15:52:18.438303,-0.37089507475346717
2023-01-28 15:52:18.443303,-0.37176293134689314
2023-01-28 15:52:18.448303,-0.37409947660400045
2023-01-28 15:52:18.453303,-0.3795280158519741
2023-01-28 15:52:18.458303,-0.38992740409556836
2023-01-28 15:52:18.463303,-0.4033041000366207
2023-01-28 15:52:18.468303,-0.41154862382209617
2023-01-28 15:52:18.473303,-0.40253481268882735
2023-01-28 15:52:18.478303,-0.3640164840894791
2023-01-28 15:52:18.483303,-0.28778931498527494
2023-01-28 15:52:18.488303,-0.17491775814264232
2023-01-28 15:52:18.493303,-0.04031598567962642
2023-01-28 15:52:18.498303,0.08798672590949233
2023-01-28 15:52:18.503303,0.17674605548381783
2023-01-28 15:52:18.508303,0.19898989965882075
2023-01-28 15:52:18.513303,0.14388263225555403
2023-01-28 15:52:18.518303,0.021504425811173945
2023-01-28 15:52:18.523303,-0.1394351422786713
2023-01-28 15:52:18.528303,-0.3011440533374503
2023-01-28 15:52:18.533303,-0.42998909950256325
2023-01-28 15:52:18.538303,-0.5070511688220612
2023-01-28 15:52:18.543303,-0.5314161777496336
2023-01-28 15:52:18.548303,-0.5162914479280052
2023-01-28 15:52:18.553303,-0.48114737868309004
2023-01-28 15:52:18.558303,-0.4435786772403632
2023-01-28 15:52:18.563303,-0.4140021502971649
2023-01-28 15:52:18.568303,-0.39488863384261724
2023-01-28 15:52:18.573303,-0.38368701934814436
2023-01-28 15:52:18.578303,-0.37664462525342574
2023-01-28 15:52:18.583303,-0.3711859583854673
2023-01-28 15:52:18.588303,-0.3664201921591402
2023-01-28 15:52:18.593303,-0.36250731348991394
2023-01-28 15:52:18.598303,-0.3596547887325813
2023-01-28 15:52:18.603303,-0.3573866784572599
2023-01-28 15:52:18.608303,-0.3545597714883325
2023-01-28 15:52:18.613303,-0.3500302731990813
2023-01-28 15:52:18.618303,-0.343340775350796
2023-01-28 15:52:18.623303,-0.3349328041076659
2023-01-28 15:52:18.628303,-0.32588934661218333
2023-01-28 15:52:18.633303,-0.31743130087852456
2023-01-28 15:52:18.638303,-0.3103547294992901
2023-01-28 15:52:18.643303,-0.30461770296096796
2023-01-28 15:52:18.648303,-0.2992967173696801
2023-01-28 15:52:18.653303,-0.2929580211639403
2023-01-28 15:52:18.658303,-0.28424928219404116
2023-01-28 15:52:18.663303,-0.272403359413147
2023-01-28 15:52:18.668303,-0.2574090878285832
2023-01-28 15:52:18.673303,-0.23982843756675715
2023-01-28 15:52:18.678303,-0.2204772929507416
2023-01-28 15:52:18.683303,-0.20018558204174025
2023-01-28 15:52:18.688303,-0.1796508472163269
2023-01-28 15:52:18.693303,-0.1593407094478606
2023-01-28 15:52:18.698303,-0.13951598937830534
2023-01-28 15:52:18.703303,-0.12039502710103978
2023-01-28 15:52:18.708303,-0.1022780441412898
2023-01-28 15:52:18.713303,-0.08551220595836628
2023-01-28 15:52:18.718303,-0.07045031360747
2023-01-28 15:52:18.723303,-0.057529013603925684
2023-01-28 15:52:18.728303,-0.047315383077118085
2023-01-28 15:52:18.733303,-0.04041215032339089
2023-01-28 15:52:18.738303,-0.03740448371273688
2023-01-28 15:52:18.743303,-0.03894567489624028
2023-01-28 15:52:18.748303,-0.04571852353068249
2023-01-28 15:52:18.753303,-0.05810598656535141
2023-01-28 15:52:18.758303,-0.07586823812250611
2023-01-28 15:52:18.763303,-0.0981334894895551
2023-01-28 15:52:18.768303,-0.12358925246854156
2023-01-28 15:52:18.773303,-0.15071015059947937
2023-01-28 15:52:18.778303,-0.1781351918841132
2023-01-28 15:52:18.783303,-0.20513793826103194
2023-01-28 15:52:18.788303,-0.23170887664618103
2023-01-28 15:52:18.793303,-0.2580271363258359
2023-01-28 15:52:18.798303,-0.2838252746023659
2023-01-28 15:52:18.803303,-0.3081997334957123
2023-01-28 15:52:18.808303,-0.3298034099548567
2023-01-28 15:52:18.813303,-0.3471694588661192
2023-01-28 15:52:18.818303,-0.35922239611174356
2023-01-28 15:52:18.823303,-0.3658970296382904
2023-01-28 15:52:18.828303,-0.3683276087592264
2023-01-28 15:52:18.833303,-0.36832511425018294
2023-01-28 15:52:18.838303,-0.3676278143828458
2023-01-28 15:52:18.843303,-0.36745965480804405
2023-01-28 15:52:18.848303,-0.36832374151094016
2023-01-28 15:52:18.853303,-0.36988776922225935
2023-01-28 15:52:18.858303,-0.37123924328464175
2023-01-28 15:52:18.863303,-0.3715705871582029
2023-01-28 15:52:18.868303,-0.3706879260431451
2023-01-28 15:52:18.873303,-0.3689020872116085
2023-01-28 15:52:18.878303,-0.3666798540887938
2023-01-28 15:52:18.883303,-0.36450266838073697
2023-01-28 15:52:18.888303,-0.3627458426938668
2023-01-28 15:52:18.893303,-0.36140143871307334
2023-01-28 15:52:18.898303,-0.3600523350837635
2023-01-28 15:52:18.903303,-0.35832425951957686
2023-01-28 15:52:18.908303,-0.3562608294194017
2023-01-28 15:52:18.913303,-0.35416525602340676
2023-01-28 15:52:18.918303,-0.3523136433826167
2023-01-28 15:52:18.923303,-0.35099190473556496
2023-01-28 15:52:18.928303,-0.350545641500006
2023-01-28 15:52:18.933303,-0.35111209750175454
2023-01-28 15:52:18.938303,-0.35244377904074553
2023-01-28 15:52:18.943303,-0.3541892766952511
2023-01-28 15:52:18.948303,-0.3561735816800851
2023-01-28 15:52:18.953303,-0.3582280874252317
2023-01-28 15:52:18.958303,-0.3599836943080545
2023-01-28 15:52:18.963303,-0.36108893156051614
2023-01-28 15:52:18.968303,-0.3614609478011889
2023-01-28 15:52:18.973303,-0.36111295223236073
2023-01-28 15:52:18.978303,-0.3599614907483466
2023-01-28 15:52:18.983303,-0.3580838441848753
2023-01-28 15:52:18.988303,-0.3559949176707311
2023-01-28 15:52:18.993303,-0.35440564155578574
2023-01-28 15:52:18.998303,-0.3538518310394908
2023-01-28 15:52:19.003303,-0.35474222898483254
2023-01-28 15:52:19.008303,-0.35744893810950745
2023-01-28 15:52:19.013303,-0.36190629005432107
2023-01-28 15:52:19.018303,-0.3672183020503708
2023-01-28 15:52:19.023303,-0.372051417827606
2023-01-28 15:52:19.028303,-0.3754414641569906
2023-01-28 15:52:19.033303,-0.3770278096199031
2023-01-28 15:52:19.038303,-0.3766852169573631
2023-01-28 15:52:19.043303,-0.37435930967330916
2023-01-28 15:52:19.048303,-0.37031533426082386
2023-01-28 15:52:19.053303,-0.36522388458251914
2023-01-28 15:52:19.058303,-0.35984681732890417
2023-01-28 15:52:19.063303,-0.3547422289848323
2023-01-28 15:52:19.068303,-0.3502571752779276
2023-01-28 15:52:19.073303,-0.34661650657653775
2023-01-28 15:52:19.078303,-0.3439618604257897
2023-01-28 15:52:19.083303,-0.34240943193435636
2023-01-28 15:52:19.088303,-0.3420980242182543
2023-01-28 15:52:19.093303,-0.34313064813613847
2023-01-28 15:52:19.098303,-0.3454914030391541
2023-01-28 15:52:19.103303,-0.34902057051658614
2023-01-28 15:52:19.108303,-0.3533181801881357
2023-01-28 15:52:19.113303,-0.35755497217178306
2023-01-28 15:52:19.118303,-0.36050882400887696
2023-01-28 15:52:19.123303,-0.3610168099403378
2023-01-28 15:52:19.128303,-0.3585243970697479
2023-01-28 15:52:19.133303,-0.35332381725311257
2023-01-28 15:52:19.138303,-0.3464322618723526
2023-01-28 15:52:19.143303,-0.33918797969818093
2023-01-28 15:52:19.148303,-0.332573928125325
2023-01-28 15:52:19.153303,-0.32656669616699174
2023-01-28 15:52:19.158303,-0.32012199513385353
2023-01-28 15:52:19.163303,-0.3119741082191466
2023-01-28 15:52:19.168303,-0.30163573254262754
2023-01-28 15:52:19.173303,-0.2899048924446104
2023-01-28 15:52:19.178303,-0.27874850309467714
2023-01-28 15:52:19.183303,-0.2707205414772033
2023-01-28 15:52:19.188303,-0.2680369723221914
2023-01-28 15:52:19.193303,-0.2716581225395201
2023-01-28 15:52:19.198303,-0.28095856961505566
2023-01-28 15:52:19.203303,-0.29413601756095886
2023-01-28 15:52:19.208303,-0.3088735653433856
2023-01-28 15:52:19.213303,-0.3228404223918915
2023-01-28 15:52:19.218303,-0.3341049628152004
2023-01-28 15:52:19.223303,-0.341543972492218
2023-01-28 15:52:19.228303,-0.3450519270971508
2023-01-28 15:52:19.233303,-0.34551066160201993
2023-01-28 15:52:19.238303,-0.34474928870500465
2023-01-28 15:52:19.243303,-0.3453904390335082
2023-01-28 15:52:19.248303,-0.3500262591517417
2023-01-28 15:52:19.253303,-0.3595262765884396
2023-01-28 15:52:19.258303,-0.3711134707897677
2023-01-28 15:52:19.263303,-0.3771960735321043
2023-01-28 15:52:19.268303,-0.36584910427707373
2023-01-28 15:52:19.273303,-0.3237299323081969
2023-01-28 15:52:19.278303,-0.24154637720938715
2023-01-28 15:52:19.283303,-0.12046714872121818
2023-01-28 15:52:19.288303,0.023762214180586775
2023-01-28 15:52:19.293303,0.16200920939445482
2023-01-28 15:52:19.298303,0.25907059079535977
2023-01-28 15:52:19.303303,0.2851208150386806
2023-01-28 15:52:19.308303,0.22705051122452244
2023-01-28 15:52:19.313303,0.09467165172100067
2023-01-28 15:52:19.318303,-0.08157844501182358
2023-01-28 15:52:19.323303,-0.260887950658798
2023-01-28 15:52:19.328303,-0.4058039440169603
2023-01-28 15:52:19.333303,-0.49357634782791115
2023-01-28 15:52:19.338303,-0.520857934449885
2023-01-28 15:52:19.343303,-0.5007885098457335
2023-01-28 15:52:19.348303,-0.4548149000468558
2023-01-28 15:52:19.353303,-0.40356856584548934
2023-01-28 15:52:19.358303,-0.36074273987656125
2023-01-28 15:52:19.363303,-0.3315430879592892
2023-01-28 15:52:19.368303,-0.31474240135222914
2023-01-28 15:52:19.373303,-0.3061803281307217
2023-01-28 15:52:19.378303,-0.30174930663016625
2023-01-28 15:52:19.383303,-0.2988239228725432
2023-01-28 15:52:19.388303,-0.29621219191670306
2023-01-28 15:52:19.393303,-0.2934628725051876
2023-01-28 15:52:19.398303,-0.29027995206868923
2023-01-28 15:52:19.403303,-0.28625071048736583
2023-01-28 15:52:19.408303,-0.28085549472622967
2023-01-28 15:52:19.413303,-0.2737496495246885
2023-01-28 15:52:19.418303,-0.2651059212304283
2023-01-28 15:52:19.423303,-0.2556471228599546
2023-01-28 15:52:19.428303,-0.24634492687883663
2023-01-28 15:52:19.433303,-0.23809751868247944
2023-01-28 15:52:19.438303,-0.23145083125236882
2023-01-28 15:52:19.443303,-0.22622148692607874
2023-01-28 15:52:19.448303,-0.2212814637963912
2023-01-28 15:52:19.453303,-0.21492242813110343
2023-01-28 15:52:19.458303,-0.2055365734344867
2023-01-28 15:52:19.463303,-0.1919877529144287
2023-01-28 15:52:19.468303,-0.1737440994353183
2023-01-28 15:52:19.473303,-0.15121500194072718
2023-01-28 15:52:19.478303,-0.12593800035962932
2023-01-28 15:52:19.483303,-0.09996056556701649
2023-01-28 15:52:19.488303,-0.07490140314461219
2023-01-28 15:52:19.493303,-0.051711201667785436
2023-01-28 15:52:19.498303,-0.030915973595708086
2023-01-28 15:52:19.503303,-0.012477040290832613
2023-01-28 15:52:19.508303,0.004312142503131886
2023-01-28 15:52:19.513303,0.019977688789367714
2023-01-28 15:52:19.518303,0.033905801414736744
2023-01-28 15:52:19.523303,0.04476348683238018
2023-01-28 15:52:19.528303,0.0515576761362102
2023-01-28 15:52:19.533303,0.05353828519582744
2023-01-28 15:52:19.538303,0.04961007445211953
2023-01-28 15:52:19.543303,0.039162039756774784
2023-01-28 15:52:19.548303,0.02331681652605376
2023-01-28 15:52:19.553303,0.00408689212054018
2023-01-28 15:52:19.558303,-0.017471633773038963
2023-01-28 15:52:19.563303,-0.04086891934275615
2023-01-28 15:52:19.568303,-0.06457329466716465
2023-01-28 15:52:19.573303,-0.08712291717529251
2023-01-28 15:52:19.578303,-0.1097091211972297
2023-01-28 15:52:19.583303,-0.13472318649291976
2023-01-28 15:52:19.588303,-0.1611181873336833
2023-01-28 15:52:19.593303,-0.1844871044158932
2023-01-28 15:52:19.598303,-0.20325995371578737
2023-01-28 15:52:19.603303,-0.22141337394714367
2023-01-28 15:52:19.608303,-0.24231781960791288
2023-01-28 15:52:19.613303,-0.26281118392944314
2023-01-28 15:52:19.618303,-0.27710386322962943
2023-01-28 15:52:19.623303,-0.28468808531761153
2023-01-28 15:52:19.628303,-0.2902652448385254
2023-01-28 15:52:19.633303,-0.29673239588737454
2023-01-28 15:52:19.638303,-0.30244553700477056
2023-01-28 15:52:19.643303,-0.3054831624031066
2023-01-28 15:52:19.648303,-0.30657344596417196
2023-01-28 15:52:19.653303,-0.30673325061798085
2023-01-28 15:52:19.658303,-0.3053085925069132
2023-01-28 15:52:19.663303,-0.30190110206604
2023-01-28 15:52:19.668303,-0.2978072776449111
2023-01-28 15:52:19.673303,-0.2941119670867919
2023-01-28 15:52:19.678303,-0.2902856825401769
2023-01-28 15:52:19.683303,-0.2858420312404634
2023-01-28 15:52:19.688303,-0.2815630896682173
2023-01-28 15:52:19.693303,-0.2779327034950258
2023-01-28 15:52:19.698303,-0.27402776006375373
2023-01-28 15:52:19.703303,-0.26913386583328247
2023-01-28 15:52:19.708303,-0.264045196078276
2023-01-28 15:52:19.713303,-0.2597820758819579
2023-01-28 15:52:19.718303,-0.2564320793347631
2023-01-28 15:52:19.723303,-0.2542046904563902
2023-01-28 15:52:19.728303,-0.25419147517010376
2023-01-28 15:52:19.733303,-0.2569693326950073
2023-01-28 15:52:19.738303,-0.26159362271129366
2023-01-28 15:52:19.743303,-0.2668740451335905
2023-01-28 15:52:19.748303,-0.27248956212643466
2023-01-28 15:52:19.753303,-0.27802884578704823
2023-01-28 15:52:19.758303,-0.28221462974472283
2023-01-28 15:52:19.763303,-0.2841111123561861
2023-01-28 15:52:19.768303,-0.28410489075088663
2023-01-28 15:52:19.773303,-0.2828850448131562
2023-01-28 15:52:19.778303,-0.28053659913413553
2023-01-28 15:52:19.783303,-0.27745187282562267
2023-01-28 15:52:19.788303,-0.2749889917790882
2023-01-28 15:52:19.793303,-0.2742304503917693
2023-01-28 15:52:19.798303,-0.27494052916252437
2023-01-28 15:52:19.803303,-0.27646622061729426
2023-01-28 15:52:19.808303,-0.27865468728050996
2023-01-28 15:52:19.813303,-0.2811300754547119
2023-01-28 15:52:19.818303,-0.28277942599480893
2023-01-28 15:52:19.823303,-0.28295716643333424
2023-01-28 15:52:19.828303,-0.2824126681216304
2023-01-28 15:52:19.833303,-0.2822600007057188
2023-01-28 15:52:19.838303,-0.28283562642366283
2023-01-28 15:52:19.843303,-0.28415918350219727
2023-01-28 15:52:19.848303,-0.286422780635834
2023-01-28 15:52:19.853303,-0.2891355752944947
2023-01-28 15:52:19.858303,-0.29070885479467656
2023-01-28 15:52:19.863303,-0.2898567914962767
2023-01-28 15:52:19.868303,-0.2868187205442821
2023-01-28 15:52:19.873303,-0.2826446294784545
2023-01-28 15:52:19.878303,-0.27814151732313863
2023-01-28 15:52:19.883303,-0.27408620715141285
2023-01-28 15:52:19.888303,-0.27132972849397796
2023-01-28 15:52:19.893303,-0.26966273784637457
2023-01-28 15:52:19.898303,-0.26729070117646636
2023-01-28 15:52:19.903303,-0.26230633258819586
2023-01-28 15:52:19.908303,-0.25421833476080813
2023-01-28 15:52:19.913303,-0.24369895458221427
2023-01-28 15:52:19.918303,-0.23188374754376334
2023-01-28 15:52:19.923303,-0.22064408659934998
2023-01-28 15:52:19.928303,-0.2125115504983853
2023-01-28 15:52:19.933303,-0.20922482013702398
2023-01-28 15:52:19.938303,-0.21073925292299725
2023-01-28 15:52:19.943303,-0.21612446010112754
2023-01-28 15:52:19.948303,-0.22462931516895998
2023-01-28 15:52:19.953303,-0.23530881106853468
2023-01-28 15:52:19.958303,-0.24658798857657135
2023-01-28 15:52:19.963303,-0.25708955526351907
2023-01-28 15:52:19.968303,-0.26628930564838066
2023-01-28 15:52:19.973303,-0.27379772067069996
2023-01-28 15:52:19.978303,-0.27887926310778294
2023-01-28 15:52:19.983303,-0.2815147340297699
2023-01-28 15:52:19.988303,-0.28331875879685625
2023-01-28 15:52:19.993303,-0.2866594195365904
2023-01-28 15:52:19.998303,-0.29311016484575136
2023-01-28 15:52:20.003303,-0.3024540543556215
2023-01-28 15:52:20.008303,-0.3112948613325966
2023-01-28 15:52:20.013303,-0.3111807703971863
2023-01-28 15:52:20.018303,-0.28908725438375754
2023-01-28 15:52:20.023303,-0.2322316169738769
2023-01-28 15:52:20.028303,-0.1349748440426714
2023-01-28 15:52:20.033303,-0.004086892120540369
2023-01-28 15:52:20.038303,0.13949341580316243
2023-01-28 15:52:20.043303,0.2636045217514037
2023-01-28 15:52:20.048303,0.3337966397859935
2023-01-28 15:52:20.053303,0.32620608806610074
2023-01-28 15:52:20.058303,0.23779426359383754
2023-01-28 15:52:20.063303,0.0881807059049606
2023-01-28 15:52:20.068303,-0.08709255290602466
2023-01-28 15:52:20.073303,-0.2482426166534423
2023-01-28 15:52:20.078303,-0.3639038608369141
2023-01-28 15:52:20.083303,-0.42037290334701544
2023-01-28 15:52:20.088303,-0.42311972771216694
2023-01-28 15:52:20.093303,-0.39025008678436246
2023-01-28 15:52:20.098303,-0.34290492590022237
2023-01-28 15:52:20.103303,-0.29798251390457137
2023-01-28 15:52:20.108303,-0.26472771342098
2023-01-28 15:52:20.113303,-0.24454037845134727
2023-01-28 15:52:20.118303,-0.23360803632627147
2023-01-28 15:52:20.123303,-0.2270148247480392
2023-01-28 15:52:20.128303,-0.2214956343594083
2023-01-28 15:52:20.133303,-0.21557152271270746
2023-01-28 15:52:20.138303,-0.20874548384117603
2023-01-28 15:52:20.143303,-0.20126740634441367
2023-01-28 15:52:20.148303,-0.19383883149727374
2023-01-28 15:52:20.153303,-0.18677096068859111
2023-01-28 15:52:20.158303,-0.17964016755154152
2023-01-28 15:52:20.163303,-0.1718658208847046
2023-01-28 15:52:20.168303,-0.16312574578931438
2023-01-28 15:52:20.173303,-0.15321037173271174
2023-01-28 15:52:20.178303,-0.14212317622414333
2023-01-28 15:52:20.183303,-0.13034781813621524
2023-01-28 15:52:20.188303,-0.1184242897056575
2023-01-28 15:52:20.193303,-0.10635535418987298
2023-01-28 15:52:20.198303,-0.0938812047649973
2023-01-28 15:52:20.203303,-0.08080025762319568
2023-01-28 15:52:20.208303,-0.06639034688132994
2023-01-28 15:52:20.213303,-0.049547553062439076
2023-01-28 15:52:20.218303,-0.03073790344222318
2023-01-28 15:52:20.223303,-0.012669364921748614
2023-01-28 15:52:20.228303,0.002882144043443077
2023-01-28 15:52:20.233303,0.018078487366437683
2023-01-28 15:52:20.238303,0.03665491290377841
2023-01-28 15:52:20.243303,0.05921185016632075
2023-01-28 15:52:20.248303,0.0833485226014609
2023-01-28 15:52:20.253303,0.10784586519002888
2023-01-28 15:52:20.258303,0.13339662300079427
2023-01-28 15:52:20.263303,0.15885989367961872
2023-01-28 15:52:20.268303,0.18014528418214248
2023-01-28 15:52:20.273303,0.1940792798995971
2023-01-28 15:52:20.278303,0.20085278280442426
2023-01-28 15:52:20.283303,0.2016280144453046
2023-01-28 15:52:20.288303,0.19640251308248888
2023-01-28 15:52:20.293303,0.18559297919273368
2023-01-28 15:52:20.298303,0.17115050195254433
2023-01-28 15:52:20.303303,0.1542921960353849
2023-01-28 15:52:20.308303,0.1340838088854447
2023-01-28 15:52:20.313303,0.10984122753143279
2023-01-28 15:52:20.318303,0.08312294251515394
2023-01-28 15:52:20.323303,0.055966377258300476
2023-01-28 15:52:20.328303,0.02907868559020998
2023-01-28 15:52:20.333303,0.0032214324455706747
2023-01-28 15:52:20.338303,-0.019603278536438853
2023-01-28 15:52:20.343303,-0.0380802154541016
2023-01-28 15:52:20.348303,-0.05308686231597149
2023-01-28 15:52:20.353303,-0.06579896062612552
2023-01-28 15:52:20.358303,-0.07593433077635017
2023-01-28 15:52:20.363303,-0.08325239270925533
2023-01-28 15:52:20.368303,-0.08894665030945252
2023-01-28 15:52:20.373303,-0.09387831389904026
2023-01-28 15:52:20.378303,-0.097018931877341
2023-01-28 15:52:20.383303,-0.09721994400024406
2023-01-28 15:52:20.388303,-0.09501535378990761
2023-01-28 15:52:20.393303,-0.09128193557262428
2023-01-28 15:52:20.398303,-0.08585437628522387
2023-01-28 15:52:20.403303,-0.07904529571533239
2023-01-28 15:52:20.408303,-0.0728267987192147
2023-01-28 15:52:20.413303,-0.06875594705343259
2023-01-28 15:52:20.418303,-0.06614089469170309
2023-01-28 15:52:20.423303,-0.06370743364095689
2023-01-28 15:52:20.428303,-0.06146143246833162
2023-01-28 15:52:20.433303,-0.05942821502685543
2023-01-28 15:52:20.438303,-0.05635338467503273
2023-01-28 15:52:20.443303,-0.05142271518707279
2023-01-28 15:52:20.448303,-0.04571201425787884
2023-01-28 15:52:20.453303,-0.04029194638133034
2023-01-28 15:52:20.458303,-0.03448608917786339
2023-01-28 15:52:20.463303,-0.027598541229963188
2023-01-28 15:52:20.468303,-0.02065943813552235
2023-01-28 15:52:20.473303,-0.014760891906917208
2023-01-28 15:52:20.478303,-0.009352094559183911
2023-01-28 15:52:20.483303,-0.0038945674896240234
2023-01-28 15:52:20.488303,0.0005334194119280179
2023-01-28 15:52:20.493303,0.003077189205214078
2023-01-28 15:52:20.498303,0.004840993969690468
2023-01-28 15:52:20.503303,0.006995797157287521
2023-01-28 15:52:20.508303,0.008866913160407079
2023-01-28 15:52:20.513303,0.009664297103881494
2023-01-28 15:52:20.518303,0.010276022213620535
2023-01-28 15:52:20.523303,0.011443297378718739
2023-01-28 15:52:20.528303,0.011980666013387993
2023-01-28 15:52:20.533303,0.010794202797114622
2023-01-28 15:52:20.538303,0.008917054335904367
2023-01-28 15:52:20.543303,0.007644891738891715
2023-01-28 15:52:20.548303,0.006558518092835205
2023-01-28 15:52:20.553303,0.005409121513366472
2023-01-28 15:52:20.558303,0.005981087080780678
2023-01-28 15:52:20.563303,0.009856621734797727
2023-01-28 15:52:20.568303,0.016108147001867905
2023-01-28 15:52:20.573303,0.02322316169738758
2023-01-28 15:52:20.578303,0.03128499187918629
2023-01-28 15:52:20.583303,0.04009962081909168
2023-01-28 15:52:20.588303,0.04738820391278824
2023-01-28 15:52:20.593303,0.051398675888776606
2023-01-28 15:52:20.598303,0.05346439777404089
2023-01-28 15:52:20.603303,0.05570193380117397
2023-01-28 15:52:20.608303,0.0582356417043794
2023-01-28 15:52:20.613303,0.06094276905059786
2023-01-28 15:52:20.618303,0.06545029072801598
2023-01-28 15:52:20.623303,0.07257839292287818
2023-01-28 15:52:20.628303,0.07996889082470625
2023-01-28 15:52:20.633303,0.08503139019012425
2023-01-28 15:52:20.638303,0.08817351127780261
2023-01-28 15:52:20.643303,0.09063284099102022
2023-01-28 15:52:20.648303,0.09176974056815554
2023-01-28 15:52:20.653303,0.09152233600616447
2023-01-28 15:52:20.658303,0.09291550416863394
2023-01-28 15:52:20.663303,0.09875854104757309
2023-01-28 15:52:20.668303,0.10810729191421374
2023-01-28 15:52:20.673303,0.11897663772106147
2023-01-28 15:52:20.678303,0.131718172632678
2023-01-28 15:52:20.683303,0.14628669619560242
2023-01-28 15:52:20.688303,0.15916745636892596
2023-01-28 15:52:20.693303,0.16698560118675213
2023-01-28 15:52:20.698303,0.17052088317891484
2023-01-28 15:52:20.703303,0.1714330911636352
2023-01-28 15:52:20.708303,0.16820399470273953
2023-01-28 15:52:20.713303,0.15958110988140078
2023-01-28 15:52:20.718303,0.14875642750224938
2023-01-28 15:52:20.723303,0.1394110918045043
2023-01-28 15:52:20.728303,0.13078887512074355
2023-01-28 15:52:20.733303,0.12138068675994844
2023-01-28 15:52:20.738303,0.1135857729800933
2023-01-28 15:52:20.743303,0.1090238541364669
2023-01-28 15:52:20.748303,0.10313611626274731
2023-01-28 15:52:20.753303,0.09116172790527326
2023-01-28 15:52:20.758303,0.07656168678286819
2023-01-28 15:52:20.763303,0.06786644458770758
2023-01-28 15:52:20.768303,0.0720824439888947
2023-01-28 15:52:20.773303,0.09851813316345215
2023-01-28 15:52:20.778303,0.16255217305074704
2023-01-28 15:52:20.783303,0.2730043828487397
2023-01-28 15:52:20.788303,0.41666069980783504
2023-01-28 15:52:20.793303,0.5639670491218564
2023-01-28 15:52:20.798303,0.6862789411271419
2023-01-28 15:52:20.803303,0.75819057226181
2023-01-28 15:52:20.808303,0.7529066474464882
2023-01-28 15:52:20.813303,0.6586627364158628
2023-01-28 15:52:20.818303,0.5030102137878215
2023-01-28 15:52:20.823303,0.34101507067680326
2023-01-28 15:52:20.828303,0.21086210520370263
2023-01-28 15:52:20.833303,0.11474549770355198
2023-01-28 15:52:20.838303,0.04699136266695013
2023-01-28 15:52:20.843303,0.018391013145446607
2023-01-28 15:52:20.848303,0.037234172896006
2023-01-28 15:52:20.853303,0.08342067897319788
2023-01-28 15:52:20.858303,0.12338054190861177
2023-01-28 15:52:20.863303,0.14441153407096852
2023-01-28 15:52:20.868303,0.1571261192799363
2023-01-28 15:52:20.873303,0.1695819795131681
2023-01-28 15:52:20.878303,0.17765113317750447
2023-01-28 15:52:20.883303,0.17972707748413086
2023-01-28 15:52:20.888303,0.1829726645409812
2023-01-28 15:52:20.893303,0.1910742223262787
2023-01-28 15:52:20.898303,0.19889630365063116
2023-01-28 15:52:20.903303,0.20343105494976038
2023-01-28 15:52:20.908303,0.20941393742125225
2023-01-28 15:52:20.913303,0.22004306316375716
2023-01-28 15:52:20.918303,0.2312932109873627
2023-01-28 15:52:20.923303,0.23956398665904977
2023-01-28 15:52:20.928303,0.2471611310743868
2023-01-28 15:52:20.933303,0.25627216696739175
2023-01-28 15:52:20.938303,0.26445669536021904
2023-01-28 15:52:20.943303,0.27007144689559937
2023-01-28 15:52:20.948303,0.27618633206364923
2023-01-28 15:52:20.953303,0.28536123037338224
2023-01-28 15:52:20.958303,0.2957259562401532
2023-01-28 15:52:20.963303,0.30560335516929604
2023-01-28 15:52:20.968303,0.3171985850882378
2023-01-28 15:52:20.973303,0.3324325978755949
2023-01-28 15:52:20.978303,0.3494679479371148
2023-01-28 15:52:20.983303,0.3664740025997161
2023-01-28 15:52:20.988303,0.384886100091692
2023-01-28 15:52:20.993303,0.40602070093154863
2023-01-28 15:52:20.998303,0.42812431538079077
2023-01-28 15:52:21.003303,0.4495340585708618
2023-01-28 15:52:21.008303,0.47130042545212897
2023-01-28 15:52:21.013303,0.4939369559288021
2023-01-28 15:52:21.018303,0.5146765782298934
2023-01-28 15:52:21.023303,0.5305026173591612
2023-01-28 15:52:21.028303,0.5410557246532707
2023-01-28 15:52:21.033303,0.5463212728500364
2023-01-28 15:52:21.038303,0.5444725974113455
2023-01-28 15:52:21.043303,0.5345414280891418
2023-01-28 15:52:21.048303,0.5186853221519482
2023-01-28 15:52:21.053303,0.4995143413543702
2023-01-28 15:52:21.058303,0.47747908270130246
2023-01-28 15:52:21.063303,0.4528035819530487
2023-01-28 15:52:21.068303,0.42737794218733915
2023-01-28 15:52:21.073303,0.40248674154281583
2023-01-28 15:52:21.078303,0.37690745134603515
2023-01-28 15:52:21.083303,0.34940522909164407
2023-01-28 15:52:21.088303,0.3211602885487385
2023-01-28 15:52:21.093303,0.29396772384643544
2023-01-28 15:52:21.098303,0.2682040059243965
2023-01-28 15:52:21.103303,0.2444201707839965
2023-01-28 15:52:21.108303,0.22475938120156827
2023-01-28 15:52:21.113303,0.21069130301475503
2023-01-28 15:52:21.118303,0.2010563471178449
2023-01-28 15:52:21.123303,0.19407927989959706
2023-01-28 15:52:21.128303,0.1895335836568133
2023-01-28 15:52:21.133303,0.18732389807701125
2023-01-28 15:52:21.138303,0.18592661331856744
2023-01-28 15:52:21.143303,0.18412649631500227
2023-01-28 15:52:21.148303,0.18264365624681536
2023-01-28 15:52:21.153303,0.18234750628471344
2023-01-28 15:52:21.158303,0.1824739090098704
2023-01-28 15:52:21.163303,0.1821551769971846
2023-01-28 15:52:21.168303,0.1819707720132607
2023-01-28 15:52:21.173303,0.1823234558105468
2023-01-28 15:52:21.178303,0.181941893376047
2023-01-28 15:52:21.183303,0.17970304191112518
2023-01-28 15:52:21.188303,0.17647733849328961
2023-01-28 15:52:21.193303,0.17366886138915985
2023-01-28 15:52:21.198303,0.17148165512688712
2023-01-28 15:52:21.203303,0.1700868308544157
2023-01-28 15:52:21.208303,0.170764778618376
2023-01-28 15:52:21.213303,0.1741015911102293
2023-01-28 15:52:21.218303,0.1784239178515999
2023-01-28 15:52:21.223303,0.18160223960876476
2023-01-28 15:52:21.228303,0.1831059264495049
2023-01-28 15:52:21.233303,0.18299660086631755
2023-01-28 15:52:21.238303,0.1806136674219032
2023-01-28 15:52:21.243303,0.17595271766185744
2023-01-28 15:52:21.248303,0.17086567607320455
2023-01-28 15:52:21.253303,0.16715388000011444
2023-01-28 15:52:21.258303,0.16464335473975938
2023-01-28 15:52:21.263303,0.16246597468853
2023-01-28 15:52:21.268303,0.16069035785417593
2023-01-28 15:52:21.273303,0.15914838016033156
2023-01-28 15:52:21.278303,0.15624587386496236
2023-01-28 15:52:21.283303,0.15075823664665203
2023-01-28 15:52:21.288303,0.1435922836339201
2023-01-28 15:52:21.293303,0.13628582656383523
2023-01-28 15:52:21.298303,0.12918460326116252
2023-01-28 15:52:21.303303,0.12260675430297847
2023-01-28 15:52:21.308303,0.118168614739432
2023-01-28 15:52:21.313303,0.11707743257284155
2023-01-28 15:52:21.318303,0.11840528367277087
2023-01-28 15:52:21.323303,0.12070755660533902
2023-01-28 15:52:21.328303,0.12393339794061273
2023-01-28 15:52:21.333303,0.12808799743652333
2023-01-28 15:52:21.338303,0.13163450074228175
2023-01-28 15:52:21.343303,0.13320863246917716
2023-01-28 15:52:21.348303,0.1335613263239384
2023-01-28 15:52:21.353303,0.13397793471813202
2023-01-28 15:52:21.358303,0.13426065705354867
2023-01-28 15:52:21.363303,0.13414621353149409
2023-01-28 15:52:21.368303,0.13503727346299957
2023-01-28 15:52:21.373303,0.13811290264129647
2023-01-28 15:52:21.378303,0.1421850682603347
2023-01-28 15:52:21.383303,0.14556547999382038
2023-01-28 15:52:21.388303,0.14846243330421488
2023-01-28 15:52:21.393303,0.15126308798789972
2023-01-28 15:52:21.398303,0.15218365711363724
2023-01-28 15:52:21.403303,0.1492196321487425
2023-01-28 15:52:21.408303,0.14282078169911946
2023-01-28 15:52:21.413303,0.13405005633831008
2023-01-28 15:52:21.418303,0.1220449949746833
2023-01-28 15:52:21.423303,0.1064755544066428
2023-01-28 15:52:21.428303,0.0906994540662873
2023-01-28 15:52:21.433303,0.0788770169019698
2023-01-28 15:52:21.438303,0.07144350935180295
2023-01-28 15:52:21.443303,0.06688078492879874
2023-01-28 15:52:21.448303,0.0656450106932942
2023-01-28 15:52:21.453303,0.06743371486663818
2023-01-28 15:52:21.458303,0.06653899324928743
2023-01-28 15:52:21.463303,0.056567393243312794
2023-01-28 15:52:21.468303,0.04001696062299987
2023-01-28 15:52:21.473303,0.027286013588309135
2023-01-28 15:52:21.478303,0.026058107590051272
2023-01-28 15:52:21.483303,0.038921635597944274
2023-01-28 15:52:21.488303,0.07306368579352816
2023-01-28 15:52:21.493303,0.1428969800472259
2023-01-28 15:52:21.498303,0.2549415638416516
2023-01-28 15:52:21.503303,0.39250990748405457
2023-01-28 15:52:21.508303,0.5202688705778556
2023-01-28 15:52:21.513303,0.6025280952453614
2023-01-28 15:52:21.518303,0.6159967808093046
2023-01-28 15:52:21.523303,0.5530766844749451
2023-01-28 15:52:21.528303,0.4243042478679496
2023-01-28 15:52:21.533303,0.2594695687294006
2023-01-28 15:52:21.538303,0.09872824725844338
2023-01-28 15:52:21.543303,-0.02428094670176487
2023-01-28 15:52:21.548303,-0.09393816004318965
2023-01-28 15:52:21.553303,-0.11236548423767076
2023-01-28 15:52:21.558303,-0.09345176281304438
2023-01-28 15:52:21.563303,-0.056807797402143284
2023-01-28 15:52:21.568303,-0.02088113473630572
2023-01-28 15:52:21.573303,0.0038224458694459144
2023-01-28 15:52:21.578303,0.016246808268803155
2023-01-28 15:52:21.583303,0.02026617527008047
2023-01-28 15:52:21.588303,0.020084292207165295
2023-01-28 15:52:21.593303,0.019208392128348236
2023-01-28 15:52:21.598303,0.02037834425013013
2023-01-28 15:52:21.603303,0.024401148781180645
2023-01-28 15:52:21.608303,0.03007013243878475
2023-01-28 15:52:21.613303,0.0361569747328762
2023-01-28 15:52:21.618303,0.04261675689186139
2023-01-28 15:52:21.623303,0.04954755306243892
2023-01-28 15:52:21.628303,0.05635833056325354
2023-01-28 15:52:21.633303,0.06262560933828358
2023-01-28 15:52:21.638303,0.0686419414349602
2023-01-28 15:52:21.643303,0.07450163364410392
2023-01-28 15:52:21.648303,0.0796624846625613
2023-01-28 15:52:21.653303,0.08402168750762931
2023-01-28 15:52:21.658303,0.08855676392456249
2023-01-28 15:52:21.663303,0.09435912221670142
2023-01-28 15:52:21.668303,0.10176037201903158
2023-01-28 15:52:21.673303,0.11075477302074443
2023-01-28 15:52:21.678303,0.12142825997803106
2023-01-28 15:52:21.683303,0.13354520499706263
2023-01-28 15:52:21.688303,0.14653816270591163
2023-01-28 15:52:21.693303,0.16044656932353998
2023-01-28 15:52:21.698303,0.17625425133902073
2023-01-28 15:52:21.703303,0.19484858214855216
2023-01-28 15:52:21.708303,0.21608914047109418
2023-01-28 15:52:21.713303,0.23903509974479667
2023-01-28 15:52:21.718303,0.2623467855516328
2023-01-28 15:52:21.723303,0.2841351628303526
2023-01-28 15:52:21.728303,0.30214541240743853
2023-01-28 15:52:21.733303,0.3146666288375854
2023-01-28 15:52:21.738303,0.3209972015757242
2023-01-28 15:52:21.743303,0.3209171891212462
2023-01-28 15:52:21.748303,0.3142921589675176
2023-01-28 15:52:21.753303,0.3014443516731261
2023-01-28 15:52:21.758303,0.2833293568550165
2023-01-28 15:52:21.763303,0.2609600722789764
2023-01-28 15:52:21.768303,0.23499878504579522
2023-01-28 15:52:21.773303,0.20607551932334892
2023-01-28 15:52:21.778303,0.1750395938967184
2023-01-28 15:52:21.783303,0.142704650759697
2023-01-28 15:52:21.788303,0.1098369537269494
2023-01-28 15:52:21.793303,0.07765094935893997
2023-01-28 15:52:21.798303,0.04787159336107095
2023-01-28 15:52:21.803303,0.021973054856062085
2023-01-28 15:52:21.808303,0.0005523313734145556
2023-01-28 15:52:21.813303,-0.016539892181753807
2023-01-28 15:52:21.818303,-0.029919583861486746
2023-01-28 15:52:21.823303,-0.04065255448222179
2023-01-28 15:52:21.828303,-0.04997482683669606
2023-01-28 15:52:21.833303,-0.058610837906599
2023-01-28 15:52:21.838303,-0.06648822368115342
2023-01-28 15:52:21.843303,-0.0731794089078899
2023-01-28 15:52:21.848303,-0.07834951054577055
2023-01-28 15:52:21.853303,-0.08178591728210426
2023-01-28 15:52:21.858303,-0.08347335486537245
2023-01-28 15:52:21.863303,-0.08387744426727284
2023-01-28 15:52:21.868303,-0.08386642220642773
2023-01-28 15:52:21.873303,-0.08416593074798584
2023-01-28 15:52:21.878303,-0.08506009870129443
2023-01-28 15:52:21.883303,-0.08661806583404533
2023-01-28 15:52:21.888303,-0.08887706504662435
2023-01-28 15:52:21.893303,-0.0917146652936934
2023-01-28 15:52:21.898303,-0.09483390422093119
2023-01-28 15:52:21.903303,-0.09796520322561267
2023-01-28 15:52:21.908303,-0.10083622466146518
2023-01-28 15:52:21.913303,-0.10291755199432352
2023-01-28 15:52:21.918303,-0.10352583907132899
2023-01-28 15:52:21.923303,-0.10234057903289798
2023-01-28 15:52:21.928303,-0.09970012235032476
2023-01-28 15:52:21.933303,-0.09642660617828344
2023-01-28 15:52:21.938303,-0.09356293994810728
2023-01-28 15:52:21.943303,-0.09217143058776835
2023-01-28 15:52:21.948303,-0.09297882990903186
2023-01-28 15:52:21.953303,-0.09601791948080055
2023-01-28 15:52:21.958303,-0.1006876393170217
2023-01-28 15:52:21.963303,-0.10613898932933802
2023-01-28 15:52:21.968303,-0.11154295371951775
2023-01-28 15:52:21.973303,-0.11623601615428922
2023-01-28 15:52:21.978303,-0.11998474379855785
2023-01-28 15:52:21.983303,-0.12315969169139847
2023-01-28 15:52:21.988303,-0.12648730904827438
2023-01-28 15:52:21.993303,-0.13061225414276115
2023-01-28 15:52:21.998303,-0.1358562829841048
2023-01-28 15:52:22.003303,-0.14207959175109838
2023-01-28 15:52:22.008303,-0.1485439759885266
2023-01-28 15:52:22.013303,-0.15412390232086182
2023-01-28 15:52:22.018303,-0.15791698947961838
2023-01-28 15:52:22.023303,-0.15960514545440677
2023-01-28 15:52:22.028303,-0.15926121514189134
2023-01-28 15:52:22.033303,-0.15715301036834717
2023-01-28 15:52:22.038303,-0.15378644475039363
2023-01-28 15:52:22.043303,-0.14965236186981196
2023-01-28 15:52:22.048303,-0.14471790963334344
2023-01-28 15:52:22.053303,-0.13856968283653243
2023-01-28 15:52:22.058303,-0.1311686900113447
2023-01-28 15:52:22.063303,-0.12296736240386952
2023-01-28 15:52:22.068303,-0.11432569440620897
2023-01-28 15:52:22.073303,-0.10573029518127436
2023-01-28 15:52:22.078303,-0.09878910218545392
2023-01-28 15:52:22.083303,-0.09580155462026596
2023-01-28 15:52:22.088303,-0.09763560218164771
2023-01-28 15:52:22.093303,-0.10306179523468009
2023-01-28 15:52:22.098303,-0.11100554420249104
2023-01-28 15:52:22.103303,-0.1222701892256738
2023-01-28 15:52:22.108303,-0.13769645826656968
2023-01-28 15:52:22.113303,-0.1555182635784148
2023-01-28 15:52:22.118303,-0.17218720600678616
2023-01-28 15:52:22.123303,-0.1854006499052046
2023-01-28 15:52:22.128303,-0.19484085024217931
2023-01-28 15:52:22.133303,-0.20045003294944755
2023-01-28 15:52:22.138303,-0.20205858899602017
2023-01-28 15:52:22.143303,-0.20112316310405715
2023-01-28 15:52:22.148303,-0.20117744224212944
2023-01-28 15:52:22.153303,-0.20557066798210127
2023-01-28 15:52:22.158303,-0.21501822616647032
2023-01-28 15:52:22.163303,-0.22658209502696974
2023-01-28 15:52:22.168303,-0.23290328924984313
2023-01-28 15:52:22.173303,-0.22184610366821259
2023-01-28 15:52:22.178303,-0.17935742360747065
2023-01-28 15:52:22.183303,-0.096234284341335
2023-01-28 15:52:22.188303,0.02497609060231978
2023-01-28 15:52:22.193303,0.16708175837993622
2023-01-28 15:52:22.198303,0.30049471036575964
2023-01-28 15:52:22.203303,0.39037030935287464
2023-01-28 15:52:22.208303,0.4079209967315003
2023-01-28 15:52:22.213303,0.3421930670738219
2023-01-28 15:52:22.218303,0.20582164738728342
2023-01-28 15:52:22.223303,0.03101229667663578
2023-01-28 15:52:22.228303,-0.1418027350437066
2023-01-28 15:52:22.233303,-0.2770912647247313
2023-01-28 15:52:22.238303,-0.3545564844979674
2023-01-28 15:52:22.243303,-0.37342172861099227
2023-01-28 15:52:22.248303,-0.348913531988382
2023-01-28 15:52:22.253303,-0.3030310273170469
2023-01-28 15:52:22.258303,-0.2552560449907405
2023-01-28 15:52:22.263303,-0.21761497855186446
2023-01-28 15:52:22.268303,-0.19413838078396922
2023-01-28 15:52:22.273303,-0.18275618553161604
2023-01-28 15:52:22.278303,-0.17846999761204954
2023-01-28 15:52:22.283303,-0.17667393386363967
2023-01-28 15:52:22.288303,-0.1748044488994958
2023-01-28 15:52:22.293303,-0.1718658208847043
2023-01-28 15:52:22.298303,-0.16756821267846347
2023-01-28 15:52:22.303303,-0.16229769587516768
2023-01-28 15:52:22.308303,-0.15702724159049158
2023-01-28 15:52:22.313303,-0.15244106948375685
2023-01-28 15:52:22.318303,-0.14831992187083798
2023-01-28 15:52:22.323303,-0.14397880434989904
2023-01-28 15:52:22.328303,-0.13880637209174515
2023-01-28 15:52:22.333303,-0.1321508586406705
2023-01-28 15:52:22.338303,-0.12335705573804752
2023-01-28 15:52:22.343303,-0.11241357028484325
2023-01-28 15:52:22.348303,-0.10012256982276117
2023-01-28 15:52:22.353303,-0.08721908181905742
2023-01-28 15:52:22.358303,-0.07365084488361301
2023-01-28 15:52:22.363303,-0.05889932438731179
2023-01-28 15:52:22.368303,-0.0424566083831866
2023-01-28 15:52:22.373303,-0.02372801303863509
2023-01-28 15:52:22.378303,-0.002137959614725702
2023-01-28 15:52:22.383303,0.022117298096418218
2023-01-28 15:52:22.388303,0.04775157911973782
2023-01-28 15:52:22.393303,0.07313132286071772
2023-01-28 15:52:22.398303,0.09698947596575767
2023-01-28 15:52:22.403303,0.11830350011587132
2023-01-28 15:52:22.408303,0.13617266178715323
2023-01-28 15:52:22.413303,0.15030145645141604
2023-01-28 15:52:22.418303,0.16117421693464798
2023-01-28 15:52:22.423303,0.16934156417846657
2023-01-28 15:52:22.428303,0.174832256720512
2023-01-28 15:52:22.433303,0.17741918563842757
2023-01-28 15:52:22.438303,0.17689752064627715
2023-01-28 15:52:22.443303,0.17277936637401564
2023-01-28 15:52:22.448303,0.1642746832416919
2023-01-28 15:52:22.453303,0.15104672312736508
2023-01-28 15:52:22.458303,0.13366258983854587
2023-01-28 15:52:22.463303,0.11303862184286098
2023-01-28 15:52:22.468303,0.08987469277144525
2023-01-28 15:52:22.473303,0.06488542258739471
2023-01-28 15:52:22.478303,0.03906283800412287
2023-01-28 15:52:22.483303,0.013342499732971191
2023-01-28 15:52:22.488303,-0.011560806752677498
2023-01-28 15:52:22.493303,-0.03469049930572477
2023-01-28 15:52:22.498303,-0.054736317552569476
2023-01-28 15:52:22.503303,-0.07082343101501466
2023-01-28 15:52:22.508303,-0.08311210379010861
2023-01-28 15:52:22.513303,-0.09238779544830329
2023-01-28 15:52:22.518303,-0.09947476711510637
2023-01-28 15:52:22.523303,-0.10522544384002683
2023-01-28 15:52:22.528303,-0.11042620084510506
2023-01-28 15:52:22.533303,-0.11517822742462139
2023-01-28 15:52:22.538303,-0.11868944229836134
2023-01-28 15:52:22.543303,-0.12003441900014866
2023-01-28 15:52:22.548303,-0.11886663275298212
2023-01-28 15:52:22.553303,-0.11529843509197238
2023-01-28 15:52:22.558303,-0.10968690908161399
2023-01-28 15:52:22.563303,-0.10289351642131805
2023-01-28 15:52:22.568303,-0.09620918025067234
2023-01-28 15:52:22.573303,-0.0904885977506638
2023-01-28 15:52:22.578303,-0.08556659996682833
2023-01-28 15:52:22.583303,-0.08072813600301755
2023-01-28 15:52:22.588303,-0.07537342478938784
2023-01-28 15:52:22.593303,-0.06909251213073725
2023-01-28 15:52:22.598303,-0.06174845007187631
2023-01-28 15:52:22.603303,-0.05397101491689679
2023-01-28 15:52:22.608303,-0.04715217797453127
2023-01-28 15:52:22.613303,-0.04247963428497318
2023-01-28 15:52:22.618303,-0.040153623794340274
2023-01-28 15:52:22.623303,-0.03966689109802233
2023-01-28 15:52:22.628303,-0.040361237484025946
2023-01-28 15:52:22.633303,-0.04146993160247796
2023-01-28 15:52:22.638303,-0.04220976976655888
2023-01-28 15:52:22.643303,-0.04233539104461658
2023-01-28 15:52:22.648303,-0.04230116921905948
2023-01-28 15:52:22.653303,-0.04257579892873734
2023-01-28 15:52:22.658303,-0.04314856650040733
2023-01-28 15:52:22.663303,-0.043922066688537494
2023-01-28 15:52:22.668303,-0.045074601170985176
2023-01-28 15:52:22.673303,-0.04666268825530994
2023-01-28 15:52:22.678303,-0.048281355840252234
2023-01-28 15:52:22.683303,-0.049451392143964615
2023-01-28 15:52:22.688303,-0.049920367564696144
2023-01-28 15:52:22.693303,-0.049259066581726185
2023-01-28 15:52:22.698303,-0.0466506263590349
2023-01-28 15:52:22.703303,-0.041566096246242655
2023-01-28 15:52:22.708303,-0.034392535961808905
2023-01-28 15:52:22.713303,-0.026108026504516487
2023-01-28 15:52:22.718303,-0.017665931344941214
2023-01-28 15:52:22.723303,-0.00990470312535774
2023-01-28 15:52:22.728303,-0.0035346834743469153
2023-01-28 15:52:22.733303,0.001250108121894262
