2023-01-27 16:02:30.057425,0.034089487046003286
2023-01-27 16:02:30.062425,0.041126115694829886
2023-01-27 16:02:30.067425,0.028391879051923676
2023-01-27 16:02:30.072425,0.01657214223782445
2023-01-27 16:02:30.077425,0.011851986870169617
2023-01-27 16:02:30.082425,0.004303803543736402
2023-01-27 16:02:30.087425,-0.00997682474553583
2023-01-27 16:02:30.092425,-0.023007941445042486
2023-01-27 16:02:30.097425,-0.030603608116507502
2023-01-27 16:02:30.102425,-0.038653631114815616
2023-01-27 16:02:30.107425,-0.050797663629054975
2023-01-27 16:02:30.112425,-0.06103868822375629
2023-01-27 16:02:30.117425,-0.06149570271372788
2023-01-27 16:02:30.122425,-0.04793959526727885
2023-01-27 16:02:30.127425,-0.01495321653783319
2023-01-27 16:02:30.132425,0.04448070670735503
2023-01-27 16:02:30.137425,0.12856881320476526
2023-01-27 16:02:30.142425,0.22093149971707157
2023-01-27 16:02:30.147425,0.29877585172653187
2023-01-27 16:02:30.152425,0.3433681190157524
2023-01-27 16:02:30.157425,0.343082547187805
2023-01-27 16:02:30.162425,0.29528446302384626
2023-01-27 16:02:30.167425,0.2109557390213012
2023-01-27 16:02:30.172425,0.11303967996095514
2023-01-27 16:02:30.177425,0.02476175688207137
2023-01-27 16:02:30.182425,-0.04049215963085336
2023-01-27 16:02:30.187425,-0.0790933817625045
2023-01-27 16:02:30.192425,-0.09330866323155246
2023-01-27 16:02:30.197425,-0.09044051170349122
2023-01-27 16:02:30.202425,-0.0808680407035609
2023-01-27 16:02:30.207425,-0.07204949855804442
2023-01-27 16:02:30.212425,-0.0653123705463437
2023-01-27 16:02:30.217425,-0.05957245826721189
2023-01-27 16:02:30.222425,-0.05516056471164418
2023-01-27 16:02:30.227425,-0.05236029624938956
2023-01-27 16:02:30.232425,-0.04961419865813324
2023-01-27 16:02:30.237425,-0.045821271836757584
2023-01-27 16:02:30.242425,-0.04217620861802238
2023-01-27 16:02:30.247425,-0.03981113433837885
2023-01-27 16:02:30.252425,-0.03786106399132004
2023-01-27 16:02:30.257425,-0.03555595874786372
2023-01-27 16:02:30.262425,-0.03389973094124799
2023-01-27 16:02:30.267425,-0.03353655338287349
2023-01-27 16:02:30.272425,-0.033136120559434726
2023-01-27 16:02:30.277425,-0.03156523033976551
2023-01-27 16:02:30.282425,-0.02959856370033523
2023-01-27 16:02:30.287425,-0.027935108169913164
2023-01-27 16:02:30.292425,-0.025598466384871375
2023-01-27 16:02:30.297425,-0.021876892074942485
2023-01-27 16:02:30.302425,-0.017858161161881755
2023-01-27 16:02:30.307425,-0.014448365196585607
2023-01-27 16:02:30.312425,-0.010691676858514874
2023-01-27 16:02:30.317425,-0.005529324524104475
2023-01-27 16:02:30.322425,0.000564852835925888
2023-01-27 16:02:30.327425,0.00711600016802538
2023-01-27 16:02:30.332425,0.015003861036971003
2023-01-27 16:02:30.337425,0.024785798043012595
2023-01-27 16:02:30.342425,0.03527980696452509
2023-01-27 16:02:30.347425,0.04522025585174561
2023-01-27 16:02:30.352425,0.05479847484464654
2023-01-27 16:02:30.357425,0.0642844066023826
2023-01-27 16:02:30.362425,0.07270928302450205
2023-01-27 16:02:30.367425,0.07926166057586659
2023-01-27 16:02:30.372425,0.0845058801593776
2023-01-27 16:02:30.377425,0.08890192210674278
2023-01-27 16:02:30.382425,0.09152029681910684
2023-01-27 16:02:30.387425,0.09147425740957255
2023-01-27 16:02:30.392425,0.08925765011290249
2023-01-27 16:02:30.397425,0.08546411991119376
2023-01-27 16:02:30.402425,0.07955054500930965
2023-01-27 16:02:30.407425,0.07108788192272182
2023-01-27 16:02:30.412425,0.06094260035898089
2023-01-27 16:02:30.417425,0.05005240440368648
2023-01-27 16:02:30.422425,0.0383081090427965
2023-01-27 16:02:30.427425,0.0257955007255077
2023-01-27 16:02:30.432425,0.013879740829877394
2023-01-27 16:02:30.437425,0.0038705270271748612
2023-01-27 16:02:30.442425,-0.004267475465670358
2023-01-27 16:02:30.447425,-0.010866324417292975
2023-01-27 16:02:30.452425,-0.015473394766835
2023-01-27 16:02:30.457425,-0.017910202965140266
2023-01-27 16:02:30.462425,-0.01920419457932479
2023-01-27 16:02:30.467425,-0.020314257591962766
2023-01-27 16:02:30.472425,-0.020970572262223094
2023-01-27 16:02:30.477425,-0.020771026611328097
2023-01-27 16:02:30.482425,-0.02029980479216119
2023-01-27 16:02:30.487425,-0.02012193202972407
2023-01-27 16:02:30.492425,-0.019768621656485477
2023-01-27 16:02:30.497425,-0.018775662407278987
2023-01-27 16:02:30.502425,-0.017698230404954683
2023-01-27 16:02:30.507425,-0.01709282398223869
2023-01-27 16:02:30.512425,-0.016520548173943182
2023-01-27 16:02:30.517425,-0.015554229728877506
2023-01-27 16:02:30.522425,-0.014766516203956503
2023-01-27 16:02:30.527425,-0.01473685167729847
2023-01-27 16:02:30.532425,-0.015059704344731794
2023-01-27 16:02:30.537425,-0.015289783477783203
2023-01-27 16:02:30.542425,-0.015882984655839018
2023-01-27 16:02:30.547425,-0.017237067222595156
2023-01-27 16:02:30.552425,-0.01875560089090575
2023-01-27 16:02:30.557425,-0.019809406250715176
2023-01-27 16:02:30.562425,-0.020691853153077342
2023-01-27 16:02:30.567425,-0.021708607673645013
2023-01-27 16:02:30.572425,-0.022278378305986203
2023-01-27 16:02:30.577425,-0.02187689207494249
2023-01-27 16:02:30.582425,-0.02094901251218608
2023-01-27 16:02:30.587425,-0.01995364949107171
2023-01-27 16:02:30.592425,-0.018402073526221707
2023-01-27 16:02:30.597425,-0.015746554359793604
2023-01-27 16:02:30.602425,-0.012318094353979616
2023-01-27 16:02:30.607425,-0.0084863109514117
2023-01-27 16:02:30.612425,-0.0038153676097962864
2023-01-27 16:02:30.617425,0.001995364902541053
2023-01-27 16:02:30.622425,0.008180527214567917
2023-01-27 16:02:30.627425,0.013799270614981625
2023-01-27 16:02:30.632425,0.01867317438590931
2023-01-27 16:02:30.637425,0.022550027817487755
2023-01-27 16:02:30.642425,0.024250016753872793
2023-01-27 16:02:30.647425,0.02264618873596196
2023-01-27 16:02:30.652425,0.01777685181669619
2023-01-27 16:02:30.657425,0.010217229835689035
2023-01-27 16:02:30.662425,0.00026842899517407897
2023-01-27 16:02:30.667425,-0.01137117575854059
2023-01-27 16:02:30.672425,-0.023156509963799577
2023-01-27 16:02:30.677425,-0.034065447747707325
2023-01-27 16:02:30.682425,-0.04468160308250454
2023-01-27 16:02:30.687425,-0.05575001239776613
2023-01-27 16:02:30.692425,-0.06585083629577965
2023-01-27 16:02:30.697425,-0.07070323079824439
2023-01-27 16:02:30.702425,-0.06367753411340316
2023-01-27 16:02:30.707425,-0.036733947694301626
2023-01-27 16:02:30.712425,0.01658493210763938
2023-01-27 16:02:30.717425,0.09575347602367397
2023-01-27 16:02:30.722425,0.18955487056621215
2023-01-27 16:02:30.727425,0.27807694673538197
2023-01-27 16:02:30.732425,0.33921387997553404
2023-01-27 16:02:30.737425,0.3558721244335173
2023-01-27 16:02:30.742425,0.3219401515666198
2023-01-27 16:02:30.747425,0.24555008113384236
2023-01-27 16:02:30.752425,0.14674321116466515
2023-01-27 16:02:30.757425,0.049210987985134055
2023-01-27 16:02:30.762425,-0.028726002961362913
2023-01-27 16:02:30.767425,-0.07844428718090049
2023-01-27 16:02:30.772425,-0.10058351638023456
2023-01-27 16:02:30.777425,-0.10253290832042686
2023-01-27 16:02:30.782425,-0.09452616266926502
2023-01-27 16:02:30.787425,-0.08481502532958979
2023-01-27 16:02:30.792425,-0.07697083845238968
2023-01-27 16:02:30.797425,-0.07125616073608386
2023-01-27 16:02:30.802425,-0.06724374628522281
2023-01-27 16:02:30.807425,-0.06435652822256077
2023-01-27 16:02:30.812425,-0.06148274772058719
2023-01-27 16:02:30.817425,-0.057961743324994985
2023-01-27 16:02:30.822425,-0.05449724557353413
2023-01-27 16:02:30.827425,-0.05192756652832026
2023-01-27 16:02:30.832425,-0.04982310398015203
2023-01-27 16:02:30.837425,-0.04745602607727049
2023-01-27 16:02:30.842425,-0.0452173563543523
2023-01-27 16:02:30.847425,-0.04368166252970688
2023-01-27 16:02:30.852425,-0.04219057172638235
2023-01-27 16:02:30.857425,-0.03993133828043926
2023-01-27 16:02:30.862425,-0.037541660894889486
2023-01-27 16:02:30.867425,-0.03589252755045888
2023-01-27 16:02:30.872425,-0.03409237386787297
2023-01-27 16:02:30.877425,-0.030699770897626714
2023-01-27 16:02:30.882425,-0.026276400222226177
2023-01-27 16:02:30.887425,-0.022477906197309376
2023-01-27 16:02:30.892425,-0.018930036200194608
2023-01-27 16:02:30.897425,-0.01343866251409045
2023-01-27 16:02:30.902425,-0.00543166453520538
2023-01-27 16:02:30.907425,0.003197391983121631
2023-01-27 16:02:30.912425,0.011158507776549859
2023-01-27 16:02:30.917425,0.019352635368704706
2023-01-27 16:02:30.922425,0.02851940286079326
2023-01-27 16:02:30.927425,0.03747920319437978
2023-01-27 16:02:30.932425,0.04509338153380742
2023-01-27 16:02:30.937425,0.052264135330915375
2023-01-27 16:02:30.942425,0.060363414760124155
2023-01-27 16:02:30.947425,0.06882806867361055
2023-01-27 16:02:30.952425,0.07587362621813859
2023-01-27 16:02:30.957425,0.08080025762319556
2023-01-27 16:02:30.962425,0.08411797064444465
2023-01-27 16:02:30.967425,0.08589684963226309
2023-01-27 16:02:30.972425,0.08541154049503659
2023-01-27 16:02:30.977425,0.08229076862335197
2023-01-27 16:02:30.982425,0.07689336133637142
2023-01-27 16:02:30.987425,0.06952524185180656
2023-01-27 16:02:30.992425,0.06017555094427464
2023-01-27 16:02:30.997425,0.04913886636495585
2023-01-27 16:02:31.002425,0.03723836299093169
2023-01-27 16:02:31.007425,0.025314688682556093
2023-01-27 16:02:31.012425,0.013950651066964624
2023-01-27 16:02:31.017425,0.003702243324369097
2023-01-27 16:02:31.022425,-0.0048774869605852965
2023-01-27 16:02:31.027425,-0.011563500389456678
2023-01-27 16:02:31.032425,-0.016528305152933517
2023-01-27 16:02:31.037425,-0.020049810409545767
2023-01-27 16:02:31.042425,-0.022350996721056872
2023-01-27 16:02:31.047425,-0.023679932579398103
2023-01-27 16:02:31.052425,-0.024307804585054483
2023-01-27 16:02:31.057425,-0.0244251899421215
2023-01-27 16:02:31.062425,-0.024167159238772683
2023-01-27 16:02:31.067425,-0.023703973740339206
2023-01-27 16:02:31.072425,-0.0232009159333353
2023-01-27 16:02:31.077425,-0.022742351517081198
2023-01-27 16:02:31.082425,-0.02237332030087387
2023-01-27 16:02:31.087425,-0.02214133739471425
2023-01-27 16:02:31.092425,-0.02203278213079295
2023-01-27 16:02:31.097425,-0.02194901369512083
2023-01-27 16:02:31.102425,-0.021794254264675694
2023-01-27 16:02:31.107425,-0.02151628397405137
2023-01-27 16:02:31.112425,-0.021067920320874945
2023-01-27 16:02:31.117425,-0.020458500832319187
2023-01-27 16:02:31.122425,-0.01986195645417395
2023-01-27 16:02:31.127425,-0.019544959068298357
2023-01-27 16:02:31.132425,-0.01965019480834485
2023-01-27 16:02:31.137425,-0.020121932029724083
2023-01-27 16:02:31.142425,-0.020798465607671648
2023-01-27 16:02:31.147425,-0.021444162353873177
2023-01-27 16:02:31.152425,-0.021729738902947028
2023-01-27 16:02:31.157425,-0.021347999572753885
2023-01-27 16:02:31.162425,-0.020160792544231743
2023-01-27 16:02:31.167425,-0.018126567825675004
2023-01-27 16:02:31.172425,-0.015131337048087544
2023-01-27 16:02:31.177425,-0.011034607887268023
2023-01-27 16:02:31.182425,-0.005853121719476206
2023-01-27 16:02:31.187425,0.0002163648605346206
2023-01-27 16:02:31.192425,0.006878598998787732
2023-01-27 16:02:31.197425,0.013679067604243698
2023-01-27 16:02:31.202425,0.01991010449704554
2023-01-27 16:02:31.207425,0.024737715721130284
2023-01-27 16:02:31.212425,0.027407397676352616
2023-01-27 16:02:31.217425,0.027261972427368088
2023-01-27 16:02:31.222425,0.023748177644725324
2023-01-27 16:02:31.227425,0.0167081765830516
2023-01-27 16:02:31.232425,0.00671818425396417
2023-01-27 16:02:31.237425,-0.005000432487577093
2023-01-27 16:02:31.242425,-0.017080468821140483
2023-01-27 16:02:31.247425,-0.028536122292279992
2023-01-27 16:02:31.252425,-0.03910725329652897
2023-01-27 16:02:31.257425,-0.04921098798513408
2023-01-27 16:02:31.262425,-0.05903032150247338
2023-01-27 16:02:31.267425,-0.06673654168844217
2023-01-27 16:02:31.272425,-0.06705991058694288
2023-01-27 16:02:31.277425,-0.051855444908141986
2023-01-27 16:02:31.282425,-0.013177140218557913
2023-01-27 16:02:31.287425,0.05221605300903318
2023-01-27 16:02:31.292425,0.1389119157661397
2023-01-27 16:02:31.297425,0.23167869448661796
2023-01-27 16:02:31.302425,0.30871285089906475
2023-01-27 16:02:31.307425,0.34890037775039656
2023-01-27 16:02:31.312425,0.33999726323111934
2023-01-27 16:02:31.317425,0.28360626101493824
2023-01-27 16:02:31.322425,0.19454707886778486
2023-01-27 16:02:31.327425,0.09515246003866185
2023-01-27 16:02:31.332425,0.007178661686656492
2023-01-27 16:02:31.337425,-0.055197082459926605
2023-01-27 16:02:31.342425,-0.08842052905279339
2023-01-27 16:02:31.347425,-0.09784500300884238
2023-01-27 16:02:31.352425,-0.09304231303693518
2023-01-27 16:02:31.357425,-0.0830841064453125
2023-01-27 16:02:31.362425,-0.07378033605177199
2023-01-27 16:02:31.367425,-0.0671933144330978
2023-01-27 16:02:31.372425,-0.06277223318666099
2023-01-27 16:02:31.377425,-0.05911568924784662
2023-01-27 16:02:31.382425,-0.055308345066111674
2023-01-27 16:02:31.387425,-0.05125443264842028
2023-01-27 16:02:31.392425,-0.04731518876114522
2023-01-27 16:02:31.397425,-0.043922066688537494
2023-01-27 16:02:31.402425,-0.04138927827659639
2023-01-27 16:02:31.407425,-0.039763055741786874
2023-01-27 16:02:31.412425,-0.03873414392557269
2023-01-27 16:02:31.417425,-0.037791728973388616
2023-01-27 16:02:31.422425,-0.03650240996006445
2023-01-27 16:02:31.427425,-0.03461837768554683
2023-01-27 16:02:31.432425,-0.032014604728911954
2023-01-27 16:02:31.437425,-0.02868036553263657
2023-01-27 16:02:31.442425,-0.02477311858717124
2023-01-27 16:02:31.447425,-0.020554661750793415
2023-01-27 16:02:31.452425,-0.016222952629784123
2023-01-27 16:02:31.457425,-0.011827945709228472
2023-01-27 16:02:31.462425,-0.007298924450413802
2023-01-27 16:02:31.467425,-0.0024521350860594706
2023-01-27 16:02:31.472425,0.0030262774230654845
2023-01-27 16:02:31.477425,0.009496013633906822
2023-01-27 16:02:31.482425,0.017172734841465812
2023-01-27 16:02:31.487425,0.025987824425101204
2023-01-27 16:02:31.492425,0.03560061646070997
2023-01-27 16:02:31.497425,0.04550874233245844
2023-01-27 16:02:31.502425,0.05515602358779133
2023-01-27 16:02:31.507425,0.064019963145256
2023-01-27 16:02:31.512425,0.07172565587115948
2023-01-27 16:02:31.517425,0.07815580070018763
2023-01-27 16:02:31.522425,0.08340740539603177
2023-01-27 16:02:31.527425,0.08755564689636228
2023-01-27 16:02:31.532425,0.09047418870120713
2023-01-27 16:02:31.537425,0.09193103015422818
2023-01-27 16:02:31.542425,0.09174489649999089
2023-01-27 16:02:31.547425,0.08969525992870327
2023-01-27 16:02:31.552425,0.08542534039151563
2023-01-27 16:02:31.557425,0.07875680923461909
2023-01-27 16:02:31.562425,0.07007308075068647
2023-01-27 16:02:31.567425,0.06005327031016335
2023-01-27 16:02:31.572425,0.04907751830498093
2023-01-27 16:02:31.577425,0.03740708157420151
2023-01-27 16:02:31.582425,0.025994050087919655
2023-01-27 16:02:31.587425,0.016347568482160454
2023-01-27 16:02:31.592425,0.009131127923090171
2023-01-27 16:02:31.597425,0.003485878463834458
2023-01-27 16:02:31.602425,-0.001643281439537181
2023-01-27 16:02:31.607425,-0.006010135170072279
2023-01-27 16:02:31.612425,-0.008644843243110868
2023-01-27 16:02:31.617425,-0.009520053863525299
2023-01-27 16:02:31.622425,-0.009677476983096227
2023-01-27 16:02:31.627425,-0.009808540344238186
2023-01-27 16:02:31.632425,-0.009670882021719753
2023-01-27 16:02:31.637425,-0.009015202522277756
2023-01-27 16:02:31.642425,-0.008171756392122687
2023-01-27 16:02:31.647425,-0.007404486648738308
2023-01-27 16:02:31.652425,-0.006450886821126308
2023-01-27 16:02:31.657425,-0.00512063503265377
2023-01-27 16:02:31.662425,-0.00375928803238817
2023-01-27 16:02:31.667425,-0.00271658110432319
2023-01-27 16:02:31.672425,-0.0018556624955606887
2023-01-27 16:02:31.677425,-0.0009616216411813478
2023-01-27 16:02:31.682425,-0.00016429284339919073
2023-01-27 16:02:31.687425,0.00043272972106928384
2023-01-27 16:02:31.692425,0.0011150475771262145
2023-01-27 16:02:31.697425,0.0021396081428974177
2023-01-27 16:02:31.702425,0.003299880139474484
2023-01-27 16:02:31.707425,0.004279216285794879
2023-01-27 16:02:31.712425,0.005135436630792564
2023-01-27 16:02:31.717425,0.006130337715148907
2023-01-27 16:02:31.722425,0.007440203330691171
2023-01-27 16:02:31.727425,0.009399851784109936
2023-01-27 16:02:31.732425,0.012687363940079724
2023-01-27 16:02:31.737425,0.017790000885724994
2023-01-27 16:02:31.742425,0.024390051898407525
2023-01-27 16:02:31.747425,0.031493108719587284
2023-01-27 16:02:31.752425,0.03790223424223799
2023-01-27 16:02:31.757425,0.042359434068202875
2023-01-27 16:02:31.762425,0.04367152959155821
2023-01-27 16:02:31.767425,0.04125356674194333
2023-01-27 16:02:31.772425,0.03550769327004647
2023-01-27 16:02:31.777425,0.027430256828665695
2023-01-27 16:02:31.782425,0.018005693650650467
2023-01-27 16:02:31.787425,0.008125702850520649
2023-01-27 16:02:31.792425,-0.0013296409134156732
2023-01-27 16:02:31.797425,-0.00985662173479787
2023-01-27 16:02:31.802425,-0.017722134861086418
2023-01-27 16:02:31.807425,-0.025675296783447203
2023-01-27 16:02:31.812425,-0.0341544710956497
2023-01-27 16:02:31.817425,-0.04247963428497312
2023-01-27 16:02:31.822425,-0.04797910223822519
2023-01-27 16:02:31.827425,-0.0452923774719238
2023-01-27 16:02:31.832425,-0.02712145925414564
2023-01-27 16:02:31.837425,0.01271744631230833
2023-01-27 16:02:31.842425,0.07515663193256504
2023-01-27 16:02:31.847425,0.15309016406536097
2023-01-27 16:02:31.852425,0.23161094806002636
2023-01-27 16:02:31.857425,0.29163581132888783
2023-01-27 16:02:31.862425,0.316203035074946
2023-01-27 16:02:31.867425,0.29718917608261086
2023-01-27 16:02:31.872425,0.2389648116791328
2023-01-27 16:02:31.877425,0.15672028064727778
2023-01-27 16:02:31.882425,0.07048183037432806
2023-01-27 16:02:31.887425,-0.0019232432823627903
2023-01-27 16:02:31.892425,-0.05003361103415004
2023-01-27 16:02:31.897425,-0.07253031432628626
2023-01-27 16:02:31.902425,-0.07534571997122784
2023-01-27 16:02:31.907425,-0.06736159324645988
2023-01-27 16:02:31.912425,-0.05628278073096028
2023-01-27 16:02:31.917425,-0.04671077057719228
2023-01-27 16:02:31.922425,-0.04030866405338348
2023-01-27 16:02:31.927425,-0.03675798699259752
2023-01-27 16:02:31.932425,-0.03479456077232126
2023-01-27 16:02:31.937425,-0.03319998830556861
2023-01-27 16:02:31.942425,-0.03135717756490399
2023-01-27 16:02:31.947425,-0.02908905409276484
2023-01-27 16:02:31.952425,-0.02630961562092663
2023-01-27 16:02:31.957425,-0.02307891845703126
2023-01-27 16:02:31.962425,-0.019751951082028686
2023-01-27 16:02:31.967425,-0.0167081765830516
2023-01-27 16:02:31.972425,-0.01399787285262272
2023-01-27 16:02:31.977425,-0.011467337608337383
2023-01-27 16:02:31.982425,-0.009078315022166005
2023-01-27 16:02:31.987425,-0.0068515539169310856
2023-01-27 16:02:31.992425,-0.00464765273607118
2023-01-27 16:02:31.997425,-0.002283851383253906
2023-01-27 16:02:32.002425,0.00024710998932541155
2023-01-27 16:02:32.007425,0.002932945964857884
2023-01-27 16:02:32.012425,0.006005714251486876
2023-01-27 16:02:32.017425,0.009808540344238215
2023-01-27 16:02:32.022425,0.014516334444481145
2023-01-27 16:02:32.027425,0.020218094810843402
2023-01-27 16:02:32.032425,0.027119921013746693
2023-01-27 16:02:32.037425,0.03536363691091528
2023-01-27 16:02:32.042425,0.04470865622473957
2023-01-27 16:02:32.047425,0.054620109498500775
2023-01-27 16:02:32.052425,0.06457427678863405
2023-01-27 16:02:32.057425,0.07406890392303458
2023-01-27 16:02:32.062425,0.0825033411139127
2023-01-27 16:02:32.067425,0.08938273042440403
2023-01-27 16:02:32.072425,0.09461418525462731
2023-01-27 16:02:32.077425,0.09837388992309568
2023-01-27 16:02:32.082425,0.1007367409321528
2023-01-27 16:02:32.087425,0.1016193628311157
2023-01-27 16:02:32.092425,0.10094545002293648
2023-01-27 16:02:32.097425,0.09859025478363029
2023-01-27 16:02:32.102425,0.09424776462958735
2023-01-27 16:02:32.107425,0.08765181154012684
2023-01-27 16:02:32.112425,0.07894497867655112
2023-01-27 16:02:32.117425,0.06865978240966787
2023-01-27 16:02:32.122425,0.0574106990400417
2023-01-27 16:02:32.127425,0.04579722881317127
2023-01-27 16:02:32.132425,0.03448986915772587
2023-01-27 16:02:32.137425,0.02411266230046739
2023-01-27 16:02:32.142425,0.01501963034782374
2023-01-27 16:02:32.147425,0.007356405258178659
2023-01-27 16:02:32.152425,0.001285004227497088
2023-01-27 16:02:32.157425,-0.0030531487427650932
2023-01-27 16:02:32.162425,-0.005748511723413439
2023-01-27 16:02:32.167425,-0.007091959472745553
2023-01-27 16:02:32.172425,-0.007353776799505567
2023-01-27 16:02:32.177425,-0.006755392067134281
2023-01-27 16:02:32.182425,-0.005594245804398563
2023-01-27 16:02:32.187425,-0.004183053970336857
2023-01-27 16:02:32.192425,-0.0026662279016445418
2023-01-27 16:02:32.197425,-0.001057783840224109
2023-01-27 16:02:32.202425,0.0005452161818902633
2023-01-27 16:02:32.207425,0.001923243282362828
2023-01-27 16:02:32.212425,0.002901337948390875
2023-01-27 16:02:32.217425,0.0034618377685546402
2023-01-27 16:02:32.222425,0.003731832650574823
2023-01-27 16:02:32.227425,0.0039426488801836065
2023-01-27 16:02:32.232425,0.004336634402675213
2023-01-27 16:02:32.237425,0.005024473182857015
2023-01-27 16:02:32.242425,0.00598041213356742
2023-01-27 16:02:32.247425,0.007188121788203696
2023-01-27 16:02:32.252425,0.008646969361696503
2023-01-27 16:02:32.257425,0.010217229835688965
2023-01-27 16:02:32.262425,0.011724944398607723
2023-01-27 16:02:32.267425,0.013390581123530807
2023-01-27 16:02:32.272425,0.015948041182296535
2023-01-27 16:02:32.277425,0.020097892731428146
2023-01-27 16:02:32.282425,0.025885734062817158
2023-01-27 16:02:32.287425,0.03264705464243878
2023-01-27 16:02:32.292425,0.03929829534304332
2023-01-27 16:02:32.297425,0.04452308267354958
2023-01-27 16:02:32.302425,0.04702225799713368
2023-01-27 16:02:32.307425,0.046061675995588275
2023-01-27 16:02:32.312425,0.041853195091210445
2023-01-27 16:02:32.317425,0.03526747226715078
2023-01-27 16:02:32.322425,0.02725176608600056
2023-01-27 16:02:32.327425,0.01860737800598135
2023-01-27 16:02:32.332425,0.010032383873840823
2023-01-27 16:02:32.337425,0.0019713244400917725
2023-01-27 16:02:32.342425,-0.005610500794821595
2023-01-27 16:02:32.347425,-0.013126134872436471
2023-01-27 16:02:32.352425,-0.021035804615127027
2023-01-27 16:02:32.357425,-0.029521783813834086
2023-01-27 16:02:32.362425,-0.037875237683025635
2023-01-27 16:02:32.367425,-0.04341721534729001
2023-01-27 16:02:32.372425,-0.040855109400377024
2023-01-27 16:02:32.377425,-0.023367404937744102
2023-01-27 16:02:32.382425,0.014461584702024645
2023-01-27 16:02:32.387425,0.07313132286071773
2023-01-27 16:02:32.392425,0.14579860417389756
2023-01-27 16:02:32.397425,0.21836023032665244
2023-01-27 16:02:32.402425,0.27291669719973816
2023-01-27 16:02:32.407425,0.2939677238464354
2023-01-27 16:02:32.412425,0.2746137426882058
2023-01-27 16:02:32.417425,0.21946609020233146
2023-01-27 16:02:32.422425,0.14282356513457023
2023-01-27 16:02:32.427425,0.06325066089630119
2023-01-27 16:02:32.432425,-0.002918816983260413
2023-01-27 16:02:32.437425,-0.04651844501495354
2023-01-27 16:02:32.442425,-0.06700539110239136
2023-01-27 16:02:32.447425,-0.07019837945699686
2023-01-27 16:02:32.452425,-0.06412448361992205
2023-01-27 16:02:32.457425,-0.055509608238935346
2023-01-27 16:02:32.462425,-0.04821133878498389
2023-01-27 16:02:32.467425,-0.04332105442881577
2023-01-27 16:02:32.472425,-0.04017929049608609
2023-01-27 16:02:32.477425,-0.037671528756618416
2023-01-27 16:02:32.482425,-0.035142305647573466
2023-01-27 16:02:32.487425,-0.032502811402082395
2023-01-27 16:02:32.492425,-0.029855098682747105
2023-01-27 16:02:32.497425,-0.027286013588309222
2023-01-27 16:02:32.502425,-0.024922596100817505
2023-01-27 16:02:32.507425,-0.02288659475743776
2023-01-27 16:02:32.512425,-0.021134223154994657
2023-01-27 16:02:32.517425,-0.019496878609061206
2023-01-27 16:02:32.522425,-0.01787733159382631
2023-01-27 16:02:32.527425,-0.0162514057010412
2023-01-27 16:02:32.532425,-0.01450177014183346
2023-01-27 16:02:32.537425,-0.012428959831595407
2023-01-27 16:02:32.542425,-0.009924451946550774
2023-01-27 16:02:32.547425,-0.006971756927668954
2023-01-27 16:02:32.552425,-0.0034870442224095416
2023-01-27 16:02:32.557425,0.0006731351604684808
2023-01-27 16:02:32.562425,0.005545108969183607
2023-01-27 16:02:32.567425,0.011058649048209109
2023-01-27 16:02:32.572425,0.01720731030871066
2023-01-27 16:02:32.577425,0.024064581841230306
2023-01-27 16:02:32.582425,0.031620688318160305
2023-01-27 16:02:32.587425,0.039739012718200614
2023-01-27 16:02:32.592425,0.04826236618178009
2023-01-27 16:02:32.597425,0.057000122964382116
2023-01-27 16:02:32.602425,0.06559302499507386
2023-01-27 16:02:32.607425,0.07354001700878145
2023-01-27 16:02:32.612425,0.08039928034931001
2023-01-27 16:02:32.617425,0.08587281405925742
2023-01-27 16:02:32.622425,0.0897295211835852
2023-01-27 16:02:32.627425,0.09181082248687736
2023-01-27 16:02:32.632425,0.0921285411643621
2023-01-27 16:02:32.637425,0.09080111980438228
2023-01-27 16:02:32.642425,0.08784371654977947
2023-01-27 16:02:32.647425,0.08313219249248499
2023-01-27 16:02:32.652425,0.07660064982969365
2023-01-27 16:02:32.657425,0.068371295928955
2023-01-27 16:02:32.662425,0.058694394855774795
2023-01-27 16:02:32.667425,0.0479127988219261
2023-01-27 16:02:32.672425,0.036532495655928865
2023-01-27 16:02:32.677425,0.02519448660314078
2023-01-27 16:02:32.682425,0.014493311216187884
2023-01-27 16:02:32.687425,0.0048802299425004456
2023-01-27 16:02:32.692425,-0.0032573472986265413
2023-01-27 16:02:32.697425,-0.009568135254084965
2023-01-27 16:02:32.702425,-0.013882567134655814
2023-01-27 16:02:32.707425,-0.016323527321219326
2023-01-27 16:02:32.712425,-0.017220678552487007
2023-01-27 16:02:32.717425,-0.01697262190282345
2023-01-27 16:02:32.722425,-0.016005891400147874
2023-01-27 16:02:32.727425,-0.014736851677298464
2023-01-27 16:02:32.732425,-0.013453246360298887
2023-01-27 16:02:32.737425,-0.012260675430297775
2023-01-27 16:02:32.742425,-0.011203319112218859
2023-01-27 16:02:32.747425,-0.010385513305663991
2023-01-27 16:02:32.752425,-0.009901712385439404
2023-01-27 16:02:32.757425,-0.009688338264822845
2023-01-27 16:02:32.762425,-0.009525219102371427
2023-01-27 16:02:32.767425,-0.009159445762634144
2023-01-27 16:02:32.772425,-0.00836508851417373
2023-01-27 16:02:32.777425,-0.00694771623238916
2023-01-27 16:02:32.782425,-0.0048431918946884945
2023-01-27 16:02:32.787425,-0.002235770225524893
2023-01-27 16:02:32.792425,0.0005562400147887795
2023-01-27 16:02:32.797425,0.00338971614837637
2023-01-27 16:02:32.802425,0.006425781811685676
2023-01-27 16:02:32.807425,0.009928743354976089
2023-01-27 16:02:32.812425,0.014044337845065811
2023-01-27 16:02:32.817425,0.018775662407279004
2023-01-27 16:02:32.822425,0.023925589993880645
2023-01-27 16:02:32.827425,0.028872689232230082
2023-01-27 16:02:32.832425,0.03258189938276194
2023-01-27 16:02:32.837425,0.03411352634429931
2023-01-27 16:02:32.842425,0.03309043395833119
2023-01-27 16:02:32.847425,0.029545824974775262
2023-01-27 16:02:32.852425,0.023577135630458455
2023-01-27 16:02:32.857425,0.01553018949925888
2023-01-27 16:02:32.862425,0.006326156267043752
2023-01-27 16:02:32.867425,-0.002981027122586904
2023-01-27 16:02:32.872425,-0.01201609699656466
2023-01-27 16:02:32.877425,-0.020939311012625555
2023-01-27 16:02:32.882425,-0.02951294658488689
2023-01-27 16:02:32.887425,-0.03709455579519265
2023-01-27 16:02:32.892425,-0.04376402193610519
2023-01-27 16:02:32.897425,-0.05029281228780739
2023-01-27 16:02:32.902425,-0.05573344919986366
2023-01-27 16:02:32.907425,-0.05514900013804424
2023-01-27 16:02:32.912425,-0.0407292948757766
2023-01-27 16:02:32.917425,-0.005889932624995765
2023-01-27 16:02:32.922425,0.050822824506290463
2023-01-27 16:02:32.927425,0.1238328218460082
2023-01-27 16:02:32.932425,0.20043565049295842
2023-01-27 16:02:32.937425,0.26293140649795527
2023-01-27 16:02:32.942425,0.29400737263076454
2023-01-27 16:02:32.947425,0.283822625875473
2023-01-27 16:02:32.952425,0.2344699345073537
2023-01-27 16:02:32.957425,0.158932015299797
2023-01-27 16:02:32.962425,0.07576307612304907
2023-01-27 16:02:32.967425,0.0026684999465941294
2023-01-27 16:02:32.972425,-0.048732011686769515
2023-01-27 16:02:32.977425,-0.07551133632659905
2023-01-27 16:02:32.982425,-0.08235527259448015
2023-01-27 16:02:32.987425,-0.0774826630949974
2023-01-27 16:02:32.992425,-0.06837563069772806
2023-01-27 16:02:32.997425,-0.05971670150756824
2023-01-27 16:02:33.002425,-0.05342552441362748
2023-01-27 16:02:33.007425,-0.04945139214396468
2023-01-27 16:02:33.012425,-0.04676204345279349
2023-01-27 16:02:33.017425,-0.04442691802978506
2023-01-27 16:02:33.022425,-0.042166934737977
2023-01-27 16:02:33.027425,-0.04000345990061744
2023-01-27 16:02:33.032425,-0.03777819481729863
2023-01-27 16:02:33.037425,-0.0353155545890331
2023-01-27 16:02:33.042425,-0.03276948360776643
2023-01-27 16:02:33.047425,-0.030435323715209895
2023-01-27 16:02:33.052425,-0.028369669496318663
2023-01-27 16:02:33.057425,-0.02646863460540768
2023-01-27 16:02:33.062425,-0.02471842446813693
2023-01-27 16:02:33.067425,-0.023054879158735213
2023-01-27 16:02:33.072425,-0.021144918394017255
2023-01-27 16:02:33.077425,-0.018631419166922507
2023-01-27 16:02:33.082425,-0.01548783132354732
2023-01-27 16:02:33.087425,-0.011876027099788146
2023-01-27 16:02:33.092425,-0.007795152915072151
2023-01-27 16:02:33.097425,-0.003125270362943367
2023-01-27 16:02:33.102425,0.0021486861040325707
2023-01-27 16:02:33.107425,0.008053581230342355
2023-01-27 16:02:33.112425,0.014832782532923389
2023-01-27 16:02:33.117425,0.022718310356140085
2023-01-27 16:02:33.122425,0.031554192641200615
2023-01-27 16:02:33.127425,0.040868919342756244
2023-01-27 16:02:33.132425,0.050210895539482873
2023-01-27 16:02:33.137425,0.05918781086802483
2023-01-27 16:02:33.142425,0.06733733776838675
2023-01-27 16:02:33.147425,0.07428526878356925
2023-01-27 16:02:33.152425,0.07998819198016412
2023-01-27 16:02:33.157425,0.08457462489604937
2023-01-27 16:02:33.162425,0.08799403705219436
2023-01-27 16:02:33.167425,0.09000778198242176
2023-01-27 16:02:33.172425,0.09039615217240131
2023-01-27 16:02:33.177425,0.08892595767974845
2023-01-27 16:02:33.182425,0.08523582443479635
2023-01-27 16:02:33.187425,0.07906933873891826
2023-01-27 16:02:33.192425,0.07062459402906507
2023-01-27 16:02:33.197425,0.06048600003123276
2023-01-27 16:02:33.202425,0.04928567366879091
2023-01-27 16:02:33.207425,0.03762344643473617
2023-01-27 16:02:33.212425,0.026174857134633724
2023-01-27 16:02:33.217425,0.01555422972887752
2023-01-27 16:02:33.222425,0.006064463922333071
2023-01-27 16:02:33.227425,-0.0022117297630757046
2023-01-27 16:02:33.232425,-0.00912052748229051
2023-01-27 16:02:33.237425,-0.014448365196585555
2023-01-27 16:02:33.242425,-0.018162564073102173
2023-01-27 16:02:33.247425,-0.02041041851043701
2023-01-27 16:02:33.252425,-0.02131860374693806
2023-01-27 16:02:33.257425,-0.021011432632803858
2023-01-27 16:02:33.262425,-0.019787884011407977
2023-01-27 16:02:33.267425,-0.018054446205496667
2023-01-27 16:02:33.272425,-0.016091170231286957
2023-01-27 16:02:33.277425,-0.014063715934753432
2023-01-27 16:02:33.282425,-0.012213840535627853
2023-01-27 16:02:33.287425,-0.010818243026733322
2023-01-27 16:02:33.292425,-0.00997126857855252
2023-01-27 16:02:33.297425,-0.009592175483703648
2023-01-27 16:02:33.302425,-0.009614005832368112
2023-01-27 16:02:33.307425,-0.009976824745535766
2023-01-27 16:02:33.312425,-0.010479867918512601
2023-01-27 16:02:33.317425,-0.010866324417292938
2023-01-27 16:02:33.322425,-0.01107158932683896
2023-01-27 16:02:33.327425,-0.011226932518184032
2023-01-27 16:02:33.332425,-0.011436741146550947
2023-01-27 16:02:33.337425,-0.011707743629813104
2023-01-27 16:02:33.342425,-0.012040852164250734
2023-01-27 16:02:33.347425,-0.012380878441035711
2023-01-27 16:02:33.352425,-0.012479666939983062
2023-01-27 16:02:33.357425,-0.011996230110525983
2023-01-27 16:02:33.362425,-0.010744768682414306
2023-01-27 16:02:33.367425,-0.008702675811946274
2023-01-27 16:02:33.372425,-0.005813730301614875
2023-01-27 16:02:33.377425,-0.0019713244400917677
2023-01-27 16:02:33.382425,0.0028061397039538215
2023-01-27 16:02:33.387425,0.008342067711055187
2023-01-27 16:02:33.392425,0.014410486677076671
2023-01-27 16:02:33.397425,0.020674865692853914
2023-01-27 16:02:33.402425,0.026494965610780047
2023-01-27 16:02:33.407425,0.030964216217398623
2023-01-27 16:02:33.412425,0.03319375712614613
2023-01-27 16:02:33.417425,0.03250281140208239
2023-01-27 16:02:33.422425,0.02846575118648093
2023-01-27 16:02:33.427425,0.021083554252982088
2023-01-27 16:02:33.432425,0.011030605901598847
2023-01-27 16:02:33.437425,-0.00043272972106928856
2023-01-27 16:02:33.442425,-0.011988006555783878
2023-01-27 16:02:33.447425,-0.022838514298200645
2023-01-27 16:02:33.452425,-0.03295275831506672
2023-01-27 16:02:33.457425,-0.04279216378927229
2023-01-27 16:02:33.462425,-0.05235849108746337
2023-01-27 16:02:33.467425,-0.05966862291097639
2023-01-27 16:02:33.472425,-0.059582191378038656
2023-01-27 16:02:33.477425,-0.04437883943319321
2023-01-27 16:02:33.482425,-0.006689082699286018
2023-01-27 16:02:33.487425,0.05618274211883546
2023-01-27 16:02:33.492425,0.13861500070623753
2023-01-27 16:02:33.497425,0.22586087882518752
2023-01-27 16:02:33.502425,0.2973221238831274
2023-01-27 16:02:33.507425,0.3333221077919006
2023-01-27 16:02:33.512425,0.32266237959363625
2023-01-27 16:02:33.517425,0.26728272438049305
2023-01-27 16:02:33.522425,0.18160917309460342
2023-01-27 16:02:33.527425,0.0869546383619308
2023-01-27 16:02:33.532425,0.0037517524999512533
2023-01-27 16:02:33.537425,-0.054884552955627344
2023-01-27 16:02:33.542425,-0.08579639437083604
2023-01-27 16:02:33.547425,-0.09416680037975311
2023-01-27 16:02:33.552425,-0.08916593269230094
2023-01-27 16:02:33.557425,-0.07938186824321736
2023-01-27 16:02:33.562425,-0.0701325757290294
2023-01-27 16:02:33.567425,-0.06325066089630121
2023-01-27 16:02:33.572425,-0.05840752476133183
2023-01-27 16:02:33.577425,-0.0545720271766185
2023-01-27 16:02:33.582425,-0.05089152181076729
2023-01-27 16:02:33.587425,-0.04709541797637926
2023-01-27 16:02:33.592425,-0.0435463586643307
2023-01-27 16:02:33.597425,-0.04079679772257799
2023-01-27 16:02:33.602425,-0.03890294537167385
2023-01-27 16:02:33.607425,-0.03731092065572726
2023-01-27 16:02:33.612425,-0.03556328391511702
2023-01-27 16:02:33.617425,-0.033849082887172637
2023-01-27 16:02:33.622425,-0.03253724592253092
2023-01-27 16:02:33.627425,-0.03139694780111307
2023-01-27 16:02:33.632425,-0.029756424983348934
2023-01-27 16:02:33.637425,-0.027358135208487462
2023-01-27 16:02:33.642425,-0.02454672537805415
2023-01-27 16:02:33.647425,-0.021564364433288512
2023-01-27 16:02:33.652425,-0.018176080567846347
2023-01-27 16:02:33.657425,-0.01415987871587278
2023-01-27 16:02:33.662425,-0.00968292957931164
2023-01-27 16:02:33.667425,-0.004904270172119093
2023-01-27 16:02:33.672425,0.00041819397687870225
2023-01-27 16:02:33.677425,0.006611148826777864
2023-01-27 16:02:33.682425,0.013676401500804871
2023-01-27 16:02:33.687425,0.021492242813110275
2023-01-27 16:02:33.692425,0.030130532932134513
2023-01-27 16:02:33.697425,0.039618812501430435
2023-01-27 16:02:33.702425,0.04958098398940718
2023-01-27 16:02:33.707425,0.05942821502685541
2023-01-27 16:02:33.712425,0.06874491365640814
2023-01-27 16:02:33.717425,0.0772182196378707
2023-01-27 16:02:33.722425,0.08439000208352988
2023-01-27 16:02:33.727425,0.0898154601454734
2023-01-27 16:02:33.732425,0.09334842850340896
2023-01-27 16:02:33.737425,0.09498417377471914
2023-01-27 16:02:33.742425,0.09454218124790459
2023-01-27 16:02:33.747425,0.09178678691387165
2023-01-27 16:02:33.752425,0.08675674091217465
2023-01-27 16:02:33.757425,0.07971843332052228
2023-01-27 16:02:33.762425,0.07092061723950371
2023-01-27 16:02:33.767425,0.06067832559347147
2023-01-27 16:02:33.772425,0.04958760647114396
2023-01-27 16:02:33.777425,0.03834466263651847
2023-01-27 16:02:33.782425,0.02738222365342069
2023-01-27 16:02:33.787425,0.016900500282645236
2023-01-27 16:02:33.792425,0.007155465584784409
2023-01-27 16:02:33.797425,-0.0015385946026070958
2023-01-27 16:02:33.802425,-0.008999161525779446
2023-01-27 16:02:33.807425,-0.015097459778189656
2023-01-27 16:02:33.812425,-0.019565719029476444
2023-01-27 16:02:33.817425,-0.02216537855565536
2023-01-27 16:02:33.822425,-0.023029339134044643
2023-01-27 16:02:33.827425,-0.022622149437665915
2023-01-27 16:02:33.832425,-0.021413370275513183
2023-01-27 16:02:33.837425,-0.019785365089774097
2023-01-27 16:02:33.842425,-0.018135417422736277
2023-01-27 16:02:33.847425,-0.016756257042288676
2023-01-27 16:02:33.852425,-0.015624094001053185
2023-01-27 16:02:33.857425,-0.014544527046382436
2023-01-27 16:02:33.862425,-0.013497383537149762
2023-01-27 16:02:33.867425,-0.012645324692130012
2023-01-27 16:02:33.872425,-0.012069829641683762
2023-01-27 16:02:33.877425,-0.011731783859431705
2023-01-27 16:02:33.882425,-0.01164126251532761
2023-01-27 16:02:33.887425,-0.011827945709228483
2023-01-27 16:02:33.892425,-0.012183463080258685
2023-01-27 16:02:33.897425,-0.012573203071951766
2023-01-27 16:02:33.902425,-0.013084713719697287
2023-01-27 16:02:33.907425,-0.013943513855337956
2023-01-27 16:02:33.912425,-0.015192806261158135
2023-01-27 16:02:33.917425,-0.016636054962873386
2023-01-27 16:02:33.922425,-0.01802996971569709
2023-01-27 16:02:33.927425,-0.01911222934722898
2023-01-27 16:02:33.932425,-0.01950515326524348
2023-01-27 16:02:33.937425,-0.018871825188398268
2023-01-27 16:02:33.942425,-0.01719880077180862
2023-01-27 16:02:33.947425,-0.014736851677298516
2023-01-27 16:02:33.952425,-0.011673130157506558
2023-01-27 16:02:33.957425,-0.00802954100072378
2023-01-27 16:02:33.962425,-0.003813413412555294
2023-01-27 16:02:33.967425,0.0009616216411814094
2023-01-27 16:02:33.972425,0.006353357017338178
2023-01-27 16:02:33.977425,0.012308756820857527
2023-01-27 16:02:33.982425,0.018337585035923757
2023-01-27 16:02:33.987425,0.023511648178100482
2023-01-27 16:02:33.992425,0.026776606798239067
2023-01-27 16:02:33.997425,0.02716581150889393
2023-01-27 16:02:34.002425,0.023916737610319018
2023-01-27 16:02:34.007425,0.016804337501525785
2023-01-27 16:02:34.012425,0.006512456415155386
2023-01-27 16:02:34.017425,-0.005505283828824716
2023-01-27 16:02:34.022425,-0.017698688598089134
2023-01-27 16:02:34.027425,-0.029089054092764827
2023-01-27 16:02:34.032425,-0.03957512427744124
2023-01-27 16:02:34.037425,-0.04976391792297365
2023-01-27 16:02:34.042425,-0.06002213555175051
2023-01-27 16:02:34.047425,-0.06870786845684052
2023-01-27 16:02:34.052425,-0.0706611063483426
2023-01-27 16:02:34.057425,-0.05762517452239994
2023-01-27 16:02:34.062425,-0.021252507548901574
2023-01-27 16:02:34.067425,0.04233539104461662
2023-01-27 16:02:34.072425,0.12845158955459512
2023-01-27 16:02:34.077425,0.2224230766296385
2023-01-27 16:02:34.082425,0.3025182379550114
2023-01-27 16:02:34.087425,0.3470252156257628
2023-01-27 16:02:34.092425,0.34257667070287423
2023-01-27 16:02:34.097425,0.2895442843437193
2023-01-27 16:02:34.102425,0.20187011184592685
2023-01-27 16:02:34.107425,0.10166744887828816
2023-01-27 16:02:34.112425,0.011163038107790447
2023-01-27 16:02:34.117425,-0.05457202717661846
2023-01-27 16:02:34.122425,-0.09107844792831593
2023-01-27 16:02:34.127425,-0.10308583825826631
2023-01-27 16:02:34.132425,-0.09988831974173017
2023-01-27 16:02:34.137425,-0.09058475494384756
2023-01-27 16:02:34.142425,-0.08127086518305832
2023-01-27 16:02:34.147425,-0.0744535550475119
2023-01-27 16:02:34.152425,-0.0700212471945232
2023-01-27 16:02:34.157425,-0.06688078492879856
2023-01-27 16:02:34.162425,-0.06423575933881706
2023-01-27 16:02:34.167425,-0.06185631081461897
2023-01-27 16:02:34.172425,-0.05969321422982246
2023-01-27 16:02:34.177425,-0.057649217545986044
2023-01-27 16:02:34.182425,-0.05567094113355722
2023-01-27 16:02:34.187425,-0.05375465005636206
2023-01-27 16:02:34.192425,-0.05182248630404245
2023-01-27 16:02:34.197425,-0.04978796094655983
2023-01-27 16:02:34.202425,-0.0477229298971162
2023-01-27 16:02:34.207425,-0.04574915021657932
2023-01-27 16:02:34.212425,-0.043777141730247215
2023-01-27 16:02:34.217425,-0.0415420532226562
2023-01-27 16:02:34.222425,-0.03885963824798212
2023-01-27 16:02:34.227425,-0.03565212339162817
2023-01-27 16:02:34.232425,-0.03179153504043791
2023-01-27 16:02:34.237425,-0.02716581150889389
2023-01-27 16:02:34.242425,-0.021868781044405167
2023-01-27 16:02:34.247425,-0.016083121299743527
2023-01-27 16:02:34.252425,-0.009787671781861912
2023-01-27 16:02:34.257425,-0.002788702724501386
2023-01-27 16:02:34.262425,0.005009027367529876
2023-01-27 16:02:34.267425,0.013582905754446917
2023-01-27 16:02:34.272425,0.022946040280796755
2023-01-27 16:02:34.277425,0.033007662743329995
2023-01-27 16:02:34.282425,0.043299300142460216
2023-01-27 16:02:34.287425,0.053129594773054074
2023-01-27 16:02:34.292425,0.062012142081382136
2023-01-27 16:02:34.297425,0.06969352811574926
2023-01-27 16:02:34.302425,0.07584682630889998
2023-01-27 16:02:34.307425,0.08012712001800523
2023-01-27 16:02:34.312425,0.0825605959030596
2023-01-27 16:02:34.317425,0.08349280059337608
2023-01-27 16:02:34.322425,0.083027725615111
2023-01-27 16:02:34.327425,0.08082430064678191
2023-01-27 16:02:34.332425,0.07656860823258363
2023-01-27 16:02:34.337425,0.0703666657209396
2023-01-27 16:02:34.342425,0.06255174080560774
2023-01-27 16:02:34.347425,0.05339404195547099
2023-01-27 16:02:34.352425,0.043180235989267735
2023-01-27 16:02:34.357425,0.03235856816172587
2023-01-27 16:02:34.362425,0.021422701843871305
2023-01-27 16:02:34.367425,0.010794202797114768
2023-01-27 16:02:34.372425,0.0009211096882797136
2023-01-27 16:02:34.377425,-0.00769297312945121
2023-01-27 16:02:34.382425,-0.01470151286309379
2023-01-27 16:02:34.387425,-0.02004981040954579
2023-01-27 16:02:34.392425,-0.023842388157120302
2023-01-27 16:02:34.397425,-0.026228230446576985
2023-01-27 16:02:34.402425,-0.02746583729754682
2023-01-27 16:02:34.407425,-0.027911067008972064
2023-01-27 16:02:34.412425,-0.027833128746523186
2023-01-27 16:02:34.417425,-0.02735813520848749
2023-01-27 16:02:34.422425,-0.02662986224264612
2023-01-27 16:02:34.427425,-0.02586762234568592
2023-01-27 16:02:34.432425,-0.025218687783501326
2023-01-27 16:02:34.437425,-0.0247136764228343
2023-01-27 16:02:34.442425,-0.024415116361422108
2023-01-27 16:02:34.447425,-0.02444922924041738
2023-01-27 16:02:34.452425,-0.024837067796385105
2023-01-27 16:02:34.457425,-0.025434892624616602
2023-01-27 16:02:34.462425,-0.02606966728482939
2023-01-27 16:02:34.467425,-0.026588838547468137
2023-01-27 16:02:34.472425,-0.026785591582976703
2023-01-27 16:02:34.477425,-0.026492675766348818
2023-01-27 16:02:34.482425,-0.02582421282999821
2023-01-27 16:02:34.487425,-0.025170445442199724
2023-01-27 16:02:34.492425,-0.02489275432969812
2023-01-27 16:02:34.497425,-0.025122364982962612
2023-01-27 16:02:34.502425,-0.025807270299739067
2023-01-27 16:02:34.507425,-0.026733081787824593
2023-01-27 16:02:34.512425,-0.027467344651885123
2023-01-27 16:02:34.517425,-0.027502378448843866
2023-01-27 16:02:34.522425,-0.026554249284974695
2023-01-27 16:02:34.527425,-0.024617513641714973
2023-01-27 16:02:34.532425,-0.02173559741448767
2023-01-27 16:02:34.537425,-0.017886161804199212
2023-01-27 16:02:34.542425,-0.013091803992788517
2023-01-27 16:02:34.547425,-0.007452567573636706
2023-01-27 16:02:34.552425,-0.0010526530580854255
2023-01-27 16:02:34.557425,0.0059620542451738956
2023-01-27 16:02:34.562425,0.013148835052008945
2023-01-27 16:02:34.567425,0.019737284630536946
2023-01-27 16:02:34.572425,0.02483263568226271
2023-01-27 16:02:34.577425,0.027526419609784993
2023-01-27 16:02:34.582425,0.02692153740373695
2023-01-27 16:02:34.587425,0.022405784577131212
2023-01-27 16:02:34.592425,0.014096486339831509
2023-01-27 16:02:34.597425,0.0029569864273071003
2023-01-27 16:02:34.602425,-0.00956296766681307
2023-01-27 16:02:34.607425,-0.02204517647624006
2023-01-27 16:02:34.612425,-0.03359383249371929
2023-01-27 16:02:34.617425,-0.04421055316925037
2023-01-27 16:02:34.622425,-0.05453602621393465
2023-01-27 16:02:34.627425,-0.06445269286632525
2023-01-27 16:02:34.632425,-0.07114805648089369
2023-01-27 16:02:34.637425,-0.0682270526885986
2023-01-27 16:02:34.642425,-0.04706631848966885
2023-01-27 16:02:34.647425,-0.0003606081008910695
2023-01-27 16:02:34.652425,0.07326538155911506
2023-01-27 16:02:34.657425,0.16561529040336598
2023-01-27 16:02:34.662425,0.2587827407522469
2023-01-27 16:02:34.667425,0.32988429069519026
2023-01-27 16:02:34.672425,0.3591431930962193
2023-01-27 16:02:34.677425,0.3375051617622374
2023-01-27 16:02:34.682425,0.2702168962114675
2023-01-27 16:02:34.687425,0.17489492893218986
2023-01-27 16:02:34.692425,0.07492769088147443
2023-01-27 16:02:34.697425,-0.00896712206304067
2023-01-27 16:02:34.702425,-0.06514054413167807
2023-01-27 16:02:34.707425,-0.09260416030883774
2023-01-27 16:02:34.712425,-0.09810658971295798
2023-01-27 16:02:34.717425,-0.09133001416921611
2023-01-27 16:02:34.722425,-0.0807423416806499
2023-01-27 16:02:34.727425,-0.07132828235626215
2023-01-27 16:02:34.732425,-0.06449348251560075
2023-01-27 16:02:34.737425,-0.059620540589094086
2023-01-27 16:02:34.742425,-0.05583102102326938
2023-01-27 16:02:34.747425,-0.05267282575368879
2023-01-27 16:02:34.752425,-0.04990396810124231
2023-01-27 16:02:34.757425,-0.04733582586050031
2023-01-27 16:02:34.762425,-0.04491543946991615
2023-01-27 16:02:34.767425,-0.04259983822703361
2023-01-27 16:02:34.772425,-0.040176714782581564
2023-01-27 16:02:34.777425,-0.03750324249267568
2023-01-27 16:02:34.782425,-0.03481089005915448
2023-01-27 16:02:34.787425,-0.03243068978190422
2023-01-27 16:02:34.792425,-0.03032148750537275
2023-01-27 16:02:34.797425,-0.028199553489684955
2023-01-27 16:02:34.802425,-0.025965941303999963
2023-01-27 16:02:34.807425,-0.023607810959219874
2023-01-27 16:02:34.812425,-0.020850041419707952
2023-01-27 16:02:34.817425,-0.017357271164655613
2023-01-27 16:02:34.822425,-0.013133388644854615
2023-01-27 16:02:34.827425,-0.00826994609087698
2023-01-27 16:02:34.832425,-0.0024899566263545834
2023-01-27 16:02:34.837425,0.004543662071228056
2023-01-27 16:02:34.842425,0.012651032614015767
2023-01-27 16:02:34.847425,0.021396081894636106
2023-01-27 16:02:34.852425,0.030679389025161898
2023-01-27 16:02:34.857425,0.040460228919982896
2023-01-27 16:02:34.862425,0.05017608410173153
2023-01-27 16:02:34.867425,0.05918781086802478
2023-01-27 16:02:34.872425,0.06754921241372007
2023-01-27 16:02:34.877425,0.0755113363265991
2023-01-27 16:02:34.882425,0.08255317723272433
2023-01-27 16:02:34.887425,0.08789221942424764
2023-01-27 16:02:34.892425,0.09166500109695884
2023-01-27 16:02:34.897425,0.09438316524028767
2023-01-27 16:02:34.902425,0.09545530484596362
2023-01-27 16:02:34.907425,0.09380619227886185
2023-01-27 16:02:34.912425,0.08999218524453033
2023-01-27 16:02:34.917425,0.08584877103567118
2023-01-27 16:02:34.922425,0.08151147262715619
2023-01-27 16:02:34.927425,0.07469396293163282
2023-01-27 16:02:34.932425,0.06401494209097122
2023-01-27 16:02:34.937425,0.05139867588877668
2023-01-27 16:02:34.942425,0.03974379672381885
2023-01-27 16:02:34.947425,0.029569864273071164
2023-01-27 16:02:34.952425,0.019666529075373772
2023-01-27 16:02:34.957425,0.010000864975154258
2023-01-27 16:02:34.962425,0.0019646621473456962
2023-01-27 16:02:34.967425,-0.003822445869445764
2023-01-27 16:02:34.972425,-0.008070929023307624
2023-01-27 16:02:34.977425,-0.011226932518184103
2023-01-27 16:02:34.982425,-0.012943173811450602
2023-01-27 16:02:34.987425,-0.013294419273733997
2023-01-27 16:02:34.992425,-0.013099053273538388
2023-01-27 16:02:34.997425,-0.012717446312308308
2023-01-27 16:02:35.002425,-0.011695190759075188
2023-01-27 16:02:35.007425,-0.009904703125357604
2023-01-27 16:02:35.012425,-0.007999097188212689
2023-01-27 16:02:35.017425,-0.006418824195861788
2023-01-27 16:02:35.022425,-0.004899117129895878
2023-01-27 16:02:35.027425,-0.0032935540657490136
2023-01-27 16:02:35.032425,-0.0020107346633732206
2023-01-27 16:02:35.037425,-0.0012741487007587957
2023-01-27 16:02:35.042425,-0.0007297292734545167
2023-01-27 16:02:35.047425,-0.00014424324035640032
2023-01-27 16:02:35.052425,0.00021517939990046387
2023-01-27 16:02:35.057425,0.0002404054102953381
2023-01-27 16:02:35.062425,0.0003610528230552082
2023-01-27 16:02:35.067425,0.0009135405416600785
2023-01-27 16:02:35.072425,0.001707721473229147
2023-01-27 16:02:35.077425,0.002524256706237717
2023-01-27 16:02:35.082425,0.0034872758848416463
2023-01-27 16:02:35.087425,0.004663865081966018
2023-01-27 16:02:35.092425,0.005865639246765056
2023-01-27 16:02:35.097425,0.007188121788203688
2023-01-27 16:02:35.102425,0.009262203222156155
2023-01-27 16:02:35.107425,0.012645324692129936
2023-01-27 16:02:35.112425,0.017352802274178247
2023-01-27 16:02:35.117425,0.023175081238150493
2023-01-27 16:02:35.122425,0.029934606793459797
2023-01-27 16:02:35.127425,0.03711859509348858
2023-01-27 16:02:35.132425,0.04368212340564008
2023-01-27 16:02:35.137425,0.048513811081647804
2023-01-27 16:02:35.142425,0.05078086274094998
2023-01-27 16:02:35.147425,0.049715839326381565
2023-01-27 16:02:35.152425,0.044643514308097466
2023-01-27 16:02:35.157425,0.03562808036804191
2023-01-27 16:02:35.162425,0.02379530012664202
2023-01-27 16:02:35.167425,0.01072208117693656
2023-01-27 16:02:35.172425,-0.0023331945563250978
2023-01-27 16:02:35.177425,-0.014640688896179132
2023-01-27 16:02:35.182425,-0.025935890080746437
2023-01-27 16:02:35.187425,-0.036156974732875796
2023-01-27 16:02:35.192425,-0.04434217755646907
2023-01-27 16:02:35.197425,-0.04697521775960922
2023-01-27 16:02:35.202425,-0.0376003918568184
2023-01-27 16:02:35.207425,-0.008967122063040772
2023-01-27 16:02:35.212425,0.04316727111804842
2023-01-27 16:02:35.217425,0.11645238101482387
2023-01-27 16:02:35.222425,0.20010772280226152
2023-01-27 16:02:35.227425,0.2762017846107482
2023-01-27 16:02:35.232425,0.32483973106989755
2023-01-27 16:02:35.237425,0.3316873311996458
2023-01-27 16:02:35.242425,0.2938997597770756
2023-01-27 16:02:35.247425,0.22122105956077567
2023-01-27 16:02:35.252425,0.13212908609408225
2023-01-27 16:02:35.257425,0.04716753959655757
2023-01-27 16:02:35.262425,-0.017895397096079277
2023-01-27 16:02:35.267425,-0.05644718930125231
2023-01-27 16:02:35.272425,-0.07105582893981409
2023-01-27 16:02:35.277425,-0.06966948509216297
2023-01-27 16:02:35.282425,-0.06090790021411977
2023-01-27 16:02:35.287425,-0.051062107086181564
2023-01-27 16:02:35.292425,-0.043217551586792996
2023-01-27 16:02:35.297425,-0.03774365037679665
2023-01-27 16:02:35.302425,-0.0336189000639165
2023-01-27 16:02:35.307425,-0.02993047237396235
2023-01-27 16:02:35.312425,-0.026512905130597134
2023-01-27 16:02:35.317425,-0.02351164817810047
2023-01-27 16:02:35.322425,-0.020883272334678578
2023-01-27 16:02:35.327425,-0.018511217087507175
2023-01-27 16:02:35.332425,-0.01639615024570595
2023-01-27 16:02:35.337425,-0.014448365196585574
2023-01-27 16:02:35.342425,-0.012378864355084554
2023-01-27 16:02:35.347425,-0.010024905204772939
2023-01-27 16:02:35.352425,-0.007515920397736027
2023-01-27 16:02:35.357425,-0.004928310867398873
2023-01-27 16:02:35.362425,-0.00206658617178928
2023-01-27 16:02:35.367425,0.0012260675430296952
2023-01-27 16:02:35.372425,0.00485013844068707
2023-01-27 16:02:35.377425,0.008750757202506
2023-01-27 16:02:35.382425,0.01313536578477342
2023-01-27 16:02:35.387425,0.018174648284912127
2023-01-27 16:02:35.392425,0.023774268945259303
2023-01-27 16:02:35.397425,0.029858350753784103
2023-01-27 16:02:35.402425,0.03659430996500823
2023-01-27 16:02:35.407425,0.04411439225077617
2023-01-27 16:02:35.412425,0.05228030658496393
2023-01-27 16:02:35.417425,0.060918729752302093
2023-01-27 16:02:35.422425,0.06998650121320506
2023-01-27 16:02:35.427425,0.07926166057586656
2023-01-27 16:02:35.432425,0.08814102600333802
2023-01-27 16:02:35.437425,0.09599387645721431
2023-01-27 16:02:35.442425,0.10251073908437666
2023-01-27 16:02:35.447425,0.10755737870931617
2023-01-27 16:02:35.452425,0.11100011810665872
2023-01-27 16:02:35.457425,0.1128943786025047
2023-01-27 16:02:35.462425,0.11353230013858831
2023-01-27 16:02:35.467425,0.1130145788192749
2023-01-27 16:02:35.472425,0.11098291396853513
2023-01-27 16:02:35.477425,0.10698040574789033
2023-01-27 16:02:35.482425,0.10085171573635272
2023-01-27 16:02:35.487425,0.09265224635601034
2023-01-27 16:02:35.492425,0.08252670706922483
2023-01-27 16:02:35.497425,0.0709676742553709
2023-01-27 16:02:35.502425,0.05892826200367358
2023-01-27 16:02:35.507425,0.04738390445709214
2023-01-27 16:02:35.512425,0.036939058750714314
2023-01-27 16:02:35.517425,0.027983188629150266
2023-01-27 16:02:35.522425,0.02088020185061564
2023-01-27 16:02:35.527425,0.0157225131988525
2023-01-27 16:02:35.532425,0.012165098303726352
2023-01-27 16:02:35.537425,0.009784500114619699
2023-01-27 16:02:35.542425,0.00840354283604748
2023-01-27 16:02:35.547425,0.007885297760367331
2023-01-27 16:02:35.552425,0.0079179276249827
2023-01-27 16:02:35.557425,0.008269946090877042
2023-01-27 16:02:35.562425,0.008993817774061523
2023-01-27 16:02:35.567425,0.010121067985892214
2023-01-27 16:02:35.572425,0.011415509939148628
2023-01-27 16:02:35.577425,0.012669364921748553
2023-01-27 16:02:35.582425,0.013954861385075753
2023-01-27 16:02:35.587425,0.015313824638724275
2023-01-27 16:02:35.592425,0.016486547035526836
2023-01-27 16:02:35.597425,0.017237067222595173
2023-01-27 16:02:35.602425,0.01767121788889165
2023-01-27 16:02:35.607425,0.017958283424377417
2023-01-27 16:02:35.612425,0.018067881390539813
2023-01-27 16:02:35.617425,0.018126567825674997
2023-01-27 16:02:35.622425,0.018694182932582123
2023-01-27 16:02:35.627425,0.02021809481084342
2023-01-27 16:02:35.632425,0.022425212814188217
2023-01-27 16:02:35.637425,0.02471367642283437
2023-01-27 16:02:35.642425,0.02701613920479816
2023-01-27 16:02:35.647425,0.029858350753784152
2023-01-27 16:02:35.652425,0.0336602989547396
2023-01-27 16:02:35.657425,0.038368701934814384
2023-01-27 16:02:35.662425,0.043689018883339724
2023-01-27 16:02:35.667425,0.04923502728343003
2023-01-27 16:02:35.672425,0.05437668627524428
2023-01-27 16:02:35.677425,0.05825022980570793
2023-01-27 16:02:35.682425,0.06005815546700662
2023-01-27 16:02:35.687425,0.05930801481008518
2023-01-27 16:02:35.692425,0.05588847648552804
2023-01-27 16:02:35.697425,0.05012452602386469
2023-01-27 16:02:35.702425,0.04270154419635849
2023-01-27 16:02:35.707425,0.03435393422842017
2023-01-27 16:02:35.712425,0.025630228660775727
2023-01-27 16:02:35.717425,0.016948580741882328
2023-01-27 16:02:35.722425,0.008593131520600887
2023-01-27 16:02:35.727425,0.0004327297210692459
2023-01-27 16:02:35.732425,-0.00811425544492884
2023-01-27 16:02:35.737425,-0.017357271164655554
2023-01-27 16:02:35.742425,-0.02618816801735176
2023-01-27 16:02:35.747425,-0.03122866153717036
2023-01-27 16:02:35.752425,-0.02673198278109163
2023-01-27 16:02:35.757425,-0.005745689384639215
2023-01-27 16:02:35.762425,0.036979221846926605
2023-01-27 16:02:35.767425,0.10109047591686231
2023-01-27 16:02:35.772425,0.1780975017824006
2023-01-27 16:02:35.777425,0.2523054778575896
2023-01-27 16:02:35.782425,0.3052726845287882
2023-01-27 16:02:35.787425,0.3220711350440978
2023-01-27 16:02:35.792425,0.29699611172309165
2023-01-27 16:02:35.797425,0.23622235655784588
2023-01-27 16:02:35.802425,0.15565071529762506
2023-01-27 16:02:35.807425,0.07466991990804665
2023-01-27 16:02:35.812425,0.009178912234301085
2023-01-27 16:02:35.817425,-0.03274321556091298
2023-01-27 16:02:35.822425,-0.051415844631525716
2023-01-27 16:02:35.827425,-0.05317767709493628
2023-01-27 16:02:35.832425,-0.04642731464355491
2023-01-27 16:02:35.837425,-0.03786385059356682
2023-01-27 16:02:35.842425,-0.030767869773139507
2023-01-27 16:02:35.847425,-0.025699337944388258
2023-01-27 16:02:35.852425,-0.02208381430122242
2023-01-27 16:02:35.857425,-0.019184350967407178
2023-01-27 16:02:35.862425,-0.016473963072907605
2023-01-27 16:02:35.867425,-0.013895432464778404
2023-01-27 16:02:35.872425,-0.01177176574067064
2023-01-27 16:02:35.877425,-0.010241270065307607
2023-01-27 16:02:35.882425,-0.008972089893226586
2023-01-27 16:02:35.887425,-0.007596810813993225
2023-01-27 16:02:35.892425,-0.0061107881969960825
2023-01-27 16:02:35.897425,-0.004615783691406198
2023-01-27 16:02:35.902425,-0.0030135901908732925
2023-01-27 16:02:35.907425,-0.001226067543029752
2023-01-27 16:02:35.912425,0.0006220846649194082
2023-01-27 16:02:35.917425,0.0025482974015175633
2023-01-27 16:02:35.922425,0.004930070824363866
2023-01-27 16:02:35.927425,0.008077621459960894
2023-01-27 16:02:35.932425,0.011885173170687007
2023-01-27 16:02:35.937425,0.01617928408086289
2023-01-27 16:02:35.942425,0.02108050696720276
2023-01-27 16:02:35.947425,0.02673308178782462
2023-01-27 16:02:35.952425,0.033038227748166726
2023-01-27 16:02:35.957425,0.03997942060232157
2023-01-27 16:02:35.962425,0.047842932708141855
2023-01-27 16:02:35.967425,0.056735675781965214
2023-01-27 16:02:35.972425,0.06618138698378466
2023-01-27 16:02:35.977425,0.07551133632659908
2023-01-27 16:02:35.982425,0.08432328481695484
2023-01-27 16:02:35.987425,0.09226759523153301
2023-01-27 16:02:35.992425,0.09882285588260378
2023-01-27 16:02:35.997425,0.10371088981628407
2023-01-27 16:02:36.002425,0.10718529145228949
2023-01-27 16:02:36.007425,0.10950466245412817
2023-01-27 16:02:36.012425,0.11043532100094211
2023-01-27 16:02:36.017425,0.10960082709789265
2023-01-27 16:02:36.022425,0.10691021528974333
2023-01-27 16:02:36.027425,0.10226845741271964
2023-01-27 16:02:36.032425,0.09533749273409561
2023-01-27 16:02:36.037425,0.08608917891979202
2023-01-27 16:02:36.042425,0.075246563957044
2023-01-27 16:02:36.047425,0.06375551223754877
2023-01-27 16:02:36.052425,0.05220030610083698
2023-01-27 16:02:36.057425,0.041109323501586845
2023-01-27 16:02:36.062425,0.0312921358267531
2023-01-27 16:02:36.067425,0.02329528331756588
2023-01-27 16:02:36.072425,0.01691283429884527
2023-01-27 16:02:36.077425,0.011731783859431659
2023-01-27 16:02:36.082425,0.007739762469789355
2023-01-27 16:02:36.087425,0.004928310867398925
2023-01-27 16:02:36.092425,0.002840081902527276
2023-01-27 16:02:36.097425,0.0011299054604023363
2023-01-27 16:02:36.102425,0.0001228343696808783
2023-01-27 16:02:36.107425,0.0002163648605346348
2023-01-27 16:02:36.112425,0.0011746936829814393
2023-01-27 16:02:36.117425,0.0025723378639668226
2023-01-27 16:02:36.122425,0.004386271360386035
2023-01-27 16:02:36.127425,0.006490945816039956
2023-01-27 16:02:36.132425,0.008126227041381216
2023-01-27 16:02:36.137425,0.008630554191768098
2023-01-27 16:02:36.142425,0.008258985366956559
2023-01-27 16:02:36.147425,0.007620851509272982
2023-01-27 16:02:36.152425,0.006872955143222872
2023-01-27 16:02:36.157425,0.00617841910570848
2023-01-27 16:02:36.162425,0.006283338875770995
2023-01-27 16:02:36.167425,0.0077170133590698286
2023-01-27 16:02:36.172425,0.009957664230117735
2023-01-27 16:02:36.177425,0.012260675430297786
2023-01-27 16:02:36.182425,0.014743816859509838
2023-01-27 16:02:36.187425,0.01781404018402091
2023-01-27 16:02:36.192425,0.021267659253071555
2023-01-27 16:02:36.197425,0.024978121742606135
2023-01-27 16:02:36.202425,0.029673287554228475
2023-01-27 16:02:36.207425,0.03577232360839841
2023-01-27 16:02:36.212425,0.04209278148704083
2023-01-27 16:02:36.217425,0.04692713543772693
2023-01-27 16:02:36.222425,0.04968535258669545
2023-01-27 16:02:36.227425,0.05024472996592523
2023-01-27 16:02:36.232425,0.04771459859221323
2023-01-27 16:02:36.237425,0.04159013554453845
2023-01-27 16:02:36.242425,0.03330000054533207
2023-01-27 16:02:36.247425,0.024713676422834306
2023-01-27 16:02:36.252425,0.015893578052334385
2023-01-27 16:02:36.257425,0.006322662346064954
2023-01-27 16:02:36.262425,-0.0027465071535267495
2023-01-27 16:02:36.267425,-0.009952783584594754
2023-01-27 16:02:36.272425,-0.016993528516971522
2023-01-27 16:02:36.277425,-0.026564797386527016
2023-01-27 16:02:36.282425,-0.0370847416621832
2023-01-27 16:02:36.287425,-0.04305660724639896
2023-01-27 16:02:36.292425,-0.04097219198750859
2023-01-27 16:02:36.297425,-0.0304353237152099
2023-01-27 16:02:36.302425,-0.008007110347972931
2023-01-27 16:02:36.307425,0.03469049930572498
2023-01-27 16:02:36.312425,0.10171826748935063
2023-01-27 16:02:36.317425,0.18314084410667408
2023-01-27 16:02:36.322425,0.25791382482731584
2023-01-27 16:02:36.327425,0.30567547678947427
2023-01-27 16:02:36.332425,0.31458292311100483
2023-01-27 16:02:36.337425,0.2821397781372069
2023-01-27 16:02:36.342425,0.2152245401120951
2023-01-27 16:02:36.347425,0.13025164604187012
2023-01-27 16:02:36.352425,0.048201374710032344
2023-01-27 16:02:36.357425,-0.01471281051635737
2023-01-27 16:02:36.362425,-0.05257298871246339
2023-01-27 16:02:36.367425,-0.06786644458770746
2023-01-27 16:02:36.372425,-0.06711202964562692
2023-01-27 16:02:36.377425,-0.05825022980570793
2023-01-27 16:02:36.382425,-0.04845221560388289
2023-01-27 16:02:36.387425,-0.04144589230418193
2023-01-27 16:02:36.392425,-0.03708720208798392
2023-01-27 16:02:36.397425,-0.033993326127529144
2023-01-27 16:02:36.402425,-0.03167446074453585
2023-01-27 16:02:36.407425,-0.030002593994140615
2023-01-27 16:02:36.412425,-0.028356100707240976
2023-01-27 16:02:36.417425,-0.026348432525992293
2023-01-27 16:02:36.422425,-0.024415222886718907
2023-01-27 16:02:36.427425,-0.022886594757437668
2023-01-27 16:02:36.432425,-0.02129148748169662
2023-01-27 16:02:36.437425,-0.019184350967407133
2023-01-27 16:02:36.442425,-0.01684273883763427
2023-01-27 16:02:36.447425,-0.014568567276000827
2023-01-27 16:02:36.452425,-0.012071383182860166
2023-01-27 16:02:36.457425,-0.009111365303397043
2023-01-27 16:02:36.462425,-0.006041758629099893
2023-01-27 16:02:36.467425,-0.003149310825392599
2023-01-27 16:02:36.472425,-7.165184971674184e-05
2023-01-27 16:02:36.477425,0.0036301217041909127
2023-01-27 16:02:36.482425,0.007897018781473794
2023-01-27 16:02:36.487425,0.012621283531188894
2023-01-27 16:02:36.492425,0.0180954621676419
2023-01-27 16:02:36.497425,0.02454539202153679
2023-01-27 16:02:36.502425,0.03171730285949448
2023-01-27 16:02:36.507425,0.03935436531901354
2023-01-27 16:02:36.512425,0.04760235997454981
2023-01-27 16:02:36.517425,0.056519310921430484
2023-01-27 16:02:36.522425,0.06560440041956228
2023-01-27 16:02:36.527425,0.07418911159038545
2023-01-27 16:02:36.532425,0.0818999536404737
2023-01-27 16:02:36.537425,0.0884211063385009
2023-01-27 16:02:36.542425,0.09325798496204789
2023-01-27 16:02:36.547425,0.09613811969757077
2023-01-27 16:02:36.552425,0.09729834468044349
2023-01-27 16:02:36.557425,0.0970276221632957
2023-01-27 16:02:36.562425,0.09522806159620677
2023-01-27 16:02:36.567425,0.09169062227010716
2023-01-27 16:02:36.572425,0.08644851369795964
2023-01-27 16:02:36.577425,0.07957419008016575
2023-01-27 16:02:36.582425,0.07098378654358319
2023-01-27 16:02:36.587425,0.06077448651194567
2023-01-27 16:02:36.592425,0.049496353226195895
2023-01-27 16:02:36.597425,0.037839811295270843
2023-01-27 16:02:36.602425,0.02631903216042634
2023-01-27 16:02:36.607425,0.01545806787908062
2023-01-27 16:02:36.612425,0.005940458519928758
2023-01-27 16:02:36.617425,-0.0017309188842773247
2023-01-27 16:02:36.622425,-0.007507529078998933
2023-01-27 16:02:36.627425,-0.011539459228515663
2023-01-27 16:02:36.632425,-0.013913137428696662
2023-01-27 16:02:36.637425,-0.014833013527095373
2023-01-27 16:02:36.642425,-0.01477052001954153
2023-01-27 16:02:36.647425,-0.01418391894549136
2023-01-27 16:02:36.652425,-0.013289563815318785
2023-01-27 16:02:36.657425,-0.012260675430297786
2023-01-27 16:02:36.662425,-0.011379988758113036
2023-01-27 16:02:36.667425,-0.01079420279711479
2023-01-27 16:02:36.672425,-0.010352229352763016
2023-01-27 16:02:36.677425,-0.009880661964416414
2023-01-27 16:02:36.682425,-0.009421597981951467
2023-01-27 16:02:36.687425,-0.009063283912837485
2023-01-27 16:02:36.692425,-0.008781266916744603
2023-01-27 16:02:36.697425,-0.00860651396214961
2023-01-27 16:02:36.702425,-0.008706169552983
2023-01-27 16:02:36.707425,-0.009111365303397035
2023-01-27 16:02:36.712425,-0.009563336285135678
2023-01-27 16:02:36.717425,-0.009784500114619725
2023-01-27 16:02:36.722425,-0.009713099950154276
2023-01-27 16:02:36.727425,-0.009351770393550278
2023-01-27 16:02:36.732425,-0.008611861281076936
2023-01-27 16:02:36.737425,-0.007452567573636702
2023-01-27 16:02:36.742425,-0.0059514490548829594
2023-01-27 16:02:36.747425,-0.00406285142526027
2023-01-27 16:02:36.752425,-0.001476346722700221
2023-01-27 16:02:36.757425,0.002139608142897425
2023-01-27 16:02:36.762425,0.006883437746663119
2023-01-27 16:02:36.767425,0.012645324692130023
2023-01-27 16:02:36.772425,0.01911253770866452
2023-01-27 16:02:36.777425,0.02557913586497301
2023-01-27 16:02:36.782425,0.030948405445530625
2023-01-27 16:02:36.787425,0.034137569367885506
2023-01-27 16:02:36.792425,0.034460343960596565
2023-01-27 16:02:36.797425,0.03166139125823968
2023-01-27 16:02:36.802425,0.025864462739354683
2023-01-27 16:02:36.807425,0.017645757645368472
2023-01-27 16:02:36.812425,0.007971268579860307
2023-01-27 16:02:36.817425,-0.0021396081428974346
2023-01-27 16:02:36.822425,-0.01190817330231467
2023-01-27 16:02:36.827425,-0.020891230553388464
2023-01-27 16:02:36.832425,-0.02912011956236926
2023-01-27 16:02:36.837425,-0.03721475601196279
2023-01-27 16:02:36.842425,-0.045863558053825554
2023-01-27 16:02:36.847425,-0.05445182323455812
2023-01-27 16:02:36.852425,-0.05962942748373108
2023-01-27 16:02:36.857425,-0.05498071759939187
2023-01-27 16:02:36.862425,-0.032507703258550624
2023-01-27 16:02:36.867425,0.014039675705134844
2023-01-27 16:02:36.872425,0.08489196278348923
2023-01-27 16:02:36.877425,0.17116865515708918
2023-01-27 16:02:36.882425,0.25538997790867507
2023-01-27 16:02:36.887425,0.31637352705001826
2023-01-27 16:02:36.892425,0.336721031372515
2023-01-27 16:02:36.897425,0.30957004427909846
2023-01-27 16:02:36.902425,0.24153223703334709
2023-01-27 16:02:36.907425,0.15032550692558277
2023-01-27 16:02:36.912425,0.0580285134278026
2023-01-27 16:02:36.917425,-0.016828378662467024
2023-01-27 16:02:36.922425,-0.06463125663032172
2023-01-27 16:02:36.927425,-0.08563240617513651
2023-01-27 16:02:36.932425,-0.08710341895270376
2023-01-27 16:02:36.937425,-0.07870873063802704
2023-01-27 16:02:36.942425,-0.06833182591314187
2023-01-27 16:02:36.947425,-0.06007730960845933
2023-01-27 16:02:36.952425,-0.05478632965859104
2023-01-27 16:02:36.957425,-0.051711201667785624
2023-01-27 16:02:36.962425,-0.04970228778033911
2023-01-27 16:02:36.967425,-0.0476483516395092
2023-01-27 16:02:36.972425,-0.04487757341214146
2023-01-27 16:02:36.977425,-0.04154205322265621
2023-01-27 16:02:36.982425,-0.03834145036304441
2023-01-27 16:02:36.987425,-0.03574828431010241
2023-01-27 16:02:36.992425,-0.03372456397347608
2023-01-27 16:02:36.997425,-0.0321422033011913
2023-01-27 16:02:37.002425,-0.031041225177534902
2023-01-27 16:02:37.007425,-0.03033916279673565
2023-01-27 16:02:37.012425,-0.029656613201485393
2023-01-27 16:02:37.017425,-0.028632283210754256
2023-01-27 16:02:37.022425,-0.02714806572262617
2023-01-27 16:02:37.027425,-0.025098323822021394
2023-01-27 16:02:37.032425,-0.022223739574231904
2023-01-27 16:02:37.037425,-0.01836697384715079
2023-01-27 16:02:37.042425,-0.013669256831218494
2023-01-27 16:02:37.047425,-0.008342067711055215
2023-01-27 16:02:37.052425,-0.0024360048743207606
2023-01-27 16:02:37.057425,0.004038810729980362
2023-01-27 16:02:37.062425,0.010995277066873706
2023-01-27 16:02:37.067425,0.01843909546732901
2023-01-27 16:02:37.072425,0.026557364872660867
2023-01-27 16:02:37.077425,0.03545979782938952
2023-01-27 16:02:37.082425,0.04496195805817913
2023-01-27 16:02:37.087425,0.05471627041697503
2023-01-27 16:02:37.092425,0.06436388834594653
2023-01-27 16:02:37.097425,0.07344385236501685
2023-01-27 16:02:37.102425,0.08137224361595204
2023-01-27 16:02:37.107425,0.08769989013671865
2023-01-27 16:02:37.112425,0.09227523479461361
2023-01-27 16:02:37.117425,0.09505629539489742
2023-01-27 16:02:37.122425,0.09592579541604727
2023-01-27 16:02:37.127425,0.09479185193777079
2023-01-27 16:02:37.132425,0.09168344503259925
2023-01-27 16:02:37.137425,0.08661806583404541
2023-01-27 16:02:37.142425,0.07955432212978504
2023-01-27 16:02:37.147425,0.07063110917806624
2023-01-27 16:02:37.152425,0.060325653411555186
2023-01-27 16:02:37.157425,0.049259066581726074
2023-01-27 16:02:37.162425,0.03797352102408564
2023-01-27 16:02:37.167425,0.026973485946655208
2023-01-27 16:02:37.172425,0.016779196271245248
2023-01-27 16:02:37.177425,0.007765094749629398
2023-01-27 16:02:37.182425,5.640682233809949e-05
2023-01-27 16:02:37.187425,-0.006298621650785189
2023-01-27 16:02:37.192425,-0.011175858297692874
2023-01-27 16:02:37.197425,-0.014496445655822716
2023-01-27 16:02:37.202425,-0.016370721150934665
2023-01-27 16:02:37.207425,-0.017020702362060488
2023-01-27 16:02:37.212425,-0.016686778643950597
2023-01-27 16:02:37.217425,-0.0156984739005565
2023-01-27 16:02:37.222425,-0.014479972012452274
2023-01-27 16:02:37.227425,-0.01334249973297111
2023-01-27 16:02:37.232425,-0.012348507284589345
2023-01-27 16:02:37.237425,-0.011443297378718758
2023-01-27 16:02:37.242425,-0.010597143837936992
2023-01-27 16:02:37.247425,-0.00976045988500106
2023-01-27 16:02:37.252425,-0.008848075568074354
2023-01-27 16:02:37.257425,-0.007885297760367338
2023-01-27 16:02:37.262425,-0.007051913383155655
2023-01-27 16:02:37.267425,-0.0064909458160399775
2023-01-27 16:02:37.272425,-0.006185169774657019
2023-01-27 16:02:37.277425,-0.006082256790250528
2023-01-27 16:02:37.282425,-0.006196946939088465
2023-01-27 16:02:37.287425,-0.006514986511319802
2023-01-27 16:02:37.292425,-0.006948588916174176
2023-01-27 16:02:37.297425,-0.007476608268916595
2023-01-27 16:02:37.302425,-0.008180816418031735
2023-01-27 16:02:37.307425,-0.00903924368321889
2023-01-27 16:02:37.312425,-0.009801972290366412
2023-01-27 16:02:37.317425,-0.010145108215510781
2023-01-27 16:02:37.322425,-0.009817346053758447
2023-01-27 16:02:37.327425,-0.008582472801208373
2023-01-27 16:02:37.332425,-0.006202085446269099
2023-01-27 16:02:37.337425,-0.002596378326416006
2023-01-27 16:02:37.342425,0.0021002180351118935
2023-01-27 16:02:37.347425,0.007717013359069813
2023-01-27 16:02:37.352425,0.014127348669624187
2023-01-27 16:02:37.357425,0.02105951309204102
2023-01-27 16:02:37.362425,0.027964201665716937
2023-01-27 16:02:37.367425,0.03413756936788552
2023-01-27 16:02:37.372425,0.03881712289457922
2023-01-27 16:02:37.377425,0.0411093235015869
2023-01-27 16:02:37.382425,0.040094466829695696
2023-01-27 16:02:37.387425,0.035267472267150796
2023-01-27 16:02:37.392425,0.026884021832088434
2023-01-27 16:02:37.397425,0.01586675643920891
2023-01-27 16:02:37.402425,0.003486531311575158
2023-01-27 16:02:37.407425,-0.008967122063040686
2023-01-27 16:02:37.412425,-0.020657890534494544
2023-01-27 16:02:37.417425,-0.03163735195994366
2023-01-27 16:02:37.422425,-0.04248086499795615
2023-01-27 16:02:37.427425,-0.05279302597045885
2023-01-27 16:02:37.432425,-0.05946700540215997
2023-01-27 16:02:37.437425,-0.05608658120036115
2023-01-27 16:02:37.442425,-0.034291120224528765
2023-01-27 16:02:37.447425,0.012861689552664705
2023-01-27 16:02:37.452425,0.0863696961370073
2023-01-27 16:02:37.457425,0.17770767211914054
2023-01-27 16:02:37.462425,0.26891722128176887
2023-01-27 16:02:37.467425,0.3375051617622373
2023-01-27 16:02:37.472425,0.36432010994481157
2023-01-27 16:02:37.477425,0.3407987058162688
2023-01-27 16:02:37.482425,0.2724266211368138
2023-01-27 16:02:37.487425,0.17689029872417433
2023-01-27 16:02:37.492425,0.07745911401247277
2023-01-27 16:02:37.497425,-0.005505283828824659
2023-01-27 16:02:37.502425,-0.06075961853846667
2023-01-27 16:02:37.507425,-0.08750756829977024
2023-01-27 16:02:37.512425,-0.09251858103698236
2023-01-27 16:02:37.517425,-0.08558432757854458
2023-01-27 16:02:37.522425,-0.07539867188246006
2023-01-27 16:02:37.527425,-0.06702502816915504
2023-01-27 16:02:37.532425,-0.061655989437832744
2023-01-27 16:02:37.537425,-0.0583223514258861
2023-01-27 16:02:37.542425,-0.055803579472267606
2023-01-27 16:02:37.547425,-0.05327383801341048
2023-01-27 16:02:37.552425,-0.050144660439007234
2023-01-27 16:02:37.557425,-0.046278040856122915
2023-01-27 16:02:37.562425,-0.04232185922142658
2023-01-27 16:02:37.567425,-0.03916203975677486
2023-01-27 16:02:37.572425,-0.03693473610832611
2023-01-27 16:02:37.577425,-0.03505110740661622
2023-01-27 16:02:37.582425,-0.03317768272510274
2023-01-27 16:02:37.587425,-0.03156523033976549
2023-01-27 16:02:37.592425,-0.03028573742767035
2023-01-27 16:02:37.597425,-0.028824608772992984
2023-01-27 16:02:37.602425,-0.026775695806774212
2023-01-27 16:02:37.607425,-0.02437710762023921
2023-01-27 16:02:37.612425,-0.021898256988575407
2023-01-27 16:02:37.617425,-0.018943946808576452
2023-01-27 16:02:37.622425,-0.014917297244942096
2023-01-27 16:02:37.627425,-0.009880661964416435
2023-01-27 16:02:37.632425,-0.004386644909029275
2023-01-27 16:02:37.637425,0.0013943513622507026
2023-01-27 16:02:37.642425,0.007838556843205837
2023-01-27 16:02:37.647425,0.015217661857604951
2023-01-27 16:02:37.652425,0.023386457314390378
2023-01-27 16:02:37.657425,0.032142203301191316
2023-01-27 16:02:37.662425,0.04141242469004148
2023-01-27 16:02:37.667425,0.0509419068694114
2023-01-27 16:02:37.672425,0.06016683535339149
2023-01-27 16:02:37.677425,0.0685876607894897
2023-01-27 16:02:37.682425,0.07602022534428786
2023-01-27 16:02:37.687425,0.08236289024353016
2023-01-27 16:02:37.692425,0.08737854877767244
2023-01-27 16:02:37.697425,0.09084920585155482
2023-01-27 16:02:37.702425,0.09271030480685578
2023-01-27 16:02:37.707425,0.09286861121654506
2023-01-27 16:02:37.712425,0.09107957769995217
2023-01-27 16:02:37.717425,0.08717100322246552
2023-01-27 16:02:37.722425,0.08124542318905856
2023-01-27 16:02:37.727425,0.07354001700878139
2023-01-27 16:02:37.732425,0.06425601273191803
2023-01-27 16:02:37.737425,0.05368252843618394
2023-01-27 16:02:37.742425,0.042355406480506924
2023-01-27 16:02:37.747425,0.03094017505645752
2023-01-27 16:02:37.752425,0.020055796225512647
2023-01-27 16:02:37.757425,0.010313391685485764
2023-01-27 16:02:37.762425,0.0023522079988363676
2023-01-27 16:02:37.767425,-0.00338971614837637
2023-01-27 16:02:37.772425,-0.006922583638495405
2023-01-27 16:02:37.777425,-0.008630554191768091
2023-01-27 16:02:37.782425,-0.0090336801308114
2023-01-27 16:02:37.787425,-0.008702675811946278
2023-01-27 16:02:37.792425,-0.008235995112980477
2023-01-27 16:02:37.797425,-0.008077621459960865
2023-01-27 16:02:37.802425,-0.008333423333527707
2023-01-27 16:02:37.807425,-0.008846919052302818
2023-01-27 16:02:37.812425,-0.00939857035915053
2023-01-27 16:02:37.817425,-0.009760459885001073
2023-01-27 16:02:37.822425,-0.009696938366367836
2023-01-27 16:02:37.827425,-0.009111365303397094
2023-01-27 16:02:37.832425,-0.008181201070975778
2023-01-27 16:02:37.837425,-0.007236202713102064
2023-01-27 16:02:37.842425,-0.006534657140407844
2023-01-27 16:02:37.847425,-0.006226500030606843
2023-01-27 16:02:37.852425,-0.0064129848102101004
2023-01-27 16:02:37.857425,-0.007067918777465791
2023-01-27 16:02:37.862425,-0.007943195798987956
2023-01-27 16:02:37.867425,-0.008702675811946323
2023-01-27 16:02:37.872425,-0.009137019491697408
2023-01-27 16:02:37.877425,-0.009159445762634215
2023-01-27 16:02:37.882425,-0.008676974627569346
2023-01-27 16:02:37.887425,-0.007620851509272948
2023-01-27 16:02:37.892425,-0.006054249161755289
2023-01-27 16:02:37.897425,-0.004086892120540127
2023-01-27 16:02:37.902425,-0.0016890797925018385
2023-01-27 16:02:37.907425,0.0012981891632080267
2023-01-27 16:02:37.912425,0.00500607070125922
2023-01-27 16:02:37.917425,0.009496013633906838
2023-01-27 16:02:37.922425,0.014785559799374416
2023-01-27 16:02:37.927425,0.020722946152091026
2023-01-27 16:02:37.932425,0.026825718407938837
2023-01-27 16:02:37.937425,0.032358568161725894
2023-01-27 16:02:37.942425,0.036550564158554434
2023-01-27 16:02:37.947425,0.03865718841552726
2023-01-27 16:02:37.952425,0.03794897032978422
2023-01-27 16:02:37.957425,0.03392120450735086
2023-01-27 16:02:37.962425,0.026627074057544116
2023-01-27 16:02:37.967425,0.01675625704228869
2023-01-27 16:02:37.972425,0.00539743814229233
2023-01-27 16:02:37.977425,-0.006298621650785165
2023-01-27 16:02:37.982425,-0.017507407422587617
2023-01-27 16:02:37.987425,-0.028103392571210823
2023-01-27 16:02:37.992425,-0.038493118662151216
2023-01-27 16:02:37.997425,-0.04841765016317358
2023-01-27 16:02:38.002425,-0.05522386094282881
2023-01-27 16:02:38.007425,-0.05298535153269756
2023-01-27 16:02:38.012425,-0.03360179312379602
2023-01-27 16:02:38.017425,0.010000864975154289
2023-01-27 16:02:38.022425,0.07949487400887592
2023-01-27 16:02:38.027425,0.16753852367401115
2023-01-27 16:02:38.032425,0.2574013248605144
2023-01-27 16:02:38.037425,0.32721579074859597
2023-01-27 16:02:38.042425,0.357580180299771
2023-01-27 16:02:38.047425,0.33901971578598006
2023-01-27 16:02:38.052425,0.2758015712104756
2023-01-27 16:02:38.057425,0.18441498279571525
2023-01-27 16:02:38.062425,0.08736246121520512
2023-01-27 16:02:38.067425,0.005000432487577129
2023-01-27 16:02:38.072425,-0.05079675954728218
2023-01-27 16:02:38.077425,-0.0784683227539061
2023-01-27 16:02:38.082425,-0.08421786344362303
2023-01-27 16:02:38.087425,-0.07743458449840532
2023-01-27 16:02:38.092425,-0.06655742491492095
2023-01-27 16:02:38.097425,-0.05673567578196516
2023-01-27 16:02:38.102425,-0.049616720865633575
2023-01-27 16:02:38.107425,-0.04471540451049796
2023-01-27 16:02:38.112425,-0.04105907429433696
2023-01-27 16:02:38.117425,-0.037984054535627365
2023-01-27 16:02:38.122425,-0.03512422515477669
2023-01-27 16:02:38.127425,-0.03231048583984371
2023-01-27 16:02:38.132425,-0.029584165161321344
2023-01-27 16:02:38.137425,-0.02704560756683338
2023-01-27 16:02:38.142425,-0.024646505305997303
2023-01-27 16:02:38.147425,-0.02228558063507083
2023-01-27 16:02:38.152425,-0.020018471704633875
2023-01-27 16:02:38.157425,-0.01793424412608139
2023-01-27 16:02:38.162425,-0.01589346714079581
2023-01-27 16:02:38.167425,-0.013630986213684004
2023-01-27 16:02:38.172425,-0.011036797466040919
2023-01-27 16:02:38.177425,-0.008077621459960826
2023-01-27 16:02:38.182425,-0.004544530083461188
2023-01-27 16:02:38.187425,-0.00019232432532576382
2023-01-27 16:02:38.192425,0.004929843622336507
2023-01-27 16:02:38.197425,0.010577837936580143
2023-01-27 16:02:38.202425,0.01666132643747289
2023-01-27 16:02:38.207425,0.023199122399091738
2023-01-27 16:02:38.212425,0.03005595036680775
2023-01-27 16:02:38.217425,0.03709455579519271
2023-01-27 16:02:38.222425,0.04449458902204732
2023-01-27 16:02:38.227425,0.05252858251333229
2023-01-27 16:02:38.232425,0.06108847664731083
2023-01-27 16:02:38.237425,0.06978969275951377
2023-01-27 16:02:38.242425,0.07838819753077265
2023-01-27 16:02:38.247425,0.08664210885763157
2023-01-27 16:02:38.252425,0.09392694788684869
2023-01-27 16:02:38.257425,0.09955187886953346
2023-01-27 16:02:38.262425,0.10336513169940621
2023-01-27 16:02:38.267425,0.10548989474773401
2023-01-27 16:02:38.272425,0.10562569994742349
2023-01-27 16:02:38.277425,0.10332624614238735
2023-01-27 16:02:38.282425,0.09884866332393899
2023-01-27 16:02:38.287425,0.0928686112165451
2023-01-27 16:02:38.292425,0.08540469948907463
2023-01-27 16:02:38.297425,0.07608830928802493
2023-01-27 16:02:38.302425,0.06565143251453727
2023-01-27 16:02:38.307425,0.05589425563812252
2023-01-27 16:02:38.312425,0.04758940720183553
2023-01-27 16:02:38.317425,0.039522647857665995
2023-01-27 16:02:38.322425,0.030461872737251372
2023-01-27 16:02:38.327425,0.021179717034101434
2023-01-27 16:02:38.332425,0.013524547997036554
2023-01-27 16:02:38.337425,0.008197824470698781
2023-01-27 16:02:38.342425,0.004581379828203408
2023-01-27 16:02:38.347425,0.002259810920804701
2023-01-27 16:02:38.352425,0.0014195210921867365
2023-01-27 16:02:38.357425,0.001827081083319977
2023-01-27 16:02:38.362425,0.0025725597326844915
2023-01-27 16:02:38.367425,0.0030531487427650746
2023-01-27 16:02:38.372425,0.0034117878542958948
2023-01-27 16:02:38.377425,0.0038464865647255615
2023-01-27 16:02:38.382425,0.004212946456850867
2023-01-27 16:02:38.387425,0.004495581146329591
2023-01-27 16:02:38.392425,0.005011522113710072
2023-01-27 16:02:38.397425,0.005889932624995722
2023-01-27 16:02:38.402425,0.006849866897535477
2023-01-27 16:02:38.407425,0.007692973129451171
2023-01-27 16:02:38.412425,0.008570059941812976
2023-01-27 16:02:38.417425,0.009592175483703622
2023-01-27 16:02:38.422425,0.010596765287106876
2023-01-27 16:02:38.427425,0.01146733760833745
2023-01-27 16:02:38.432425,0.01231991259864127
2023-01-27 16:02:38.437425,0.01324633788317439
2023-01-27 16:02:38.442425,0.014248009258142152
2023-01-27 16:02:38.447425,0.015578269958495941
2023-01-27 16:02:38.452425,0.017816191603202972
2023-01-27 16:02:38.457425,0.021420121192932025
2023-01-27 16:02:38.462425,0.02641149193076309
2023-01-27 16:02:38.467425,0.032502811402082374
2023-01-27 16:02:38.472425,0.039176856446923786
2023-01-27 16:02:38.477425,0.04553278535604468
2023-01-27 16:02:38.482425,0.05040458880958337
2023-01-27 16:02:38.487425,0.05286514759063718
2023-01-27 16:02:38.492425,0.052509551415266066
2023-01-27 16:02:38.497425,0.04928310960531229
2023-01-27 16:02:38.502425,0.04335611403065443
2023-01-27 16:02:38.507425,0.03526747226715076
2023-01-27 16:02:38.512425,0.0259114130247362
2023-01-27 16:02:38.517425,0.016203325241804133
2023-01-27 16:02:38.522425,0.006824486955695903
2023-01-27 16:02:38.527425,-0.0018270810833199605
2023-01-27 16:02:38.532425,-0.009797139802703943
2023-01-27 16:02:38.537425,-0.017717879265546688
2023-01-27 16:02:38.542425,-0.026256856748786816
2023-01-27 16:02:38.547425,-0.03476262092590325
2023-01-27 16:02:38.552425,-0.04000272607761848
2023-01-27 16:02:38.557425,-0.036012731492519295
2023-01-27 16:02:38.562425,-0.015524747241004362
2023-01-27 16:02:38.567425,0.02702156826853747
2023-01-27 16:02:38.572425,0.09162043569132547
2023-01-27 16:02:38.577425,0.16994258761405936
2023-01-27 16:02:38.582425,0.24594576110927
2023-01-27 16:02:38.587425,0.30045866966247536
2023-01-27 16:02:38.592425,0.31794201667990174
2023-01-27 16:02:38.597425,0.29245316982269265
2023-01-27 16:02:38.602425,0.2302139859390702
2023-01-27 16:02:38.607425,0.14746467769145954
2023-01-27 16:02:38.612425,0.0643136169742617
2023-01-27 16:02:38.617425,-0.0025242567062376746
2023-01-27 16:02:38.622425,-0.04458982798172366
2023-01-27 16:02:38.627425,-0.06238520145416254
2023-01-27 16:02:38.632425,-0.06266026698003256
2023-01-27 16:02:38.637425,-0.05425950139760969
2023-01-27 16:02:38.642425,-0.04442857885891808
2023-01-27 16:02:38.647425,-0.036926269531249965
2023-01-27 16:02:38.652425,-0.03232078593865673
2023-01-27 16:02:38.657425,-0.029569864273071175
2023-01-27 16:02:38.662425,-0.027459718297416433
2023-01-27 16:02:38.667425,-0.025242567062377833
2023-01-27 16:02:38.672425,-0.02273411268257128
2023-01-27 16:02:38.677425,-0.02017001435160633
2023-01-27 16:02:38.682425,-0.017854159442979512
2023-01-27 16:02:38.687425,-0.015818675979971827
2023-01-27 16:02:38.692425,-0.013839889602366196
2023-01-27 16:02:38.697425,-0.011707743629813064
2023-01-27 16:02:38.702425,-0.009339352378179214
2023-01-27 16:02:38.707425,-0.006707310676574717
2023-01-27 16:02:38.712425,-0.003866737921862788
2023-01-27 16:02:38.717425,-0.001033743261359613
2023-01-27 16:02:38.722425,0.0015702044671079371
2023-01-27 16:02:38.727425,0.003990729805081988
2023-01-27 16:02:38.732425,0.006541527321147811
2023-01-27 16:02:38.737425,0.009568135254085017
2023-01-27 16:02:38.742425,0.013341819321064124
2023-01-27 16:02:38.747425,0.018102526664733783
2023-01-27 16:02:38.752425,0.02397899950678707
2023-01-27 16:02:38.757425,0.030844014137983277
2023-01-27 16:02:38.762425,0.03839521630422176
2023-01-27 16:02:38.767425,0.0463742017745971
2023-01-27 16:02:38.772425,0.05458978669269447
2023-01-27 16:02:38.777425,0.0627938956022262
2023-01-27 16:02:38.782425,0.07071635540652034
2023-01-27 16:02:38.787425,0.07820387929677965
2023-01-27 16:02:38.792425,0.08517319767779351
2023-01-27 16:02:38.797425,0.09145021438598627
2023-01-27 16:02:38.802425,0.09678538218258029
2023-01-27 16:02:38.807425,0.10097026824951168
2023-01-27 16:02:38.812425,0.103782144715466
2023-01-27 16:02:38.817425,0.10486483573913566
2023-01-27 16:02:38.822425,0.10384324280133583
2023-01-27 16:02:38.827425,0.1005615815520285
2023-01-27 16:02:38.832425,0.09511497974314893
2023-01-27 16:02:38.837425,0.08772393316030497
2023-01-27 16:02:38.842425,0.07872368488994869
2023-01-27 16:02:38.847425,0.06861170381307596
2023-01-27 16:02:38.852425,0.05793578995201111
2023-01-27 16:02:38.857425,0.0471435002982616
2023-01-27 16:02:38.862425,0.03663066951602027
2023-01-27 16:02:38.867425,0.02685328386723993
2023-01-27 16:02:38.872425,0.01824827117699093
2023-01-27 16:02:38.877425,0.01108268927782769
2023-01-27 16:02:38.882425,0.005466391029204539
2023-01-27 16:02:38.887425,0.0014183919411152246
2023-01-27 16:02:38.892425,-0.0011916787089882206
2023-01-27 16:02:38.897425,-0.0026684999465941576
2023-01-27 16:02:38.902425,-0.0033242236852585568
2023-01-27 16:02:38.907425,-0.0033416352234780147
2023-01-27 16:02:38.912425,-0.0028606828836378628
2023-01-27 16:02:38.917425,-0.002067486522719187
2023-01-27 16:02:38.922425,-0.001097742118102443
2023-01-27 16:02:38.927425,2.404054066576459e-05
2023-01-27 16:02:38.932425,0.0012561967368284297
2023-01-27 16:02:38.937425,0.0024761757813393666
2023-01-27 16:02:38.942425,0.0036098283815089033
2023-01-27 16:02:38.947425,0.004663865081965908
2023-01-27 16:02:38.952425,0.0055677556706531985
2023-01-27 16:02:38.957425,0.00617841910570848
2023-01-27 16:02:38.962425,0.006521220518191157
2023-01-27 16:02:38.967425,0.00682751368731264
2023-01-27 16:02:38.972425,0.007267311826757492
2023-01-27 16:02:38.977425,0.00786125659942618
2023-01-27 16:02:38.982425,0.008691885521162087
2023-01-27 16:02:38.987425,0.00992874335497612
2023-01-27 16:02:38.992425,0.011616626730368711
2023-01-27 16:02:38.997425,0.01377522945404049
2023-01-27 16:02:39.002425,0.016735241684336585
2023-01-27 16:02:39.007425,0.020939311012625656
2023-01-27 16:02:39.012425,0.026291501783613294
2023-01-27 16:02:39.017425,0.03209412097930904
2023-01-27 16:02:39.022425,0.03763125594316746
2023-01-27 16:02:39.027425,0.04223923012614252
2023-01-27 16:02:39.032425,0.04480756942809767
2023-01-27 16:02:39.037425,0.04416247457265851
2023-01-27 16:02:39.042425,0.040397656896793734
2023-01-27 16:02:39.047425,0.035003028810024206
2023-01-27 16:02:39.052425,0.02905313608241243
2023-01-27 16:02:39.057425,0.022021135315299024
2023-01-27 16:02:39.062425,0.013147091560421785
2023-01-27 16:02:39.067425,0.0032214324455708074
2023-01-27 16:02:39.072425,-0.0060998710396153654
2023-01-27 16:02:39.077425,-0.014352202415466276
2023-01-27 16:02:39.082425,-0.022501191698078567
2023-01-27 16:02:39.087425,-0.03118058107793331
2023-01-27 16:02:39.092425,-0.039419919237756354
2023-01-27 16:02:39.097425,-0.0445952042937278
2023-01-27 16:02:39.102425,-0.04223873475791956
2023-01-27 16:02:39.107425,-0.025963783264160146
2023-01-27 16:02:39.112425,0.010394636702521156
2023-01-27 16:02:39.117425,0.06846746057271949
2023-01-27 16:02:39.122425,0.14206323291713466
2023-01-27 16:02:39.127425,0.217470735311508
2023-01-27 16:02:39.132425,0.2770218769991089
2023-01-27 16:02:39.137425,0.30449748039245583
2023-01-27 16:02:39.142425,0.2910839335211968
2023-01-27 16:02:39.147425,0.23949186503887165
2023-01-27 16:02:39.152425,0.16331349667800535
2023-01-27 16:02:39.157425,0.08144935220479955
2023-01-27 16:02:39.162425,0.011038317211034869
2023-01-27 16:02:39.167425,-0.03747920319437974
2023-01-27 16:02:39.172425,-0.062000233568001946
2023-01-27 16:02:39.177425,-0.06743371486663807
2023-01-27 16:02:39.182425,-0.06206844255278404
2023-01-27 16:02:39.187425,-0.05334595963358869
2023-01-27 16:02:39.192425,-0.04549622119595051
2023-01-27 16:02:39.197425,-0.03983517736196512
2023-01-27 16:02:39.202425,-0.03615224822489514
2023-01-27 16:02:39.207425,-0.033656757324934006
2023-01-27 16:02:39.212425,-0.03155903491682974
2023-01-27 16:02:39.217425,-0.02959390543401242
2023-01-27 16:02:39.222425,-0.027993979061379383
2023-01-27 16:02:39.227425,-0.026853283867239917
2023-01-27 16:02:39.232425,-0.02583582361469531
2023-01-27 16:02:39.237425,-0.02461751364171499
2023-01-27 16:02:39.242425,-0.02319293552499542
2023-01-27 16:02:39.247425,-0.021564364433288498
2023-01-27 16:02:39.252425,-0.019547636272142593
2023-01-27 16:02:39.257425,-0.017116865143179824
2023-01-27 16:02:39.262425,-0.014572521545740017
2023-01-27 16:02:39.267425,-0.012140473350882511
2023-01-27 16:02:39.272425,-0.00972114984479063
2023-01-27 16:02:39.277425,-0.007188121788203688
2023-01-27 16:02:39.282425,-0.004552418213819465
2023-01-27 16:02:39.287425,-0.0016347568016498901
2023-01-27 16:02:39.292425,0.002054040696740998
2023-01-27 16:02:39.297425,0.0068755946122108945
2023-01-27 16:02:39.302425,0.012794171173636364
2023-01-27 16:02:39.307425,0.019665163010358783
2023-01-27 16:02:39.312425,0.027412698552327378
2023-01-27 16:02:39.317425,0.035748284310102414
2023-01-27 16:02:39.322425,0.044099052408134616
2023-01-27 16:02:39.327425,0.05204777047038069
2023-01-27 16:02:39.332425,0.0595522926065103
2023-01-27 16:02:39.337425,0.06659229844808567
2023-01-27 16:02:39.342425,0.07295211475363088
2023-01-27 16:02:39.347425,0.07849236577749247
2023-01-27 16:02:39.352425,0.08322924112455765
2023-01-27 16:02:39.357425,0.08693059533834446
2023-01-27 16:02:39.362425,0.08898841607242798
2023-01-27 16:02:39.367425,0.08890192210674276
2023-01-27 16:02:39.372425,0.08658347491246862
2023-01-27 16:02:39.377425,0.08207440376281729
2023-01-27 16:02:39.382425,0.07538241462227382
2023-01-27 16:02:39.387425,0.06680866330862041
2023-01-27 16:02:39.392425,0.057042435460418116
2023-01-27 16:02:39.397425,0.046686731278896235
2023-01-27 16:02:39.402425,0.036007951106808746
2023-01-27 16:02:39.407425,0.025314688682556076
2023-01-27 16:02:39.412425,0.015186198060674692
2023-01-27 16:02:39.417425,0.006106297485530319
2023-01-27 16:02:39.422425,-0.0017630299323206202
2023-01-27 16:02:39.427425,-0.00824590586125844
2023-01-27 16:02:39.432425,-0.012991100954459326
2023-01-27 16:02:39.437425,-0.015890797600150046
2023-01-27 16:02:39.442425,-0.017304814676538285
2023-01-27 16:02:39.447425,-0.01764575764536845
2023-01-27 16:02:39.452425,-0.017091630381744806
2023-01-27 16:02:39.457425,-0.015890797600150074
2023-01-27 16:02:39.462425,-0.014520726143653519
2023-01-27 16:02:39.467425,-0.013270378112792906
2023-01-27 16:02:39.472425,-0.012027719477159853
2023-01-27 16:02:39.477425,-0.010722081176936597
2023-01-27 16:02:39.482425,-0.00960901161244723
2023-01-27 16:02:39.487425,-0.008895000442862443
2023-01-27 16:02:39.492425,-0.008484547997531183
2023-01-27 16:02:39.497425,-0.008342067711055187
2023-01-27 16:02:39.502425,-0.008676470104380305
2023-01-27 16:02:39.507425,-0.009471973404288228
2023-01-27 16:02:39.512425,-0.010224632853102189
2023-01-27 16:02:39.517425,-0.010433594696223764
2023-01-27 16:02:39.522425,-0.009997762826372584
2023-01-27 16:02:39.527425,-0.008919040672481008
2023-01-27 16:02:39.532425,-0.007091484385206797
2023-01-27 16:02:39.537425,-0.0046879053115843825
2023-01-27 16:02:39.542425,-0.00227485965834358
2023-01-27 16:02:39.547425,-0.00014424324035638137
2023-01-27 16:02:39.552425,0.002116754908917026
2023-01-27 16:02:39.557425,0.005096594803035264
2023-01-27 16:02:39.562425,0.008991973578498066
2023-01-27 16:02:39.567425,0.013775229454040536
2023-01-27 16:02:39.572425,0.01932237278201333
2023-01-27 16:02:39.577425,0.024930041283369005
2023-01-27 16:02:39.582425,0.02919677544742088
2023-01-27 16:02:39.587425,0.030892094597220428
2023-01-27 16:02:39.592425,0.02964944018347421
2023-01-27 16:02:39.597425,0.02557913586497295
2023-01-27 16:02:39.602425,0.018818963294568447
2023-01-27 16:02:39.607425,0.009928743354976066
2023-01-27 16:02:39.612425,0.000134419255965805
2023-01-27 16:02:39.617425,-0.009447932243347092
2023-01-27 16:02:39.622425,-0.01849773162890841
2023-01-27 16:02:39.627425,-0.027093689888715723
2023-01-27 16:02:39.632425,-0.0352871148434275
2023-01-27 16:02:39.637425,-0.04346529766917217
2023-01-27 16:02:39.642425,-0.05205867439327149
2023-01-27 16:02:39.647425,-0.05957245826721189
2023-01-27 16:02:39.652425,-0.06099806274179877
2023-01-27 16:02:39.657425,-0.048970580101013066
2023-01-27 16:02:39.662425,-0.016857882489898425
2023-01-27 16:02:39.667425,0.0382725410163402
2023-01-27 16:02:39.672425,0.11297386758528383
2023-01-27 16:02:39.677425,0.19530534744262695
2023-01-27 16:02:39.682425,0.26623418674178634
2023-01-27 16:02:39.687425,0.30639669299125677
2023-01-27 16:02:39.692425,0.3043468435770673
2023-01-27 16:02:39.697425,0.260431170463562
2023-01-27 16:02:39.702425,0.18549691815445574
2023-01-27 16:02:39.707425,0.09755651652812948
2023-01-27 16:02:39.712425,0.017026090069644485
2023-01-27 16:02:39.717425,-0.04060447216033929
2023-01-27 16:02:39.722425,-0.0712130740920154
2023-01-27 16:02:39.727425,-0.08123298734426491
2023-01-27 16:02:39.732425,-0.07993386093171435
2023-01-27 16:02:39.737425,-0.07317940890789026
2023-01-27 16:02:39.742425,-0.06396551862056431
2023-01-27 16:02:39.747425,-0.055389404296875
2023-01-27 16:02:39.752425,-0.050143172595404885
2023-01-27 16:02:39.757425,-0.04810512065887449
2023-01-27 16:02:39.762425,-0.04695078702690409
2023-01-27 16:02:39.767425,-0.04524429887533183
2023-01-27 16:02:39.772425,-0.04344497982190944
2023-01-27 16:02:39.777425,-0.04209498688578601
2023-01-27 16:02:39.782425,-0.040746612229590105
2023-01-27 16:02:39.787425,-0.03899375721812244
2023-01-27 16:02:39.792425,-0.037182405205906446
2023-01-27 16:02:39.797425,-0.035555958747863686
2023-01-27 16:02:39.802425,-0.033676497031063984
2023-01-27 16:02:39.807425,-0.031204622238874408
2023-01-27 16:02:39.812425,-0.028495920180188778
2023-01-27 16:02:39.817425,-0.025963783264160094
2023-01-27 16:02:39.822425,-0.02346276304605879
2023-01-27 16:02:39.827425,-0.020698904991149868
2023-01-27 16:02:39.832425,-0.01769284863183852
2023-01-27 16:02:39.837425,-0.014424324035644512
2023-01-27 16:02:39.842425,-0.010478948098034627
2023-01-27 16:02:39.847425,-0.005457202903926322
2023-01-27 16:02:39.852425,0.000606705179200541
2023-01-27 16:02:39.857425,0.007548729889094791
2023-01-27 16:02:39.862425,0.015443654229687657
2023-01-27 16:02:39.867425,0.02432902716100212
2023-01-27 16:02:39.872425,0.03384138355513424
2023-01-27 16:02:39.877425,0.04344125837087633
2023-01-27 16:02:39.882425,0.05277213281509137
2023-01-27 16:02:39.887425,0.0615437850356101
2023-01-27 16:02:39.892425,0.0693349748412917
2023-01-27 16:02:39.897425,0.07584790885448453
2023-01-27 16:02:39.902425,0.08119331639873377
2023-01-27 16:02:39.907425,0.08563240617513647
2023-01-27 16:02:39.912425,0.0891424227212365
2023-01-27 16:02:39.917425,0.09142617881298065
2023-01-27 16:02:39.922425,0.09215531483280634
2023-01-27 16:02:39.927425,0.09094536304473866
2023-01-27 16:02:39.932425,0.08726930685968037
2023-01-27 16:02:39.937425,0.0807521790266036
2023-01-27 16:02:39.942425,0.07157236486534027
2023-01-27 16:02:39.947425,0.060413878411054556
2023-01-27 16:02:39.952425,0.04811084204160897
2023-01-27 16:02:39.957425,0.03550788015127179
2023-01-27 16:02:39.962425,0.023500448094453404
2023-01-27 16:02:39.967425,0.012861689552664674
2023-01-27 16:02:39.972425,0.003957857449820797
2023-01-27 16:02:39.977425,-0.0032214324455707884
2023-01-27 16:02:39.982425,-0.00878933637007365
2023-01-27 16:02:39.987425,-0.012885729782283249
2023-01-27 16:02:39.992425,-0.01580056151892567
2023-01-27 16:02:39.997425,-0.017910202965140256
2023-01-27 16:02:40.002425,-0.019421890567674998
2023-01-27 16:02:40.007425,-0.020314257591962794
2023-01-27 16:02:40.012425,-0.020532580115606706
2023-01-27 16:02:40.017425,-0.02009789273142806
2023-01-27 16:02:40.022425,-0.01904466863583353
2023-01-27 16:02:40.027425,-0.017453432083129855
2023-01-27 16:02:40.032425,-0.015600857972035698
2023-01-27 16:02:40.037425,-0.013919472694396858
2023-01-27 16:02:40.042425,-0.012723257074966925
2023-01-27 16:02:40.047425,-0.012044310569763107
2023-01-27 16:02:40.052425,-0.011733328020408947
2023-01-27 16:02:40.057425,-0.011587540619075189
2023-01-27 16:02:40.062425,-0.011374318373913676
2023-01-27 16:02:40.067425,-0.010914405807852719
2023-01-27 16:02:40.072425,-0.01025194044209139
2023-01-27 16:02:40.077425,-0.009664297103881789
2023-01-27 16:02:40.082425,-0.009451718853803588
2023-01-27 16:02:40.087425,-0.009784500114619647
2023-01-27 16:02:40.092425,-0.010742309334250084
2023-01-27 16:02:40.097425,-0.01233279705047603
2023-01-27 16:02:40.102425,-0.014378968804361155
2023-01-27 16:02:40.107425,-0.016491811722516948
2023-01-27 16:02:40.112425,-0.01824495197691036
2023-01-27 16:02:40.117425,-0.019328594207763644
2023-01-27 16:02:40.122425,-0.019528867710829373
2023-01-27 16:02:40.127425,-0.01870354078710072
2023-01-27 16:02:40.132425,-0.016866325508117008
2023-01-27 16:02:40.137425,-0.014183918945491314
2023-01-27 16:02:40.142425,-0.010777972539504162
2023-01-27 16:02:40.147425,-0.0065871081314979275
2023-01-27 16:02:40.152425,-0.001497175001300377
2023-01-27 16:02:40.157425,0.004447500221431198
2023-01-27 16:02:40.162425,0.010985668117333822
2023-01-27 16:02:40.167425,0.01764575764536849
2023-01-27 16:02:40.172425,0.023690051048403375
2023-01-27 16:02:40.177425,0.02815147303044791
2023-01-27 16:02:40.182425,0.030101798673139425
2023-01-27 16:02:40.187425,0.0289448108524084
2023-01-27 16:02:40.192425,0.024500649946035784
2023-01-27 16:02:40.197425,0.016996663063764496
2023-01-27 16:02:40.202425,0.007130089920024678
2023-01-27 16:02:40.207425,-0.00399072980508196
2023-01-27 16:02:40.212425,-0.015273680316451143
2023-01-27 16:02:40.217425,-0.026204189285635903
2023-01-27 16:02:40.222425,-0.03697743112952767
2023-01-27 16:02:40.227425,-0.047888755798339816
2023-01-27 16:02:40.232425,-0.05811099369357799
2023-01-27 16:02:40.237425,-0.06433248519897457
2023-01-27 16:02:40.242425,-0.06015185421259826
2023-01-27 16:02:40.247425,-0.037358999252319336
2023-01-27 16:02:40.252425,0.01051216354111475
2023-01-27 16:02:40.257425,0.08363704383373265
2023-01-27 16:02:40.262425,0.17286528917789154
2023-01-27 16:02:40.267425,0.2603590488433837
2023-01-27 16:02:40.272425,0.32440995623590513
2023-01-27 16:02:40.277425,0.34692904353141785
2023-01-27 16:02:40.282425,0.32051724469965553
2023-01-27 16:02:40.287425,0.2516804337501525
2023-01-27 16:02:40.292425,0.15837365016448407
2023-01-27 16:02:40.297425,0.0630583390593528
2023-01-27 16:02:40.302425,-0.01523318156784275
2023-01-27 16:02:40.307425,-0.06630381196737276
2023-01-27 16:02:40.312425,-0.08995251746056555
2023-01-27 16:02:40.317425,-0.09327729791402811
2023-01-27 16:02:40.322425,-0.08597840963080529
2023-01-27 16:02:40.327425,-0.0760883092880249
2023-01-27 16:02:40.332425,-0.06794005226084242
2023-01-27 16:02:40.337425,-0.06255348771810533
2023-01-27 16:02:40.342425,-0.059171123404645164
2023-01-27 16:02:40.347425,-0.05659143254160877
2023-01-27 16:02:40.352425,-0.05388974464506097
2023-01-27 16:02:40.357425,-0.0507495813071727
2023-01-27 16:02:40.362425,-0.04747820607642619
2023-01-27 16:02:40.367425,-0.044619243592023794
2023-01-27 16:02:40.372425,-0.042419262569152516
2023-01-27 16:02:40.377425,-0.040676593780517495
2023-01-27 16:02:40.382425,-0.03908977926790389
2023-01-27 16:02:40.387425,-0.03759940713644012
2023-01-27 16:02:40.392425,-0.036275547253109997
2023-01-27 16:02:40.397425,-0.03497898578643787
2023-01-27 16:02:40.402425,-0.033340210307602085
2023-01-27 16:02:40.407425,-0.031108459457754953
2023-01-27 16:02:40.412425,-0.02837591203402699
2023-01-27 16:02:40.417425,-0.025386810302734323
2023-01-27 16:02:40.422425,-0.0222386159797569
2023-01-27 16:02:40.427425,-0.01884778402745722
2023-01-27 16:02:40.432425,-0.015069069221818884
2023-01-27 16:02:40.437425,-0.010673999786376877
2023-01-27 16:02:40.442425,-0.005268772712828706
2023-01-27 16:02:40.447425,0.0015626351814717622
2023-01-27 16:02:40.452425,0.00995760974775457
2023-01-27 16:02:40.457425,0.019665163010358734
2023-01-27 16:02:40.462425,0.03019199602292166
2023-01-27 16:02:40.467425,0.04094104096293437
2023-01-27 16:02:40.472425,0.05125674365602685
2023-01-27 16:02:40.477425,0.06055812165141098
2023-01-27 16:02:40.482425,0.06855392031406053
2023-01-27 16:02:40.487425,0.07527093589305862
2023-01-27 16:02:40.492425,0.08084041130340007
2023-01-27 16:02:40.497425,0.08531987667083737
2023-01-27 16:02:40.502425,0.08868360586575742
2023-01-27 16:02:40.507425,0.09080111980438223
2023-01-27 16:02:40.512425,0.09134367604616009
2023-01-27 16:02:40.517425,0.0898395031690597
2023-01-27 16:02:40.522425,0.08593677866431418
2023-01-27 16:02:40.527425,0.07959823310375208
2023-01-27 16:02:40.532425,0.07107475874657389
2023-01-27 16:02:40.537425,0.06084660813212385
2023-01-27 16:02:40.542425,0.0496354552942902
2023-01-27 16:02:40.547425,0.03829658031463621
2023-01-27 16:02:40.552425,0.02753941257222141
2023-01-27 16:02:40.557425,0.017765959724783766
2023-01-27 16:02:40.562425,0.009177689523716063
2023-01-27 16:02:40.567425,0.0018992027034983464
2023-01-27 16:02:40.572425,-0.004064993976055689
2023-01-27 16:02:40.577425,-0.00884691905230282
2023-01-27 16:02:40.582425,-0.012563587017377687
2023-01-27 16:02:40.587425,-0.01521766185760489
2023-01-27 16:02:40.592425,-0.016810637650753073
2023-01-27 16:02:40.597425,-0.017453432083129765
2023-01-27 16:02:40.602425,-0.01729967585440466
2023-01-27 16:02:40.607425,-0.01649181172251699
2023-01-27 16:02:40.612425,-0.015265662632625864
2023-01-27 16:02:40.617425,-0.013991594314575102
2023-01-27 16:02:40.622425,-0.012988776305441775
2023-01-27 16:02:40.627425,-0.012356838211417078
2023-01-27 16:02:40.632425,-0.012048519654386714
2023-01-27 16:02:40.637425,-0.011996230110525993
2023-01-27 16:02:40.642425,-0.012086074628934504
2023-01-27 16:02:40.647425,-0.0121404733508825
2023-01-27 16:02:40.652425,-0.012062984398902002
2023-01-27 16:02:40.657425,-0.011924108490347805
2023-01-27 16:02:40.662425,-0.011799877053084964
2023-01-27 16:02:40.667425,-0.011611580848693785
2023-01-27 16:02:40.672425,-0.01123540482146628
2023-01-27 16:02:40.677425,-0.010698040947318011
2023-01-27 16:02:40.682425,-0.010170917501841481
2023-01-27 16:02:40.687425,-0.009856621734797889
2023-01-27 16:02:40.692425,-0.009971726352627105
2023-01-27 16:02:40.697425,-0.010722081176936607
2023-01-27 16:02:40.702425,-0.012128551513094867
2023-01-27 16:02:40.707425,-0.013895432464778342
2023-01-27 16:02:40.712425,-0.015530091559295892
2023-01-27 16:02:40.717425,-0.0165398921817541
2023-01-27 16:02:40.722425,-0.01646723329234531
2023-01-27 16:02:40.727425,-0.014881094917654958
2023-01-27 16:02:40.732425,-0.01151654967975288
2023-01-27 16:02:40.737425,-0.006418824195861826
2023-01-27 16:02:40.742425,0.00011216497545748893
2023-01-27 16:02:40.747425,0.007644891738891544
2023-01-27 16:02:40.752425,0.01560554384416731
2023-01-27 16:02:40.757425,0.02324720285832879
2023-01-27 16:02:40.762425,0.029768961774413516
2023-01-27 16:02:40.767425,0.0344500951468944
2023-01-27 16:02:40.772425,0.03663121440434639
2023-01-27 16:02:40.777425,0.03570020198822019
2023-01-27 16:02:40.782425,0.031284935753473554
2023-01-27 16:02:40.787425,0.0235116481781005
2023-01-27 16:02:40.792425,0.013069608419030956
2023-01-27 16:02:40.797425,0.0010577838402240994
2023-01-27 16:02:40.802425,-0.011323792783858613
2023-01-27 16:02:40.807425,-0.0232472028583288
2023-01-27 16:02:40.812425,-0.03465866182122098
2023-01-27 16:02:40.817425,-0.04601359367370598
2023-01-27 16:02:40.822425,-0.05703284515674239
2023-01-27 16:02:40.827425,-0.0650537014007568
2023-01-27 16:02:40.832425,-0.06414476721219242
2023-01-27 16:02:40.837425,-0.04601359367370595
2023-01-27 16:02:40.842425,-0.0030862691569960884
2023-01-27 16:02:40.847425,0.06695290654897684
2023-01-27 16:02:40.852425,0.157247563462696
2023-01-27 16:02:40.857425,0.25115153193473805
2023-01-27 16:02:40.862425,0.3262833886798446
2023-01-27 16:02:40.867425,0.36205053329467757
2023-01-27 16:02:40.872425,0.34742916634351007
2023-01-27 16:02:40.877425,0.285481423139572
2023-01-27 16:02:40.882425,0.19240114027650485
2023-01-27 16:02:40.887425,0.0913300141692161
2023-01-27 16:02:40.892425,0.0038460952276392936
2023-01-27 16:02:40.897425,-0.056807797402143374
2023-01-27 16:02:40.902425,-0.08804749510008415
2023-01-27 16:02:40.907425,-0.09582559764385219
2023-01-27 16:02:40.912425,-0.0900181554464178
2023-01-27 16:02:40.917425,-0.07974247634410848
2023-01-27 16:02:40.922425,-0.07053648764278601
2023-01-27 16:02:40.927425,-0.06414016336202619
2023-01-27 16:02:40.932425,-0.06003399744353781
2023-01-27 16:02:40.937425,-0.057096283882856314
2023-01-27 16:02:40.942425,-0.05446752927708321
2023-01-27 16:02:40.947425,-0.05180736631155007
2023-01-27 16:02:40.952425,-0.04924971931811104
2023-01-27 16:02:40.957425,-0.047047339379787424
2023-01-27 16:02:40.962425,-0.04517425907602618
2023-01-27 16:02:40.967425,-0.04339317604899401
2023-01-27 16:02:40.972425,-0.04163461261241894
2023-01-27 16:02:40.977425,-0.04000345990061751
2023-01-27 16:02:40.982425,-0.03843074763969006
2023-01-27 16:02:40.987425,-0.036685865372419274
2023-01-27 16:02:40.992425,-0.03473941478543433
2023-01-27 16:02:40.997425,-0.032671093940734815
2023-01-27 16:02:41.002425,-0.03017643294056388
2023-01-27 16:02:41.007425,-0.026733081787824534
2023-01-27 16:02:41.012425,-0.022447482876250053
2023-01-27 16:02:41.017425,-0.01812656782567495
2023-01-27 16:02:41.022425,-0.014134130047980212
2023-01-27 16:02:41.027425,-0.009712378494441495
2023-01-27 16:02:41.032425,-0.00391318821212275
2023-01-27 16:02:41.037425,0.003269513603299809
2023-01-27 16:02:41.042425,0.011245567977919159
2023-01-27 16:02:41.047425,0.01985748670995232
2023-01-27 16:02:41.052425,0.02932865386394337
2023-01-27 16:02:41.057425,0.03940244764089577
2023-01-27 16:02:41.062425,0.049275787063423525
2023-01-27 16:02:41.067425,0.05839447304606427
2023-01-27 16:02:41.072425,0.06673833326110636
2023-01-27 16:02:41.077425,0.07430931180715555
2023-01-27 16:02:41.082425,0.08088702308019795
2023-01-27 16:02:41.087425,0.08635362237691865
2023-01-27 16:02:41.092425,0.09074488576341776
2023-01-27 16:02:41.097425,0.09383022785186763
2023-01-27 16:02:41.102425,0.09503099895902346
2023-01-27 16:02:41.107425,0.09387831389904018
2023-01-27 16:02:41.112425,0.09024921788225314
2023-01-27 16:02:41.117425,0.08414189517498007
2023-01-27 16:02:41.122425,0.0756314920568551
2023-01-27 16:02:41.127425,0.0651739090681076
2023-01-27 16:02:41.132425,0.05362592750825008
2023-01-27 16:02:41.137425,0.041830539703369085
2023-01-27 16:02:41.142425,0.030402147012394066
2023-01-27 16:02:41.147425,0.019905567169189377
2023-01-27 16:02:41.152425,0.010872807915471369
2023-01-27 16:02:41.157425,0.003509918926283705
2023-01-27 16:02:41.162425,-0.0023525866773273993
2023-01-27 16:02:41.167425,-0.006923675537109328
2023-01-27 16:02:41.172425,-0.010284935106057158
2023-01-27 16:02:41.177425,-0.012573203071951783
2023-01-27 16:02:41.182425,-0.014030267755516817
2023-01-27 16:02:41.187425,-0.014784932136535575
2023-01-27 16:02:41.192425,-0.014836243034045248
2023-01-27 16:02:41.197425,-0.014328162185847707
2023-01-27 16:02:41.202425,-0.013603102683964115
2023-01-27 16:02:41.207425,-0.012909770011901796
2023-01-27 16:02:41.212425,-0.012271635366414407
2023-01-27 16:02:41.217425,-0.011683702468872013
2023-01-27 16:02:41.222425,-0.011198954804938627
2023-01-27 16:02:41.227425,-0.010770162567496208
2023-01-27 16:02:41.232425,-0.010261601179131698
2023-01-27 16:02:41.237425,-0.009712378494441542
2023-01-27 16:02:41.242425,-0.009384392262323406
2023-01-27 16:02:41.247425,-0.009471973404288169
2023-01-27 16:02:41.252425,-0.00993614948695296
2023-01-27 16:02:41.257425,-0.01064995955675842
2023-01-27 16:02:41.262425,-0.011495548353229105
2023-01-27 16:02:41.267425,-0.012284716591238861
2023-01-27 16:02:41.272425,-0.012820720394364984
2023-01-27 16:02:41.277425,-0.013126134872436475
2023-01-27 16:02:41.282425,-0.013433922933906151
2023-01-27 16:02:41.287425,-0.013895432464778404
2023-01-27 16:02:41.292425,-0.014446643356942056
2023-01-27 16:02:41.297425,-0.014953216537833184
2023-01-27 16:02:41.302425,-0.015268829679540324
2023-01-27 16:02:41.307425,-0.01512150000780815
2023-01-27 16:02:41.312425,-0.014165153550863858
2023-01-27 16:02:41.317425,-0.01221259497106071
2023-01-27 16:02:41.322425,-0.009254774591953984
2023-01-27 16:02:41.327425,-0.005240838043391742
2023-01-27 16:02:41.332425,-4.9649691569281156e-05
2023-01-27 16:02:41.337425,0.006274580955505295
2023-01-27 16:02:41.342425,0.013429171731092319
2023-01-27 16:02:41.347425,0.020987391471862637
2023-01-27 16:02:41.352425,0.028393775076222944
2023-01-27 16:02:41.357425,0.03478666394948949
2023-01-27 16:02:41.362425,0.039064996063686755
2023-01-27 16:02:41.367425,0.0402679070830345
2023-01-27 16:02:41.372425,0.03784785750741904
2023-01-27 16:02:41.377425,0.0317094735801219
2023-01-27 16:02:41.382425,0.022309607343546246
2023-01-27 16:02:41.387425,0.010770162567496184
2023-01-27 16:02:41.392425,-0.0014622290398713306
2023-01-27 16:02:41.397425,-0.013390581123530771
2023-01-27 16:02:41.402425,-0.024937644135354823
2023-01-27 16:02:41.407425,-0.0365416221320629
2023-01-27 16:02:41.412425,-0.04799839511727303
2023-01-27 16:02:41.417425,-0.05700012296438207
2023-01-27 16:02:41.422425,-0.05804614038910925
2023-01-27 16:02:41.427425,-0.042888324707746485
2023-01-27 16:02:41.432425,-0.003470498747315608
2023-01-27 16:02:41.437425,0.06332278251647938
2023-01-27 16:02:41.442425,0.15159653872810666
2023-01-27 16:02:41.447425,0.24567028880119315
2023-01-27 16:02:41.452425,0.32366559647522813
2023-01-27 16:02:41.457425,0.3645507693290709
2023-01-27 16:02:41.462425,0.3560223049105889
2023-01-27 16:02:41.467425,0.29961726069450356
2023-01-27 16:02:41.472425,0.21027774774078387
2023-01-27 16:02:41.477425,0.11046628654003139
2023-01-27 16:02:41.482425,0.021903024613932506
2023-01-27 16:02:41.487425,-0.041205488145351396
2023-01-27 16:02:41.492425,-0.07499280629135756
2023-01-27 16:02:41.497425,-0.08445441722869867
2023-01-27 16:02:41.502425,-0.07907956612024626
2023-01-27 16:02:41.507425,-0.06808280944824209
2023-01-27 16:02:41.512425,-0.05748480628780394
2023-01-27 16:02:41.517425,-0.04969179630279538
2023-01-27 16:02:41.522425,-0.044625846028380926
2023-01-27 16:02:41.527425,-0.041157405823469086
2023-01-27 16:02:41.532425,-0.0381947561590244
2023-01-27 16:02:41.537425,-0.035219393670558936
2023-01-27 16:02:41.542425,-0.032239848970207506
2023-01-27 16:02:41.547425,-0.02944966219365588
2023-01-27 16:02:41.552425,-0.02701397382936415
2023-01-27 16:02:41.557425,-0.02505024336278426
2023-01-27 16:02:41.562425,-0.023564213421827407
2023-01-27 16:02:41.567425,-0.022333662956952948
2023-01-27 16:02:41.572425,-0.020970727189179476
2023-01-27 16:02:41.577425,-0.01913627050817009
2023-01-27 16:02:41.582425,-0.016634699887216414
2023-01-27 16:02:41.587425,-0.013366540893912354
2023-01-27 16:02:41.592425,-0.00935247351167941
2023-01-27 16:02:41.597425,-0.004808108322322311
2023-01-27 16:02:41.602425,-5.117053646994899e-05
2023-01-27 16:02:41.607425,0.004711946006864283
2023-01-27 16:02:41.612425,0.009465437574311812
2023-01-27 16:02:41.617425,0.014328162185847683
2023-01-27 16:02:41.622425,0.01955556890315215
2023-01-27 16:02:41.627425,0.025555094704031868
2023-01-27 16:02:41.632425,0.032725191966755364
2023-01-27 16:02:41.637425,0.04120548814535142
2023-01-27 16:02:41.642425,0.05079124345292977
2023-01-27 16:02:41.647425,0.0610148906707763
2023-01-27 16:02:41.652425,0.07124146969662089
2023-01-27 16:02:41.657425,0.08080025762319558
2023-01-27 16:02:41.662425,0.08919857877487437
2023-01-27 16:02:41.667425,0.09623428434133521
2023-01-27 16:02:41.672425,0.10187713784068178
2023-01-27 16:02:41.677425,0.1061149463057518
2023-01-27 16:02:41.682425,0.10893143416747895
2023-01-27 16:02:41.687425,0.11027395725250246
2023-01-27 16:02:41.692425,0.10995207451166407
2023-01-27 16:02:41.697425,0.1077016219496726
2023-01-27 16:02:41.702425,0.10342644573065225
2023-01-27 16:02:41.707425,0.09724398702383036
2023-01-27 16:02:41.712425,0.0892806654666674
2023-01-27 16:02:41.717425,0.0796703547239303
2023-01-27 16:02:41.722425,0.06882292620309802
2023-01-27 16:02:41.727425,0.057408809661865214
2023-01-27 16:02:41.732425,0.045991813773364504
2023-01-27 16:02:41.737425,0.03502706810832021
2023-01-27 16:02:41.742425,0.025310301016271453
2023-01-27 16:02:41.747425,0.017862122505903216
2023-01-27 16:02:41.752425,0.012958066558871597
2023-01-27 16:02:41.757425,0.009688338264822884
2023-01-27 16:02:41.762425,0.006965908265665526
2023-01-27 16:02:41.767425,0.004663865081965914
2023-01-27 16:02:41.772425,0.0032920980428662715
2023-01-27 16:02:41.777425,0.002932945964857936
2023-01-27 16:02:41.782425,0.0031829862188532195
2023-01-27 16:02:41.787425,0.0039426488801836135
2023-01-27 16:02:41.792425,0.005489655832316155
2023-01-27 16:02:41.797425,0.007717013359069764
2023-01-27 16:02:41.802425,0.009937769948890831
2023-01-27 16:02:41.807425,0.01158754061907521
2023-01-27 16:02:41.812425,0.012621369218678263
2023-01-27 16:02:41.817425,0.01312613487243649
2023-01-27 16:02:41.822425,0.013071588142820738
2023-01-27 16:02:41.827425,0.012621283531188883
2023-01-27 16:02:41.832425,0.01222410680999467
2023-01-27 16:02:41.837425,0.012164513580500998
2023-01-27 16:02:41.842425,0.012349459493323394
2023-01-27 16:02:41.847425,0.012669364921748602
2023-01-27 16:02:41.852425,0.013202900357719467
2023-01-27 16:02:41.857425,0.013919472694396907
2023-01-27 16:02:41.862425,0.014552265910360447
2023-01-27 16:02:41.867425,0.014977256767451706
2023-01-27 16:02:41.872425,0.015460609520150983
2023-01-27 16:02:41.877425,0.016419690102338704
2023-01-27 16:02:41.882425,0.018234440557665866
2023-01-27 16:02:41.887425,0.021372040733694933
2023-01-27 16:02:41.892425,0.026283202383292206
2023-01-27 16:02:41.897425,0.032887458801269476
2023-01-27 16:02:41.902425,0.04032963289766471
2023-01-27 16:02:41.907425,0.047359865158796234
2023-01-27 16:02:41.912425,0.05277146472572123
2023-01-27 16:02:41.917425,0.055509608238935415
2023-01-27 16:02:41.922425,0.05483085461325607
2023-01-27 16:02:41.927425,0.050677459686994455
2023-01-27 16:02:41.932425,0.04374202921497152
2023-01-27 16:02:41.937425,0.03502706810832017
2023-01-27 16:02:41.942425,0.02548125787773938
2023-01-27 16:02:41.947425,0.016010999679565315
2023-01-27 16:02:41.952425,0.007382495597710743
2023-01-27 16:02:41.957425,-0.00021636486053461113
2023-01-27 16:02:41.962425,-0.0073748654763392
2023-01-27 16:02:41.967425,-0.014977256767451692
2023-01-27 16:02:41.972425,-0.02332283267308475
2023-01-27 16:02:41.977425,-0.031156539916992087
2023-01-27 16:02:41.982425,-0.034700991542361385
2023-01-27 16:02:41.987425,-0.02740621566772457
2023-01-27 16:02:41.992425,-0.001661045313645271
2023-01-27 16:02:41.997425,0.04743198677897452
2023-01-27 16:02:42.002425,0.11805275612021023
2023-01-27 16:02:42.007425,0.19980093836784354
2023-01-27 16:02:42.012425,0.2752671511045269
2023-01-27 16:02:42.017425,0.3249800205230711
2023-01-27 16:02:42.022425,0.33433789272059894
2023-01-27 16:02:42.027425,0.2996172606945036
2023-01-27 16:02:42.032425,0.22978310049596765
2023-01-27 16:02:42.037425,0.14294505119323725
2023-01-27 16:02:42.042425,0.059455659830002075
2023-01-27 16:02:42.047425,-0.004928310867398916
2023-01-27 16:02:42.052425,-0.043184622240052435
2023-01-27 16:02:42.057425,-0.05731264874339098
2023-01-27 16:02:42.062425,-0.055132682837737215
2023-01-27 16:02:42.067425,-0.04558086395263667
2023-01-27 16:02:42.072425,-0.035163016867890175
2023-01-27 16:02:42.077425,-0.026925405487418085
2023-01-27 16:02:42.082425,-0.021265309244386972
2023-01-27 16:02:42.087425,-0.017261108383536318
2023-01-27 16:02:42.092425,-0.013855090363731032
2023-01-27 16:02:42.097425,-0.010601878166198666
2023-01-27 16:02:42.102425,-0.007668562768525858
2023-01-27 16:02:42.107425,-0.005264878273010168
2023-01-27 16:02:42.112425,-0.0032742664246570496
2023-01-27 16:02:42.117425,-0.0014424324035644176
2023-01-27 16:02:42.122425,0.0003701902640663898
2023-01-27 16:02:42.127425,0.00225981092080472
2023-01-27 16:02:42.132425,0.004359960566379806
2023-01-27 16:02:42.137425,0.006683270446956054
2023-01-27 16:02:42.142425,0.009066156647666787
2023-01-27 16:02:42.147425,0.011419257149100342
2023-01-27 16:02:42.152425,0.013882721261180762
2023-01-27 16:02:42.157425,0.016636054962873365
2023-01-27 16:02:42.162425,0.01973956791341532
2023-01-27 16:02:42.167425,0.023271244019269915
2023-01-27 16:02:42.172425,0.02742421322044867
2023-01-27 16:02:42.177425,0.032334528863429954
2023-01-27 16:02:42.182425,0.03797276548823177
2023-01-27 16:02:42.187425,0.04430671781301493
2023-01-27 16:02:42.192425,0.05138547483161127
2023-01-27 16:02:42.197425,0.05913972854614253
2023-01-27 16:02:42.202425,0.0672647460974492
2023-01-27 16:02:42.207425,0.0754151791334152
2023-01-27 16:02:42.212425,0.08336203431759198
2023-01-27 16:02:42.217425,0.0908732414245605
2023-01-27 16:02:42.222425,0.09763220888538122
2023-01-27 16:02:42.227425,0.10339836776256553
2023-01-27 16:02:42.232425,0.10808603030355916
2023-01-27 16:02:42.237425,0.11157214641571037
2023-01-27 16:02:42.242425,0.1135803914330157
2023-01-27 16:02:42.247425,0.11385600268840775
2023-01-27 16:02:42.252425,0.11230415663768675
2023-01-27 16:02:42.257425,0.10887961089611045
2023-01-27 16:02:42.262425,0.10353129682650057
2023-01-27 16:02:42.267425,0.09637852758169163
2023-01-27 16:02:42.272425,0.08779193426108821
2023-01-27 16:02:42.277425,0.07820387929677958
2023-01-27 16:02:42.282425,0.06799234887373537
2023-01-27 16:02:42.287425,0.057625174522399916
2023-01-27 16:02:42.292425,0.047711399106520704
2023-01-27 16:02:42.297425,0.03875335305929181
2023-01-27 16:02:42.302425,0.03095679941699415
2023-01-27 16:02:42.307425,0.024353068321943224
2023-01-27 16:02:42.312425,0.0189373435031759
2023-01-27 16:02:42.317425,0.014592608436942062
2023-01-27 16:02:42.322425,0.011065540394497177
2023-01-27 16:02:42.327425,0.008173784241080216
2023-01-27 16:02:42.332425,0.005934273256618178
2023-01-27 16:02:42.337425,0.004399418830871498
2023-01-27 16:02:42.342425,0.0034981186221412107
2023-01-27 16:02:42.347425,0.003125270362943372
2023-01-27 16:02:42.352425,0.00324499637163226
2023-01-27 16:02:42.357425,0.0037984054069965805
2023-01-27 16:02:42.362425,0.00462623322412032
2023-01-27 16:02:42.367425,0.00557740544900291
2023-01-27 16:02:42.372425,0.0065939880558335984
2023-01-27 16:02:42.377425,0.007620851509272962
2023-01-27 16:02:42.382425,0.008539581261008027
2023-01-27 16:02:42.387425,0.009255608543753624
2023-01-27 16:02:42.392425,0.00975595813886504
2023-01-27 16:02:42.397425,0.010048946365713997
2023-01-27 16:02:42.402425,0.010160627048479504
2023-01-27 16:02:42.407425,0.010217229835689028
2023-01-27 16:02:42.412425,0.010409251660324663
2023-01-27 16:02:42.417425,0.01084228418767455
2023-01-27 16:02:42.422425,0.01151066496373197
2023-01-27 16:02:42.427425,0.012380878441035728
2023-01-27 16:02:42.432425,0.013373236187364872
2023-01-27 16:02:42.437425,0.01435220241546626
2023-01-27 16:02:42.442425,0.015380374223314154
2023-01-27 16:02:42.447425,0.016972621902823372
2023-01-27 16:02:42.452425,0.019837760653955542
2023-01-27 16:02:42.457425,0.024280946701764974
2023-01-27 16:02:42.462425,0.029972860806204593
2023-01-27 16:02:42.467425,0.03620505332946771
2023-01-27 16:02:42.472425,0.04207638718618058
2023-01-27 16:02:42.477425,0.046470366418361594
2023-01-27 16:02:42.482425,0.04829855768709252
2023-01-27 16:02:42.487425,0.047047339379787445
2023-01-27 16:02:42.492425,0.042982340102443346
2023-01-27 16:02:42.497425,0.036782026290893485
2023-01-27 16:02:42.502425,0.029182978078163193
2023-01-27 16:02:42.507425,0.020987391471862685
2023-01-27 16:02:42.512425,0.013027987192653606
2023-01-27 16:02:42.517425,0.005817811004817448
2023-01-27 16:02:42.522425,-0.0007247316631970382
2023-01-27 16:02:42.527425,-0.007164081092923766
2023-01-27 16:02:42.532425,-0.014237912250631136
2023-01-27 16:02:42.537425,-0.02235770225524906
2023-01-27 16:02:42.542425,-0.03056866805613737
2023-01-27 16:02:42.547425,-0.03526747226715084
2023-01-27 16:02:42.552425,-0.02997388438147168
2023-01-27 16:02:42.557425,-0.0071640810929238284
2023-01-27 16:02:42.562425,0.03825277948437657
