11.68
14.4
16.61
18.53
20.32
21.9
23.12
23.78
23.85
23.45
22.86
22.39
22.32
22.75
23.66
24.92
26.31
27.63
28.7
29.5
30
30.32
30.62
31.1
31.96
33.25
34.72
35.78
35.68
33.72
29.63
23.63
16.35
8.55
0.77
-6.73
-13.94
-20.91
-27.52
-33.47
-38.32
-41.68
-43.2
-42.69
-40.07
-35.5
-29.33
-22.16
-14.69
-7.57
-1.2
4.32
9.16
13.66
18.07
22.47
26.75
30.63
33.82
36.07
37.26
37.34
36.31
34.21
31.1
27.13
22.47
17.31
11.7
5.56
-1.25
-8.76
-16.78
-24.87
-32.42
-38.95
-44.08
-47.6
-49.44
-49.57
-48.1
-45.35
-41.74
-37.87
-34.25
-31.21
-28.87
-27.09
-25.63
-24.16
-22.33
-19.74
-16.06
-11.18
-5.21
1.45
8.24
14.58
19.98
24.11
26.86
28.33
28.82
28.75
28.53
28.4
28.39
28.28
27.81
26.84
25.41
23.77
22.15
20.64
19.14
17.45
15.47
13.29
11.17
9.41
8.11
7.11
6.03
4.49
2.32
-0.41
-3.41
-6.4
-9.22
-11.9
-14.57
-17.25
-19.83
-21.99
-23.41
-23.87
-23.36
-22.03
-20.16
-18.01
-15.73
-13.32
-10.64
-7.48
-3.73
0.6
5.19
9.55
13.11
15.43
16.44
16.49
16.29
16.55
17.73
19.77
22.23
24.54
26.25
27.23
27.65
27.71
27.44
26.67
25.09
22.57
19.27
15.69
12.4
9.8
7.95
6.52
4.99
2.88
-0.06
-3.74
-7.73
-11.44
-14.25
-15.76
-15.83
-14.64
-12.56
-10.07
-7.53
-5.15
-2.98
-0.97
0.95
2.8
4.6
6.3
7.82
9.02
9.7
9.62
8.62
6.67
3.97
0.95
-1.87
-4.06
-5.37
-5.89
-5.95
-5.95
-6.21
-6.87
-7.86
-9.08
-10.38
-11.65
-12.75
-13.52
-13.8
-13.51
-12.8
-12.05
-11.76
-12.32
-13.8
-15.84
-17.74
-18.7
-18.09
-15.76
-12.02
-7.56
-3.22
0.36
2.92
4.6
5.84
7.12
8.81
11
13.5
16.01
18.21
19.96
21.42
22.9
24.82
27.52
31.18
35.82
41.36
47.61
54.24
60.75
66.52
71.13
74.58
77.27
79.64
81.69
82.57
80.57
73.69
60.5
40.93
16.53
-9.91
-35.12
-56.35
-71.92
-81.61
-86.35
-87.81
-87.74
-87.47
-87.52
-87.63
-87.02
-84.79
-80.29
-73.35
-64.41
-54.24
-43.8
-33.88
-25.07
-17.73
-11.95
-7.5
-3.92
-0.7
2.39
4.89
5.75
3.72
-1.91
-10.71
-20.98
-30.35
-36.7
-38.99
-37.57
-33.65
-28.58
-23.21
-17.91
-12.88
-8.49
-5.21
-3.3
-2.3
-1.01
2.05
7.83
16.09
25.24
32.85
36.61
35.25
28.99
19.39
8.62
-1.36
-9.42
-15.19
-18.66
-19.76
-18.14
-13.35
-5.32
5.23
16.79
27.39
35.19
38.89
38.04
32.84
24.06
12.87
0.84
-10.21
-18.53
-22.88
-23
-19.74
-14.7
-9.66
-5.87
-3.79
-3.05
-2.81
-2.27
-0.98
1.12
3.78
6.62
9.26
11.32
12.49
12.7
12.15
11.3
10.7
10.69
11.24
11.92
12.1
11.38
9.64
7.05
3.74
-0.4
-5.62
-12.13
-19.85
-28.31
-36.81
-44.49
-50.27
-52.65
-49.75
-39.6
-21.08
5.14
36.07
66.95
92.48
108.61
113.79
109.15
97.73
83.07
67.97
53.92
41.35
30.13
20.15
11.6
4.72
-0.4
-4.06
-6.87
-9.52
-12.36
-15.3
-17.76
-19.02
-18.64
-16.79
-14.11
-11.53
-9.73
-8.89
-8.6
-8.04
-6.42
-3.3
1.26
6.75
12.48
17.75
21.99
24.73
25.61
24.32
20.68
14.77
6.95
-2.15
-11.69
-20.85
-28.92
-35.45
-40.23
-43.21
-44.47
-44.13
-42.36
-39.41
-35.59
-31.31
-26.96
-22.8
-18.88
-14.9
-10.44
-5.11
1.21
8.24
15.38
21.95
27.6
32.41
36.96
41.92
47.75
54.34
60.88
66.08
68.65
67.83
63.62
56.86
48.78
40.53
32.6
24.72
15.99
5.28
-8.26
-24.88
-44.21
-65.37
-87.03
-107.39
-124.19
-134.97
-137.83
-132.27
-119.89
-104.08
-88.81
-76.81
-68.27
-60.87
-51.11
-36.3
-16.08
7.56
31.32
52.29
69.12
81.96
91.59
98.33
101.58
100.06
92.61
78.91
59.75
36.71
11.7
-13.54
-37.83
-60.44
-80.71
-97.7
-110.19
-116.9
-116.94
-110.29
-98.11
-82.84
-67.66
-55.51
-48.18
-45.84
-47.2
-50.19
-52.79
-53.48
-51.44
-46.42
-38.54
-28.19
-16.13
-3.53
8.13
17.54
23.92
27.38
28.89
29.72
30.92
33.23
36.95
41.81
47.15
52.1
55.93
58.37
59.56
59.93
59.89
59.65
59.11
58.01
56.07
53.11
49.1
44.05
38.12
31.56
24.81
18.41
12.99
9.02
6.67
5.75
5.7
5.86
5.69
4.94
3.64
1.99
0.25
-1.51
-3.4
-5.69
-8.51
-11.82
-15.27
-18.31
-20.42
-21.25
-20.75
-19.16
-16.87
-14.28
-11.67
-9.19
-6.84
-4.62
-2.54
-0.58
1.18
2.7
3.95
4.97
5.82
6.63
7.51
8.54
9.7
10.87
11.87
12.46
12.45
11.71
10.3
8.38
6.26
4.25
2.54
1.21
0.17
-0.73
-1.58
-2.42
-3.2
-3.86
-4.31
-4.45
-4.09
-3.03
-1.16
1.49
4.55
7.5
9.85
11.3
11.86
11.81
11.43
10.93
10.34
9.55
8.49
7.16
5.68
4.26
3.09
2.27
1.87
1.86
2.17
2.68
3.3
3.94
4.53
5
5.21
5.03
4.39
3.37
2.26
1.45
1.22
1.69
2.64
3.66
4.45
4.87
5.07
5.32
5.73
6.12
6.08
5.14
3.12
0.22
-2.99
-5.93
-8.16
-9.6
-10.38
-10.62
-10.26
-9.11
-7
-3.92
-0.11
4.11
8.49
12.85
16.98
20.47
22.59
22.54
19.78
14.37
7.06
-0.95
-8.46
-14.68
-19.43
-23.12
-26.4
-29.81
-33.61
-37.6
-41.33
-44.17
-45.45
-44.49
-40.73
-33.84
-24.01
-11.99
0.87
12.91
22.56
28.77
31.27
30.43
27.17
22.56
17.64
13.21
9.78
7.47
6.12
5.32
4.58
3.52
1.94
-0.11
-2.4
-4.62
-6.4
-7.48
-7.69
-7.15
-6.27
-5.64
-5.83
-7.05
-8.92
-10.56
-10.82
-8.83
-4.35
2.05
9.24
16.02
21.58
25.81
29.12
32.09
35.07
37.85
39.88
40.46
39.19
36.14
31.76
26.74
21.62
16.74
12.26
8.23
4.75
2
0.13
-0.79
-0.91
-0.54
-0.01
0.39
0.54
0.39
-0.02
-0.66
-1.52
-2.53
-3.64
-4.76
-5.86
-6.98
-8.17
-9.45
-10.74
-11.84
-12.55
-12.79
-12.7
-12.6
-12.8
-13.4
-14.16
-14.49
-13.83
-11.89
-8.86
-5.39
-2.23
0.1
1.51
2.29
2.84
3.43
4.1
4.68
5.07
5.33
5.64
6.19
6.98
7.77
8.29
8.36
8.02
7.52
7.17
7.12
7.32
7.56
7.58
7.2
6.39
5.27
4.05
2.95
2.18
1.85
2
2.54
3.27
3.87
4.03
3.54
2.35
0.71
-0.96
-2.13
-2.44
-1.8
-0.55
0.74
1.43
1.1
-0.39
-2.96
-6.34
-10.31
-14.6
-18.92
-22.87
-25.97
-27.83
-28.26
-27.42
-25.72
-23.61
-21.4
-19.16
-16.78
-14.17
-11.4
-8.7
-6.36
-4.58
-3.42
-2.79
-2.48
-2.33
-2.21
-2.02
-1.67
-1.06
-0.16
0.9
1.87
2.38
2.14
1.12
-0.39
-1.91
-2.9
-3.02
-2.26
-0.88
0.74
2.32
3.76
5.1
6.46
7.87
9.22
10.31
10.96
11.15
10.94
10.48
9.88
9.21
8.47
7.63
6.7
5.75
4.9
4.22
3.71
3.29
2.85
2.31
1.62
0.78
-0.2
-1.29
-2.51
-3.81
-5.09
-6.21
-7.03
-7.5
-7.67
-7.67
-7.59
-7.42
-7
-6.21
-5.02
-3.59
-2.2
-1.11
-0.42
-0.02
0.31
0.8
1.54
2.43
3.32
4.04
4.55
4.9
5.21
5.59
6.08
6.65
7.14
7.38
7.19
6.46
5.21
3.63
1.97
0.53
-0.51
-1.14
-1.53
-1.95
-2.62
-3.61
-4.86
-6.15
-7.28
-8.05
-8.38
-8.23
-7.62
-6.52
-4.98
-3.17
-1.34
0.17
1.13
1.48
1.39
1.13
0.95
0.94
1
0.94
0.63
0.06
-0.58
-1.01
-0.99
-0.48
0.37
1.24
1.8
1.83
1.33
0.46
-0.49
-1.31
-1.94
-2.48
-3.11
-3.96
-5.04
-6.22
-7.4
-8.47
-9.43
-10.2
-10.62
-10.44
-9.47
-7.78
-5.65
-3.56
-1.92
-0.9
-0.39
-0.11
0.22
0.76
1.52
2.42
3.38
4.29
5.05
5.56
5.77
5.67
5.39
5.09
4.87
4.73
4.5
3.99
3.04
1.71
0.2
-1.21
-2.28
-2.97
-3.31
-3.48
-3.62
-3.85
-4.27
-4.97
-6.01
-7.32
-8.69
-9.67
-9.86
-8.97
-7.08
-4.58
-2.05
-0.07
1.06
1.41
1.28
1.11
1.21
1.74
2.6
3.57
4.43
5.14
5.82
6.61
7.58
8.55
9.2
9.18
8.36
6.91
5.24
3.73
2.59
1.75
0.96
0.01
-1.1
-2.19
-3.01
-3.5
-3.83
-4.35
-5.34
-6.82
-8.52
-9.92
-10.53
-10.05
-8.55
-6.35
-3.96
-1.78
-0.02
1.34
2.44
3.39
4.28
5.08
5.76
6.33
6.91
7.59
8.37
9.15
9.7
9.85
9.61
9.08
8.46
7.93
7.5
7.08
6.57
5.87
4.95
3.81
2.48
1
-0.58
-2.18
-3.7
-5.03
-6.12
-6.98
-7.72
-8.45
-9.21
-10
-10.67
-11
-10.8
-9.95
-8.45
-6.47
-4.26
-2.07
-0.11
1.51
2.8
3.76
4.45
4.91
5.21
5.46
5.77
6.24
6.94
7.87
8.89
9.8
10.4
10.5
10.01
9
7.66
6.28
5.09
4.22
3.61
3.13
2.63
2.07
1.49
0.94
0.43
-0.11
-0.81
-1.72
-2.86
-4.13
-5.49
-6.9
-8.37
-9.88
-11.3
-12.37
-12.84
-12.57
-11.6
-10.1
-8.27
-6.23
-4.06
-1.84
0.28
2.12
3.48
4.3
4.69
4.91
5.22
5.85
6.83
8.05
9.33
10.47
11.32
11.83
11.92
11.59
10.83
9.71
8.37
7.04
5.96
5.27
4.9
4.59
4.05
3.11
1.84
0.51
-0.58
-1.33
-1.87
-2.51
-3.56
-5.14
-7.13
-9.28
-11.32
-13.01
-14.2
-14.72
-14.41
-13.16
-10.99
-8.09
-4.85
-1.74
0.84
2.66
3.69
4.13
4.27
4.42
4.75
5.31
5.99
6.61
7.05
7.35
7.64
8.1
8.77
9.52
10.09
10.21
9.8
8.96
7.96
7.08
6.45
5.99
5.46
4.66
3.5
2.1
0.61
-0.78
-2
-3.03
-3.89
-4.59
-5.14
-5.66
-6.34
-7.42
-9.01
-11.01
-13.09
-14.75
-15.52
-15.06
-13.35
-10.61
-7.26
-3.85
-0.86
1.37
2.78
3.56
4.05
4.58
5.3
6.18
7.07
7.78
8.28
8.59
8.8
8.95
9.04
9.04
8.96
8.86
8.73
8.56
8.24
7.72
6.93
5.96
4.92
3.94
3.05
2.19
1.28
0.27
-0.79
-1.77
-2.6
-3.35
-4.2
-5.4
-7.04
-9.02
-11.04
-12.72
-13.85
-14.44
-14.64
-14.55
-14.13
-13.16
-11.47
-9.11
-6.45
-3.99
-2.18
-1.07
-0.39
0.39
1.68
3.5
5.56
7.31
8.38
8.65
8.37
7.94
7.71
7.82
8.15
8.47
8.61
8.55
8.42
8.33
8.27
8.14
7.78
7.12
6.16
5.06
4
3.06
2.21
1.3
0.18
-1.22
-2.81
-4.39
-5.77
-6.85
-7.74
-8.65
-9.85
-11.51
-13.6
-15.83
-17.78
-18.98
-19.05
-17.85
-15.48
-12.28
-8.7
-5.21
-2.18
0.15
1.72
2.65
3.23
3.81
4.69
6.02
7.71
9.46
10.92
11.79
11.96
11.55
10.82
10.02
9.33
8.75
8.18
7.55
6.81
6.02
5.3
4.76
4.38
4.1
3.76
3.26
2.56
1.72
0.78
-0.16
-1.08
-2
-2.91
-3.8
-4.7
-5.66
-6.8
-8.28
-10.21
-12.59
-15.22
-17.61
-19.19
-19.43
-18.07
-15.28
-11.62
-7.85
-4.65
-2.33
-0.8
0.24
1.14
2.06
3.02
3.95
4.84
5.8
6.93
8.24
9.55
10.56
11.04
10.97
10.58
10.2
10.09
10.22
10.35
10.17
9.53
8.51
7.38
6.36
5.53
4.74
3.77
2.48
0.96
-0.57
-1.9
-2.96
-3.87
-4.84
-6.02
-7.42
-8.95
-10.52
-12.16
-13.92
-15.85
-17.74
-19.18
-19.6
-18.57
-16.04
-12.35
-8.17
-4.25
-1.14
1.02
2.41
3.42
4.38
5.45
6.62
7.74
8.7
9.45
10
10.4
10.67
10.83
10.85
10.78
10.62
10.42
10.2
9.98
9.74
9.46
9.07
8.44
7.47
6.07
4.24
2.17
0.14
-1.59
-2.85
-3.71
-4.41
-5.22
-6.4
-7.99
-9.87
-11.81
-13.62
-15.2
-16.56
-17.66
-18.37
-18.38
-17.36
-15.13
-11.87
-8.08
-4.35
-1.18
1.23
3.01
4.43
5.76
7.09
8.42
9.67
10.85
11.99
13.12
14.25
15.29
16.15
16.75
17.09
17.19
17.13
16.99
16.83
16.71
16.58
16.33
15.85
15.15
14.3
13.48
12.84
12.42
12.16
11.95
11.65
11.17
10.42
9.28
7.62
5.33
2.38
-1.17
-5.28
-9.93
-15.12
-20.74
-26.48
-31.84
-36.27
-39.44
-41.33
-42.13
-42.01
-40.92
-38.57
-34.59
-28.89
-21.87
-14.27
-6.97
-0.56
4.79
9.32
13.41
17.35
21.19
24.79
27.88
30.2
31.6
31.99
31.42
30.02
28.05
25.77
23.45
21.21
19.05
16.79
14.14
10.82
6.65
1.68
-3.84
-9.46
-14.69
-19.13
-22.65
-25.34
-27.53
-29.56
-31.63
-33.67
-35.32
-36.04
-35.35
-32.96
-29
-23.93
-18.48
-13.47
-9.64
-7.45
-6.99
-7.99
-9.94
-12.22
-14.33
-15.97
-17.21
-18.31
-19.64
-21.44
-23.71
-26.23
-28.66
-30.6
-31.57
-31.15
-28.96
-24.78
-18.72
-11.14
-2.65
6.1
14.57
22.38
29.33
35.28
40.1
43.63
45.71
46.22
45.16
42.56
38.54
33.27
26.98
19.93
12.46
4.91
-2.26
-8.51
-13.22
-15.87
-16.21
-14.43
-11.1
-7.04
-3.01
0.53
3.51
6.08
8.53
10.98
13.38
15.53
17.19
18.19
18.55
18.44
18.09
17.72
17.42
17.1
16.58
15.67
14.34
12.72
11.02
9.48
8.19
7.1
6.14
5.3
4.6
4.18
4.06
4.12
4.19
4.13
3.87
3.46
3.03
2.56
1.98
1.12
-0.24
-2.19
-4.64
-7.36
-9.97
-12.05
-13.21
-13.16
-11.76
-9.19
-5.82
-2.18
1.14
3.75
5.45
6.27
6.37
5.79
4.47
2.23
-0.99
-5.03
-9.38
-13.34
-16.24
-17.72
-17.93
-17.43
-16.86
-16.72
-17.08
-17.64
-17.98
-17.85
-17.34
-16.83
-16.76
-17.43
-18.76
-20.35
-21.59
-21.82
-20.56
-17.56
-12.92
-7.06
-0.75
5.17
10
13.46
15.81
17.65
19.65
22.19
25.16
28.11
30.48
31.89
32.31
32.09
31.77
31.91
32.86
34.64
36.82
38.75
39.68
39.1
36.88
33.34
29.1
24.79
20.85
17.52
14.89
13.06
12.19
12.39
13.55
15.23
16.79
17.64
17.49
16.46
15.02
13.67
12.7
11.99
11.12
9.51
6.72
2.64
-2.46
-8.05
-13.5
-18.26
-21.98
-24.54
-26.02
-26.61
-26.55
-26.12
-25.61
-25.25
-25.2
-25.35
-25.47
-25.2
-24.34
-22.84
-20.94
-18.93
-17.05
-15.37
-13.73
-11.9
-9.69
-6.99
-3.83
-0.34
3.28
6.77
9.84
12.18
13.58
13.97
13.44
12.19
10.46
8.44
6.24
3.8
0.99
-2.39
-6.49
-11.29
-16.56
-21.85
-26.48
-29.78
-31.17
-30.47
-27.85
-23.9
-19.35
-14.9
-10.94
-7.54
-4.5
-1.58
1.32
4.1
6.57
8.58
10.11
11.36
12.57
13.9
15.42
17.04
18.58
19.87
20.8
21.32
21.39
20.96
19.94
18.32
16.14
13.51
10.63
7.68
4.8
2.1
-0.31
-2.33
-3.86
-4.91
-5.69
-6.56
-7.96
-10.26
-13.52
-17.51
-21.74
-25.53
-28.31
-29.72
-29.69
-28.47
-26.47
-24.1
-21.7
-19.39
-17.11
-14.7
-12.02
-8.97
-5.59
-1.94
1.91
5.9
10.01
14.18
18.33
22.29
25.92
29.03
31.47
33.11
33.79
33.39
31.82
29.1
25.32
20.71
15.51
10.01
4.44
-0.97
-6.06
-10.67
-14.68
-18.07
-20.84
-23.07
-24.91
-26.54
-28.19
-30.06
-32.3
-34.86
-37.47
-39.65
-40.78
-40.35
-38.05
-33.91
-28.29
-21.76
-14.99
-8.59
-2.99
1.57
5.11
7.79
9.89
11.62
13.1
14.32
15.14
15.46
15.22
14.54
13.65
12.82
12.26
12.02
12.02
12.05
11.97
11.79
11.68
11.91
12.65
13.84
15.14
16.05
16.19
15.48
14.14
12.61
11.24
10.13
9.12
7.94
6.42
4.56
2.5
0.36
-1.81
-3.98
-6
-7.54
-8.15
-7.45
-5.38
-2.36
0.88
3.42
4.61
4.25
2.69
0.67
-0.99
-1.76
-1.53
-0.67
0.24
0.61
0.16
-1.11
-2.94
-5.05
-7.27
-9.62
-12.23
-15.18
-18.31
-21.29
-23.7
-25.19
-25.68
-25.37
-24.67
-23.93
-23.26
-22.53
-21.45
-19.85
-17.77
-15.56
-13.67
-12.52
-12.33
-13.15
-14.86
-17.25
-20.01
-22.72
-24.84
-25.75
-24.84
-21.59
-15.72
-7.21
3.59
15.95
28.79
40.82
50.81
57.89
61.7
62.45
60.76
57.36
52.94
48
42.87
37.84
33.22
29.26
26.17
23.92
22.35
21.15
20.03
18.75
17.3
15.77
14.27
12.91
11.66
10.43
9.05
7.45
5.6
3.62
1.65
-0.08
-1.41
-2.2
-2.4
-2.05
-1.29
-0.32
0.6
1.23
1.5
1.59
1.99
3.25
5.82
9.74
14.56
19.56
23.96
27.21
29.06
29.41
28.13
24.98
19.74
12.34
3.19
-6.93
-17.12
-26.71
-35.51
-43.78
-51.83
-59.69
-66.97
-72.92
-76.86
-78.57
-78.38
-76.97
-75.15
-73.47
-72.19
-71.44
-71.3
-71.92
-73.37
-75.39
-77.33
-78.26
-77.28
-73.86
-68.06
-60.4
-51.5
-41.7
-30.83
-18.22
-3.08
15.09
36.05
58.65
80.96
100.69
115.7
124.45
126.34
121.69
111.65
97.85
82.01
65.65
49.84
35.16
21.91
10.23
0.24
-7.9
-14.16
-18.61
-21.43
-22.9
-23.25
-22.72
-21.56
-20.13
-18.8
-17.93
-17.63
-17.79
-18.11
-18.31
-18.22
-17.86
-17.38
-16.9
-16.45
-15.88
-14.94
-13.27
-10.56
-6.58
-1.28
5.14
12.33
19.77
27.01
33.7
39.62
44.67
48.72
51.57
52.94
52.44
49.78
44.81
37.74
29.12
19.73
10.47
2.16
-4.6
-9.57
-12.79
-14.55
-15.29
-15.49
-15.6
-15.95
-16.76
-18.06
-19.68
-21.32
-22.53
-22.92
-22.25
-20.52
-18.05
-15.33
-12.95
-11.37
-10.76
-10.92
-11.36
-11.5
-10.85
-9.21
-6.8
-4.1
-1.66
0.07
1.01
1.28
1.19
1.04
1.06
1.37
2.04
3.14
4.68
6.67
9.01
11.61
14.28
16.85
19.05
20.61
21.26
20.82
19.28
16.8
13.66
10.14
6.57
3.18
0.22
-2.17
-3.91
-5.06
-5.74
-6.12
-6.35
-6.5
-6.63
-6.79
-7.04
-7.47
-8.13
-8.97
-9.9
-10.72
-11.19
-11
-9.84
-7.49
-3.95
0.41
4.96
8.97
11.91
13.67
14.55
15.06
15.61
16.35
17.09
17.51
17.39
16.72
15.73
14.66
13.72
12.95
12.31
11.73
11.19
10.66
10.14
9.55
8.75
7.6
6
3.94
1.47
-1.22
-3.95
-6.57
-9.08
-11.6
-14.32
-17.38
-20.68
-23.91
-26.56
-28.23
-28.82
-28.58
-28.03
-27.66
-27.74
-28.07
-28.13
-27.3
-25.14
-21.57
-16.92
-11.75
-6.59
-1.86
2.24
5.61
8.21
10.09
11.36
12.27
13.08
13.96
14.92
15.85
16.55
16.93
17.04
16.97
16.79
16.42
15.77
14.79
13.65
12.64
12.05
11.92
11.97
11.69
10.65
8.7
6.13
3.49
1.3
-0.21
-1.17
-2.03
-3.17
-4.76
-6.69
-8.76
-10.92
-13.36
-16.38
-20.15
-24.52
-29.06
-33.25
-36.69
-39.2
-40.7
-41.07
-40
-37.14
-32.26
-25.49
-17.39
-8.72
-0.19
7.75
14.95
21.49
27.38
32.52
36.58
39.23
40.3
39.88
38.36
36.22
33.89
31.52
29.07
26.37
23.37
20.19
17.12
14.43
12.28
10.62
9.33
8.2
7.16
6.19
5.34
4.69
4.26
4.04
3.91
3.75
3.41
2.82
1.99
0.97
-0.16
-1.42
-2.91
-4.76
-7.03
-9.59
-12.15
-14.32
-15.8
-16.52
-16.66
-16.66
-16.95
-17.8
-19.15
-20.62
-21.71
-21.98
-21.37
-20.18
-18.95
-18.09
-17.67
-17.32
-16.44
-14.56
-11.54
-7.73
-3.75
-0.23
2.46
4.28
5.4
6.02
6.21
5.99
5.32
4.31
3.22
2.35
1.95
2.07
2.54
3.07
3.36
3.24
2.68
1.83
0.79
-0.39
-1.8
-3.65
-6.08
-9.05
-12.19
-14.89
-16.48
-16.54
-15.07
-12.6
-9.9
-7.72
-6.48
-6.12
-6.26
-6.42
-6.28
-5.73
-4.9
-3.98
-3.07
-2.11
-0.94
0.61
2.62
4.99
7.55
10.12
12.61
15.07
17.6
20.22
22.82
25.06
26.48
26.72
25.61
23.28
20.13
16.67
13.31
10.26
7.55
4.99
2.39
-0.41
-3.41
-6.46
-9.31
-11.63
-13.17
-13.77
-13.41
-12.18
-10.2
-7.69
-4.85
-1.92
0.88
3.32
5.25
6.63
7.55
8.21
8.78
9.39
10.06
10.72
11.23
11.46
11.36
10.96
10.36
9.65
8.87
7.98
6.92
5.67
4.26
2.75
1.2
-0.43
-2.22
-4.22
-6.32
-8.37
-10.14
-11.47
-12.46
-13.3
-14.31
-15.65
-17.24
-18.77
-19.79
-19.92
-18.92
-16.85
-13.98
-10.75
-7.54
-4.67
-2.25
-0.25
1.43
2.89
4.16
5.23
6.15
6.94
7.68
8.38
9.07
9.62
9.97
10.08
9.95
9.71
9.4
9.09
8.71
8.19
7.37
6.18
4.59
2.69
0.65
-1.35
-3.15
-4.66
-5.91
-7.01
-8.13
-9.42
-10.97
-12.72
-14.48
-15.87
-16.5
-16.09
-14.61
-12.27
-9.45
-6.56
-3.86
-1.43
0.75
2.69
4.34
5.65
6.6
7.3
7.9
8.58
9.42
10.35
11.25
11.93
12.28
12.24
11.83
11.17
10.44
9.78
9.28
8.82
8.15
7
5.26
3.05
0.67
-1.56
-3.5
-5.23
-6.98
-9
-11.39
-14.07
-16.79
-19.17
-20.88
-21.63
-21.31
-20
-17.95
-15.51
-12.99
-10.6
-8.32
-6.04
-3.55
-0.74
2.42
5.8
9.18
12.33
15.09
17.42
19.39
21.07
22.48
23.49
23.89
23.43
21.98
19.63
16.64
13.38
10.16
7.15
4.37
1.72
-0.9
-3.53
-6.05
-8.32
-10.14
-11.36
-11.95
-12.04
-11.85
-11.7
-11.85
-12.39
-13.25
-14.1
-14.56
-14.35
-13.35
-11.64
-9.44
-6.96
-4.37
-1.78
0.73
3.03
5
6.57
7.77
8.75
9.72
10.8
11.98
13.1
13.94
14.3
14.18
13.66
12.95
12.18
11.46
10.72
9.91
8.96
7.92
6.93
6.17
5.76
5.62
5.55
5.24
4.46
3.08
1.17
-1.03
-3.24
-5.19
-6.75
-7.91
-8.79
-9.53
-10.28
-11.07
-11.93
-12.82
-13.63
-14.16
-14.14
-13.34
-11.67
-9.24
-6.4
-3.58
-1.16
0.71
2.15
3.39
4.58
5.75
6.74
7.4
7.68
7.68
7.61
7.58
7.64
7.72
7.71
7.59
7.43
7.28
7.18
7.06
6.78
6.24
5.45
4.5
3.52
2.61
1.78
1.01
0.23
-0.6
-1.44
-2.22
-2.91
-3.47
-3.89
-4.24
-4.59
-5.02
-5.57
-6.28
-7.18
-8.33
-9.79
-11.57
-13.5
-15.25
-16.38
-16.5
-15.38
-13.04
-9.77
-5.95
-2.05
1.54
4.53
6.8
8.35
9.32
9.94
10.4
10.8
11.11
11.18
10.92
10.31
9.5
8.7
8.06
7.63
7.34
7.07
6.72
6.23
5.62
4.85
3.87
2.65
1.24
-0.17
-1.29
-1.96
-2.19
-2.26
-2.56
-3.39
-4.76
-6.39
-7.83
-8.71
-8.96
-8.74
-8.39
-8.26
-8.57
-9.49
-11
-12.93
-14.91
-16.46
-17.02
-16.28
-14.2
-11.12
-7.67
-4.41
-1.74
0.27
1.83
3.21
4.61
6.09
7.54
8.81
9.86
10.72
11.57
12.6
13.93
15.55
17.34
19.12
20.69
21.92
22.67
22.89
22.6
21.84
20.7
19.29
17.66
15.84
13.87
11.81
9.8
7.96
6.36
4.94
3.53
1.89
-0.14
-2.57
-5.24
-7.86
-10.12
-11.74
-12.52
-12.32
-11.06
-8.79
-5.76
-2.38
0.81
3.3
4.86
5.61
5.98
6.48
7.49
9.08
11.01
12.98
14.75
16.2
17.34
18.17
18.61
18.46
17.6
15.99
13.74
11.06
8.1
4.96
1.55
-2.2
-6.32
-10.68
-15.01
-18.95
-22.15
-24.36
-25.5
-25.65
-25.03
-24.02
-23.04
-22.43
-22.41
-22.91
-23.61
-23.98
-23.49
-21.81
-18.95
-15.18
-11.01
-6.96
-3.41
-0.53
1.68
3.4
4.79
5.98
6.94
7.55
7.59
6.96
5.67
3.95
2.07
0.31
-1.18
-2.43
-3.51
-4.52
-5.45
-6.25
-6.83
-7.08
-7.06
-6.84
-6.63
-6.59
-6.83
-7.26
-7.67
-7.77
-7.39
-6.59
-5.65
-4.95
-4.86
-5.5
-6.79
-8.48
-10.24
-11.75
-12.77
-13.07
-12.59
-11.35
-9.52
-7.35
-5.12
-3.05
-1.29
0.09
1.08
1.69
1.96
1.94
1.73
1.5
1.38
1.5
1.9
2.53
3.21
3.75
3.99
3.85
3.4
2.85
2.44
2.35
2.64
3.19
3.8
4.2
4.23
3.83
3.05
2.06
0.99
-0.09
-1.17
-2.3
-3.52
-4.76
-5.93
-6.95
-7.87
-8.85
-10.08
-11.65
-13.41
-14.91
-15.6
-14.98
-12.9
-9.62
-5.7
-1.81
1.5
4
5.75
7
8
8.95
9.92
10.94
12.04
13.26
14.67
16.34
18.18
20.08
21.89
23.55
25.05
26.48
27.81
28.96
29.7
29.84
29.38
28.52
27.68
27.26
27.54
28.42
29.62
30.72
31.37
31.43
30.92
29.94
28.55
26.78
24.54
21.74
18.25
13.93
8.76
2.8
-3.76
-10.63
-17.5
-24.2
-30.64
-36.93
-43.24
-49.79
-56.8
-64.47
-72.89
-81.98
-91.51
-101.18
-110.74
-120.05
-128.91
-136.93
-143.37
-147.19
-147.37
-143.31
-134.94
-122.85
-107.98
-91.33
-73.74
-55.76
-37.58
-19.09
0.14
20.79
43.31
67.59
92.57
116.35
136.64
151.34
159.14
159.8
154.07
143.34
129.25
113.38
97.16
81.69
67.82
56.01
46.31
38.38
31.72
25.88
20.69
16.26
12.9
10.88
10.2
10.56
11.39
12.07
12.17
11.51
10.22
8.49
6.58
4.6
2.57
0.44
-1.79
-4.1
-6.44
-8.75
-10.94
-12.84
-14.23
-14.88
-14.66
-13.5
-11.59
-9.18
-6.57
-3.99
-1.55
0.7
2.71
4.41
5.75
6.68
7.1
6.94
6.01
4.2
1.47
-2.07
-6.15
-10.42
-14.56
-18.45
-22.04
-25.37
-28.37
-30.89
-32.61
-33.19
-32.34
-29.94
-26.02
-20.85
-14.88
-8.69
-2.91
1.97
5.66
8.15
9.7
10.71
11.52
12.33
13.15
13.76
13.95
13.54
12.51
10.97
9.18
7.44
5.99
5.07
4.77
5.12
5.99
7.16
8.34
9.26
9.75
9.76
9.44
8.96
8.54
8.26
8.09
7.88
7.3
6.01
3.72
0.32
-4.03
-8.89
-13.63
-17.65
-20.49
-22.01
-22.22
-21.28
-19.38
-16.72
-13.59
-10.35
-7.43
-5.15
-3.61
-2.63
-1.87
-0.98
0.22
1.69
3.2
4.55
5.66
6.6
7.55
8.62
9.73
10.73
11.34
11.39
10.81
9.73
8.33
6.81
5.29
3.83
2.49
1.3
0.33
-0.38
-0.9
-1.41
-2.19
-3.55
-5.61
-8.2
-10.84
-12.88
-13.68
-12.96
-10.81
-7.7
-4.24
-0.96
1.91
4.45
6.86
9.32
11.84
14.23
16.19
17.5
18.08
18.11
17.94
17.87
18.06
18.41
18.65
18.37
17.29
15.34
12.68
9.66
6.65
3.95
1.65
-0.38
-2.41
-4.74
-7.51
-10.65
-13.89
-16.87
-19.34
-21.27
-22.86
-24.43
-26.28
-28.47
-30.81
-32.83
-33.93
-33.6
-31.56
-27.85
-22.84
-17.12
-11.31
-5.87
-1.04
3.19
6.88
10.11
12.8
14.73
15.65
15.39
14.06
11.93
9.49
7.15
5.25
3.87
2.95
2.35
1.88
1.38
0.71
-0.17
-1.24
-2.36
-3.32
-3.87
-3.83
-3.13
-1.83
-0.13
1.7
3.35
4.5
4.95
4.54
3.26
1.15
-1.67
-4.96
-8.35
-11.3
-13.22
-13.65
-12.5
-10.1
-7.09
-4.17
-1.8
-0.06
1.32
2.71
4.39
6.37
8.45
10.33
11.82
12.94
13.83
14.68
15.54
16.27
16.61
16.28
15.19
13.47
11.46
9.59
8.08
6.96
6.06
5.23
4.42
3.73
3.2
2.78
2.15
0.91
-1.15
-3.98
-7.2
-10.34
-13.08
-15.41
-17.55
-19.82
-22.39
-25.2
-27.98
-30.33
-31.87
-32.23
-31.25
-29.04
-26.07
-23.09
-20.81
-19.63
-19.5
-19.89
-20.13
-19.68
-18.34
-16.12
-13.17
-9.53
-5.24
-0.42
4.63
9.41
13.38
16.2
17.84
18.58
18.8
18.89
18.98
19.06
19.01
18.73
18.26
17.77
17.43
17.31
17.32
17.27
17
16.47
15.78
15.03
14.28
13.39
12.15
10.43
8.19
5.58
2.71
-0.34
-3.55
-6.81
-9.78
-11.97
-12.88
-12.27
-10.32
-7.59
-4.75
-2.29
-0.4
1.02
2.16
3.16
4.03
4.72
5.22
5.6
5.95
6.3
6.64
6.85
6.86
6.6
6.11
5.41
4.51
3.49
2.42
1.43
0.68
0.37
0.62
1.52
3.12
5.38
8.23
11.52
15.12
18.85
22.49
25.76
28.38
30.04
30.5
29.69
27.72
24.86
21.33
17.32
12.95
8.38
3.93
0.06
-2.72
-4.07
-3.97
-2.66
-0.61
1.77
4.14
6.32
8.07
9.19
9.53
9.07
7.99
6.58
5.15
3.82
2.6
1.32
-0.11
-1.73
-3.42
-5.04
-6.5
-7.74
-8.78
-9.64
-10.36
-10.97
-11.54
-12.1
-12.64
-13.09
-13.29
-13.14
-12.56
-11.61
-10.45
-9.33
-8.52
-8.18
-8.35
-8.94
-9.77
-10.65
-11.51
-12.38
-13.39
-14.66
-16.13
-17.48
-18.3
-18.21
-17.1
-15.18
-12.88
-10.65
-8.76
-7.2
-5.81
-4.42
-3.02
-1.76
-0.82
-0.25
0.05
0.31
0.7
1.29
1.98
2.62
3.13
3.52
3.86
4.23
4.68
5.19
5.76
6.31
6.76
6.96
6.7
5.9
4.6
2.98
1.28
-0.3
-1.75
-3.13
-4.51
-5.88
-7.09
-8.08
-8.86
-9.62
-10.62
-12.03
-13.74
-15.43
-16.63
-16.94
-16.15
-14.3
-11.6
-8.38
-5.05
-1.95
0.68
2.72
4.26
5.47
6.54
7.61
8.73
9.78
10.6
11.06
11.13
10.91
10.57
10.28
10.18
10.29
10.54
10.79
10.94
10.98
11.01
11.13
11.39
11.77
12.09
12.2
11.96
11.34
10.32
8.95
7.26
5.26
2.97
0.36
-2.54
-5.67
-8.93
-12.19
-15.27
-18.02
-20.36
-22.21
-23.53
-24.22
-24.13
-23.05
-20.88
-17.62
-13.49
-8.87
-4.19
0.12
3.75
6.48
8.28
9.25
9.59
9.63
9.63
9.78
10.04
10.23
10.09
9.51
8.56
7.5
6.63
6.16
6.12
6.43
6.97
7.63
8.28
8.79
8.91
8.47
7.43
6.01
4.66
3.88
3.97
4.9
6.33
7.79
8.88
9.42
9.53
9.43
9.34
9.34
9.34
9.16
8.64
7.77
6.66
5.52
4.55
3.89
3.61
3.73
4.24
5.11
6.28
7.65
9.04
10.26
11.21
11.83
12.08
11.88
11
9.14
6.05
1.71
-3.59
-9.29
-14.77
-19.63
-23.79
-27.49
-31.12
-34.97
-39.05
-43.03
-46.4
-48.71
-49.76
-49.69
-48.81
-47.42
-45.65
-43.26
-39.78
-34.73
-27.76
-18.86
-8.38
3.07
14.81
26.14
36.54
45.73
53.59
60.1
65.22
68.75
70.48
70.22
68.01
64.16
59.24
53.85
48.46
43.32
38.42
33.7
29.15
24.88
21.1
17.99
15.49
13.27
10.69
7.06
1.9
-4.82
-12.65
-20.74
-28.15
-34.2
-38.61
-41.5
-43.26
-44.32
-44.93
-45.19
-45.03
-44.31
-42.92
-40.75
-37.77
-34.07
-29.83
-25.36
-21.01
-17.05
-13.67
-10.8
-8.27
-5.85
-3.45
-1.21
0.5
1.2
0.46
-1.89
-5.62
-10.08
-14.42
-17.86
-19.82
-20.18
-19.15
-17.19
-14.72
-12.02
-9.19
-6.22
-3.15
-0.06
2.84
5.41
7.57
9.37
11
12.62
14.35
16.19
18.04
19.66
20.77
21.11
20.51
18.92
16.45
13.28
9.64
5.81
2.02
-1.43
-4.36
-6.68
-8.42
-9.76
-10.91
-12.05
-13.26
-14.59
-16.06
-17.76
-19.74
-21.84
-23.69
-24.73
-24.46
-22.69
-19.67
-16
-12.38
-9.31
-6.94
-5.12
-3.54
-1.98
-0.43
1
2.12
2.94
3.6
4.35
5.34
6.58
7.84
8.8
9.19
8.94
8.22
7.28
6.34
5.43
4.45
3.2
1.59
-0.32
-2.31
-4.09
-5.43
-6.23
-6.59
-6.74
-7.03
-7.75
-9.08
-10.9
-12.84
-14.33
-14.76
-13.71
-11.04
-6.95
-1.94
3.35
8.31
12.52
15.77
18.06
19.53
20.34
20.6
20.42
19.83
18.91
17.76
16.48
15.13
13.81
12.62
11.71
11.22
11.2
11.56
12.03
12.24
11.9
10.82
9.05
6.78
4.27
1.74
-0.71
-3.06
-5.37
-7.72
-10.23
-12.94
-15.83
-18.75
-21.4
-23.4
-24.33
-23.95
-22.18
-19.23
-15.5
-11.43
-7.34
-3.44
0.21
3.63
6.78
9.53
11.77
13.34
14.22
14.47
14.24
13.71
13.05
12.38
11.79
11.37
11.16
11.16
11.29
11.33
11.01
10.08
8.42
6.12
3.55
1.16
-0.64
-1.64
-1.93
-1.86
-1.89
-2.42
-3.66
-5.65
-8.24
-11.16
-14.06
-16.51
-18.09
-18.43
-17.37
-14.99
-11.67
-7.97
-4.44
-1.44
0.9
2.73
4.26
5.65
6.82
7.61
7.77
7.24
6.24
5.15
4.4
4.29
4.81
5.73
6.75
7.62
8.26
8.74
9.11
9.38
9.44
9.15
8.42
7.35
6.07
4.73
3.4
2.03
0.59
-0.91
-2.37
-3.67
-4.78
-5.81
-7
-8.49
-10.29
-12.01
-13.12
-13.01
-11.35
-8.22
-4.07
0.44
4.66
8.12
10.68
12.41
13.52
14.24
14.68
14.82
14.57
13.91
12.88
11.72
10.7
10.02
9.66
9.43
9.03
8.28
7.17
5.96
4.99
4.49
4.43
4.61
4.71
4.52
3.98
3.22
2.36
1.47
0.52
-0.65
-2.12
-3.93
-5.97
-8.05
-9.98
-11.68
-13.12
-14.33
-15.28
-15.81
-15.66
-14.61
-12.6
-9.74
-6.42
-3.06
-0.03
2.46
4.42
5.96
7.27
8.46
9.56
10.52
11.24
11.66
11.73
11.52
11.17
10.81
10.5
10.21
9.8
9.08
7.9
6.21
4.09
1.81
-0.31
-2
-3.1
-3.69
-3.94
-4.06
-4.14
-4.05
-3.58
-2.63
-1.3
0.03
0.84
0.72
-0.54
-2.8
-5.76
-9.02
-12.21
-15.04
-17.26
-18.66
-19.1
-18.59
-17.29
-15.58
-13.98
-12.97
-12.88
-13.76
-15.33
-17.11
-18.62
-19.5
-19.64
-19.1
-18.01
-16.45
-14.48
-12.07
-9.24
-6.11
-2.79
0.55
3.82
6.96
9.96
12.71
15.13
17.13
18.68
19.83
20.64
21.12
21.31
21.2
20.83
20.27
19.64
18.94
18.14
17.13
15.76
13.9
11.53
8.74
5.75
2.91
0.61
-0.79
-1.12
-0.51
0.72
2.08
3.12
3.6
3.49
2.88
1.93
0.68
-0.94
-2.96
-5.35
-7.92
-10.29
-12.07
-12.98
-12.97
-12.22
-11.05
-9.77
-8.6
-7.61
-6.8
-6.21
-5.9
-6.01
-6.66
-7.88
-9.68
-12.05
-15.02
-18.67
-23.06
-28.13
-33.6
-39.01
-43.78
-47.42
-49.65
-50.52
-50.33
-49.52
-48.42
-47.16
-45.69
-43.88
-41.68
-39.16
-36.5
-33.85
-31.22
-28.47
-25.33
-21.56
-16.96
-11.4
-4.84
2.65
10.88
19.48
27.95
35.79
42.56
48.08
52.43
55.84
58.61
60.98
63.07
64.83
66.17
67
67.28
67.1
66.61
65.97
65.2
64.22
62.86
60.92
58.26
54.85
50.75
46.07
40.91
35.39
29.65
23.83
18.13
12.63
7.38
2.34
-2.52
-7.15
-11.37
-14.94
-17.59
-19.21
-19.89
-19.87
-19.53
-19.2
-19.15
-19.45
-20.05
-20.78
-21.45
-21.91
-22.07
-21.94
-21.56
-20.94
-20
-18.64
-16.77
-14.47
-11.97
-9.64
-7.8
-6.58
-5.92
-5.65
-5.58
-5.63
-5.82
-6.12
-6.42
-6.56
-6.33
-5.67
-4.7
-3.66
-2.82
-2.36
-2.35
-2.72
-3.39
-4.3
-5.42
-6.75
-8.17
-9.45
-10.21
-10.06
-8.68
-6.05
-2.43
1.58
5.35
8.37
10.42
11.56
12.04
12.09
11.83
11.31
10.51
9.51
8.48
7.64
7.17
7.13
7.43
7.85
8.24
8.46
8.47
8.29
7.94
7.37
6.55
5.45
4.11
2.7
1.35
0.22
-0.62
-1.12
-1.33
-1.32
-1.16
-0.94
-0.64
-0.27
0.17
0.58
0.8
0.53
-0.4
-2.1
-4.37
-6.81
-8.93
-10.24
-10.47
-9.6
-7.88
-5.76
-3.75
-2.31
-1.71
-1.93
-2.7
-3.64
-4.36
-4.65
-4.54
-4.2
-3.88
-3.73
-3.84
-4.24
-4.98
-6.13
-7.76
-9.93
-12.63
-15.83
-19.45
-23.43
-27.58
-31.58
-34.95
-37.2
-37.98
-37.26
-35.32
-32.55
-29.29
-25.66
-21.62
-17.07
-12.09
-6.93
-1.93
2.65
6.87
10.99
15.43
20.45
26.01
31.7
36.9
40.99
43.62
44.73
44.46
43.09
40.85
37.93
34.53
30.85
27.07
23.29
19.49
15.64
11.74
7.9
4.26
0.93
-2.11
-4.92
-7.51
-9.73
-11.42
-12.45
-12.94
-13.21
-13.59
-14.16
-14.75
-15.04
-14.74
-13.88
-12.78
-11.79
-11.12
-10.73
-10.39
-9.88
-9.06
-7.9
-6.44
-4.62
-2.37
0.33
3.37
6.45
9.19
11.23
12.41
12.76
12.54
12.05
11.54
11.03
10.41
9.46
8.09
6.37
4.55
2.99
1.9
1.32
1.11
1.1
1.15
1.21
1.3
1.35
1.3
1.01
0.41
-0.47
-1.56
-2.74
-3.93
-5.12
-6.36
-7.76
-9.4
-11.25
-13.14
-14.7
-15.48
-15.1
-13.4
-10.55
-7.03
-3.43
-0.22
2.36
4.33
5.87
7.19
8.36
9.34
9.98
10.14
9.72
8.75
7.27
5.34
2.97
0.12
-3.19
-6.94
-11.1
-15.7
-20.84
-26.67
-33.23
-40.26
-47.08
-52.71
-56.06
-56.24
-52.9
-46.22
-36.87
-25.74
-13.75
-1.69
9.78
20.17
29.14
36.53
42.32
46.6
49.52
51.21
51.72
51.06
49.27
46.44
42.75
38.46
33.88
29.25
24.72
20.34
16.1
12.03
8.23
4.85
2.07
0.02
-1.34
-2.14
-2.57
-2.78
-2.83
-2.71
-2.39
-1.9
-1.37
-1.02
-1.05
-1.56
-2.52
-3.69
-4.83
-5.76
-6.46
-7.08
-7.8
-8.76
-10.01
-11.52
-13.23
-15.04
-16.79
-18.21
-18.93
-18.67
-17.27
-14.84
-11.72
-8.34
-5.09
-2.22
0.22
2.28
4.07
5.67
7.04
8.01
8.43
8.16
7.26
6
4.77
3.9
3.58
3.72
4.09
4.47
4.74
4.9
4.97
4.92
4.61
3.96
2.95
1.72
0.52
-0.41
-0.96
-1.15
-1.13
-1
-0.87
-0.82
-1
-1.64
-2.98
-5.14
-7.97
-11.14
-14.2
-16.84
-18.97
-20.62
-21.81
-22.41
-22.05
-20.37
-17.22
-12.79
-7.65
-2.52
1.99
5.52
8.04
9.67
10.63
11.14
11.39
11.55
11.82
12.34
13.11
14.03
14.89
15.48
15.66
15.43
14.86
14.09
13.2
12.17
10.96
9.56
8
6.4
4.91
3.66
2.67
1.9
1.22
0.5
-0.35
-1.33
-2.4
-3.5
-4.56
-5.61
-6.75
-8.1
-9.78
-11.79
-14.04
-16.35
-18.51
-20.31
-21.53
-21.95
-21.34
-19.57
-16.64
-12.84
-8.66
-4.7
-1.45
0.86
2.33
3.32
4.28
5.58
7.4
9.72
12.35
15.07
17.64
19.85
21.5
22.43
22.6
22.11
21.19
20.11
19.01
17.88
16.59
14.94
12.88
10.54
8.19
6.09
4.34
2.92
1.68
0.5
-0.67
-1.84
-2.99
-4.16
-5.37
-6.6
-7.78
-8.83
-9.74
-10.63
-11.67
-13.06
-14.8
-16.71
-18.44
-19.56
-19.77
-18.94
-17.13
-14.58
-11.6
-8.53
-5.6
-3.03
-0.99
0.45
1.27
1.51
1.24
0.57
-0.45
-1.76
-3.27
-4.88
-6.45
-7.83
-8.91
-9.65
-10.04
-10
-9.39
-8.03
-5.86
-3.04
0.09
3.13
5.76
7.88
9.61
11.12
12.54
13.81
14.78
15.23
15.08
14.35
13.12
11.54
9.74
7.83
5.86
3.89
1.88
-0.16
-2.26
-4.42
-6.6
-8.7
-10.45
-11.47
-11.42
-10.1
-7.73
-4.95
-2.7
-1.84
-2.75
-5.08
-7.81
-9.73
-9.91
-8.07
-4.56
-0.05
4.98
10.41
16.51
23.53
31.41
39.71
47.68
54.54
59.73
62.92
63.95
62.72
59.14
53.24
45.22
35.43
24.36
12.55
0.58
-10.92
-21.25
-29.78
-36.06
-39.99
-41.87
-42.24
-41.65
-40.52
-39.05
-37.36
-35.56
-33.82
-32.38
-31.43
-30.91
-30.55
-29.88
-28.41
-25.84
-22.22
-17.89
-13.35
-9.15
-5.61
-2.76
-0.39
1.83
4.13
6.61
9.18
11.67
13.89
15.71
17.01
17.65
17.49
16.4
14.33
11.47
8.08
4.5
0.98
-2.39
-5.57
-8.56
-11.23
-13.37
-14.75
-15.27
-15.04
-14.3
-13.39
-12.6
-12.13
-12.07
-12.45
-13.26
-14.39
-15.59
-16.47
-16.68
-16
-14.51
-12.5
-10.4
-8.55
-7.08
-5.91
-4.85
-3.74
-2.57
-1.36
-0.05
1.58
3.86
7.07
11.19
15.81
20.21
23.59
25.37
25.36
23.66
20.63
16.61
11.97
7.06
2.3
-1.9
-5.22
-7.54
-8.99
-9.82
-10.28
-10.42
-10.2
-9.59
-8.66
-7.71
-7.13
-7.25
-8.18
-9.81
-11.82
-13.79
-15.36
-16.26
-16.37
-15.74
-14.54
-12.9
-11
-8.92
-6.68
-4.3
-1.8
0.69
2.94
4.74
5.92
6.48
6.57
6.55
6.74
7.41
8.58
10.02
11.39
12.41
12.99
13.23
13.39
13.64
13.93
14.02
13.56
12.28
10.17
7.47
4.61
2.01
-0.08
-1.63
-2.81
-3.87
-5.06
-6.53
-8.3
-10.24
-12.17
-13.88
-15.11
-15.66
-15.31
-13.96
-11.66
-8.69
-5.46
-2.46
-0.11
1.47
2.39
2.94
3.46
4.16
5.04
5.98
6.84
7.61
8.37
9.29
10.47
11.91
13.42
14.73
15.59
15.88
15.65
15.06
14.3
13.52
12.7
11.77
10.62
9.17
7.49
5.68
3.94
2.36
0.96
-0.32
-1.63
-3.01
-4.45
-5.93
-7.51
-9.26
-11.33
-13.72
-16.2
-18.31
-19.43
-19.06
-16.98
-13.35
-8.64
-3.52
1.35
5.48
8.61
10.7
11.91
12.49
12.69
12.68
12.59
12.52
12.6
12.93
13.59
14.51
15.51
16.31
16.66
16.45
15.75
14.75
13.62
12.41
11.09
9.56
7.77
5.76
3.64
1.46
-0.75
-3.01
-5.28
-7.52
-9.59
-11.44
-13.09
-14.68
-16.33
-18.11
-19.93
-21.6
-22.89
-23.61
-23.58
-22.65
-20.69
-17.7
-13.87
-9.59
-5.33
-1.5
1.67
4.17
6.1
7.57
8.66
9.44
10.01
10.49
11.02
11.71
12.52
13.34
14.01
14.4
14.46
14.23
13.8
13.21
12.55
11.82
11.03
10.11
9.02
7.77
6.41
5.03
3.74
2.56
1.44
0.26
-1.02
-2.4
-3.83
-5.19
-6.49
-7.72
-8.96
-10.29
-11.8
-13.57
-15.66
-18.04
-20.5
-22.67
-23.98
-23.93
-22.2
-18.85
-14.27
-9.13
-4.1
0.29
3.77
6.35
8.23
9.69
10.93
12.08
13.06
13.79
14.15
14.16
13.94
13.7
13.54
13.46
13.29
12.87
12.1
11.09
10
8.94
7.85
6.52
4.77
2.58
0.22
-1.95
-3.61
-4.7
-5.36
-5.84
-6.33
-6.85
-7.31
-7.65
-7.9
-8.24
-8.94
-10.22
-12.24
-14.95
-18.1
-21.27
-23.93
-25.52
-25.6
-23.98
-20.74
-16.17
-10.81
-5.31
-0.25
3.88
6.94
9.03
10.48
11.64
12.74
13.8
14.67
15.21
15.35
15.24
15.04
14.94
15.07
15.44
16.03
16.78
17.68
18.65
19.67
20.67
21.59
22.4
23.1
23.68
24.1
24.33
24.26
23.84
22.97
21.68
20.06
18.28
16.56
15.06
13.86
12.87
11.78
10.12
7.33
2.97
-3.13
-10.7
-19.08
-27.38
-34.69
-40.32
-43.89
-45.3
-44.63
-42.18
-38.37
-33.85
-29.36
-25.59
-22.92
-21.36
-20.58
-20.02
-19.21
-17.8
-15.56
-12.45
-8.51
-3.89
1.09
6.03
10.49
14.11
16.68
18.26
19.01
19.16
18.86
18.15
16.99
15.34
13.27
11
8.86
7.15
6.04
5.46
5.26
5.24
5.3
5.4
5.43
5.16
4.2
2.19
-1.03
-5.33
-10.31
-15.47
-20.34
-24.56
-27.92
-30.24
-31.46
-31.62
-30.87
-29.39
-27.31
-24.57
-21.03
-16.55
-11.17
-5.18
0.89
6.5
11.21
14.81
17.36
19.15
20.62
22.26
24.49
27.44
30.95
34.51
37.51
39.4
39.85
38.82
36.48
33.04
28.71
23.71
18.28
12.7
7.31
2.34
-2.04
-5.86
-9.17
-12.14
-14.86
-17.39
-19.63
-21.23
-21.66
-20.39
-17.13
-12.07
-5.83
0.66
6.56
11.29
14.69
16.75
17.51
16.89
14.89
11.65
7.61
3.39
-0.41
-3.36
-5.38
-6.58
-7.21
-7.48
-7.51
-7.31
-6.79
-5.86
-4.41
-2.55
-0.46
1.45
2.78
3.2
2.6
1.08
-1.13
-3.72
-6.47
-9.22
-11.95
-14.71
-17.58
-20.62
-23.75
-26.71
-29.07
-30.3
-29.96
-27.88
-24.24
-19.51
-14.33
-9.31
-4.91
-1.34
1.37
3.34
4.73
5.71
6.47
7.12
7.78
8.51
9.32
10.21
11.11
11.99
12.8
13.49
13.98
14.12
13.72
12.62
10.74
8.18
5.13
1.82
-1.5
-4.67
-7.52
-9.92
-11.77
-12.99
-13.64
-13.88
-14.01
-14.36
-15.22
-16.61
-18.27
-19.67
-20.19
-19.34
-16.99
-13.36
-9.01
-4.51
-0.28
3.53
7.05
10.47
13.93
17.49
21.1
24.64
27.94
30.81
33
34.25
34.34
33.12
30.61
26.99
22.62
17.93
13.32
9.06
5.24
1.82
-1.42
-4.65
-8.01
-11.53
-15.14
-18.7
-22
-24.84
-27.09
-28.82
-30.28
-31.86
-33.88
-36.41
-39.18
-41.58
-42.84
-42.3
-39.63
-34.91
-28.68
-21.69
-14.69
-8.2
-2.49
2.45
6.74
10.48
13.68
16.23
18.04
19.05
19.36
19.17
18.76
18.37
18.16
18.1
18.03
17.73
16.99
15.77
14.19
12.53
11.05
9.93
9.18
8.65
8.1
7.35
6.29
4.94
3.46
2.11
1.1
0.56
0.35
0.16
-0.4
-1.66
-3.73
-6.39
-9.15
-11.42
-12.68
-12.65
-11.35
-9
-5.94
-2.53
0.93
4.14
6.82
8.73
9.77
10.05
9.91
9.81
10.13
11.04
12.38
13.79
14.92
15.61
15.95
16.2
16.58
17.07
17.46
17.4
16.64
15.11
13.02
10.69
8.48
6.57
4.94
3.38
1.65
-0.46
-2.97
-5.81
-8.82
-11.79
-14.57
-16.99
-18.91
-20.27
-21.08
-21.53
-21.89
-22.5
-23.49
-24.76
-25.86
-26.2
-25.24
-22.72
-18.82
-14.09
-9.24
-4.9
-1.43
1.15
3.09
4.71
6.25
7.71
8.98
9.86
10.29
10.39
10.39
10.55
10.98
11.58
12.12
12.31
12.07
11.44
10.66
9.96
9.54
9.42
9.5
9.63
9.61
9.34
8.79
8.04
7.21
6.42
5.75
5.19
4.69
4.17
3.58
2.84
1.86
0.54
-1.21
-3.39
-5.92
-8.61
-11.2
-13.41
-14.94
-15.48
-14.79
-12.81
-9.71
-5.89
-1.83
2.08
5.63
8.83
11.81
14.64
17.28
19.67
21.8
23.8
25.86
28.1
30.48
32.72
34.5
35.53
35.68
34.92
33.26
30.63
26.91
21.97
15.84
8.79
1.18
-6.51
-13.89
-20.66
-26.63
-31.61
-35.46
-38.03
-39.29
-39.43
-38.85
-38.14
-37.8
-37.98
-38.41
-38.43
-37.37
-34.89
-31.24
-27.12
-23.25
-20.03
-17.29
-14.43
-10.79
-6.04
-0.34
5.78
11.73
17.07
21.64
25.51
28.87
31.85
34.49
36.71
38.33
39.18
39.13
38.12
36.16
33.24
29.33
24.36
18.34
11.42
3.92
-3.68
-10.88
-17.33
-22.99
-28.18
-33.57
-39.9
-47.74
-57.15
-67.48
-77.65
-86.39
-92.83
-96.68
-98.19
-97.83
-95.77
-91.56
-84.29
-73.07
-57.57
-38.5
-17.42
3.66
22.87
38.98
51.47
60.32
65.81
68.32
68.3
66.34
63.14
59.43
55.78
52.5
49.63
47
44.47
41.89
39.19
36.36
33.43
30.45
27.53
24.74
22.15
19.73
17.42
15.13
12.8
10.38
7.94
5.61
3.56
1.91
0.68
-0.26
-1.18
-2.35
-3.99
-6.14
-8.66
-11.32
-13.78
-15.7
-16.76
-16.73
-15.56
-13.43
-10.7
-7.82
-5.2
-3.02
-1.27
0.19
1.52
2.74
3.82
4.65
5.22
5.62
5.99
6.44
6.96
7.35
7.39
6.93
5.98
4.79
3.7
3.01
2.87
3.16
3.6
3.75
3.19
1.61
-1.04
-4.5
-8.35
-11.98
-14.96
-17.09
-18.5
-19.51
-20.58
-22.01
-23.99
-26.54
-29.61
-33
-36.41
-39.29
-41.02
-41.09
-39.34
-36.18
-32.49
-29.31
-27.44
-27.07
-27.76
-28.59
-28.54
-26.83
-23.11
-17.49
-10.32
-2.09
6.7
15.56
24.03
31.63
37.96
42.67
45.57
46.61
45.9
43.61
39.99
35.26
29.69
23.55
17.18
10.96
5.25
0.35
-3.55
-6.37
-8.18
-9.14
-9.48
-9.43
-9.26
-9.24
-9.63
-10.61
-12.16
-14.02
-15.68
-16.52
-16
-13.95
-10.59
-6.51
-2.48
0.9
3.35
4.99
6.16
7.21
8.3
9.4
10.39
11.17
11.84
12.64
13.85
15.68
18.17
21.21
24.6
28.11
31.44
34.25
36.06
36.34
34.74
31.21
26.16
20.34
14.59
9.52
5.36
2.02
-0.74
-3.06
-4.9
-6.17
-6.89
-7.28
-7.71
-8.51
-9.86
-11.7
-13.84
-15.99
-17.93
-19.45
-20.32
-20.26
-19.05
-16.62
-13.18
-9.13
-4.95
-1.07
2.28
5.03
7.2
8.82
9.87
10.32
10.16
9.51
8.58
7.59
6.78
6.28
6.11
6.13
6.12
5.82
5.04
3.75
2.13
0.47
-0.95
-1.97
-2.64
-3.17
-3.73
-4.38
-4.96
-5.23
-4.99
-4.24
-3.17
-2.13
-1.45
-1.24
-1.46
-1.89
-2.33
-2.66
-2.93
-3.23
-3.69
-4.39
-5.37
-6.66
-8.22
-9.92
-11.47
-12.48
-12.6
-11.55
-9.37
-6.3
-2.76
0.8
3.99
6.53
8.32
9.32
9.67
9.53
9.09
8.48
7.69
6.67
5.35
3.82
2.33
1.25
0.89
1.34
2.48
3.97
5.58
7.18
8.9
10.91
13.23
15.6
17.51
18.45
18.11
16.57
14.18
11.36
8.37
5.2
1.69
-2.27
-6.5
-10.61
-14.11
-16.66
-18.25
-19.15
-19.86
-20.83
-22.32
-24.33
-26.63
-28.81
-30.4
-30.98
-30.17
-27.85
-24.13
-19.4
-14.24
-9.29
-4.98
-1.49
1.24
3.4
5.1
6.33
6.98
7.03
6.63
6.09
5.78
5.91
6.53
7.48
8.63
9.96
11.59
13.69
16.36
19.52
22.93
26.29
29.33
31.89
33.98
35.78
37.48
39.19
40.75
41.71
41.51
39.62
35.87
30.47
23.88
16.66
9.23
1.86
-5.2
-11.7
-17.33
-21.87
-25.43
-28.39
-31.22
-34.2
-37.12
-39.34
-40.09
-38.89
-35.79
-31.33
-26.34
-21.47
-17.08
-13.17
-9.53
-5.96
-2.35
1.26
4.76
8.03
10.93
13.32
15.09
16.16
16.55
16.41
15.99
15.55
15.28
15.25
15.36
15.42
15.13
14.25
12.57
10.05
6.74
2.93
-1.1
-4.99
-8.54
-11.61
-14.22
-16.38
-18.15
-19.58
-20.7
-21.61
-22.44
-23.32
-24.31
-25.37
-26.29
-26.7
-26.22
-24.53
-21.46
-17.12
-11.86
-6.25
-0.94
3.5
6.8
8.91
10.06
10.56
10.68
10.58
10.27
9.71
8.93
8.09
7.39
7.06
7.17
7.61
8.19
8.69
8.95
8.94
8.67
8.16
7.45
6.53
5.38
4.07
2.73
1.55
0.77
0.57
0.96
1.77
2.65
3.16
2.92
1.75
-0.27
-2.79
-5.36
-7.58
-9.19
-10.11
-10.36
-9.96
-8.89
-7.16
-4.86
-2.22
0.46
2.89
4.96
6.74
8.34
9.84
11.13
11.97
12.13
11.57
10.53
9.47
8.85
8.95
9.73
10.92
12.13
13.06
13.55
13.63
13.39
12.94
12.4
11.88
11.5
11.38
11.55
11.87
12.11
11.93
11.16
9.79
8.01
6.13
4.36
2.77
1.31
-0.11
-1.48
-2.56
-2.94
-2.12
0.33
4.52
10.22
16.8
23.43
29.23
33.52
35.9
36.25
34.67
31.39
26.74
21.11
15
8.97
3.51
-1.04
-4.55
-7.12
-8.98
-10.31
-11.28
-12.1
-13.06
-14.59
-17.15
-21.02
-26.13
-32.15
-38.63
-45.24
-51.96
-59.04
-66.7
-75.02
-83.79
-92.53
-100.64
-107.49
-112.52
-115.19
-115.11
-111.99
-105.82
-96.88
-85.66
-72.71
-58.61
-43.89
-29.08
-14.79
-1.59
10.02
19.75
27.54
33.53
37.95
41.04
43.04
44.24
44.98
45.65
46.6
48.03
50
52.47
55.39
58.7
62.31
66.08
69.76
73.09
75.88
78.04
79.66
80.77
81.3
81
79.57
76.84
73
68.6
64.35
60.89
58.43
56.77
55.4
53.86
51.9
49.5
46.79
43.7
39.99
35.28
29.31
22.11
14.01
5.4
-3.47
-12.64
-22.32
-32.66
-43.62
-54.85
-65.98
-76.83
-87.63
-98.82
-110.78
-123.37
-135.86
-147.1
-155.91
-161.41
-163.14
-160.96
-154.73
-144.21
-129.18
-109.68
-86.41
-60.8
-34.8
-10.45
10.54
27.16
39.11
46.64
50.35
50.95
49.04
45.07
39.39
32.3
24.28
16
8.29
1.97
-2.43
-4.92
-6.01
-6.57
-7.42
-8.97
-11.06
-13.09
-14.38
-14.41
-12.97
-9.96
-5.3
1.13
9.3
18.85
29.04
38.99
48.08
56.36
64.41
72.93
82.1
91.17
98.6
102.67
102.29
97.37
88.86
78.26
67.02
56.18
46.27
37.51
29.97
23.8
19.14
15.96
14.03
12.86
11.84
10.44
8.35
5.51
2.1
-1.66
-5.7
-10.09
-15.01
-20.53
-26.53
-32.59
-38.09
-42.43
-45.22
-46.39
-46.24
-45.28
-44.05
-43.01
-42.34
-42.02
-41.81
-41.45
-40.68
-39.29
-37.21
-34.43
-31.04
-27.23
-23.29
-19.52
-16.21
-13.58
-11.7
-10.61
-10.26
-10.55
-11.3
-12.27
-13.07
-13.36
-12.9
-11.69
-9.98
-8.14
-6.43
-4.88
-3.21
-0.96
2.34
6.94
12.76
19.34
26.02
32.03
36.71
39.7
40.99
40.97
40.25
39.37
38.62
37.97
37.2
36.04
34.37
32.2
29.66
26.88
23.96
20.95
17.88
14.75
11.64
8.62
5.83
3.44
1.66
0.65
0.43
0.87
1.76
2.9
4.13
5.4
6.68
7.94
9.12
10.22
11.23
12.13
12.9
13.47
13.8
13.88
13.8
13.61
13.29
12.64
11.31
9.02
5.64
1.35
-3.54
-8.65
-13.84
-19.16
-24.77
-30.8
-37.18
-43.61
-49.69
-55.04
-59.33
-62.28
-63.59
-62.96
-60.26
-55.55
-49.25
-41.93
-34.19
-26.37
-18.56
-10.71
-2.87
4.66
11.3
16.39
19.46
20.47
19.83
18.26
16.56
15.32
14.82
14.98
15.51
16.04
16.25
15.94
15.06
13.65
11.79
9.6
7.25
4.89
2.72
0.88
-0.56
-1.67
-2.63
-3.63
-4.79
-6.07
-7.27
-8.1
-8.32
-7.81
-6.6
-4.89
-2.92
-0.92
0.98
2.72
4.37
6
7.7
9.47
11.22
12.87
14.4
15.9
17.63
19.81
22.54
25.63
28.7
31.23
32.75
32.98
31.92
29.74
26.71
23.08
19.01
14.61
9.99
5.2
0.38
-4.35
-8.82
-12.87
-16.32
-19.11
-21.2
-22.66
-23.59
-24.04
-23.98
-23.45
-22.49
-21.25
-19.93
-18.64
-17.28
-15.58
-13.25
-10.14
-6.39
-2.42
1.23
4.11
6
6.9
6.89
6.03
4.31
1.64
-1.94
-6.23
-10.75
-14.91
-18.08
-19.84
-20.05
-18.89
-16.69
-13.8
-10.44
-6.66
-2.42
2.27
7.28
12.29
16.9
20.81
23.84
26.07
27.67
28.78
29.39
29.28
28.13
25.74
22.14
17.61
12.61
7.51
2.57
-2.07
-6.29
-9.78
-12.17
-13.11
-12.5
-10.5
-7.58
-4.29
-1.08
1.69
3.87
5.37
6.21
6.49
6.41
6.18
5.91
5.63
5.28
4.85
4.37
3.94
3.63
3.39
3.03
2.32
1.12
-0.53
-2.51
-4.66
-6.94
-9.32
-11.75
-14.01
-15.8
-16.72
-16.54
-15.17
-12.7
-9.44
-5.74
-2.07
1.18
3.69
5.35
6.25
6.63
6.78
6.92
7.18
7.6
8.28
9.32
10.76
12.51
14.29
15.67
16.23
15.74
14.26
12.17
9.99
8.21
7.09
6.62
6.56
6.63
6.69
6.73
6.85
7.12
7.51
7.89
8.08
7.9
7.25
5.98
3.94
0.95
-3.07
-7.98
-13.3
-18.3
-22.19
-24.37
-24.64
-23.25
-20.67
-17.41
-13.79
-9.83
-5.43
-0.5
4.86
10.37
15.57
20.08
23.66
26.31
28.25
29.75
31.11
32.52
34.1
35.85
37.66
39.36
40.61
41.02
40.15
37.68
33.46
27.63
20.51
12.5
3.96
-4.98
-14.29
-24.07
-34.32
-44.79
-54.96
-64.17
-71.87
-77.94
-82.7
-86.85
-91.23
-96.49
-102.94
-110.42
-118.45
-126.26
-132.97
-137.75
-139.8
-138.55
-133.57
-124.42
-110.59
-91.61
-67.25
-37.89
-4.84
29.69
62.96
92.33
115.84
132.51
142.34
145.95
144.23
138
128.03
115.08
100.07
84.18
68.71
54.88
43.56
35.07
29.26
25.63
23.52
22.27
21.23
19.8
17.51
14.16
9.92
5.35
1.31
-1.32
-1.9
-0.26
3.31
8.06
13.07
17.4
20.34
21.57
21.14
19.47
17.19
14.89
12.99
11.64
10.74
10.02
9.23
8.21
6.99
5.75
4.72
4.11
3.94
4.09
4.26
4.18
3.61
2.57
1.21
-0.26
-1.68
-3.05
-4.54
-6.35
-8.61
-11.3
-14.18
-16.96
-19.39
-21.39
-23.02
-24.43
-25.73
-26.9
-27.76
-28.03
-27.5
-26.1
-24
-21.61
-19.41
-17.79
-16.86
-16.41
-16.05
-15.36
-14.1
-12.3
-10.24
-8.27
-6.71
-5.67
-5.11
-4.81
-4.53
-4.07
-3.29
-2.18
-0.89
0.36
1.31
1.82
1.88
1.67
1.45
1.42
1.59
1.84
1.94
1.76
1.32
0.8
0.37
0.1
-0.14
-0.55
-1.24
-2.12
-2.97
-3.54
-3.75
-3.74
-3.72
-3.77
-3.81
-3.6
-2.93
-1.7
-0.02
1.97
4.15
6.52
9.06
11.65
14.04
15.91
16.94
16.97
15.97
14.12
11.74
9.2
6.88
4.99
3.54
2.35
1.1
-0.47
-2.43
-4.66
-6.94
-9.11
-11.14
-13.09
-14.98
-16.72
-18.11
-18.9
-18.94
-18.27
-17.1
-15.69
-14.26
-12.86
-11.43
-9.85
-8.05
-6.11
-4.2
-2.49
-1.05
0.22
1.53
3.09
4.94
6.9
8.61
9.75
10.12
9.8
9.05
8.16
7.35
6.7
6.17
5.76
5.59
5.86
6.72
8.17
10.04
12
13.75
15.17
16.29
17.24
18.12
18.85
19.21
18.96
17.95
16.22
14.01
11.61
9.29
7.11
5
2.81
0.43
-2.15
-4.82
-7.4
-9.75
-11.82
-13.62
-15.19
-16.56
-17.74
-18.69
-19.36
-19.66
-19.48
-18.69
-17.18
-14.9
-11.88
-8.27
-4.36
-0.54
2.76
5.15
6.35
6.36
5.39
3.88
2.32
1.06
0.19
-0.42
-1.05
-1.9
-2.98
-4.11
-5.06
-5.6
-5.66
-5.29
-4.58
-3.6
-2.35
-0.8
0.96
2.8
4.49
5.83
6.75
7.28
7.47
7.35
6.9
6.02
4.69
2.93
0.86
-1.35
-3.56
-5.66
-7.6
-9.34
-10.83
-12.05
-12.97
-13.53
-13.6
-13.04
-11.7
-9.6
-6.94
-4.16
-1.69
0.14
1.28
1.91
2.35
2.83
3.37
3.78
3.81
3.35
2.48
1.52
0.82
0.69
1.28
2.52
4.22
6.15
8.11
9.91
11.35
12.21
12.27
11.46
9.91
7.91
5.87
4.12
2.8
1.84
1.01
0.05
-1.14
-2.56
-4.03
-5.41
-6.54
-7.45
-8.26
-9.15
-10.34
-11.89
-13.66
-15.32
-16.46
-16.69
-15.84
-14
-11.49
-8.7
-5.96
-3.39
-0.99
1.33
3.58
5.65
7.4
8.72
9.6
10.24
10.87
11.69
12.76
13.96
15.06
15.87
16.3
16.37
16.17
15.78
15.18
14.31
13.05
11.33
9.08
6.39
3.39
0.32
-2.58
-5.13
-7.23
-8.99
-10.58
-12.22
-13.99
-15.85
-17.59
-18.99
-19.89
-20.21
-19.87
-18.79
-16.81
-13.82
-9.87
-5.12
0.18
5.82
11.73
17.9
24.26
30.54
36.25
40.77
43.63
44.69
44.18
42.55
40.27
37.69
34.95
32.12
29.2
26.19
23.07
19.76
16.17
12.29
8.15
3.94
-0.14
-3.94
-7.4
-10.54
-13.38
-15.91
-18.06
-19.84
-21.37
-22.85
-24.46
-26.22
-27.97
-29.44
-30.43
-31
-31.43
-32.1
-33.19
-34.56
-35.69
-35.96
-34.95
-32.64
-29.47
-26.12
-23.18
-20.95
-19.51
-18.69
-18.32
-18.29
-18.46
-18.66
-18.6
-18.01
-16.65
-14.5
-11.68
-8.44
-5.03
-1.61
1.66
4.68
7.37
9.71
11.86
14.03
16.45
19.16
22
24.6
26.67
28.15
29.28
30.57
32.48
35.26
38.8
42.75
46.66
50.17
53.09
55.28
56.63
56.96
56.09
53.97
50.72
46.61
41.98
37.04
31.75
25.87
19.07
11.15
2.14
-7.71
-18.15
-29.08
-40.59
-52.73
-65.15
-77.02
-87.09
-94.11
-97.3
-96.6
-92.54
-85.93
-77.45
-67.43
-56.03
-43.46
-30.21
-17
-4.61
6.39
15.74
23.44
29.59
34.23
37.33
38.87
38.89
37.61
35.41
32.69
29.84
27.03
24.24
21.22
17.75
13.69
9.19
4.67
0.66
-2.42
-4.4
-5.43
-5.85
-6
-6.09
-6.19
-6.3
-6.49
-6.87
-7.55
-8.45
-9.33
-9.73
-9.28
-7.78
-5.37
-2.41
0.68
3.55
6.11
8.36
10.4
12.27
13.91
15.15
15.83
15.88
15.35
14.39
13.17
11.83
10.41
8.92
7.38
5.85
4.47
3.37
2.57
2.02
1.65
1.39
1.34
1.7
2.72
4.54
7.1
10.17
13.44
16.63
19.59
22.29
24.72
26.7
27.92
27.94
26.41
23.33
19.15
14.61
10.48
7.2
4.7
2.51
0.18
-2.39
-4.68
-5.85
-5.02
-1.73
3.82
10.88
18.44
25.48
31.16
34.9
36.35
35.43
32.33
27.48
21.46
14.87
8.03
1.04
-6.29
-14.25
-22.97
-32.27
-41.61
-50.2
-57.21
-62.06
-64.51
-64.66
-62.9
-59.72
-55.61
-51.01
-46.22
-41.43
-36.65
-31.75
-26.61
-21.24
-15.85
-10.94
-7.13
-4.99
-4.86
-6.79
-10.6
-15.91
-22.24
-28.97
-35.3
-40.3
-43.13
-43.15
-40.26
-34.86
-27.7
-19.59
-10.95
-1.82
8.15
19.24
31.48
44.35
56.92
68.1
76.86
82.48
84.55
83.04
78.14
70.25
59.99
48.09
35.4
22.74
10.88
0.5
-7.89
-13.97
-17.73
-19.42
-19.56
-18.7
-17.34
-15.76
-14.09
-12.4
-10.81
-9.52
-8.83
-8.98
-10.05
-11.97
-14.57
-17.6
-20.85
-24.15
-27.29
-30.05
-32.27
-33.83
-34.76
-35.17
-35.11
-34.53
-33.2
-30.84
-27.23
-22.4
-16.63
-10.43
-4.41
0.93
5.27
8.6
11.07
12.96
14.53
15.97
17.35
18.66
19.87
20.9
21.64
22
21.83
21.08
19.83
18.27
16.65
15.25
14.24
13.68
13.53
13.71
14.05
14.41
14.59
14.46
13.94
13
11.65
9.84
7.48
4.51
0.98
-2.86
-6.66
-10
-12.54
-14.07
-14.5
-13.87
-12.24
-9.76
-6.62
-3.09
0.55
4.04
7.18
9.79
11.71
12.81
13.04
12.47
11.32
9.94
8.64
7.65
7.03
6.67
6.35
5.84
4.97
3.69
2.09
0.38
-1.23
-2.58
-3.62
-4.43
-5.1
-5.68
-6.15
-6.53
-6.9
-7.49
-8.43
-9.75
-11.27
-12.7
-13.87
-14.83
-15.88
-17.31
-19.16
-21.11
-22.51
-22.75
-21.46
-18.76
-15.04
-10.86
-6.68
-2.91
0.08
1.9
2.24
1
-1.62
-5.09
-8.68
-11.65
-13.51
-14.06
-13.42
-11.91
-9.95
-8.03
-6.57
-5.8
-5.73
-6.1
-6.55
-6.72
-6.36
-5.42
-3.96
-2.18
-0.29
1.5
3.08
4.38
5.49
6.49
7.44
8.33
9.05
9.51
9.65
9.5
9.1
8.49
7.63
6.59
5.56
4.89
5.02
6.23
8.45
11.26
14.07
16.39
18.03
19.13
19.96
20.65
21.11
21.04
20.13
18.29
15.75
12.97
10.48
8.65
7.67
7.45
7.76
8.33
8.94
9.5
10.05
10.67
11.33
11.95
12.28
12.17
11.6
10.69
9.64
8.56
7.44
6.12
4.52
2.6
0.51
-1.52
-3.28
-4.69
-5.68
-6.18
-6.17
-5.6
-4.54
-3.2
-1.84
-0.75
-0.11
0.08
-0.07
-0.37
-0.71
-1.08
-1.63
-2.53
-3.97
-6
-8.61
-11.76
-15.44
-19.65
-24.36
-29.37
-34.32
-38.71
-41.98
-43.75
-43.82
-42.21
-39.06
-34.58
-29.06
-22.77
-16.11
-9.46
-3.14
2.75
8.3
13.69
19.05
24.25
28.92
32.59
34.83
35.53
34.85
33.19
30.89
28.19
25.09
21.54
17.49
13.1
8.73
4.87
1.94
0.2
-0.37
-0.06
0.74
1.66
2.45
3.06
3.46
3.69
3.73
3.58
3.34
3.21
3.51
4.45
6.13
8.43
11.09
13.83
16.43
18.75
20.72
22.32
23.49
24.26
24.64
24.69
24.42
23.71
22.41
20.37
17.51
13.92
9.85
5.61
1.47
-2.44
-6.16
-9.94
-14.1
-18.99
-24.92
-32.03
-40.15
-48.76
-56.98
-63.87
-68.69
-71.14
-71.44
-70.07
-67.44
-63.64
-58.5
-51.8
-43.61
-34.42
-25.04
-16.25
-8.51
-1.92
3.69
8.6
13.02
17.11
20.99
24.75
28.42
31.87
34.96
37.46
39.25
40.25
40.43
39.74
38.13
35.56
32.09
27.93
23.36
18.71
14.26
10.14
6.4
3.04
-0.01
-2.79
-5.39
-7.83
-10.12
-12.17
-13.83
-14.96
-15.39
-14.98
-13.61
-11.26
-8.06
-4.25
-0.26
3.54
6.87
9.71
12.26
14.8
17.51
20.31
23.02
25.48
27.7
29.89
32.32
35.14
38.22
41.29
43.98
46.08
47.61
48.7
49.45
49.79
49.41
47.84
44.66
39.65
32.86
24.6
15.28
5.18
-5.58
-17.07
-29.36
-42.37
-55.8
-69.23
-82.16
-94.05
-104.34
-112.27
-117.05
-117.92
-114.54
-107.16
-96.66
-84.33
-71.47
-59.11
-47.74
-37.42
-27.98
-19.28
-11.42
-4.66
0.69
4.46
6.82
8.17
9.03
9.73
10.33
10.58
10.16
8.87
6.83
4.49
2.47
1.27
1.12
1.95
3.41
5.14
6.88
8.61
10.52
12.83
15.73
19.23
23.16
27.28
31.3
34.96
38
40.14
41.11
40.75
39.11
36.45
33.21
29.84
26.66
23.84
21.37
19.23
17.36
15.78
14.49
13.41
12.42
11.32
10
8.39
6.59
4.78
3.13
1.78
0.69
-0.25
-1.2
-2.27
-3.52
-4.88
-6.28
-7.68
-9.11
-10.7
-12.55
-14.69
-17.07
-19.58
-22.08
-24.52
-26.82
-28.91
-30.71
-32.14
-33.26
-34.26
-35.43
-36.98
-38.96
-41.25
-43.64
-45.97
-48.27
-50.61
-53.03
-55.31
-57
-57.54
-56.5
-53.76
-49.53
-44.3
-38.64
-33.05
-27.93
-23.43
-19.55
-16.05
-12.48
-8.25
-2.68
4.86
14.94
27.85
43.49
61.29
80.13
98.48
114.7
127.39
135.65
139.37
139.05
135.61
130.07
123.27
115.78
107.87
99.57
90.73
81.11
70.44
58.57
45.55
31.61
17.07
2.35
-12.19
-26.23
-39.57
-52.18
-64.27
-76.37
-89.18
-103.16
-118.18
-133.27
-146.74
-156.65
-161.5
-160.75
-154.87
-145.1
-132.83
-119.22
-104.91
-90.11
-74.82
-58.93
-42.25
-24.35
-4.67
17.34
41.76
67.84
94
118.14
138.26
153.14
162.59
167.32
168.48
167.09
163.75
158.59
151.46
142.17
130.55
116.52
100.07
81.26
60.35
37.68
13.7
-11.17
-36.51
-61.83
-86.41
-109.26
-129.27
-145.39
-156.96
-163.79
-166.08
-164.29
-158.86
-150.2
-138.74
-124.98
-109.54
-93.01
-75.84
-58.14
-39.82
-20.72
-0.85
19.37
39.15
57.49
73.45
86.34
95.93
102.27
105.69
106.56
105.32
102.39
98.25
93.35
88.1
82.77
77.44
72.02
66.34
60.21
53.53
46.28
38.53
30.52
22.55
15.01
8.21
2.31
-2.76
-7.2
-11.2
-14.84
-18.04
-20.66
-22.61
-23.91
-24.72
-25.25
-25.69
-26.13
-26.7
-27.48
-28.6
-30.12
-31.97
-33.85
-35.3
-35.77
-34.86
-32.37
-28.44
-23.53
-18.25
-13.15
-8.65
-4.89
-1.8
0.69
2.67
4.15
5.12
5.57
5.59
5.35
5.1
5.03
5.28
5.89
6.79
7.78
8.59
9.01
8.89
8.25
7.19
5.9
4.45
2.88
1.16
-0.73
-2.72
-4.69
-6.53
-8.21
-9.85
-11.63
-13.77
-16.41
-19.55
-23.07
-26.68
-30.01
-32.61
-34.02
-33.82
-31.76
-27.83
-22.3
-15.75
-8.89
-2.4
3.26
7.92
11.65
14.65
17.05
18.87
20.1
20.77
21.06
21.22
21.48
21.9
22.37
22.67
22.6
22.07
21.1
19.81
18.31
16.68
14.98
13.21
11.28
9.05
6.42
3.44
0.37
-2.38
-4.39
-5.5
-5.81
-5.81
-6
-6.78
-8.2
-9.95
-11.45
-12.02
-10.98
-7.83
-2.36
5.28
14.48
24.32
33.75
41.85
48.04
52.05
53.93
53.88
52.13
48.94
44.54
39.22
33.3
27.03
20.61
14.11
7.54
0.85
-5.89
-12.57
-18.95
-24.78
-29.78
-33.76
-36.6
-38.29
-38.9
-38.6
-37.57
-36.01
-34.1
-31.99
-29.87
-27.91
-26.26
-25.09
-24.51
-24.56
-25.2
-26.23
-27.3
-27.91
-27.53
-25.7
-22.23
-17.28
-11.37
-5.26
0.28
4.69
7.76
9.63
10.68
11.35
11.91
12.38
12.57
12.17
10.99
9.1
6.79
4.47
2.53
1.14
0.26
-0.24
-0.48
-0.52
-0.41
-0.19
0.01
0.07
-0.08
-0.38
-0.68
-0.82
-0.71
-0.37
0.09
0.54
0.91
1.07
0.92
0.33
-0.85
-2.75
-5.38
-8.61
-12.15
-15.51
-18.09
-19.35
-18.88
-16.6
-12.79
-7.93
-2.6
2.71
7.73
12.33
16.46
20.04
22.91
24.9
25.93
26.06
25.5
24.56
23.56
22.68
22
21.43
20.83
20.08
19.17
18.17
17.17
16.21
15.22
14.12
12.85
11.45
10.08
8.89
7.94
7.15
6.32
5.21
3.73
1.89
-0.15
-2.2
-4.16
-6.09
-8.08
-10.26
-12.68
-15.35
-18.27
-21.38
-24.52
-27.38
-29.49
-30.37
-29.71
-27.55
-24.33
-20.67
-17.15
-14.05
-11.32
-8.74
-6.08
-3.34
-0.66
1.7
3.57
4.97
6.06
7.13
8.39
9.91
11.55
12.96
13.81
13.86
13.13
11.85
10.4
9.03
7.82
6.62
5.21
3.51
1.67
0.04
-1
-1.28
-0.87
-0.12
0.54
0.75
0.35
-0.57
-1.75
-2.91
-3.84
-4.43
-4.75
-4.95
-5.28
-5.95
-7.06
-8.62
-10.46
-12.26
-13.62
-14.16
-13.57
-11.77
-8.95
-5.54
-2.09
0.88
3.04
4.34
4.87
4.91
4.71
4.42
4.15
3.91
3.7
3.59
3.66
4.02
4.76
5.84
7.08
8.24
9.08
9.47
9.4
9
8.4
7.67
6.74
5.45
3.69
1.45
-1.09
-3.6
-5.75
-7.32
-8.26
-8.7
-8.8
-8.7
-8.48
-8.13
-7.69
-7.29
-7.11
-7.31
-7.9
-8.7
-9.48
-10.06
-10.4
-10.7
-11.19
-12.05
-13.29
-14.68
-15.86
-16.37
-15.86
-14.15
-11.3
-7.62
-3.54
0.48
4.08
7.09
9.48
11.3
12.59
13.43
13.91
14.21
14.51
14.98
15.57
16.16
16.59
16.81
16.92
17.04
17.27
17.53
17.66
17.5
17.01
16.25
15.36
14.42
13.46
12.46
11.4
10.32
9.29
8.32
7.39
6.36
5.07
3.43
1.46
-0.71
-2.84
-4.76
-6.41
-7.89
-9.46
-11.33
-13.62
-16.18
-18.64
-20.5
-21.28
-20.72
-18.81
-15.81
-12.13
-8.27
-4.67
-1.67
0.51
1.82
2.34
2.37
2.26
2.38
2.83
3.47
3.96
3.93
3.26
2.1
0.82
-0.2
-0.76
-0.94
-0.97
-1.04
-1.23
-1.47
-1.72
-1.98
-2.39
-3.08
-4.02
-4.99
-5.62
-5.63
-4.92
-3.72
-2.44
-1.48
-1.07
-1.22
-1.8
-2.67
-3.8
-5.23
-6.95
-8.85
-10.55
-11.57
-11.52
-10.25
-8
-5.26
-2.61
-0.55
0.78
1.49
1.84
2.07
2.29
2.43
2.45
2.33
2.15
2.05
2.12
2.38
2.78
3.31
4
4.93
6.13
7.48
8.72
9.53
9.62
8.83
7.17
4.78
1.86
-1.33
-4.56
-7.57
-10.18
-12.24
-13.74
-14.76
-15.53
-16.34
-17.41
-18.85
-20.54
-22.06
-22.89
-22.48
-20.56
-17.26
-12.98
-8.26
-3.6
0.71
4.49
7.6
9.93
11.36
11.96
12
11.85
11.8
11.92
12.06
12.01
11.71
11.27
10.95
10.9
11.09
11.34
11.37
11.06
10.42
9.59
8.68
7.79
6.89
5.91
4.82
3.61
2.32
1.04
-0.1
-1.05
-1.84
-2.58
-3.49
-4.78
-6.55
-8.78
-11.22
-13.41
-14.87
-15.15
-14.05
-11.68
-8.47
-5.06
-2.08
0.01
1.07
1.25
0.89
0.38
0.05
0.11
0.59
1.42
2.41
3.31
3.89
3.97
3.56
2.76
1.78
0.81
-0.02
-0.73
-1.4
-2.1
-2.83
-3.51
-4.03
-4.34
-4.52
-4.7
-5
-5.4
-5.79
-6.01
-6.01
-5.94
-6.04
-6.61
-7.82
-9.58
-11.63
-13.54
-14.89
-15.34
-14.63
-12.71
-9.66
-5.78
-1.61
2.24
5.25
7.14
7.96
8
7.66
7.3
7.14
7.24
7.58
8.1
8.72
9.33
9.83
10.14
10.29
10.33
10.33
10.3
10.12
9.7
8.98
8.08
7.18
6.46
5.91
5.35
4.54
3.3
1.65
-0.22
-2.06
-3.72
-5.15
-6.44
-7.65
-8.78
-9.81
-10.71
-11.55
-12.48
-13.64
-15.03
-16.44
-17.48
-17.73
-16.88
-14.9
-12.04
-8.73
-5.41
-2.39
0.27
2.64
4.81
6.76
8.41
9.63
10.4
10.86
11.27
11.86
12.73
13.81
14.87
15.7
16.14
16.13
15.73
14.98
13.9
12.45
10.55
8.17
5.36
2.31
-0.64
-3.17
-5.09
-6.38
-7.24
-7.97
-8.88
-10.13
-11.73
-13.56
-15.37
-16.93
-17.98
-18.4
-18.16
-17.43
-16.47
-15.54
-14.74
-13.88
-12.57
-10.32
-6.78
-1.92
3.84
9.78
15
18.67
20.23
19.52
16.77
12.55
7.63
2.74
-1.63
-5.38
-8.72
-11.98
-15.4
-18.97
-22.37
-25.07
-26.53
-26.34
-24.23
-20.16
-14.22
-6.71
1.8
10.52
18.53
25
29.45
31.77
32.23
31.32
29.56
27.41
25.17
22.99
20.9
18.83
16.67
14.28
11.62
8.71
5.67
2.62
-0.26
-2.84
-4.92
-6.32
-6.95
-6.85
-6.28
-5.53
-4.85
-4.24
-3.55
-2.5
-0.93
1.15
3.51
5.88
8.08
10.07
11.86
13.46
14.81
15.81
16.41
16.63
16.57
16.35
16.01
15.44
14.46
12.96
10.9
8.42
5.77
3.25
1.04
-0.72
-2.03
-2.91
-3.41
-3.55
-3.4
-3.07
-2.71
-2.49
-2.55
-2.96
-3.72
-4.75
-5.9
-6.99
-7.84
-8.35
-8.53
-8.56
-8.69
-9.25
-10.46
-12.31
-14.5
-16.55
-17.91
-18.16
-17.2
-15.18
-12.45
-9.32
-6.03
-2.69
0.63
3.82
6.65
8.88
10.38
11.19
11.5
11.64
11.84
12.21
12.7
13.2
13.65
14.02
14.32
14.53
14.58
14.36
13.79
12.87
11.71
10.48
9.36
8.47
7.79
7.27
6.8
6.19
5.26
3.85
1.87
-0.7
-3.72
-6.98
-10.23
-13.23
-15.86
-18.09
-20.09
-22.14
-24.56
-27.49
-30.84
-34.2
-36.96
-38.55
-38.45
-36.46
-32.64
-27.22
-20.54
-12.97
-4.89
3.4
11.55
19.17
25.83
30.97
34.19
35.27
34.37
31.96
28.76
25.43
22.39
19.77
17.48
15.42
13.54
11.94
10.78
10.11
9.81
9.52
8.79
7.2
4.62
1.15
-2.83
-6.91
-10.77
-14.28
-17.49
-20.46
-23.13
-25.35
-26.89
-27.68
-27.77
-27.34
-26.58
-25.59
-24.35
-22.81
-21.02
-19.17
-17.47
-16.14
-15.11
-14.15
-12.82
-10.71
-7.54
-3.28
1.87
7.56
13.39
18.92
23.71
27.33
29.46
29.94
28.92
26.73
23.83
20.6
17.25
13.86
10.48
7.22
4.32
2.07
0.68
0.28
0.9
2.51
5.11
8.6
12.75
17.1
21.11
24.3
26.44
27.53
27.72
27.17
25.86
23.71
20.6
16.55
11.75
6.47
0.92
-4.88
-10.94
-17.31
-23.9
-30.46
-36.7
-42.39
-47.45
-51.89
-55.75
-58.9
-61.04
-61.74
-60.6
-57.44
-52.37
-45.68
-37.83
-29.28
-20.46
-11.76
-3.41
4.44
11.8
18.75
25.31
31.41
36.83
41.29
44.54
46.47
47.1
46.55
44.92
42.32
38.8
34.44
29.36
23.72
17.83
12.03
6.79
2.48
-0.64
-2.54
-3.5
-3.94
-4.25
-4.67
-5.18
-5.57
-5.59
-5.08
-4.07
-2.77
-1.49
-0.54
-0.16
-0.42
-1.23
-2.27
-3.12
-3.34
-2.67
-1.22
0.66
2.44
3.64
4.07
3.8
3.17
2.5
1.97
1.59
1.19
0.53
-0.56
-2.11
-4.03
-6.12
-8.19
-10.04
-11.54
-12.59
-13.13
-13.1
-12.49
-11.37
-9.96
-8.52
-7.36
-6.71
-6.66
-7.11
-7.78
-8.39
-8.7
-8.67
-8.42
-8.23
-8.29
-8.74
-9.52
-10.5
-11.52
-12.41
-13
-13.11
-12.6
-11.43
-9.76
-7.95
-6.45
-5.56
-5.29
-5.4
-5.54
-5.52
-5.33
-5.11
-4.98
-4.9
-4.63
-3.89
-2.49
-0.41
2.14
4.87
7.5
9.84
11.8
13.27
14.17
14.44
14.09
13.26
12.12
10.81
9.37
7.76
5.9
3.75
1.41
-0.96
-3.17
-5.14
-6.85
-8.4
-9.86
-11.29
-12.63
-13.76
-14.49
-14.54
-13.75
-12.04
-9.57
-6.71
-3.89
-1.45
0.48
2.06
3.6
5.41
7.71
10.52
13.77
17.34
21.08
24.82
28.26
31.1
32.99
33.73
33.35
32.08
30.22
28.04
25.68
23.16
20.46
17.61
14.7
11.92
9.41
7.28
5.53
4.1
2.82
1.46
-0.24
-2.43
-5.04
-7.77
-10.11
-11.58
-11.84
-10.86
-8.93
-6.54
-4.2
-2.31
-1.08
-0.49
-0.45
-0.78
-1.31
-1.91
-2.43
-2.75
-2.84
-2.69
-2.35
-1.91
-1.45
-0.95
-0.3
0.68
2.16
4.19
6.7
9.41
11.98
14.05
15.32
15.7
15.26
14.3
13.14
12.12
11.43
11.15
11.31
11.94
13.13
15
17.63
20.94
24.78
28.78
32.51
35.44
36.95
36.45
33.56
28.21
20.78
12.01
2.71
-6.39
-14.76
-22.15
-28.31
-33
-36
-37.21
-36.9
-35.59
-33.94
-32.43
-31.19
-30.03
-28.62
-26.76
-24.54
-22.25
-20.26
-18.87
-18.21
-18.28
-18.97
-20.17
-21.77
-23.64
-25.66
-27.64
-29.33
-30.46
-30.79
-30.12
-28.43
-25.88
-22.76
-19.47
-16.28
-13.29
-10.48
-7.8
-5.26
-3.03
-1.26
-0.1
0.48
0.6
0.51
0.4
0.47
0.84
1.61
2.79
4.32
5.97
7.42
8.38
8.71
8.51
8.06
7.73
7.75
8.16
8.74
9.17
9.16
8.53
7.28
5.49
3.28
0.72
-2.08
-4.99
-7.8
-10.22
-12.02
-13.05
-13.24
-12.6
-11.18
-9.04
-6.28
-3.1
0.21
3.27
5.81
7.72
9.13
10.32
11.61
13.16
14.9
16.58
17.9
18.68
18.94
18.82
18.49
18.06
17.46
16.51
15.09
13.22
11.11
9.09
7.45
6.32
5.65
5.14
4.47
3.41
1.93
0.13
-1.76
-3.57
-5.21
-6.68
-8.01
-9.08
-9.7
-9.61
-8.69
-7.01
-4.88
-2.69
-0.76
0.79
2.07
3.33
4.68
6.08
7.25
7.86
7.73
6.93
5.79
4.74
4.1
3.93
4.02
4.05
3.72
2.93
1.82
0.69
-0.21
-0.8
-1.22
-1.64
-2.2
-2.9
-3.56
-3.95
-3.93
-3.53
-2.92
-2.38
-2.11
-2.17
-2.58
-3.29
-4.33
-5.78
-7.72
-10.08
-12.64
-14.99
-16.69
-17.42
-17.06
-15.66
-13.47
-10.79
-7.92
-5.12
-2.58
-0.39
1.42
2.91
4.12
5.13
5.98
6.72
7.4
8.08
8.79
9.47
10.07
10.45
10.53
10.27
9.68
8.82
7.84
6.87
6.07
5.46
4.93
4.31
3.37
2.02
0.28
-1.67
-3.59
-5.28
-6.63
-7.68
-8.51
-9.23
-9.98
-10.79
-11.67
-12.56
-13.34
-13.87
-13.96
-13.48
-12.29
-10.36
-7.86
-5.06
-2.34
0.04
2.02
3.73
5.36
7
8.52
9.65
10.12
9.85
8.97
7.8
6.61
5.56
4.65
3.79
2.92
2.1
1.41
0.9
0.57
0.31
0
-0.49
-1.17
-2.01
-2.94
-3.89
-4.83
-5.67
-6.28
-6.52
-6.29
-5.67
-4.92
-4.32
-4.12
-4.34
-4.84
-5.43
-5.99
-6.62
-7.53
-8.86
-10.59
-12.44
-13.95
-14.73
-14.64
-13.78
-12.45
-11
-9.62
-8.38
-7.25
-6.16
-5.05
-3.94
-2.9
-2
-1.26
-0.64
-0.03
0.7
1.65
2.91
4.45
6.24
8.24
10.47
12.98
15.83
19.02
22.49
26.11
29.72
33.16
36.23
38.77
40.6
41.58
41.66
40.96
39.64
37.91
35.92
33.68
31.1
28.08
24.61
20.76
16.72
12.66
8.69
4.79
0.88
-3.13
-7.23
-11.28
-15.02
-18.13
-20.27
-21.27
-21.07
-19.86
-17.96
-15.76
-13.57
-11.65
-10.14
-9.15
-8.78
-9.05
-9.87
-11.04
-12.33
-13.52
-14.53
-15.34
-15.9
-16.06
-15.53
-14.02
-11.29
-7.33
-2.27
3.61
9.95
16.34
22.28
27.28
31.04
33.55
35.11
36.16
37.01
37.63
37.76
37.03
35.22
32.37
28.71
24.39
19.38
13.49
6.52
-1.54
-10.41
-19.61
-28.61
-37.05
-44.78
-51.88
-58.43
-64.34
-69.35
-73.07
-75.12
-75.36
-73.85
-70.86
-66.68
-61.55
-55.61
-48.95
-41.78
-34.36
-26.95
-19.71
-12.67
-5.75
1.09
7.83
14.34
20.43
25.91
30.6
34.37
37.18
39.06
40.17
40.71
40.88
40.75
40.27
39.25
37.54
35.12
32.1
28.77
25.42
22.21
19.19
16.28
13.38
10.5
7.75
5.29
3.23
1.49
-0.15
-1.97
-4.09
-6.42
-8.65
-10.39
-11.33
-11.38
-10.56
-9.02
-6.9
-4.34
-1.48
1.48
4.34
6.9
9.05
10.68
11.76
12.26
12.2
11.69
10.93
10.17
9.56
9.09
8.57
7.7
6.32
4.46
2.42
0.54
-0.93
-1.98
-2.86
-3.83
-5
-6.23
-7.21
-7.73
-7.81
-7.77
-8.05
-8.96
-10.54
-12.57
-14.78
-17.01
-19.26
-21.62
-24.13
-26.71
-29.21
-31.52
-33.67
-35.77
-37.93
-40.1
-42.04
-43.36
-43.63
-42.56
-40.07
-36.38
-31.92
-27.2
-22.68
-18.6
-15.01
-11.81
-8.89
-6.29
-4.13
-2.54
-1.53
-0.9
-0.25
0.85
2.71
5.39
8.71
12.31
15.88
19.23
22.32
25.2
27.85
30.17
31.9
32.83
32.82
31.96
30.48
28.64
26.67
24.61
22.45
20.1
17.56
14.85
12.12
9.53
7.28
5.51
4.21
3.25
2.35
1.18
-0.45
-2.49
-4.63
-6.42
-7.4
-7.33
-6.19
-4.17
-1.53
1.51
4.75
7.94
10.76
12.82
13.81
13.64
12.52
10.82
8.98
7.29
5.79
4.48
3.35
2.51
2.12
2.26
2.77
3.32
3.59
3.49
3.16
2.96
3.13
3.6
4.09
4.19
3.71
2.71
1.48
0.28
-0.77
-1.78
-2.9
-4.2
-5.62
-7
-8.27
-9.55
-10.98
-12.67
-14.42
-15.83
-16.42
-15.85
-14.12
-11.49
-8.42
-5.27
-2.31
0.4
2.83
4.93
6.61
7.75
8.33
8.46
8.36
8.32
8.49
8.88
9.32
9.58
9.46
8.88
7.92
6.73
5.48
4.22
2.97
1.7
0.47
-0.66
-1.59
-2.34
-3.03
-3.8
-4.77
-5.92
-7.13
-8.28
-9.35
-10.48
-11.87
-13.63
-15.61
-17.47
-18.7
-18.9
-17.85
-15.61
-12.45
-8.71
-4.74
-0.82
2.82
6.01
8.71
10.93
12.73
14.19
15.29
16.03
16.43
16.58
16.63
16.77
17.14
17.75
18.55
19.4
20.23
21.01
21.73
22.39
22.81
22.69
21.69
19.58
16.36
12.28
7.76
3.21
-1.07
-5.02
-8.77
-12.46
-16.1
-19.55
-22.45
-24.36
-24.93
-23.98
-21.63
-18.41
-15.04
-12.33
-10.89
-10.98
-12.35
-14.5
-16.83
-19.02
-21
-22.94
-24.99
-27.05
-28.79
-29.77
-29.68
-28.5
-26.49
-24.19
-22.14
-20.85
-20.66
-21.81
-24.41
-28.39
-33.46
-39.06
-44.5
-48.96
-51.77
-52.53
-51.2
-48.17
-44.09
-39.74
-35.75
-32.44
-29.68
-26.88
-23.2
-17.75
-9.87
0.7
13.72
28.56
44.28
59.87
74.36
86.95
97.08
104.42
109
111.13
111.31
110.08
107.85
104.86
101.17
96.74
91.5
85.45
78.73
71.63
64.54
57.91
51.97
46.65
41.53
35.93
29.23
21.06
11.51
1.05
-9.67
-20.12
-29.92
-38.95
-47.19
-54.69
-61.46
-67.42
-72.38
-76.03
-78.01
-78.03
-75.94
-71.8
-65.93
-58.75
-50.69
-42.17
-33.51
-25.01
-16.96
-9.69
-3.49
1.47
5.21
7.96
10.1
12.03
14.08
16.29
18.48
20.27
21.27
21.23
20.15
18.27
16.02
13.82
12.04
10.86
10.26
10.03
9.85
9.34
8.29
6.7
4.76
2.8
1.15
-0.07
-0.92
-1.56
-2.23
-3.06
-4.03
-5
-5.7
-5.85
-5.21
-3.69
-1.27
1.95
5.86
10.35
15.31
20.54
25.8
30.68
34.8
37.84
39.64
40.2
39.62
38.02
35.56
32.42
28.75
24.65
20.05
14.81
8.83
2.33
-4.14
-9.82
-13.98
-16.33
-17.1
-16.96
-16.72
-17.05
-18.34
-20.92
-25.3
-32.18
-42.15
-55.24
-70.52
-86
-99.14
-107.54
-109.76
-105.62
-96.22
-83.36
-68.89
-54.25
-40.23
-27.06
-14.74
-3.3
7.04
15.87
22.73
27.34
29.72
30.15
29.09
26.97
24.13
20.87
17.58
14.74
12.88
12.45
13.59
16.1
19.43
22.86
25.77
27.77
28.77
28.9
28.36
27.26
25.55
23.04
19.53
15.01
9.71
4.09
-1.26
-5.87
-9.46
-11.97
-13.6
-14.61
-15.27
-15.82
-16.46
-17.33
-18.57
-20.29
-22.53
-25.15
-27.94
-30.51
-32.46
-33.46
-33.24
-31.66
-28.7
-24.47
-19.2
-13.25
-7.07
-1.09
4.3
8.92
12.75
15.99
18.9
21.82
24.87
28
30.93
33.29
34.78
35.3
35.06
34.48
34.1
34.36
35.53
37.68
40.67
44.24
48.05
51.72
54.91
57.34
58.8
59.13
58.29
56.27
53.15
49.09
44.27
38.89
33.14
27.17
21.11
15.07
9.18
3.56
-1.69
-6.46
-10.69
-14.31
-17.2
-19.26
-20.36
-20.45
-19.66
-18.26
-16.65
-15.25
-14.31
-13.89
-13.88
-14.08
-14.41
-14.93
-15.78
-17.11
-18.98
-21.31
-24.01
-27.04
-30.48
-34.31
-38.4
-42.36
-45.63
-47.69
-48.16
-46.92
-44.12
-40
-34.88
-29.08
-22.91
-16.71
-10.81
-5.45
-0.75
3.3
6.7
9.44
11.42
12.55
12.76
12.09
10.6
8.32
5.2
1.29
-3.19
-7.72
-11.57
-14
-14.63
-13.47
-11.05
-8.14
-5.54
-3.82
-3.22
-3.61
-4.61
-5.62
-6.04
-5.34
-3.24
0.24
4.71
9.57
14.19
17.96
20.46
21.45
20.86
18.83
15.74
12.18
8.85
6.39
5.19
5.33
6.62
8.82
11.79
15.54
20.18
25.73
31.95
38.36
44.31
49.24
52.73
54.57
54.61
52.7
48.64
42.34
34.01
24.28
14.1
4.48
-3.84
-10.58
-15.92
-20.25
-23.89
-26.93
-29.28
-30.79
-31.43
-31.36
-30.83
-30.11
-29.32
-28.51
-27.69
-26.83
-25.91
-24.85
-23.56
-21.97
-20.07
-17.87
-15.4
-12.68
-9.7
-6.54
-3.39
-0.57
1.6
2.94
3.46
3.34
2.84
2.15
1.32
0.29
-1
-2.61
-4.5
-6.61
-8.83
-11
-12.92
-14.33
-15
-14.77
-13.61
-11.65
-9.14
-6.33
-3.55
-1.05
0.98
2.45
3.35
3.75
3.76
3.47
2.96
2.31
1.6
1.05
0.85
1.13
1.8
2.61
3.26
3.49
3.24
2.63
1.87
1.12
0.48
-0.11
-0.66
-1.17
-1.59
-1.88
-2.08
-2.24
-2.49
-2.86
-3.35
-3.92
-4.54
-5.24
-6.12
-7.28
-8.76
-10.56
-12.55
-14.53
-16.23
-17.45
-18.08
-18.11
-17.65
-16.83
-15.83
-14.78
-13.78
-12.83
-11.86
-10.78
-9.42
-7.7
-5.49
-2.72
0.67
4.68
9.24
14.12
18.92
23.18
26.44
28.46
29.23
28.95
27.93
26.5
24.94
23.45
22.17
21.24
20.74
20.7
21.04
21.57
21.93
21.72
20.58
18.32
14.99
10.79
6.04
0.97
-4.32
-9.78
-15.25
-20.29
-24.24
-26.4
-26.26
-23.63
-18.7
-11.86
-3.65
5.34
14.38
22.53
28.79
32.31
32.58
29.58
23.71
15.65
6.18
-3.96
-14.11
-23.73
-32.43
-39.96
-46.19
-50.99
-54.23
-55.8
-55.65
-53.96
-51.08
-47.51
-43.72
-39.99
-36.4
-32.95
-29.63
-26.54
-23.81
-21.52
-19.63
-17.94
-16.18
-14.17
-11.87
-9.46
-7.26
-5.5
-4.31
-3.51
-2.76
-1.6
0.36
3.32
7.24
11.78
16.43
20.61
23.81
25.73
26.35
25.84
24.57
22.9
21.13
19.48
18.07
16.96
16.11
15.38
14.57
13.42
11.78
9.61
7.12
4.64
2.6
1.35
1.15
2.08
4.16
7.42
11.93
17.73
24.75
32.7
41.05
49.16
56.33
61.99
65.62
66.85
65.37
61.04
53.96
44.61
33.87
22.89
12.88
4.84
-0.69
-3.67
-4.51
-3.87
-2.44
-0.68
1.25
3.38
5.83
8.58
11.45
14.04
15.97
16.88
16.57
15.04
12.47
9.34
6.22
3.73
2.18
1.3
0.14
-2.73
-8.8
-19.02
-33.32
-50.49
-68.44
-84.71
-97.13
-104.37
-106.15
-103.19
-96.81
-88.46
-79.32
-70.1
-60.97
-51.83
-42.45
-32.69
-22.49
-11.94
-1.28
9.11
18.74
27.11
33.88
39.01
42.72
45.45
47.6
49.47
51.14
52.55
53.61
54.24
54.4
54.01
53.02
51.38
49.04
46.04
42.53
38.66
34.6
30.47
26.32
22.11
17.77
13.2
8.41
3.51
-1.25
-5.58
-9.22
-12.09
-14.24
-15.83
-17.05
-18.01
-18.72
-19.16
-19.25
-18.96
-18.32
-17.42
-16.45
-15.7
-15.45
-15.96
-17.24
-19.16
-21.36
-23.48
-25.17
-26.22
-26.55
-26.2
-25.29
-23.94
-22.29
-20.39
-18.22
-15.75
-12.93
-9.85
-6.65
-3.5
-0.51
2.31
5.05
7.86
10.87
14.07
17.35
20.48
23.18
25.17
26.13
25.86
24.28
21.44
17.68
13.44
9.2
5.35
2.12
-0.49
-2.53
-4.07
-5.12
-5.64
-5.61
-5.13
-4.4
-3.69
-3.21
-3.13
-3.53
-4.39
-5.62
-6.97
-8.11
-8.65
-8.32
-7.05
-5.03
-2.64
-0.29
1.73
3.28
4.42
5.24
5.81
6.12
6.14
5.88
5.45
5
4.71
4.67
4.82
4.98
4.86
4.21
3
1.42
-0.19
-1.46
-2.16
-2.3
-1.99
-1.48
-0.99
-0.62
-0.4
-0.24
-0.06
0.26
0.78
1.52
2.43
3.38
4.15
4.48
4.13
3.01
1.14
-1.22
-3.7
-5.91
-7.53
-8.43
-8.65
-8.34
-7.64
-6.67
-5.49
-4.12
-2.63
-1.08
0.37
1.54
2.27
2.41
1.93
0.99
-0.06
-0.87
-1.17
-0.85
-0.06
0.99
2.06
3.06
4.01
5
6.06
7.16
8.22
9.07
9.57
9.62
9.17
8.3
7.14
5.85
4.51
3.11
1.51
-0.42
-2.7
-5.2
-7.69
-9.92
-11.7
-12.91
-13.52
-13.45
-12.6
-10.93
-8.51
-5.54
-2.36
0.72
3.47
5.76
7.57
8.93
9.86
10.4
10.64
10.69
10.64
10.46
10
9.01
7.34
5.07
2.54
0.22
-1.54
-2.66
-3.37
-4.09
-5.14
-6.67
-8.57
-10.6
-12.51
-14.2
-15.57
-16.57
-17.16
-17.3
-17.06
-16.62
-16.2
-16.01
-16.12
-16.44
-16.7
-16.6
-15.86
-14.4
-12.38
-10.06
-7.71
-5.44
-3.09
-0.44
2.71
6.38
10.29
14.06
17.26
19.62
21.07
21.69
21.69
21.24
20.52
19.66
18.77
17.91
17.06
16.19
15.23
14.16
13.03
11.93
10.94
10.09
9.34
8.56
7.62
6.48
5.18
3.85
2.59
1.42
0.26
-1.06
-2.69
-4.68
-6.97
-9.34
-11.46
-12.96
-13.56
-13.18
-11.94
-10.12
-8.09
-6.13
-4.43
-3.06
-1.97
-1.08
-0.34
0.27
0.69
0.83
0.66
0.23
-0.3
-0.74
-0.97
-1.04
-1.11
-1.35
-1.82
-2.45
-3.17
-3.94
-4.82
-5.93
-7.31
-8.86
-10.41
-11.82
-13.04
-14.11
-15.08
-15.85
-16.22
-15.96
-15.01
-13.51
-11.73
-9.84
-7.86
-5.6
-2.84
0.42
4
7.55
10.7
13.19
14.89
15.73
15.67
14.73
13.03
10.87
8.6
6.47
4.57
2.79
1.01
-0.78
-2.43
-3.75
-4.59
-4.96
-4.97
-4.76
-4.4
-3.87
-3.19
-2.44
-1.78
-1.39
-1.35
-1.6
-2.01
-2.43
-2.83
-3.22
-3.69
-4.27
-4.92
-5.55
-6.03
-6.23
-6.06
-5.4
-4.17
-2.3
0.16
3.06
6.12
8.94
11.14
12.38
12.49
11.52
9.73
7.54
5.39
3.57
2.17
1.09
0.16
-0.74
-1.55
-2.11
-2.31
-2.23
-2.15
-2.42
-3.19
-4.33
-5.38
-5.82
-5.32
-3.88
-1.87
0.22
1.97
3.15
3.74
3.78
3.34
2.49
1.33
0.15
-0.74
-1.07
-0.75
0.01
0.94
1.72
2.28
2.71
3.18
3.8
4.52
5.23
5.8
6.18
6.41
6.51
6.48
6.32
6.05
5.69
5.31
4.99
4.84
4.8
4.71
4.43
3.98
3.5
3.05
2.56
1.83
0.81
-0.49
-1.9
-3.08
-3.63
-3.35
-2.55
-1.87
-1.95
-2.77
-3.96
-4.82
-4.61
-2.79
0.69
4.89
8.52
10.67
12.02
13.39
15.56
18.78
23.04
27.87
31.6
32.52
29.89
25.86
22.25
20.38
20.53
22.73
26.48
29.41
28.85
23.17
14.84
5.55
-3.81
-13.52
-23.41
-33.21
-44.68
-60.3
-82.14
-108.31
-138.88
-174.79
-217.09
-264.21
-300.19
-308.98
-282.99
-245.95
-208.27
-174.49
-140.18
-105.47
-70.83
-36.73
-5.58
19.8
37.7
51.34
62.68
72.83
81.77
90.3
99.32
107.64
112.96
113.18
110
104.57
98.2
91.92
87.6
86.81
89.1
92.64
95.33
97.21
98.01
97.58
95.75
93.08
90.48
88.4
86.91
86
86.31
87.64
89.2
89.8
88.61
85.3
79.92
72.88
65
57.55
51.59
47.76
46.21
46.74
48.86
51.95
55.32
58.46
61.09
63.19
64.9
66.34
67.29
67.03
64.41
58.13
47.2
31.38
11.31
-11.61
-35.63
-59.07
-80.63
-99.47
-115.24
-127.92
-137.81
-145.38
-151.16
-155.66
-159.12
-161.56
-162.74
-162.39
-160.28
-156.41
-150.95
-144.05
-135.76
-125.95
-114.38
-100.92
-85.77
-69.55
-53.14
-37.44
-23.08
-10.18
1.58
12.83
24.19
36.15
48.92
62.55
77.08
92.55
108.97
126.08
143.18
159.04
172.2
181.33
185.6
184.92
179.78
170.96
159.14
144.75
127.92
108.71
87.27
63.98
39.47
14.54
-9.72
-31.99
-50.88
-65.21
-74.53
-79.37
-81.2
-81.99
-83.52
-86.72
-91.35
-96.24
-99.88
-101.19
-99.88
-96.47
-91.84
-86.8
-81.7
-76.42
-70.63
-64.05
-56.63
-48.55
-40.15
-31.77
-23.77
-16.54
-10.52
-6.24
-4.1
-4.29
-6.57
-10.34
-14.74
-18.84
-21.9
-23.62
-24.14
-24.01
-23.94
-24.44
-25.74
-27.72
-30.19
-33.04
-36.39
-40.4
-45.1
-50.1
-54.61
-57.81
-59.15
-58.66
-56.84
-54.26
-51.13
-47.2
-41.93
-34.84
-25.83
-14.97
-2.24
12.87
31.14
53.18
78.59
105.58
131.26
152.57
167.4
175.26
177.24
175.27
171.15
165.81
159.26
150.95
140.47
127.98
114.24
100.34
87.18
75.21
64.3
54.01
43.9
33.83
23.93
14.47
5.47
-3.37
-12.66
-23.06
-34.98
-48.24
-62.13
-75.56
-87.4
-96.84
-103.53
-107.42
-108.57
-106.92
-102.31
-94.65
-84.25
-72.06
-59.54
-48.38
-39.93
-34.77
-32.7
-32.79
-33.96
-35.23
-36.01
-35.97
-35.01
-33.13
-30.42
-27.09
-23.46
-19.76
-16.02
-11.93
-6.94
-0.5
7.58
16.98
26.89
36.24
44.06
49.73
53.1
54.37
53.93
52.19
49.44
45.82
41.34
35.96
29.62
22.46
14.88
7.64
1.65
-2.28
-3.75
-3.08
-1.19
0.67
1.41
0.5
-1.83
-4.87
-7.87
-10.43
-12.75
-15.48
-19.26
-24.44
-30.72
-37.36
-43.37
-47.89
-50.29
-50.23
-47.59
-42.5
-35.34
-26.81
-17.71
-8.7
0.1
9.11
19.11
30.77
44.12
58.24
71.52
82.17
88.85
91.06
89.32
84.96
79.64
74.56
69.85
64.35
56.04
43.01
24.62
1.97
-22.18
-44.46
-62.13
-73.96
-80.24
-82.18
-81.11
-78.05
-73.84
-69.42
-66.04
-64.89
-66.54
-70.48
-75.27
-78.94
-79.8
-76.95
-70.51
-61.43
-51.01
-40.57
-31.03
-22.88
-15.91
-9.3
-1.76
7.93
20.31
34.76
49.48
62.04
70.31
73.4
71.88
67.52
62.28
57.46
53.3
49.2
44.34
38.15
30.49
21.43
11.14
-0.05
-11.32
-21.14
-27.47
-28.33
-22.68
-10.8
5.75
24.59
43.18
59.23
70.89
76.95
76.95
71.39
61.73
50.06
38.49
28.45
20.42
14.05
8.58
3.47
