-8.68
-10.97
-12.96
-13.98
-13.56
-11.59
-8.33
-4.4
-0.45
2.96
5.5
7.11
7.93
8.18
8.11
7.91
7.67
7.43
7.21
7.05
7.03
7.17
7.45
7.73
7.89
7.81
7.49
6.99
6.37
5.64
4.79
3.8
2.7
1.52
0.34
-0.84
-2.05
-3.33
-4.73
-6.27
-7.94
-9.68
-11.3
-12.57
-13.17
-12.8
-11.32
-8.87
-5.82
-2.63
0.26
2.62
4.39
5.63
6.35
6.54
6.12
5.15
3.8
2.35
1.18
0.54
0.59
1.25
2.27
3.35
4.21
4.68
4.72
4.38
3.76
2.95
1.97
0.78
-0.67
-2.34
-4.08
-5.68
-6.88
-7.6
-7.89
-8.02
-8.3
-9
-10.18
-11.63
-12.92
-13.54
-13.08
-11.39
-8.59
-5.06
-1.27
2.28
5.19
7.26
8.38
8.65
8.21
7.25
5.94
4.43
2.87
1.41
0.21
-0.48
-0.56
-0.06
0.82
1.75
2.4
2.59
2.34
1.77
1.09
0.4
-0.3
-1.11
-2.08
-3.23
-4.46
-5.66
-6.74
-7.71
-8.61
-9.49
-10.35
-11.1
-11.68
-11.97
-11.84
-11.19
-9.93
-8.06
-5.67
-2.98
-0.27
2.22
4.25
5.66
6.32
6.18
5.31
3.95
2.49
1.36
0.82
0.91
1.34
1.69
1.69
1.19
0.34
-0.65
-1.57
-2.28
-2.7
-2.82
-2.65
-2.31
-2.01
-2.03
-2.57
-3.63
-5.08
-6.64
-8.07
-9.26
-10.29
-11.33
-12.48
-13.72
-14.82
-15.4
-15.08
-13.69
-11.3
-8.31
-5.28
-2.7
-0.91
0.08
0.43
0.43
0.29
0.13
-0.03
-0.24
-0.48
-0.68
-0.73
-0.54
-0.04
0.7
1.53
2.23
2.58
2.48
1.98
1.23
0.48
-0.07
-0.33
-0.29
-0.13
-0.05
-0.24
-0.76
-1.46
-2.12
-2.45
-2.35
-1.97
-1.62
-1.64
-2.26
-3.44
-4.92
-6.36
-7.4
-7.81
-7.46
-6.32
-4.41
-1.81
1.25
4.45
7.3
9.37
10.27
9.9
8.49
6.55
4.7
3.43
2.96
3.18
3.76
4.36
4.73
4.8
4.61
4.26
3.84
3.35
2.84
2.35
1.93
1.58
1.22
0.71
-0.02
-0.95
-1.98
-2.92
-3.65
-4.18
-4.62
-5.17
-5.96
-6.98
-8.06
-9.02
-9.75
-10.25
-10.61
-11.03
-11.64
-12.55
-13.71
-14.96
-16.02
-16.56
-16.3
-15.19
-13.42
-11.39
-9.56
-8.25
-7.5
-7.07
-6.65
-5.99
-5.08
-4.09
-3.33
-3.05
-3.35
-4.16
-5.24
-6.29
-6.97
-7.09
-6.7
-6.1
-5.71
-5.89
-6.67
-7.76
-8.71
-9.16
-9.04
-8.53
-8
-7.64
-7.37
-6.96
-6.13
-4.84
-3.28
-1.83
-0.79
-0.27
-0.14
-0.05
0.46
1.85
4.32
7.86
12.21
16.98
21.68
25.94
29.44
32.1
34
35.38
36.5
37.52
38.46
39.22
39.72
40.16
41.07
43.18
47.12
53.12
60.87
69.64
78.52
86.71
93.64
98.99
102.68
104.73
105.29
104.48
102.27
98.29
91.75
81.63
67.08
47.85
24.66
-0.74
-25.82
-47.8
-64.31
-73.96
-76.62
-73.29
-65.66
-55.51
-44.2
-32.68
-21.58
-11.61
-3.67
1.34
2.88
1.18
-2.67
-7.03
-10.33
-11.53
-10.39
-7.34
-3.12
1.54
6.17
10.57
14.64
18.21
20.85
21.93
20.87
17.42
11.79
4.74
-2.68
-9.56
-15.35
-19.95
-23.7
-27.04
-30.2
-33.19
-35.82
-38
-39.88
-41.88
-44.61
-48.53
-53.84
-60.38
-67.76
-75.48
-83.06
-90.09
-96.23
-101.25
-105
-107.37
-108.28
-107.64
-105.34
-101.36
-95.89
-89.35
-82.27
-74.99
-67.53
-59.57
-50.75
-40.94
-30.55
-20.48
-11.79
-5.34
-1.42
0.29
0.55
0.25
0.17
0.76
2.2
4.46
7.35
10.58
13.84
16.78
19.12
20.72
21.52
21.62
21.12
20.2
19.03
17.88
17.16
17.26
18.42
20.63
23.51
26.54
29.18
31.06
32.1
32.39
32.13
31.51
30.68
29.74
28.85
28.18
27.89
27.92
28.04
27.9
27.19
25.91
24.38
23.13
22.69
23.33
24.89
26.85
28.5
29.26
28.78
27.03
24.22
20.64
16.62
12.47
8.5
4.87
1.71
-1
-3.41
-5.62
-7.65
-9.42
-10.8
-11.66
-11.97
-11.78
-11.25
-10.62
-10.1
-9.78
-9.64
-9.56
-9.4
-9.08
-8.62
-8.22
-8.34
-9.38
-11.52
-14.53
-17.88
-20.87
-22.81
-23.27
-22.16
-20.11
-17.87
-15.91
-14.41
-13.42
-12.87
-12.72
-12.87
-13.14
-13.85
-14.97
-16.06
-16.58
-16.36
-15.58
-14.54
-13.33
-11.88
-11.02
-11.08
-11.64
-11.81
-11.05
-9.41
-7.56
-6.27
-6.01
-8.12
-12.31
-16.75
-19.31
-19.24
-17.74
-17.4
-20.7
-21.81
-18.29
-11.02
-2.5
5.8
12.9
17.23
16.45
8.67
-7.65
-34.04
-70.26
-113.7
-160.07
-204.66
-243.39
-274.4
-299.36
-314.92
-325.39
-336.81
-353.16
-373.77
-393.43
-404.36
-399.58
-375.57
-332.95
-276.51
-210.37
-136.4
-55.34
30.62
116.12
193.53
256.37
302.69
334.93
359.25
381.3
402.8
421.38
433.38
436.92
432.95
423.34
407.45
382.16
344.17
293.41
235.27
179.15
134.13
104.46
88.05
78.22
68.41
55.69
41.41
29.15
21.96
20.72
24.28
30.64
37.9
44.65
49.89
52.95
53.67
52.59
50.81
49.57
49.63
51.02
53.35
56.27
59.41
61.7
60.71
52.74
34.57
5.7
-30.03
-65.05
-90.77
-101.15
-95.08
-76.33
-51.25
-25.84
-3.81
13.67
26.94
36.63
43.02
46.29
46.82
45.35
42.73
39.69
36.78
34.46
32.79
31.14
28.1
21.71
10.51
-5.64
-25.13
-45.17
-62.86
-76.3
-85.09
-89.84
-91.37
-89.99
-85.41
-77.28
-65.79
-52.08
-38.06
-25.76
-16.6
-11.08
-8.77
-8.8
-10.37
-12.9
-16.02
-19.39
-22.49
-24.79
-25.9
-25.78
-24.71
-23.14
-21.4
-19.58
-17.46
-14.7
-11.04
-6.43
-1.13
4.5
10.05
15.2
19.69
23.33
25.93
27.35
27.56
26.7
25.06
23.01
20.88
18.79
16.69
14.36
11.61
8.41
4.96
1.64
-1.15
-3.09
-4.1
-4.25
-3.77
-2.85
-1.64
-0.16
1.66
3.82
6.18
8.51
10.45
11.72
12.29
12.38
12.41
12.83
13.95
15.78
18.04
20.33
22.24
23.6
24.45
25.03
25.63
26.45
27.45
28.38
28.75
27.92
25.29
20.32
12.86
3.19
-7.96
-19.52
-30.37
-39.71
-47.2
-52.91
-57.21
-60.42
-62.71
-64.02
-64.16
-62.99
-60.47
-56.7
-51.88
-46.31
-40.32
-34.22
-28.25
-22.54
-17.19
-12.26
-7.91
-4.23
-1.25
1.26
3.7
6.47
9.74
13.38
17.03
20.32
23.14
25.6
27.95
30.22
32.11
33.05
32.5
30.28
26.69
22.4
18.16
14.44
11.29
8.44
5.52
2.25
-1.38
-5.17
-8.87
-12.26
-15.25
-17.82
-19.86
-21.25
-21.83
-21.48
-20.24
-18.33
-16.01
-13.53
-11
-8.39
-5.58
-2.43
1.14
5.18
9.64
14.37
19.03
23.21
26.53
28.71
29.8
30.13
30.33
31.03
32.77
35.66
39.51
43.84
48.15
52.09
55.43
57.94
59.26
58.78
55.87
50.1
41.47
30.36
17.43
3.24
-11.81
-27.48
-43.44
-59.08
-73.58
-86.03
-95.8
-102.47
-105.93
-106.11
-102.95
-96.59
-87.47
-76.63
-65.45
-55.41
-47.54
-42.12
-38.57
-35.71
-32.33
-27.74
-22.22
-16.9
-13.45
-13.38
-17.45
-25.42
-36.26
-48.62
-61.4
-74.13
-86.94
-100.33
-114.75
-130.3
-146.51
-162.33
-176.28
-186.71
-192.27
-192.16
-186.42
-175.74
-161.13
-143.41
-122.8
-99
-71.49
-40.17
-5.81
29.72
63.77
93.6
117.14
133.53
143.19
147.39
147.54
144.77
139.7
132.72
124.38
115.57
107.4
100.71
95.7
91.79
88.03
83.57
78.11
72.02
66.05
60.93
57.17
54.89
53.96
54.19
55.55
58.2
62.48
68.86
77.67
89.08
103.05
119.47
138.47
160.48
186.1
215.56
248.35
283
317.47
349.65
377.66
399.73
413.56
416.08
403.59
372.74
321.74
251.36
165.22
69.37
-28.81
-121.85
-203.29
-268.52
-315.17
-343.2
-354.41
-351.73
-338.32
-316.75
-288.88
-256
-219.26
-180.09
-140.29
-101.82
-66.42
-35.3
-9.04
12.3
29.02
41.49
50.15
55.51
58.27
59.26
59.28
58.85
57.98
56.29
53.19
48.17
40.92
31.47
19.95
6.59
-8.49
-25.29
-43.76
-63.77
-84.86
-106.22
-126.75
-145.27
-160.71
-172.2
-179.19
-181.31
-178.48
-170.96
-159.35
-144.66
-128.11
-111
-94.48
-79.5
-66.73
-56.66
-49.55
-45.24
-43.22
-42.66
-42.71
-42.73
-42.49
-42.13
-41.96
-42.14
-42.55
-42.69
-41.87
-39.49
-35.3
-29.47
-22.73
-16.01
-10.29
-6.25
-4.16
-3.77
-4.43
-5.33
-5.63
-4.82
-2.76
0.23
3.58
6.64
9
10.56
11.46
11.88
11.82
11.09
9.48
6.96
3.89
0.89
-1.33
-2.29
-1.91
-0.46
1.59
3.86
6.18
8.58
11.09
13.62
15.84
17.27
17.41
16.03
13.23
9.5
5.69
2.69
1.31
1.99
4.74
9.13
14.52
20.3
26.06
31.59
36.74
41.29
44.88
47.09
47.65
46.59
44.3
41.33
38.18
35.14
32.21
29.28
26.19
22.92
19.56
16.31
13.41
11.09
9.44
8.48
8.02
7.71
7.06
5.62
3.18
0.03
-3.09
-5.19
-5.39
-3.34
0.64
5.72
10.93
15.54
19.29
22.24
24.51
26.08
26.73
26.25
24.62
22.17
19.41
16.9
14.88
13.25
11.68
9.71
7.1
3.82
0.07
-3.91
-7.89
-11.79
-15.64
-19.41
-23.1
-26.62
-29.83
-32.57
-34.6
-35.62
-35.29
-33.34
-29.67
-24.49
-18.34
-11.93
-5.91
-0.69
3.65
7.3
10.44
13.14
15.22
16.36
16.25
14.72
11.9
8.14
3.97
-0.01
-3.34
-5.77
-7.36
-8.52
-9.8
-11.69
-14.39
-17.63
-20.91
-23.69
-25.75
-27.25
-28.56
-29.87
-30.88
-30.64
-27.71
-20.65
-8.5
8.75
30.06
53.54
76.84
97.67
114.23
125.45
130.97
130.92
125.82
116.36
103.49
88.43
72.59
57.3
43.48
31.46
20.99
11.52
2.53
-6.19
-14.48
-21.99
-28.36
-33.38
-37.07
-39.62
-41.43
-43.05
-45.05
-47.83
-51.39
-55.18
-58.24
-59.51
-58.23
-54.25
-48.08
-40.71
-33.27
-26.65
-21.28
-17.18
-14.08
-11.71
-9.94
-8.84
-8.5
-8.89
-9.75
-10.64
-11.15
-11.03
-10.4
-9.52
-8.75
-8.23
-7.95
-7.59
-6.88
-5.68
-4.1
-2.56
-1.62
-1.82
-3.44
-6.49
-10.53
-14.85
-18.62
-21.02
-21.5
-19.86
-16.44
-11.97
-7.38
-3.46
-0.54
1.53
3.21
4.88
6.59
7.97
8.56
8.05
6.58
4.6
2.67
1.13
0.06
-0.67
-1.24
-1.71
-2.14
-2.64
-3.4
-4.7
-6.76
-9.7
-13.45
-17.81
-22.48
-27.22
-31.83
-36.17
-40.14
-43.57
-46.09
-47.25
-46.58
-43.86
-39.25
-33.31
-26.76
-20.19
-13.83
-7.67
-1.65
4.03
8.9
12.41
14.22
14.44
13.55
12.28
11.23
10.67
10.46
10.18
9.42
8.01
6.14
4.32
3.07
2.66
2.82
2.88
2.08
-0.01
-3.15
-6.7
-9.97
-12.74
-15.35
-18.4
-22.1
-25.93
-28.74
-29.48
-27.77
-24.05
-19.06
-13.02
-5.36
4.72
17.22
30.64
42.34
49.86
52.44
51.54
50.03
50.44
53.48
57.85
61.4
62.66
61.98
61.09
61.97
65.52
71.01
76.54
80.01
79.85
75.39
66.77
54.8
40.82
26.52
13.63
3.44
-3.4
-6.97
-7.73
-6.15
-2.54
2.71
8.81
14.47
18.13
18.57
15.56
9.86
2.93
-3.81
-9.65
-14.68
-19.54
-24.82
-30.74
-36.96
-42.83
-47.73
-51.33
-53.75
-55.42
-56.79
-58.19
-59.61
-60.8
-61.26
-60.42
-57.72
-52.75
-45.27
-35.36
-23.46
-10.31
3.17
16.09
27.7
37.5
45.15
50.49
53.48
54.31
53.43
51.52
49.37
47.64
46.7
46.59
47.13
48.1
49.25
50.37
51.15
51.1
49.71
46.58
41.64
35.23
28
20.67
13.83
7.74
2.32
-2.7
-7.56
-12.35
-16.93
-20.93
-23.98
-25.79
-26.29
-25.67
-24.17
-22.03
-19.42
-16.48
-13.39
-10.46
-8.08
-6.63
-6.28
-6.86
-7.92
-8.89
-9.23
-8.69
-7.47
-6.11
-5.35
-5.86
-7.89
-11.25
-15.43
-19.79
-23.79
-27.16
-29.76
-31.56
-32.64
-33.45
-34.87
-37.88
-42.82
-48.68
-53.07
-53.12
-47.04
-35.22
-20.28
-5.92
4.8
10.87
13.41
14.73
16.91
20.72
25.55
30.14
33.39
34.88
34.72
33.21
30.48
26.55
21.45
15.38
8.85
2.56
-2.76
-6.6
-8.92
-10.09
-10.76
-11.6
-13.05
-15.11
-17.36
-19.05
-19.31
-17.47
-13.34
-7.28
-0.14
7.05
13.43
18.54
22.34
25.13
27.27
28.99
30.29
30.99
30.78
29.39
26.76
23.08
18.8
14.46
10.42
6.82
3.44
-0.02
-3.66
-7.31
-10.46
-12.69
-13.95
-14.64
-15.47
-17.07
-19.71
-23.14
-26.65
-29.41
-30.75
-30.35
-28.26
-24.89
-20.84
-16.84
-13.43
-10.95
-9.38
-8.42
-7.61
-6.47
-4.71
-2.31
0.51
3.38
5.92
7.88
9.2
9.97
10.37
10.45
10.08
9.07
7.25
4.62
1.37
-2.24
-6.04
-10.11
-14.76
-20.36
-27.05
-34.49
-41.85
-48
-51.96
-53.26
-52.26
-49.89
-47.31
-45.33
-43.99
-42.48
-39.34
-33.06
-22.58
-7.75
10.65
31.01
51.34
69.7
84.49
94.86
100.6
102.16
100.27
95.68
88.97
80.53
70.74
59.98
48.84
37.82
27.29
17.28
7.64
-1.87
-11.26
-20.25
-28.38
-35.16
-40.28
-43.66
-45.36
-45.49
-44.17
-41.59
-38.04
-33.96
-29.77
-25.83
-22.27
-19.08
-16.21
-13.64
-11.46
-9.78
-8.65
-7.94
-7.32
-6.33
-4.54
-1.78
1.72
5.42
8.67
10.96
12.17
12.52
12.4
12.08
11.48
10.25
7.95
4.38
-0.36
-5.87
-11.58
-16.86
-21.05
-23.45
-23.44
-20.71
-15.38
-8.18
-0.18
7.46
13.94
18.93
22.5
25
26.72
27.87
28.48
28.58
28.26
27.66
26.87
25.91
24.66
22.97
20.73
17.95
14.77
11.31
7.62
3.66
-0.68
-5.39
-10.28
-15
-19.2
-22.67
-25.39
-27.63
-29.74
-32.05
-34.72
-37.68
-40.57
-42.76
-43.58
-42.45
-39.13
-33.88
-27.4
-20.64
-14.45
-9.36
-5.41
-2.29
0.36
2.77
4.81
6.11
6.28
5.25
3.33
1.15
-0.66
-1.76
-2.24
-2.45
-2.8
-3.41
-4.15
-4.72
-4.94
-4.84
-4.75
-5.02
-5.96
-7.63
-9.88
-12.41
-14.93
-17.16
-18.83
-19.63
-19.15
-16.94
-12.59
-5.84
3.27
14.32
26.56
39.06
50.92
61.43
70.07
76.45
80.25
81.22
79.25
74.51
67.44
58.75
49.31
39.95
31.36
24.01
18.08
13.47
9.89
6.91
4.12
1.26
-1.75
-4.88
-8.07
-11.26
-14.53
-17.85
-21.17
-24.4
-27.41
-30.24
-32.99
-35.73
-38.34
-40.35
-40.99
-39.47
-35.32
-28.58
-19.91
-10.32
-0.86
7.75
15.24
21.66
27.18
31.85
35.59
38.32
40.07
41.08
41.75
42.46
43.47
44.87
46.56
48.35
49.99
51.22
51.83
51.66
50.64
48.76
46.1
42.68
38.52
33.63
28.05
21.92
15.4
8.49
0.95
-7.62
-17.45
-28.45
-39.93
-50.79
-59.96
-66.91
-71.93
-76.15
-81.13
-88.33
-98.68
-112.39
-129.09
-148.04
-168.22
-188.48
-207.66
-224.81
-239.44
-251.82
-262.85
-273.48
-283.66
-291.5
-293.37
-284.97
-263.21
-227.77
-181.52
-129.45
-76.72
-26.88
18.67
59.97
97.1
129.27
154.78
171.97
180.3
180.81
175.79
167.79
158.76
149.69
140.93
132.53
124.8
118.41
114.1
112.31
112.85
114.8
116.9
117.96
117.47
115.71
113.65
112.33
112.37
113.63
115.43
116.93
117.56
117.1
115.52
112.7
108.18
101.32
91.6
79.01
64.24
48.5
33.04
18.7
5.72
-6.16
-17.24
-27.45
-36.27
-42.9
-46.73
-47.75
-46.63
-44.51
-42.54
-41.47
-41.47
-42.2
-43.02
-43.21
-42.09
-39.15
-34.18
-27.36
-19.25
-10.76
-2.83
3.72
8.45
11.34
12.74
13.22
13.34
13.58
14.15
15.08
16.22
17.42
18.6
19.77
20.95
22.09
23.01
23.42
23.04
21.71
19.51
16.69
13.59
10.54
7.75
5.29
3.15
1.23
-0.55
-2.23
-3.84
-5.32
-6.59
-7.51
-7.87
-7.41
-5.88
-3.12
0.82
5.61
10.69
15.36
18.99
21.07
21.41
20.11
17.6
14.49
11.45
9.05
7.55
6.87
6.61
6.27
5.43
3.94
1.93
-0.37
-2.68
-4.94
-7.16
-9.41
-11.7
-13.87
-15.64
-16.78
-17.25
-17.28
-17.38
-18.03
-19.45
-21.5
-23.65
-25.09
-25.03
-22.85
-18.33
-11.69
-3.61
4.89
12.57
18.29
21.35
21.73
20.12
17.63
15.32
13.8
13.07
12.67
12.06
10.89
9.19
7.19
5.14
3.09
0.98
-1.23
-3.39
-5.17
-6.12
-5.94
-4.61
-2.55
-0.43
1
1.18
-0.11
-2.7
-6.19
-10.1
-14
-17.5
-20.21
-21.7
-21.64
-19.93
-16.91
-13.27
-9.84
-7.3
-5.83
-5.17
-4.75
-4.1
-3.02
-1.64
-0.33
0.52
0.68
0.28
-0.41
-0.99
-1.17
-0.83
-0.1
0.74
1.39
1.64
1.47
1.05
0.68
0.65
1.21
2.38
4.04
5.91
7.66
8.92
9.42
9.09
8.13
7.1
6.74
7.68
10.15
13.75
17.52
20.29
21.14
19.7
16.24
11.49
6.29
1.33
-2.9
-6.12
-8.2
-9.09
-8.94
-8.11
-7.15
-6.7
-7.24
-8.95
-11.58
-14.48
-16.85
-18.02
-17.66
-15.96
-13.56
-11.27
-9.86
-9.71
-10.84
-12.9
-15.42
-18
-20.38
-22.46
-24.18
-25.36
-25.6
-24.22
-20.43
-13.69
-3.98
7.87
20.3
31.32
39.14
42.71
42.01
37.98
31.98
25.34
18.95
13.2
8.22
4.06
0.91
-0.99
-1.5
-0.77
0.76
2.4
3.46
3.46
2.23
-0.07
-3.03
-6.23
-9.3
-12.07
-14.56
-16.84
-19.03
-21.19
-23.34
-25.52
-27.72
-29.82
-31.51
-32.33
-31.67
-29.05
-24.32
-17.79
-10.19
-2.47
4.57
10.46
15.1
18.73
21.59
23.82
25.42
26.37
26.75
26.84
26.95
27.33
27.92
28.44
28.55
28.06
27.08
25.95
25.07
24.62
24.58
24.68
24.64
24.29
23.58
22.57
21.25
19.47
16.94
13.38
8.61
2.75
-3.87
-10.67
-16.88
-21.72
-24.49
-24.81
-22.64
-18.44
-13.05
-7.54
-2.95
0.01
1.09
0.57
-0.93
-2.56
-3.6
-3.57
-2.32
-0.06
2.72
5.43
7.52
8.56
8.33
6.8
4.05
0.28
-4.2
-9.02
-13.74
-17.98
-21.59
-24.7
-27.68
-30.95
-34.77
-39.02
-43.25
-46.75
-48.91
-49.42
-48.35
-46.14
-43.42
-40.71
-38.24
-35.86
-33.1
-29.4
-24.38
-18.11
-11.1
-4.2
1.77
6.27
9.22
10.89
11.71
11.95
11.63
10.6
8.68
5.89
2.56
-0.8
-3.62
-5.43
-6.13
-5.9
-5.18
-4.48
-4.17
-4.38
-5.03
-5.9
-6.77
-7.54
-8.23
-8.87
-9.41
-9.73
-9.73
-9.49
-9.3
-9.61
-10.87
-13.25
-16.5
-19.94
-22.65
-23.72
-22.62
-19.34
-14.47
-8.92
-3.64
0.75
4.07
6.57
8.69
10.78
12.95
15.1
17.11
18.98
20.85
22.84
24.9
26.73
27.98
28.41
28.08
27.27
26.35
25.56
24.87
24.09
22.99
21.46
19.5
17.27
14.88
12.43
10.03
7.72
5.55
3.53
1.6
-0.37
-2.5
-4.8
-7.18
-9.47
-11.4
-12.61
-12.73
-11.35
-8.29
-3.74
1.72
7.2
11.83
15.05
16.82
17.46
17.46
17.16
16.55
15.33
13.2
9.99
5.86
1.12
-3.96
-9.38
-15.39
-22.28
-30.17
-38.63
-46.72
-53.14
-56.72
-56.95
-54.35
-50.55
-47.68
-47.7
-51.65
-59.29
-69.37
-80.04
-89.41
-95.94
-98.42
-96.02
-88.39
-75.96
-60.14
-43.16
-27.48
-14.97
-6.25
-0.59
3.72
8.5
15.14
24.23
35.68
48.97
63.41
78.27
92.76
106.15
117.71
126.89
133.31
136.86
137.66
135.97
132.15
126.47
119.14
110.18
99.53
87.12
73.03
57.61
41.52
25.68
10.97
-1.96
-12.75
-21.5
-28.51
-34.2
-38.96
-43.11
-46.79
-49.96
-52.37
-53.62
-53.29
-51.12
-47.21
-42.02
-36.26
-30.62
-25.64
-21.57
-18.44
-16.2
-14.84
-14.41
-14.94
-16.34
-18.32
-20.43
-22.13
-22.98
-22.85
-21.89
-20.61
-19.61
-19.36
-20.05
-21.48
-23.17
-24.47
-24.8
-23.84
-21.61
-18.56
-15.41
-12.99
-11.88
-12.28
-13.85
-15.92
-17.6
-18.08
-16.71
-13.12
-7.3
0.36
9.07
17.73
25.16
30.44
33.13
33.33
31.57
28.55
24.92
21.15
17.55
14.26
11.28
8.55
5.85
3.09
0.32
-2.29
-4.47
-6.1
-7.3
-8.42
-9.86
-11.85
-14.3
-16.8
-18.9
-20.3
-21.05
-21.46
-21.98
-23.03
-24.88
-27.56
-30.91
-34.5
-37.51
-38.87
-37.5
-32.8
-25.05
-15.6
-6.47
0.32
3.54
3.29
0.78
-2.17
-4.01
-4.02
-2.36
0.23
2.99
5.61
8.21
11.13
14.6
18.44
22.25
25.54
27.97
29.5
30.29
30.52
30.32
29.7
28.65
27.19
25.37
23.23
20.82
18.2
15.48
12.85
10.54
8.65
7.16
5.93
4.87
4.1
3.93
4.67
6.47
9.06
11.8
13.88
14.58
13.53
10.9
7.29
3.52
0.32
-1.9
-3.13
-3.67
-3.89
-4.05
-4.15
-4.08
-3.77
-3.31
-2.91
-2.8
-2.96
-3.22
-3.3
-3.12
-2.81
-2.73
-3.21
-4.49
-6.53
-9.18
-12.12
-15.02
-17.46
-19.01
-19.24
-17.92
-15.1
-11.19
-6.81
-2.57
1.14
4.27
7.02
9.69
12.42
15.18
17.74
19.84
21.33
22.29
22.91
23.42
23.93
24.38
24.66
24.65
24.35
23.83
23.19
22.5
21.75
20.89
19.81
18.42
16.56
14.12
11.02
7.15
2.52
-2.82
-8.73
-14.9
-20.82
-25.85
-29.31
-30.75
-30.12
-27.82
-24.52
-20.95
-17.7
-15.09
-13.28
-12.31
-12.19
-12.82
-13.96
-15.16
-15.93
-15.88
-14.87
-13.1
-10.95
-8.8
-6.93
-5.4
-4.13
-3
-1.94
-0.95
-0.18
0.27
0.36
0.12
-0.3
-0.74
-1.08
-1.31
-1.47
-1.73
-2.22
-3.09
-4.44
-6.4
-8.95
-11.94
-14.88
-17.05
-17.67
-16.26
-12.82
-7.92
-2.45
2.7
6.94
10.14
12.51
14.34
15.8
16.95
17.68
18.04
18.2
18.47
19.16
20.46
22.29
24.38
26.33
27.75
28.49
28.64
28.52
28.53
29.01
30.03
31.37
32.62
33.36
33.31
32.41
30.84
28.89
26.91
25.23
24.25
24.41
26
29
32.89
36.67
39.3
40.13
39.32
37.72
36.56
36.79
38.6
41.35
43.74
44.33
41.94
35.94
26.28
13.47
-1.58
-17.7
-33.71
-48.62
-61.92
-73.54
-83.79
-93.05
-101.45
-108.69
-113.91
-115.87
-113.38
-105.72
-93.14
-76.89
-58.98
-41.56
-26.35
-14.33
-5.76
-0.57
1.46
0.62
-2.62
-7.39
-12.58
-17.11
-20.38
-22.45
-24.02
-25.9
-28.67
-32.3
-36.28
-39.81
-42.14
-42.83
-41.84
-39.59
-36.75
-34.07
-32.08
-30.95
-30.45
-30.19
-29.97
-29.92
-30.51
-32.21
-35.1
-38.64
-41.86
-43.64
-43.37
-41.11
-37.58
-33.81
-30.57
-28.12
-25.98
-23.17
-18.49
-11.01
-0.4
12.75
27.09
40.73
51.85
59.21
62.47
62.27
59.74
56.1
52.26
48.8
46.16
44.9
45.82
49.73
56.99
67.19
79.18
91.4
102.39
111.22
117.61
121.71
123.78
123.95
122.26
118.95
114.6
110.07
106.18
103.28
101.06
98.72
95.42
90.75
84.93
78.53
72.05
65.63
58.91
51.39
42.78
33.31
23.61
14.48
6.46
-0.33
-6.17
-11.54
-16.84
-22.33
-28.04
-33.84
-39.52
-44.86
-49.58
-53.34
-55.77
-56.5
-55.3
-52.1
-47.03
-40.36
-32.42
-23.57
-14.19
-4.71
4.38
12.57
19.46
24.83
28.66
31.1
32.27
32.11
30.31
26.47
20.29
12
2.48
-6.77
-14.1
-18.42
-19.68
-19
-18.21
-19.19
-23.1
-30.07
-39.2
-49.04
-58.03
-64.95
-69.09
-70.37
-69.37
-67.3
-65.8
-66.51
-70.57
-78.12
-88.15
-98.84
-108.05
-113.98
-115.53
-112.34
-104.64
-93.15
-79.09
-64.24
-50.9
-41.25
-36.57
-36.51
-39.07
-41.38
-41.01
-37.1
-30.59
-23.58
-17.99
-14.59
-12.62
-10.51
-6.81
-1.09
5.99
13.11
19.07
23.37
26.16
28.02
29.43
30.41
30.55
29.27
26.28
21.85
16.91
12.69
10.15
9.57
10.28
10.97
10.19
6.86
0.71
-7.79
-17.57
-27.33
-35.8
-41.96
-45.29
-45.83
-44.22
-41.49
-38.75
-36.96
-36.7
-38.29
-41.76
-46.96
-53.44
-60.4
-66.66
-70.82
-71.55
-68.04
-60.22
-48.76
-34.82
-19.72
-4.62
9.69
22.86
34.9
45.98
56.11
65.04
72.14
76.71
78.26
76.9
73.38
68.88
64.46
60.62
57.19
53.61
49.45
44.85
40.45
37.03
34.9
33.76
32.81
31.4
29.4
27.44
26.54
27.61
30.93
35.97
41.67
46.78
50.25
51.5
50.43
47.31
42.54
36.59
29.85
22.67
15.39
8.4
2.05
-3.3
-7.48
-10.39
-12.07
-12.66
-12.39
-11.7
-11.16
-11.34
-12.6
-14.93
-17.86
-20.71
-22.93
-24.34
-25.18
-25.99
-27.27
-29.29
-32.06
-35.34
-38.76
-41.99
-44.6
-46.13
-46.15
-44.44
-41.11
-36.6
-31.52
-26.38
-21.31
-16.11
-10.39
-3.89
3.33
10.85
18.03
24.26
29.16
32.61
34.66
35.37
34.79
33
30.16
26.53
22.39
18.08
13.8
9.63
5.62
1.7
-2.08
-5.57
-8.48
-10.44
-11.15
-10.65
-9.38
-8.13
-7.83
-9.08
-11.87
-15.49
-18.76
-20.54
-20.19
-17.78
-13.99
-9.76
-5.91
-2.88
-0.74
0.65
1.43
1.66
1.32
0.59
-0.21
-0.6
-0.17
1.22
3.4
5.91
8.32
10.32
11.85
12.96
13.71
14.08
13.93
13.11
11.54
9.2
6.26
2.88
-0.67
-4.18
-7.49
-10.61
-13.73
-17.07
-20.68
-24.24
-27
-28
-26.56
-22.56
-16.64
-9.88
-3.48
1.8
5.75
8.63
10.89
12.91
14.83
16.57
17.96
18.87
19.28
19.27
18.97
18.55
18.19
18.02
18.07
18.23
18.23
17.71
16.4
14.19
11.19
7.68
3.97
0.31
-3.14
-6.3
-9.18
-11.82
-14.37
-16.95
-19.6
-22.17
-24.27
-25.35
-24.85
-22.46
-18.17
-12.43
-5.87
0.82
7.1
12.58
17
20.27
22.31
23.18
23.04
22.22
21.09
19.97
18.98
18.02
16.93
15.57
14.03
12.59
11.57
11.16
11.19
11.29
10.99
10.03
8.4
6.35
4.24
2.28
0.49
-1.24
-3.12
-5.32
-7.91
-10.93
-14.36
-18.11
-22.01
-25.58
-28.12
-28.75
-26.77
-21.94
-14.68
-6
2.85
10.79
17.32
22.51
26.79
30.56
33.87
36.43
37.78
37.66
36.17
33.83
31.39
29.46
28.44
28.31
28.78
29.43
29.84
29.77
29.2
28.27
27.19
26.1
24.93
23.44
21.19
17.77
12.94
6.77
-0.37
-7.82
-14.83
-20.71
-25.05
-27.8
-29.37
-30.39
-31.43
-32.59
-33.42
-33.07
-30.62
-25.62
-18.26
-9.5
-0.62
7
12.33
14.8
14.39
11.59
7.33
2.8
-0.83
-2.69
-2.6
-1.01
1.14
2.91
3.82
4.04
4.29
5.42
7.98
11.88
16.46
20.85
24.38
26.84
28.41
29.42
29.99
29.93
28.86
26.61
23.4
19.84
16.67
14.34
12.79
11.52
9.81
7.07
3.11
-1.98
-7.85
-14.09
-20.34
-26.16
-31.04
-34.38
-35.56
-34.24
-30.46
-24.72
-17.88
-10.95
-4.84
-0.1
3.12
5.04
6.1
6.61
6.77
6.55
5.9
4.89
3.83
3.12
3.05
3.67
4.65
5.55
5.98
5.82
5.19
4.31
3.3
2.19
0.84
-0.9
-3.15
-5.89
-8.97
-12.09
-14.9
-17.06
-18.37
-18.88
-18.88
-18.76
-18.94
-19.63
-20.76
-22.02
-22.86
-22.76
-21.27
-18.23
-13.82
-8.5
-2.96
2.19
6.48
9.71
11.88
13.17
13.7
13.65
13.13
12.27
11.19
10
8.73
7.49
6.39
5.58
5.21
5.33
5.86
6.58
7.16
7.32
6.8
5.58
3.75
1.55
-0.74
-2.9
-4.78
-6.33
-7.6
-8.76
-9.96
-11.47
-13.45
-15.91
-18.64
-21.12
-22.64
-22.53
-20.36
-16.14
-10.36
-3.88
2.33
7.42
10.9
12.76
13.35
13.24
12.99
12.94
13.15
13.48
13.68
13.57
13.09
12.3
11.31
10.23
9.11
7.99
6.9
5.8
4.63
3.3
1.69
-0.2
-2.26
-4.31
-6.17
-7.79
-9.28
-10.8
-12.56
-14.57
-16.73
-18.76
-20.31
-20.99
-20.47
-18.44
-14.8
-9.75
-3.84
2.09
7.13
10.57
12.21
12.25
11.2
9.61
7.83
6.04
4.31
2.74
1.5
0.77
0.58
0.85
1.32
1.68
1.63
0.97
-0.44
-2.63
-5.48
-8.68
-11.75
-14.18
-15.62
-15.94
-15.29
-14.02
-12.5
-11.11
-10.17
-10
-10.75
-12.31
-14.15
-15.39
-15.05
-12.42
-7.43
-0.7
6.62
13.33
18.54
21.97
23.83
24.6
24.71
24.4
23.72
22.64
21.19
19.48
17.62
15.68
13.68
11.65
9.68
8
6.83
6.28
6.18
6.07
5.42
3.79
1.13
-2.25
-5.81
-8.98
-11.5
-13.41
-15.01
-16.68
-18.69
-21.18
-24.01
-26.7
-28.48
-28.43
-25.85
-20.59
-13.26
-5.12
2.35
8.03
11.45
12.88
12.92
12.14
10.85
9.12
6.98
4.59
2.3
0.45
-0.66
-0.98
-0.65
0.09
0.95
1.71
2.18
2.22
1.72
0.63
-1.15
-3.65
-6.91
-10.82
-15.12
-19.37
-23.09
-25.9
-27.65
-28.55
-29.01
-29.54
-30.46
-31.85
-33.41
-34.58
-34.57
-32.69
-28.55
-22.17
-14.16
-5.5
2.78
9.94
15.75
20.4
24.27
27.57
30.18
31.73
31.97
31
29.3
27.56
26.37
25.96
26.11
26.35
26.15
25.22
23.52
21.24
18.68
16.15
13.8
11.61
9.48
7.17
4.54
1.59
-1.57
-4.75
-7.81
-10.64
-13.27
-15.69
-17.94
-20.07
-22.24
-24.69
-27.61
-30.98
-34.34
-36.91
-37.77
-36.24
-32.14
-25.85
-18.14
-9.94
-2.06
4.92
10.63
14.83
17.43
18.44
18.08
16.78
15.08
13.45
12.2
11.37
10.88
10.64
10.57
10.71
11.05
11.45
11.63
11.29
10.27
8.65
6.74
4.9
3.34
2
0.66
-0.92
-2.86
-5.08
-7.44
-9.8
-12.07
-14.22
-16.19
-17.9
-19.28
-20.43
-21.59
-23.04
-24.81
-26.54
-27.47
-26.68
-23.52
-18
-10.8
-3.09
3.94
9.46
13.25
15.59
17.02
18.04
18.84
19.35
19.34
18.66
17.36
15.79
14.46
13.87
14.34
15.82
18.03
20.43
22.49
23.8
24.2
23.73
22.56
20.9
18.88
16.58
14
11.14
8.07
4.91
1.88
-0.83
-3.03
-4.73
-6.06
-7.31
-8.76
-10.61
-12.88
-15.39
-17.93
-20.28
-22.29
-23.78
-24.57
-24.49
-23.48
-21.69
-19.54
-17.62
-16.49
-16.4
-17.23
-18.49
-19.65
-20.37
-20.64
-20.72
-20.95
-21.58
-22.52
-23.48
-24.02
-23.82
-22.7
-20.73
-18.07
-14.9
-11.31
-7.35
-3.07
1.44
6.03
10.49
14.61
18.23
21.34
24.08
26.7
29.46
32.5
35.62
38.39
40.1
40.1
38.04
34.08
28.83
23.07
17.5
12.44
7.8
3.36
-0.95
-4.78
-7.3
-7.5
-4.68
1.17
9.2
18.03
26.15
32.41
36.33
37.97
37.69
35.88
32.71
28.26
22.71
16.5
10.33
4.86
0.47
-2.95
-5.8
-8.55
-11.45
-14.39
-17.11
-19.33
-21
-22.16
-22.88
-23.17
-23.01
-22.46
-21.78
-21.3
-21.31
-21.76
-22.3
-22.41
-21.71
-20.12
-17.94
-15.59
-13.34
-11.21
-9.03
-6.6
-3.99
-1.54
0.27
0.95
0.21
-1.93
-5.25
-9.36
-13.65
-17.42
-19.92
-20.43
-18.56
-14.27
-8
-0.45
7.61
15.46
22.55
28.44
32.77
35.34
36.22
35.88
35.04
34.44
34.55
35.38
36.58
37.66
38.31
38.53
38.47
38.23
37.68
36.53
34.47
31.39
27.47
23.07
18.58
14.22
9.97
5.64
1.04
-3.84
-8.84
-13.61
-17.76
-21.02
-23.4
-25.12
-26.43
-27.46
-28.02
-27.79
-26.58
-24.47
-21.68
-18.25
-13.76
-7.27
2.11
14.67
29.58
44.98
58.58
68.32
73.02
72.38
66.84
57.31
44.98
31.4
18.3
7.36
-0.2
-3.97
-4.49
-3
-1.04
-0.06
-1
-4.24
-9.53
-16.18
-23.3
-30.06
-35.95
-40.76
-44.55
-47.51
-49.97
-52.41
-55.4
-59.46
-64.88
-71.49
-78.76
-86.16
-93.37
-100.36
-107.14
-113.37
-118.21
-120.51
-119.5
-115.24
-108.76
-101.57
-94.86
-88.96
-83.22
-76.46
-67.65
-56.48
-43.44
-29.53
-15.77
-2.85
9.01
19.89
29.95
39.15
47.25
53.86
58.63
61.38
62.24
61.51
59.64
57.06
54.09
50.83
47.26
43.18
38.39
32.72
26.12
18.75
10.9
2.97
-4.66
-11.63
-17.64
-22.41
-25.64
-27.03
-26.24
-22.96
-16.97
-8.26
2.85
15.67
29.13
41.9
52.67
60.41
64.55
65.08
62.42
57.34
50.68
43.18
35.3
27.17
18.72
10.06
1.74
-5.33
-10.18
-12.39
-12.42
-11.6
-11.53
-13.28
-16.88
-21.25
-24.82
-26.32
-25.33
-22.22
-17.79
-12.71
-7.22
-1.25
5.34
12.37
19.22
24.99
28.85
30.34
29.56
27.1
23.74
20.12
16.55
12.96
9.01
4.37
-1.12
-7.39
-14.17
-21.11
-27.95
-34.42
-40.2
-44.7
-47.13
-46.63
-42.66
-35.28
-25.28
-14.04
-2.99
6.73
14.61
20.77
25.63
29.64
32.98
35.59
37.29
37.99
37.77
36.84
35.43
33.63
31.45
28.9
26.03
23.12
20.55
18.66
17.6
17.25
17.27
17.25
16.91
16.1
14.88
13.34
11.48
9.18
6.18
2.18
-3.02
-9.35
-16.38
-23.31
-29.12
-32.83
-33.8
-31.89
-27.59
-21.81
-15.63
-9.92
-5.21
-1.6
1.13
3.31
5.27
7.18
9.12
11.02
12.75
14.2
15.27
15.92
16.2
16.2
15.95
15.41
14.43
12.84
10.58
7.78
4.68
1.61
-1.24
-3.83
-6.29
-8.82
-11.56
-14.54
-17.72
-21.06
-24.61
-28.49
-32.69
-36.97
-40.74
-43.16
-43.38
-40.88
-35.69
-28.44
-20.21
-12.1
-4.97
0.79
5.29
8.91
12.1
15.25
18.66
22.52
26.99
32.18
38.12
44.69
51.69
58.87
66.14
73.57
81.33
89.46
97.52
104.45
108.64
108.41
102.72
91.66
76.53
59.47
42.73
27.94
15.76
5.79
-3
-11.87
-21.87
-33.51
-46.5
-59.72
-71.4
-79.46
-82.26
-79.12
-70.57
-58.21
-44.06
-29.96
-17.25
-6.64
1.55
7.28
10.69
12.2
12.56
12.72
13.62
15.77
19.16
23.25
27.21
30.27
31.99
32.25
31.32
29.65
27.73
25.93
24.4
23.03
21.61
19.94
17.98
15.94
14.13
12.78
11.81
10.8
9.04
5.83
0.74
-6.25
-14.73
-23.97
-33.13
-41.37
-47.91
-52.04
-53.24
-51.25
-46.21
-38.76
-29.92
-20.89
-12.69
-5.99
-0.93
2.73
5.43
7.53
9.17
10.27
10.63
10.16
8.97
7.29
5.46
3.73
2.23
1.02
0.07
-0.67
-1.34
-2.1
-3.21
-4.87
-7.22
-10.2
-13.59
-17.09
-20.38
-23.22
-25.39
-26.86
-27.74
-28.43
-29.4
-31.09
-33.6
-36.61
-39.32
-40.84
-40.35
-37.45
-32.29
-25.52
-18.1
-11.05
-5.16
-0.75
2.37
4.82
7.28
10.2
13.59
17.07
20.16
22.55
24.25
25.43
26.32
26.98
27.34
27.32
26.93
26.29
25.45
24.31
22.51
19.64
15.43
9.92
3.45
-3.53
-10.66
-17.64
-24.38
-30.73
-36.5
-41.44
-45.29
-47.93
-49.33
-49.51
-48.44
-46.04
-42.29
-37.34
-31.6
-25.68
-20.18
-15.45
-11.53
-8.18
-4.99
-1.74
1.62
4.91
7.89
10.41
12.55
14.56
16.75
19.34
22.34
25.69
29.21
32.81
36.38
39.75
42.59
44.4
44.6
42.81
39.02
33.63
27.31
20.82
14.72
9.27
4.41
-0.09
-4.46
-8.77
-12.78
-15.93
-17.54
-17.03
-14.33
-9.89
-4.64
0.42
4.53
7.45
9.33
10.47
11.06
11.11
10.56
9.5
8.23
7.13
6.47
6.27
6.3
6.25
5.91
5.24
4.28
3.07
1.68
0.18
-1.31
-2.62
-3.71
-4.66
-5.68
-7.04
-8.88
-11.06
-13.27
-15.18
-16.53
-17.35
-17.83
-18.26
-18.9
-19.89
-21.21
-22.68
-24
-24.75
-24.43
-22.65
-19.2
-14.27
-8.45
-2.6
2.35
5.79
7.63
8.28
8.37
8.57
9.14
10.02
10.86
11.25
11
10.16
9.07
8.07
7.41
7.07
6.8
6.29
5.37
4.13
2.84
1.79
1.05
0.42
-0.45
-1.81
-3.65
-5.67
-7.48
-8.87
-9.83
-10.62
-11.5
-12.62
-13.87
-14.97
-15.6
-15.61
-15.08
-14.3
-13.55
-12.97
-12.36
-11.25
-9.07
-5.47
-0.54
5.2
10.97
16.03
19.94
22.65
24.38
25.42
25.99
26.08
25.54
24.09
21.5
17.71
12.9
7.45
1.83
-3.62
-8.79
-13.72
-18.52
-23.17
-27.54
-31.44
-34.76
-37.5
-39.66
-41.15
-41.73
-41.06
-38.97
-35.52
-31.11
-26.23
-21.34
-16.72
-12.53
-8.81
-5.65
-3.1
-1.16
0.2
1.15
1.83
2.37
2.78
2.99
2.89
2.54
2.15
2.13
2.89
4.63
7.27
10.45
13.68
16.55
18.87
20.64
22.03
23.16
24.03
24.53
24.52
23.89
22.58
20.69
18.43
16.08
13.93
12.16
10.76
9.57
8.47
7.36
6.34
5.45
4.67
3.75
2.34
0.21
-2.61
-5.78
-8.82
-11.32
-13.14
-14.45
-15.56
-16.73
-18.07
-19.56
-21.11
-22.57
-23.79
-24.46
-24.14
-22.31
-18.63
-13.01
-5.75
2.53
11.13
19.33
26.62
32.62
37.12
40.08
41.69
42.32
42.49
42.66
43.09
43.75
44.38
44.61
44.25
43.36
42.27
41.31
40.71
40.32
39.7
38.34
35.83
31.98
26.8
20.33
12.56
3.53
-6.51
-16.94
-26.92
-35.65
-42.69
-48.18
-52.71
-56.82
-60.55
-63.33
-64.18
-62.17
-56.96
-48.85
-38.69
-27.45
-15.96
-4.75
5.9
15.74
24.57
32.17
38.44
43.37
46.97
49.29
50.4
50.37
49.38
47.64
45.26
42.23
38.37
33.58
27.94
21.89
16.08
11.14
7.48
4.99
3.24
1.57
-0.55
-3.36
-6.77
-10.41
-13.77
-16.41
-18.16
-19.15
-19.84
-20.8
-22.42
-24.7
-27.12
-28.82
-28.94
-27.05
-23.27
-18.28
-13
-8.19
-4.15
-0.71
2.48
5.72
9.04
12.12
14.56
16.14
16.93
17.28
17.58
18.05
18.65
19.03
18.74
17.39
14.82
11.25
7.15
3.14
-0.24
-2.81
-4.73
-6.47
-8.6
-11.52
-15.28
-19.53
-23.75
-27.47
-30.48
-32.88
-35.06
-37.47
-40.48
-44.2
-48.33
-52.22
-54.94
-55.57
-53.56
-48.89
-42.13
-34.3
-26.42
-19.24
-13.07
-7.87
-3.5
0.13
3
5.1
6.51
7.42
8.04
8.51
8.85
9
8.93
8.77
8.7
8.9
9.4
10.09
10.69
11.05
11.11
11.08
11.22
11.76
12.69
13.8
14.73
15.11
14.67
13.18
10.44
6.28
0.64
-6.25
-13.71
-20.68
-26.03
-28.93
-29.16
-27.09
-23.44
-18.91
-13.95
-8.81
-3.66
1.23
5.44
8.58
10.38
10.89
10.47
9.62
8.74
8.03
7.51
7.12
6.8
6.58
6.45
6.31
5.94
5.07
3.54
1.34
-1.31
-4.06
-6.56
-8.59
-10.1
-11.23
-12.24
-13.43
-14.97
-16.81
-18.52
-19.43
-18.82
-16.19
-11.65
-5.82
0.27
5.58
9.42
11.65
12.62
12.94
13.19
13.77
14.7
15.78
16.66
17.05
16.73
15.75
14.29
12.7
11.37
10.65
10.66
11.27
12.15
12.81
12.86
12.1
10.59
8.59
6.39
4.16
1.91
-0.4
-2.83
-5.29
-7.67
-9.78
-11.43
-12.47
-12.73
-12
-10.14
-7.09
-3.01
1.65
6.22
9.98
12.38
13.27
12.95
12.06
11.21
10.78
10.69
10.58
10.03
8.86
7.28
5.69
4.42
3.58
2.99
2.4
1.64
0.72
-0.27
-1.29
-2.44
-3.87
-5.67
-7.7
-9.72
-11.39
-12.58
-13.34
-13.94
-14.76
-16.2
-18.51
-21.66
-25.28
-28.65
-30.93
-31.46
-30.04
-27.11
-23.52
-20.2
-17.75
-16.23
-15.3
-14.51
-13.65
-12.87
-12.61
-13.31
-15.15
-18.05
-21.61
-25.42
-29.18
-32.81
-36.4
-40.06
-43.8
-47.41
-50.48
-52.5
-53.08
-52.05
-49.5
-45.66
-40.69
-34.63
-27.39
-18.9
-9.3
1.01
11.35
20.95
29.1
35.21
38.92
40.2
39.35
37.15
34.8
33.59
34.57
38.06
43.53
49.84
55.71
60.19
63.01
64.55
65.47
66.35
67.44
68.59
69.61
70.35
70.87
71.38
72.15
73.44
75.49
78.49
82.47
87.21
92.13
96.36
98.97
99.21
96.77
91.73
84.54
75.73
65.97
55.91
46.19
37.42
30.03
24.24
20.07
17.51
16.55
17.26
19.67
23.77
29.47
36.7
45.54
56.27
69.21
84.57
102.37
122.29
143.7
165.69
187.07
206.52
222.77
234.86
242.52
246.38
247.79
248.12
247.61
244.55
235.13
214.48
178.4
125.24
56.8
-22.04
-104.81
-185.44
-259.81
-326.24
-385.23
-438.59
-488.57
-536.67
-582.46
-622.71
-651.52
-661.76
-647.46
-606.5
-542.12
-462.36
-377.9
-298.82
-232.03
-180.13
-141.99
-114.42
-94.04
-78.42
-66.31
-57.12
-50.17
-44.22
-37.44
-28.12
-15.44
-0.25
15.27
28.43
37.18
40.95
40.66
38.19
35.21
32.46
29.5
25.22
18.48
8.77
-3.49
-16.96
-29.5
-38.41
-40.83
-34.47
-18.56
5.54
34.35
63.37
88.53
107.52
120.16
127.92
132.8
136.38
139.56
142.62
145.81
149.27
152.79
155.48
155.93
152.89
146.14
136.92
127.42
119.73
114.85
112.28
110.52
108.04
104.09
98.88
93.07
87.17
81.18
74.78
67.89
61.17
55.77
52.82
52.73
55.05
58.75
62.63
65.76
67.5
67.45
65.16
60.1
51.81
40.02
24.8
6.71
-13.05
-32.64
-49.68
-61.74
-67.07
-65.29
-57.62
-46.65
-35.32
-26.03
-20.08
-17.76
-18.82
-22.89
-29.6
-38.31
-47.89
-56.68
-62.9
-65.24
-63.21
-57.1
-47.59
-35.54
-21.87
-7.74
5.41
16.11
23.45
27.57
29.71
31.67
34.81
39.39
44.48
48.58
50.42
49.51
46.19
41.21
35.33
29.11
23.08
17.77
13.57
10.39
7.42
3.27
-3.4
-13.17
-25.32
-37.97
-48.68
-55.43
-57.33
-54.81
-49.28
-42.39
-35.54
-29.63
-25.16
-22.42
-21.49
-22.11
-23.61
-24.97
-25.23
-23.94
-21.34
-18.16
-15.24
-13.03
-11.42
-9.96
-8.22
-6.08
-3.64
-1.1
1.38
3.63
5.18
5.3
3.24
-1.27
-7.65
-14.41
-19.73
-22.11
-20.96
-16.76
-10.68
-4.07
2.06
7.17
11.1
13.74
14.93
14.4
11.94
7.6
1.7
-5.25
-12.67
-20.1
-27.18
-33.49
-38.48
-41.38
-41.34
-37.69
-30.41
-20.32
-8.99
1.77
10.55
16.88
21.17
24.34
27.28
30.38
33.53
36.53
39.32
42.17
45.42
49.13
52.93
56.13
58.08
58.56
57.8
56.27
54.31
51.97
48.92
44.75
39.19
32.38
24.83
17.31
10.56
5.11
1.09
-1.81
-4.24
-6.93
-10.44
-14.96
-20.06
-24.83
-28.14
-28.88
-26.54
-21.31
-14.17
-6.59
0.06
4.93
8.06
10.12
12.08
14.55
17.58
20.7
23.2
24.52
24.45
23.06
20.59
17.37
13.7
9.83
5.82
1.46
-3.69
-9.95
-17.19
-24.75
-31.57
-36.76
-39.95
-41.38
-41.52
-40.79
-39.55
-38.32
-38.03
-39.58
-43.1
-47.15
-48.83
-44.95
-33.64
-15.66
5.66
25.77
40.69
48.46
49.36
45.12
37.67
28.51
18.63
8.83
-0.06
-7.29
-12.68
-16.84
-20.83
-25.53
-31.15
-37.03
-42.15
-45.97
-48.73
-51.54
-55.71
-61.88
-69.55
-77.29
-83.34
-86.33
-85.72
-81.8
-75.53
-68.31
-61.69
-56.96
-54.84
-54.98
-55.95
-55.81
-52.88
-46.57
-37.56
-27.21
-16.65
-6.01
5.74
19.98
37.51
57.84
79.29
99.8
117.93
133.49
147.41
160.89
174.36
186.87
196.25
200.16
197.18
187.7
173.9
158.72
144.74
133.03
123.09
113.39
102.41
89.38
74.49
58.52
42.18
25.86
9.57
-6.69
-22.63
-37.56
-50.61
-61.07
-68.72
-73.9
-77.38
-80.08
-82.77
-85.82
-89.14
-92.28
-94.61
-95.52
-94.71
-92.21
-88.46
-84.14
-80.03
-76.77
-74.67
-73.66
-73.27
-72.78
-71.45
-68.66
-64.08
-57.63
-49.56
-40.21
-30.09
-19.7
-9.54
-0.03
8.54
15.95
22.09
26.93
30.59
33.27
35.21
36.54
37.2
37.01
35.74
33.43
30.34
27.06
24.27
22.64
22.64
24.55
28.37
33.89
40.64
47.89
54.75
60.37
64.12
65.7
65.23
63.18
60.15
56.72
53.19
49.55
45.57
40.93
35.47
29.32
22.78
16.13
9.49
2.66
-4.7
-12.8
-21.49
-30.32
-38.72
-46.34
-53.25
-59.77
-66.23
-72.71
-78.89
-84.22
-88.22
-90.7
-91.79
-91.7
-90.47
-87.71
-82.65
-74.35
-62.06
-45.58
-25.44
-2.92
20.18
41.92
60.57
74.93
84.43
88.92
88.59
83.78
75.03
63.11
49.15
34.5
20.55
8.44
-1.11
-7.93
-12.23
-14.49
-15.36
-15.53
-15.64
-16.22
-17.53
-19.53
-21.92
-24.3
-26.39
-28.16
-29.76
-31.48
-33.48
-35.73
-37.87
-39.38
-39.58
-37.87
-33.85
-27.37
-18.77
-8.75
1.69
11.58
20.15
27.06
32.28
35.96
38.26
39.18
38.74
36.92
33.84
29.7
24.72
19.09
12.96
6.41
-0.47
-7.59
-14.87
-22.17
-29.27
-35.85
-41.55
-46.03
-49.1
-50.74
-51.02
-50.07
-47.9
-44.49
-39.86
-34.27
-28.3
-22.73
-18.38
-15.75
-14.77
-14.75
-14.58
-13.07
-9.37
-3.31
4.58
13.21
21.43
28.31
33.5
37.12
39.57
41.21
42.16
42.31
41.53
39.9
37.72
35.41
33.18
30.89
28.02
24.03
18.64
12.11
5.11
-1.67
-7.79
-13.26
-18.43
-23.61
-28.91
-34.04
-38.54
-41.91
-43.86
-44.28
-43.25
-40.97
-37.73
-33.9
-29.87
-25.97
-22.33
-18.93
-15.66
-12.38
-9.13
-6.04
-3.37
-1.35
-0.11
0.43
0.52
0.56
1.01
2.33
4.82
8.51
13.21
18.49
23.85
28.83
33.05
36.26
38.34
39.27
39.15
38.1
36.29
33.79
30.63
26.88
22.66
18.16
13.61
9.2
5.02
1.09
-2.57
-5.84
-8.51
-10.45
-11.66
-12.29
-12.51
-12.35
-11.59
-9.86
-6.83
-2.48
2.79
8.28
13.1
16.53
18.15
17.91
16.11
13.25
9.83
6.2
2.46
-1.52
-6.06
-11.45
-17.9
-25.43
-33.86
-42.77
-51.58
-59.6
-66.18
-70.89
-73.7
-74.98
-75.27
-75.02
-74.33
-72.85
-69.86
-64.5
-56.1
-44.54
-30.62
-16.07
-3.22
5.7
9.39
7.99
2.99
-3.51
-9.77
-15.23
-20.43
-26.52
-34.42
-44.41
-56.02
-68.58
-81.61
-94.88
-108.34
-121.73
-134.39
-145.17
-152.45
-154.37
-149.15
-135.48
-112.97
-82.47
-45.75
-5.08
37.4
80
121.21
159.32
192.22
217.72
234.28
241.88
242.18
237.93
231.79
225.21
217.91
208.35
194.73
176.12
153
127.09
100.8
76.46
55.82
39.89
28.94
22.72
20.48
21.08
23.09
25.04
25.78
24.68
21.72
17.39
12.38
7.35
2.77
-1.07
-3.99
-5.9
-6.76
-6.71
-6.04
-5.11
-4.27
-3.66
-3.19
-2.7
-2.1
-1.49
-1.28
-1.88
-3.7
-6.84
-11.02
-15.7
-20.21
-24.04
-27
-29.31
-31.47
-34.09
-37.57
-41.94
-46.8
-51.42
-54.98
-56.83
-56.72
-54.83
-51.65
-47.91
-44.16
-40.77
-37.82
-35.17
-32.65
-30.21
-27.95
-26.03
-24.64
-23.74
-23.14
-22.53
-21.61
-20.16
-18.12
-15.46
-12.19
-8.23
-3.49
2.05
8.15
14.39
20.05
24.38
26.81
27.1
25.47
22.43
18.6
14.48
10.27
5.98
1.55
-2.83
-6.7
-9.36
-10.2
-9.01
-6.04
-2.02
2.19
5.92
8.86
11.17
13.16
15.14
17.22
19.34
21.32
23.07
24.6
25.98
27.24
28.35
29.21
29.78
30.13
30.38
30.63
30.84
30.84
30.31
29.03
26.93
24.15
20.98
17.65
14.27
10.82
7.17
3.16
-1.34
-6.42
-12.07
-18.19
-24.49
-30.48
-35.59
-39.35
-41.56
-42.32
-41.93
-40.74
-39
-36.76
-34.07
-31.02
-27.81
-24.6
-21.51
-18.53
-15.58
-12.66
-9.84
-7.27
-5.03
-3.09
-1.34
0.3
1.79
2.95
3.61
3.72
3.34
2.63
1.73
0.75
-0.28
-1.24
-2.02
-2.5
-2.73
-2.91
-3.33
-4.19
-5.36
-6.36
-6.5
-5.2
-2.33
1.78
6.37
10.6
13.89
16.03
17.19
17.71
17.95
18.04
17.95
17.52
16.63
15.27
13.61
11.87
10.32
9.1
8.21
7.53
6.9
6.24
5.57
4.97
4.45
3.85
2.91
1.38
-0.81
-3.49
-6.26
-8.73
-10.64
-12.03
-13.15
-14.3
-15.58
-16.84
-17.63
-17.45
-15.99
-13.24
-9.57
-5.61
-1.99
0.79
2.52
3.27
3.22
2.55
1.37
-0.26
-2.23
-4.34
-6.36
-8.05
-9.29
-10.12
-10.69
-11.18
-11.72
-12.37
-13.09
-13.79
-14.41
-14.85
-15.1
-15.12
-14.86
-14.19
-12.93
-10.83
-7.72
-3.66
1.08
5.96
10.35
13.73
15.75
16.33
15.56
13.74
11.24
8.57
6.36
5.23
5.7
7.89
11.48
15.62
19.35
21.86
22.85
22.49
21.25
19.56
17.64
15.55
13.35
11.26
9.58
8.62
8.41
8.73
9.21
9.47
9.27
8.54
7.3
5.64
3.67
1.57
-0.51
-2.43
-4.17
-5.86
-7.7
-9.85
-12.41
-15.32
-18.33
-20.98
-22.62
-22.63
-20.62
-16.66
-11.35
-5.65
-0.54
3.28
5.59
6.63
6.82
6.56
5.99
5.1
3.9
2.55
1.31
0.4
-0.14
-0.56
-1.17
-2.11
-3.2
-3.94
-3.84
-2.75
-0.99
0.8
2.05
2.55
2.55
2.53
2.93
3.86
5.07
6.25
7.06
7.35
7.08
6.24
4.7
2.37
-0.64
-3.99
-6.94
-8.83
-9.19
-8.03
-5.8
-3.28
-1.24
-0.2
-0.3
-1.31
-2.8
-4.28
-5.31
-5.71
-5.46
-4.69
-3.56
-2.18
-0.57
1.22
3.04
4.62
5.65
5.97
5.67
5.06
4.51
4.23
4.13
3.94
3.37
2.3
0.93
-0.43
-1.42
-1.83
-1.61
-0.91
-0.01
0.75
0.99
0.4
-1.1
-3.2
-5.3
-6.65
-6.62
-4.91
-1.66
2.67
7.5
12.27
16.55
19.97
22.21
23.06
22.48
20.62
17.82
14.53
11.25
8.41
6.3
5.06
4.65
4.9
5.58
6.43
7.31
8.1
8.69
9
8.95
8.47
7.49
5.91
3.54
0.25
-4.03
-8.99
-13.97
-18.15
-20.92
-22.18
-22.33
-22.15
-22.36
-23.37
-25.16
-27.42
-29.69
-31.52
-32.47
-32.17
-30.35
-27.02
-22.47
-17.33
-12.28
-7.98
-4.78
-2.83
-2.13
-2.57
-4
-6.13
-8.57
-10.82
-12.46
-13.26
-13.3
-12.88
-12.38
-12.1
-12.05
-11.99
-11.52
-10.27
-8.08
-5.09
-1.71
1.53
4.12
5.71
6.27
5.94
5.08
4.07
3.25
2.8
2.76
2.97
3.2
3.14
2.5
1.17
-0.69
-2.68
-4.17
-4.53
-3.31
-0.46
3.64
8.36
12.96
16.9
19.87
21.84
22.88
23.11
22.69
21.88
21.12
20.88
21.6
23.43
26.14
29.21
31.98
33.95
34.92
35.02
34.56
33.85
33.08
32.24
31.16
29.6
27.31
24.1
19.94
15
9.62
4.24
-0.82
-5.47
-9.79
-14.02
-18.29
-22.6
-26.75
-30.46
-33.4
-35.34
-36.09
-35.58
-33.86
-31.11
-27.64
-23.82
-19.95
-16.21
-12.72
-9.58
-6.95
-5.02
-3.85
-3.35
-3.17
-2.89
-2.2
-1.04
0.41
1.78
2.77
3.26
3.32
3.1
2.73
2.19
1.42
0.37
-0.98
-2.56
-4.27
-6.04
-7.8
-9.55
-11.25
-12.88
-14.41
-15.93
-17.47
-18.95
-20.07
-20.35
-19.27
-16.49
-12.2
-7
-1.78
2.65
5.88
7.96
9.31
10.44
11.63
12.85
13.86
14.43
14.46
14.12
13.68
13.43
13.62
14.37
15.64
17.2
18.71
19.79
20.29
20.3
20.25
20.57
21.44
22.69
23.79
24.22
23.67
22.21
20.05
17.37
14.18
10.41
6.17
1.97
-1.48
-3.55
-4.16
-3.79
-3.26
-3.19
-3.63
-4.12
-3.95
-2.65
-0.26
2.69
5.5
7.49
8.28
7.73
5.89
3.04
-0.27
-3.18
-4.67
-4
-1
3.67
8.7
12.62
14.38
13.81
11.6
8.9
6.74
5.54
4.86
3.75
1.16
-3.57
-10.62
-19.7
-30.26
-41.59
-52.93
-63.47
-72.63
-80.39
-87.44
-94.93
-103.73
-113.53
-122.35
-126.88
-123.7
-110.88
-89.1
-61.71
-33.58
-9.27
8.52
19.57
25.59
28.82
30.87
32.03
31.62
28.82
23.49
16.4
8.93
2.32
-2.88
-6.89
-10.29
-13.49
-16.42
-18.59
-19.47
-18.84
-17
-14.5
-11.82
-9.1
-6.09
-2.33
2.53
8.49
15.2
21.98
28.07
32.89
36.15
37.9
38.49
38.39
38.04
37.83
37.99
38.69
39.82
41.07
41.9
41.74
40.26
37.45
33.76
29.86
26.37
23.64
21.63
20.04
18.51
16.8
14.79
12.47
9.83
6.74
3.09
-1.11
-5.57
-9.63
-12.38
-13.04
-11.22
-7.17
-1.67
4.32
9.96
14.81
18.77
21.94
24.42
26.31
27.64
28.47
28.91
28.98
28.71
28.11
27.2
26.14
25.15
24.34
23.66
22.93
21.86
20.23
17.98
15.15
11.93
8.5
5.07
1.85
-0.98
-3.3
-5.1
-6.55
-7.95
-9.63
-11.8
-14.38
-16.94
-18.79
-19.24
-17.79
-14.47
-9.79
-4.6
0.21
4
6.55
8.03
8.82
9.33
9.78
10.26
10.68
10.94
10.93
10.59
9.86
8.8
7.56
6.38
5.53
5.23
5.4
5.82
6.08
5.78
4.7
2.83
0.38
-2.33
-4.98
-7.35
-9.3
-10.82
-11.98
-12.95
-14.01
-15.39
-17.11
-18.86
-20.02
-19.82
-17.75
-13.82
-8.63
-3.19
1.54
5.03
7.24
8.53
9.32
9.86
10.16
10.14
9.76
9.1
8.37
7.7
7.19
6.82
6.61
6.55
6.62
6.76
6.84
6.76
6.44
5.92
5.19
4.3
3.18
1.76
-0.03
-2.13
-4.37
-6.49
-8.3
-9.69
-10.77
-11.76
-12.91
-14.47
-16.44
-18.63
-20.58
-21.72
-21.51
-19.68
-16.34
-11.86
-6.81
-1.77
2.82
6.65
9.56
11.51
12.57
12.92
12.83
12.56
12.27
11.98
11.58
10.99
10.23
9.47
8.84
8.41
8.05
7.53
6.69
5.51
4.15
2.82
1.71
0.79
-0.12
-1.21
-2.63
-4.31
-6.03
-7.55
-8.72
-9.6
-10.39
-11.34
-12.57
-14.05
-15.54
-16.83
-17.79
-18.49
-19.11
-19.69
-20.06
-19.76
-18.25
-15.17
-10.64
-5.2
0.28
4.99
8.41
10.49
11.5
11.89
12.04
12.2
12.45
12.79
13.14
13.42
13.58
13.55
13.33
12.89
12.23
11.31
10.16
8.84
7.5
6.22
5.04
3.93
2.8
1.62
0.43
-0.73
-1.83
-2.89
-4.01
-5.24
-6.59
-7.98
-9.37
-10.76
-12.17
-13.61
-15.05
-16.38
-17.6
-18.8
-20.2
-21.99
-24.15
-26.3
-27.7
-27.55
-25.28
-20.86
-14.86
-8.25
-2.07
2.92
6.41
8.52
9.58
9.96
9.94
9.66
9.26
8.88
8.67
8.68
8.8
8.85
8.67
8.23
7.68
7.23
7.03
7.05
7.09
6.89
6.23
5.03
3.42
1.61
-0.13
-1.62
-2.85
-3.95
-5.1
-6.45
-7.98
-9.49
-10.74
-11.55
-11.95
-12.2
-12.62
-13.41
-14.58
-15.92
-17.14
-18
-18.3
-17.91
-16.69
-14.51
-11.29
-7.16
-2.5
2.16
6.25
9.37
11.43
12.56
13.04
13.17
13.14
13.06
12.97
12.91
12.9
12.95
13.06
13.28
13.62
14.11
14.65
15.1
15.2
14.81
13.88
12.53
10.94
9.23
7.42
5.44
3.29
0.99
-1.27
-3.35
-5.2
-6.86
-8.46
-10.09
-11.72
-13.27
-14.59
-15.6
-16.35
-16.98
-17.7
-18.72
-20.07
-21.57
-22.72
-22.93
-21.53
-18.19
-13.07
-6.81
-0.34
5.48
10.16
13.69
16.4
18.66
20.63
22.21
23.16
23.37
22.96
22.24
21.54
21
20.5
19.7
18.32
16.23
13.55
10.6
7.77
5.34
3.46
2.05
0.87
-0.32
-1.76
-3.54
-5.57
-7.62
-9.39
-10.66
-11.35
-11.64
-11.78
-12.1
-12.79
-13.99
-15.74
-18.03
-20.81
-23.8
-26.51
-28.23
-28.38
-26.64
-23.2
-18.71
-14.01
-9.85
-6.65
-4.45
-3
-1.95
-1.08
-0.26
0.49
1.17
1.77
2.35
2.94
3.53
4
4.15
3.8
2.88
1.53
0.08
-1.15
-1.91
-2.24
-2.37
-2.71
-3.6
-5.2
-7.37
-9.69
-11.65
-12.84
-13.13
-12.82
-12.52
-12.9
-14.42
-17.08
-20.34
-23.3
-25.03
-24.98
-23.15
-20.05
-16.47
-13.09
-10.24
-7.89
-5.75
-3.57
-1.31
0.81
2.5
3.6
4.2
4.6
5.19
6.19
7.51
8.86
9.81
10.1
9.74
8.94
8.09
7.42
6.95
6.42
5.49
3.92
1.75
-0.62
-2.63
-3.76
-3.75
-2.68
-0.86
1.35
3.67
5.92
8.03
9.97
11.74
13.43
15.26
17.48
20.22
23.31
26.19
28.22
28.84
27.96
25.89
23.24
20.58
18.24
16.25
14.46
12.74
11.08
9.55
8.23
7.08
5.96
4.66
3.01
0.97
-1.41
-4.02
-6.79
-9.71
-12.78
-16
-19.32
-22.65
-25.88
-28.91
-31.68
-34.21
-36.56
-38.7
-40.41
-41.23
-40.61
-38.12
-33.67
-27.66
-20.88
-14.18
-8.2
-3.2
0.9
4.35
7.28
9.66
11.38
12.32
12.54
12.21
11.66
11.19
11.04
11.34
12.05
13.05
14.15
15.24
16.24
17.18
18.08
18.93
19.55
19.67
18.95
17.09
13.97
9.68
4.53
-1.03
-6.44
-11.14
-14.65
-16.6
-16.85
-15.5
-12.89
-9.57
-6.06
-2.8
-0.05
2.09
3.64
4.67
5.21
5.31
5.02
4.48
3.87
3.45
3.43
3.96
5.02
6.36
7.69
8.69
9.18
9.13
8.64
7.81
6.68
5.21
3.37
1.25
-0.97
-3.01
-4.67
-5.91
-6.88
-7.79
-8.81
-9.8
-10.4
-10.05
-8.27
-4.94
-0.39
4.69
9.47
13.35
16.1
17.88
18.99
19.65
19.84
19.43
18.37
16.88
15.36
14.22
13.61
13.29
12.79
11.68
9.87
7.67
5.56
3.91
2.83
2.05
1.22
0.1
-1.29
-2.73
-4
-5.01
-5.91
-6.97
-8.41
-10.27
-12.28
-13.91
-14.61
-13.96
-11.8
-8.36
-4.11
0.35
4.46
7.89
10.56
12.57
14.08
15.2
15.93
16.23
16.08
15.51
14.57
13.37
12
10.5
8.97
7.47
6.12
5
4.12
3.37
2.56
1.53
0.22
-1.28
-2.82
-4.33
-5.84
-7.44
-9.17
-10.98
-12.67
-14.04
-14.9
-15.16
-14.81
-13.82
-12.22
-10.02
-7.37
-4.55
-1.91
0.29
1.96
3.2
4.17
4.98
5.67
6.18
6.44
6.44
6.2
5.77
5.23
4.68
4.28
4.13
4.27
4.59
4.89
4.93
4.63
4.03
3.28
2.45
1.53
0.34
-1.24
-3.17
-5.21
-7.03
-8.38
-9.24
-9.82
-10.45
-11.29
-12.23
-12.89
-12.77
-11.49
-9.05
-5.8
-2.35
0.77
3.27
5.16
6.66
7.99
9.21
10.24
10.91
11.08
10.72
10.02
9.16
8.38
7.74
7.22
6.7
6.02
5.08
3.89
2.59
1.31
0.2
-0.78
-1.72
-2.79
-4.07
-5.54
-7.05
-8.38
-9.37
-9.87
-9.88
-9.48
-8.88
-8.37
-8.28
-8.84
-10.11
-11.88
-13.7
-14.99
-15.22
-14.14
-11.76
-8.39
-4.52
-0.63
2.83
5.63
7.71
9.23
10.5
11.79
13.24
14.77
16.11
17.01
17.32
17.16
16.75
16.26
15.63
14.57
12.78
10.14
6.88
3.46
0.45
-1.79
-3.2
-4.01
-4.56
-5.07
-5.66
-6.38
-7.28
-8.52
-10.32
-12.82
-15.93
-19.34
-22.53
-25.02
-26.57
-27.21
-27.28
-27.14
-27.03
-26.97
-26.7
-25.82
-23.97
-20.92
-16.71
-11.64
-6.19
-0.96
3.58
7.06
9.37
10.58
10.96
10.82
10.44
10
9.57
9.19
8.91
8.82
8.97
9.35
9.83
10.16
10.1
9.62
8.84
8.07
7.56
7.33
7.22
6.92
6.19
5
3.5
1.95
0.6
-0.43
-1.2
-1.86
-2.55
-3.33
-4.13
-4.8
-5.19
-5.3
-5.29
-5.48
-6.16
-7.39
-8.97
-10.47
-11.47
-11.72
-11.14
-9.83
-7.87
-5.33
-2.34
0.88
3.94
6.43
8.09
8.87
8.95
8.64
8.17
7.64
7.13
6.66
6.35
6.22
6.29
6.46
6.62
6.63
6.42
5.97
5.26
4.35
3.29
2.26
1.4
0.79
0.35
-0.11
-0.72
-1.55
-2.45
-3.2
-3.67
-3.87
-4.02
-4.38
-5.11
-6.19
-7.46
-8.76
-10.05
-11.42
-12.93
-14.61
-16.26
-17.58
-18.13
-17.58
-15.73
-12.61
-8.6
-4.19
0.05
3.71
6.54
8.56
9.91
10.82
11.47
11.93
12.2
12.17
11.81
11.12
10.22
9.29
8.57
8.19
8.13
8.26
8.34
8.22
7.83
7.24
6.49
5.6
4.53
3.23
1.73
0.2
-1.17
-2.23
-2.94
-3.37
-3.66
-3.93
-4.29
-4.74
-5.3
-5.96
-6.72
-7.56
-8.45
-9.37
-10.28
-11.23
-12.29
-13.57
-15.09
-16.75
-18.29
-19.28
-19.26
-17.94
-15.32
-11.72
-7.76
-4.01
-0.88
1.56
3.5
5.22
6.89
8.46
9.71
10.43
10.56
10.21
9.66
9.15
8.82
8.61
8.37
7.94
7.23
6.28
5.21
4.11
3.03
1.97
0.87
-0.33
-1.61
-2.95
-4.28
-5.56
-6.79
-7.99
-9.11
-10.05
-10.67
-10.86
-10.66
-10.32
-10.16
-10.48
-11.39
-12.67
-13.83
-14.28
-13.58
-11.62
-8.61
-5.05
-1.5
1.59
4.03
5.83
7.13
8.04
8.63
8.88
8.85
8.65
8.5
8.62
9.06
9.63
10.03
9.92
9.12
7.76
6.2
4.88
4.08
3.79
3.79
3.74
3.35
2.53
1.31
-0.19
-1.84
-3.56
-5.36
-7.23
-9.21
-11.32
-13.61
-16.09
-18.64
-20.96
-22.59
-23.06
-22.04
-19.53
-15.87
-11.59
-7.24
-3.25
0.23
3.17
5.69
7.87
9.76
11.36
12.64
13.6
14.25
14.63
14.8
14.84
14.77
14.62
14.34
13.94
13.45
12.95
12.5
12.05
11.46
10.46
8.88
6.69
4.07
1.36
-1.09
-3.06
-4.61
-5.96
-7.37
-9.02
-10.92
-12.94
-15
-17.09
-19.19
-21.18
-22.66
-23.01
-21.65
-18.27
-13.16
-7.1
-1.09
4.05
7.94
10.7
12.69
14.28
15.66
16.81
17.69
18.29
18.76
19.24
19.88
20.64
21.35
21.74
21.55
20.67
19.15
17.27
15.35
13.65
12.22
10.89
9.35
7.35
4.8
1.88
-1.13
-3.93
-6.4
-8.58
-10.57
-12.48
-14.32
-16.07
-17.69
-19.22
-20.75
-22.39
-24.22
-26.23
-28.17
-29.58
-29.81
-28.26
-24.62
-19.06
-12.22
-5.05
1.53
6.96
11.11
14.26
16.85
19.18
21.28
22.97
24
24.27
23.94
23.32
22.77
22.45
22.27
21.99
21.41
20.56
19.67
18.97
18.49
17.97
16.99
15.27
12.86
10.17
7.67
5.66
4.06
2.45
0.42
-2.16
-5.09
-7.94
-10.33
-12.2
-13.78
-15.5
-17.7
-20.49
-23.79
-27.3
-30.62
-33.28
-34.73
-34.38
-31.82
-27.01
-20.4
-12.86
-5.47
0.84
5.56
8.61
10.37
11.4
12.28
13.36
14.69
16.09
17.22
17.82
17.77
17.17
16.2
15.07
13.97
13.01
12.31
11.93
11.83
11.81
11.59
10.87
9.46
7.32
4.58
1.41
-1.93
-5.17
-7.96
-10.07
-11.43
-12.3
-13.21
-14.74
-17.2
-20.45
-23.83
-26.45
-27.47
-26.38
-23.17
-18.24
-12.23
-5.87
0.22
5.58
9.92
13.24
15.63
17.33
18.54
19.38
19.87
19.98
19.67
19
18.14
17.33
16.74
16.39
16.12
15.62
14.67
13.24
11.54
9.92
8.62
7.58
6.51
4.97
2.72
-0.18
-3.38
-6.41
-8.89
-10.73
-12.08
-13.2
-14.38
-15.74
-17.37
-19.2
-21
-22.37
-22.76
-21.57
-18.49
-13.59
-7.4
-0.75
5.49
10.74
14.8
17.83
20.11
21.86
23.14
23.89
24.13
23.98
23.66
23.36
23.1
22.74
22
20.63
18.49
15.6
12.11
8.26
4.35
0.69
-2.5
-5.19
-7.54
-9.91
-12.64
-15.86
-19.36
-22.7
-25.37
-27.04
-27.68
-27.49
-26.75
-25.63
-24.09
-22.01
-19.2
-15.57
-11.03
-5.41
1.52
9.97
19.93
30.9
41.93
51.71
59.03
63.08
63.73
61.45
57.12
51.74
46.07
40.64
35.63
31.07
26.93
23.22
19.88
16.68
13.22
8.89
3.04
-4.74
-14.52
-26.02
-38.82
-52.47
-66.69
-81.18
-95.52
-108.92
-120.34
-128.7
-133.22
-133.78
-130.86
-125.38
-118.29
-110.24
-101.51
-92.02
-81.62
-70.23
-57.79
-44.26
-29.51
-13.42
3.87
21.8
39.32
55.23
68.48
78.62
85.83
90.75
94.09
96.32
97.48
97.32
95.52
91.97
86.89
80.95
75.05
70.18
67.13
66.27
67.43
69.91
72.69
74.82
75.82
75.9
75.81
76.4
78.12
80.67
83.08
83.94
81.9
76.06
66.06
52.16
35.07
15.84
-4.29
-23.98
-42.06
-57.79
-70.9
-81.53
-90.01
-96.63
-101.56
-104.82
-106.33
-106
-103.75
-99.57
-93.53
-85.75
-76.51
-66.23
-55.52
-45.04
-35.48
-27.4
-21.06
-16.38
-13.01
-10.43
-8.19
-6.01
-3.87
-1.88
-0.15
1.41
3.05
5.11
7.86
11.21
14.82
18.17
20.76
22.35
22.94
22.69
21.77
20.31
18.36
16.04
13.55
11.11
8.87
6.84
4.93
3.05
1.15
-0.7
-2.47
-4.21
-6.17
-8.64
-11.81
-15.56
-19.36
-22.36
-23.74
-22.9
-19.79
-14.9
-9.09
-3.35
1.64
5.51
8.3
10.17
11.31
11.89
12.04
11.99
11.96
12.15
12.62
13.31
14.07
14.71
15.08
15.09
14.73
14
12.96
11.66
10.13
8.33
6.17
3.52
0.37
-3.19
-6.94
-10.61
-14.03
-17.14
-19.95
-22.5
-24.74
-26.67
-28.34
-29.83
-31.2
-32.36
-32.98
-32.6
-30.76
-27.28
-22.42
-16.81
-11.23
-6.33
-2.44
0.49
2.74
4.66
6.46
8.12
9.51
10.43
10.77
10.56
10
9.34
8.85
8.68
8.8
9.08
9.31
9.3
8.89
7.98
6.47
4.38
1.84
-0.91
-3.54
-5.76
-7.41
-8.52
-9.26
-9.84
-10.44
-11.15
-11.99
-12.88
-13.61
-13.84
-13.07
-10.92
-7.23
-2.25
3.33
8.64
12.92
15.82
17.42
18.19
18.68
19.27
20.03
20.77
21.19
21.07
20.42
19.34
18.06
16.81
15.67
14.71
13.96
13.45
13.16
12.99
12.67
11.92
10.61
8.73
6.49
4.08
1.58
-1.06
-3.96
-7.13
-10.36
-13.31
-15.66
-17.23
-18.06
-18.23
-17.76
-16.5
-14.23
-10.96
-6.99
-3.03
0.22
2.35
3.48
4.11
4.83
5.96
7.34
8.51
9.04
8.83
8.16
7.59
7.51
7.97
8.64
8.99
8.62
7.49
5.94
4.44
3.45
3.16
3.46
4.06
4.56
4.72
4.44
3.81
3.07
2.47
2.19
2.21
2.39
2.43
2.13
1.45
0.68
0.26
0.76
2.55
5.78
10.33
15.79
21.7
27.51
32.77
37.06
40.11
41.78
42.04
41.05
39.01
36.25
33.19
30.27
27.92
26.5
26.15
26.84
28.54
31.33
35.57
41.78
50.35
61.11
73.01
84.07
91.76
93.69
88.34
75.62
56.88
34.58
11.6
-9.34
-26.25
-38.14
-45.1
-48.09
-48.6
-48.19
-48.06
-48.8
-50.42
-52.8
-56.1
-61.12
-69.33
-82.34
-101.31
-126.07
-154.64
-183.31
-207.37
-222.47
-225.89
-217.34
-198.74
-173.07
-142.98
-109.87
-73.9
-34.9
6.61
48.88
89.28
125.29
155.42
179.53
198.31
212.32
221.32
224.31
220.13
208.41
190.12
167.45
143.12
119.41
97.47
77.23
58.01
39.19
20.84
3.79
-10.67
-21.52
-28.45
-31.98
-33.24
-33.57
-34.14
-35.62
-38.17
-41.46
-44.86
-47.51
-48.62
-47.63
-44.41
-39.37
-33.26
-27.04
-21.58
-17.41
-14.65
-13.02
-11.97
-10.98
-9.7
-8.15
-6.6
-5.37
-4.58
-4.04
-3.23
-1.61
1.18
5.02
9.31
13.04
15.21
15.05
12.27
7.08
-0
-8.25
-16.97
-25.51
-33.34
-40.09
-45.57
-49.88
-53.3
-56.27
-59.16
-62.11
-65.13
-68.17
-71.2
-74.21
-77.02
-79.03
-79.28
-76.7
-70.54
-60.78
-48.28
-34.47
-20.98
-9.11
0.41
7.43
12.1
14.63
15.16
13.77
10.76
6.73
2.53
-0.88
-2.84
-3.22
-2.36
-0.98
0.29
1.09
1.41
1.46
1.46
1.47
1.35
0.96
0.18
-1.01
-2.55
-4.35
-6.29
-8.25
-10.11
-11.74
-13.12
-14.31
-15.53
-17.03
-19.14
-21.98
-25.41
-28.94
-31.75
-32.78
-31.17
-26.57
-19.46
-11.11
-3.21
2.82
6.35
7.69
7.83
7.78
8.16
8.99
9.88
10.51
10.9
11.41
12.42
14.03
15.85
17.25
17.76
17.25
16.13
14.93
14.11
13.68
13.33
12.58
11
8.5
5.32
1.99
-0.85
-2.72
-3.53
-3.59
-3.61
-4.3
-6.16
-9.34
-13.61
-18.51
-23.48
-27.78
-30.6
-31.22
-28.98
-23.58
-15.31
-5.06
5.91
16.32
25.13
31.59
35.28
36.35
35.53
33.87
32.43
31.85
32.11
32.66
32.73
31.6
29.47
27.4
26.66
28.06
31.44
35.77
39.48
41.04
39.02
33.62
26.66
20.24
15.55
12.74
11.29
10.54
9.8
7.21
1.94
-5.68
-15.33
-27.23
-41.54
-57.49
-73.42
-87.74
-101.62
-115.41
-127.94
-137.87
-144.71
-148.16
-147.73
-142.97
-134.8
-128.59
-127.92
-132.02
-136.59
-135.35
-121.25
-88.73
-35.83
47.48
146.95
232.32
281.67
295.32
287.44
272.69
258.32
244.08
224.94
192.47
144.87
88.54
32.48
-15.52
-51.28
-75.01
-88.89
-95.61
-100.16
-103.73
-104.26
-100.09
-93.32
-83.13
-74.26
-70.95
-67.98
-64.25
-60
-55.54
-50.13
-42.33
-30.95
-16.93
-1.83
12.32
22.24
27.09
28.66
29.59
31.71
35.29
38.73
40.89
41.34
39.34
35.38
30.95
27.71
26.68
28.4
32.31
38.1
45.27
52.29
57.33
58.81
56.47
50.95
44.05
37.54
32.56
28.55
23.27
13.99
-1.11
-21.86
-46.21
-70.29
-89.86
-101.08
-101.9
-92.67
-75.71
-54.65
-33.2
-14.77
-1.28
6.76
11.03
14.15
18.93
27.85
40.57
55.55
68.08
72.57
64.95
46.06
20.39
-5.74
-26.56
-39.14
-44.2
-46.79
-51.46
-60.85
-72.53
-80.41
-76.89
-56.14
-17.26
34.55
89.35
136.96
163.14
164.67
148
123.01
97.09
72.81
49.42
25.68
2.37
-17.87
-30.96
-35.14
-32.17
-26.26
-22.17
-23.13
-29.87
-40.73
-52.54
-61.22
-64.49
-62.46
-57.08
-50.95
-46.09
-43.49
-43.03
-43.45
-42.99
-40.74
-36.93
-32.67
-29.37
-28.18
-29.72
-33.99
-39.75
-45.32
-49.19
-50.39
-48.59
-44.14
-37.89
-30.94
-24.49
-18.52
-12.62
-6.03
2.31
13.63
29.31
50.73
79.38
110.26
139.72
163.73
178.84
183.3
177.69
164.74
148.25
131.63
116.76
104.54
94.29
84.8
75.17
65.17
55.08
45.22
35.61
25.7
15.3
4.02
-8.26
-21.14
-33.81
-45.33
-55.04
-62.69
-68.55
-72.67
-75.18
-76.01
-74.9
-71.62
-66.1
-58.71
-50.19
-41.54
-33.47
-26.3
-19.82
-13.47
-6.63
1.01
9.22
17.4
24.83
31.11
36.18
40.23
43.51
46.02
47.53
47.6
45.91
42.36
37
29.98
21.33
11.02
-0.92
-14.28
-28.56
-43.1
-57.24
-70.39
-81.95
-91.22
-97.38
-99.69
-97.86
-92.36
-84.47
-75.75
-67.44
-59.87
-52.45
-44.05
-33.74
-21.39
-7.8
5.62
17.45
26.73
33.16
36.94
38.5
38.31
36.85
34.62
32.12
29.78
27.89
26.48
25.45
24.62
23.81
22.89
21.69
20.1
18.06
15.76
13.52
11.77
10.78
10.62
11.13
12.05
13.2
14.4
15.54
16.31
16.34
15.19
12.57
8.39
2.8
-3.78
-10.79
-17.46
-22.97
-26.58
-27.89
-27.07
-24.83
-22.3
-20.54
-20.18
-21.2
-23.02
-24.82
-25.82
-25.61
-24.08
-21.37
-17.7
-13.32
-8.45
-3.41
1.5
5.89
9.49
12.16
13.88
14.78
14.96
14.45
13.14
10.89
7.64
3.48
-1.22
-5.96
-10.21
-13.59
-15.99
-17.55
-18.53
-19.21
-19.77
-20.16
-20.15
-19.37
-17.5
-14.34
-9.99
-4.81
0.64
5.72
9.86
12.71
14.13
14.21
13.24
11.7
10.09
8.85
8.2
8.18
8.65
9.38
10.19
10.89
11.29
11.2
10.44
8.95
6.79
4.07
0.93
-2.62
-6.62
-11.12
-16.09
-21.3
-26.4
-31.05
-34.95
-37.98
-40.15
-41.58
-42.4
-42.7
-42.53
-41.82
-40.47
-38.38
-35.53
-31.93
-27.6
-22.47
-16.38
-9.05
-0.24
10.08
21.55
33.43
44.65
54.02
60.56
63.77
63.76
61.28
57.41
53.31
49.82
47.28
45.53
44.2
42.93
41.59
40.24
39.01
37.97
37.08
36.29
35.6
35.04
34.64
34.26
33.66
32.55
30.8
28.51
25.95
23.42
21.06
18.8
16.44
13.91
11.23
8.56
6.08
3.87
1.92
0.22
-1.22
-2.3
-2.92
-3.05
-2.8
-2.4
-2.19
-2.45
-3.35
-4.84
-6.69
-8.57
-10.13
-11.11
-11.39
-10.95
-9.85
-8.24
-6.25
-4.11
-2.09
-0.57
0.08
-0.4
-2.01
-4.42
-7.05
-9.18
-10.34
-10.38
-9.63
-8.65
-8.04
-8.15
-9.03
-10.48
-12.23
-14.09
-16.01
-18.04
-20.17
-22.27
-24.04
-25.14
-25.23
-24.19
-22.2
-19.69
-17.21
-15.27
-14.1
-13.67
-13.7
-13.89
-14.02
-14.06
-14.11
-14.32
-14.87
-15.87
-17.37
-19.32
-21.53
-23.59
-24.95
-25.07
-23.66
-20.7
-16.53
-11.67
-6.61
-1.74
2.79
6.92
10.57
13.6
15.84
17.28
18.04
18.44
18.76
19.09
19.25
18.87
17.69
15.7
13.16
10.38
7.48
4.24
0.22
-4.93
-11.18
-17.99
-24.54
-29.94
-33.51
-34.87
-33.82
-30.41
-24.86
-17.71
-9.69
-1.56
6.13
13.21
19.74
25.79
31.17
35.4
37.8
37.86
35.37
30.52
23.88
16.18
8.31
1.12
-4.68
-8.68
-10.9
-11.74
-11.75
-11.38
-10.85
-10.14
-9.17
-7.89
-6.37
-4.77
-3.19
-1.77
-0.59
0.28
0.73
0.75
0.43
-0.05
-0.49
-0.71
-0.71
-0.65
-0.85
-1.59
-2.96
-4.79
-6.59
-7.8
-7.95
-6.96
-5.04
-2.69
-0.39
1.59
3.17
4.48
5.65
6.81
7.95
9.05
9.96
10.58
10.73
10.35
9.47
8.21
6.77
5.38
4.21
3.35
2.84
2.64
2.7
2.96
3.38
3.94
4.61
5.26
5.57
5.12
3.6
0.92
-2.6
-6.39
-9.82
-12.46
-14.28
-15.57
-16.71
-17.94
-19.16
-19.99
-19.99
-18.85
-16.55
-13.38
-9.76
-6.17
-2.93
-0.2
2.06
3.94
5.55
6.92
8
8.7
8.98
8.92
8.62
8.27
8.01
7.91
7.91
7.87
7.7
7.29
6.68
5.98
5.36
5.03
5.05
5.32
5.58
5.44
4.64
3.07
0.87
-1.68
-4.21
-6.5
-8.44
-10.08
-11.53
-12.86
-14.05
-14.88
-15.05
-14.24
-12.27
-9.27
-5.58
-1.66
2.05
5.28
7.9
9.86
11.17
11.84
12.01
11.92
11.84
11.93
12.18
12.4
12.34
11.86
10.99
9.93
8.91
8.09
7.54
7.26
7.16
7.15
7.06
6.7
5.87
4.49
2.62
0.51
-1.51
-3.17
-4.36
-5.18
-5.84
-6.51
-7.29
-8.06
-8.6
-8.62
-7.97
-6.58
-4.52
-1.93
1.01
4.07
6.89
9.09
10.33
10.43
9.51
7.88
5.92
3.97
2.22
0.69
-0.58
-1.51
-2.01
-2.04
-1.73
-1.33
-1.13
-1.32
-1.94
-2.88
-3.95
-4.98
-5.86
-6.52
-6.95
-7.18
-7.28
-7.36
-7.48
-7.64
-7.77
-7.78
-7.62
-7.31
-6.95
-6.74
-6.82
-7.32
-8.16
-9.09
-9.67
-9.47
-8.22
-5.99
-3.16
-0.26
2.26
4.27
5.82
7.1
8.04
8.45
8.06
6.83
5.02
3.12
1.57
0.54
-0.05
-0.45
-0.8
-1.03
-0.95
-0.44
0.39
1.27
1.84
1.89
1.38
0.4
-0.95
-2.55
-4.25
-5.84
-7.05
-7.67
-7.62
-7.07
-6.34
-5.76
-5.62
-6
-6.8
-7.8
-8.69
-9.06
-8.6
-7.12
-4.67
-1.62
1.45
3.99
5.68
6.57
7
7.4
7.98
8.67
9.2
9.27
8.78
7.84
6.7
5.55
4.48
3.43
2.31
1.09
-0.25
-1.69
-3.23
-4.91
-6.76
-8.77
-10.86
-12.94
-14.89
-16.59
-17.95
-18.95
-19.59
-19.92
-20
-19.87
-19.59
-19.18
-18.79
-18.6
-18.78
-19.39
-20.28
-21.09
-21.37
-20.74
-18.97
-16.14
-12.55
-8.63
-4.81
-1.44
1.32
3.44
4.99
6.22
7.39
8.76
10.52
12.61
14.82
16.78
18.23
19.08
19.58
20.1
20.97
22.21
23.51
24.42
24.6
24.01
22.89
21.64
20.48
19.42
18.17
16.41
13.92
10.8
7.36
4.01
1.1
-1.25
-3.14
-4.79
-6.42
-8.13
-9.77
-10.98
-11.31
-10.33
-7.88
-4.07
0.74
6.05
11.43
16.65
21.64
26.36
30.65
34.23
36.77
38.08
38.17
37.25
35.59
33.28
30.27
26.33
21.25
15
7.72
-0.34
-8.91
-17.74
-26.72
-35.71
-44.5
-52.73
-59.85
-65.23
-68.38
-69.08
-67.47
-63.97
-59.13
-53.42
-47.21
-40.78
-34.47
-28.65
-23.71
-19.86
-17.09
-15.13
-13.64
-12.18
-10.34
-7.75
-4.12
0.64
6.39
12.75
19.2
25.2
30.35
34.39
37.19
38.69
38.96
38.26
36.97
35.63
34.62
34.16
34.32
35.08
36.48
38.57
41.39
44.84
48.71
52.77
56.88
61
65
68.52
70.81
70.89
67.97
61.77
52.81
42.18
31.14
20.67
11.2
2.66
-5.21
-12.57
-19.36
-25.43
-30.78
-35.61
-40.27
-44.99
-49.68
-53.86
-56.88
-58.26
-57.94
-56.34
-54.17
-52.11
-50.55
-49.51
-48.72
-47.84
-46.59
-44.87
-42.71
-40.15
-37.18
-33.68
-29.46
-24.39
-18.52
-12.11
-5.57
0.57
5.89
10.21
13.56
16.17
18.25
19.88
21
21.44
21.02
19.68
17.45
14.46
10.85
6.77
2.41
-2.03
-6.27
-10.1
-13.35
-16.07
-18.5
-21.05
-24.05
-27.54
-31.17
-34.13
-35.6
-34.99
-32.37
-28.38
-24
-20.11
-17.08
-14.83
-13.02
-11.39
-9.96
-8.97
-8.65
-8.91
-9.37
-9.51
-8.95
-7.63
-5.76
-3.59
-1.25
1.43
4.75
8.95
14.01
19.56
25.02
29.91
33.88
36.78
38.5
38.92
37.88
35.34
31.53
26.95
22.29
18.09
14.57
11.59
8.86
6.04
3.12
0.31
-1.98
-3.37
-3.58
-2.48
-0.12
3.32
7.51
12.01
16.29
19.88
22.43
23.82
24.05
23.26
21.68
19.6
17.38
15.47
14.17
13.63
13.63
13.74
13.4
12.31
10.49
8.31
6.31
4.91
4.18
3.82
3.34
2.22
0.23
-2.55
-5.74
-8.91
-11.73
-14.09
-16.18
-18.29
-20.71
-23.6
-26.92
-30.45
-33.81
-36.55
-38.12
-38.04
-35.97
-31.92
-26.32
-19.91
-13.55
-7.89
-3.24
0.54
3.77
6.75
9.51
11.87
13.59
14.58
15.01
15.14
15.24
15.34
15.34
15.03
14.34
13.38
12.38
11.54
10.86
10.16
9.16
7.68
5.7
3.37
0.9
-1.53
-3.87
-6.06
-8.07
-9.83
-11.31
-12.53
-13.68
-14.98
-16.54
-18.19
-19.51
-19.83
-18.6
-15.62
-11.09
-5.67
-0.19
4.63
8.44
11.31
13.53
15.42
17.08
18.34
18.89
18.49
17.18
15.25
13.18
11.27
9.57
7.89
5.96
3.67
1.23
-0.95
-2.49
-3.15
-3.03
-2.48
-1.83
-1.34
-1.08
-0.96
-0.88
-0.78
-0.65
-0.51
-0.39
-0.37
-0.57
-1.15
-2.25
-3.88
-5.92
-8.12
-10.21
-11.97
-13.23
-13.8
-13.44
-11.97
-9.33
-5.7
-1.59
2.35
5.54
7.63
8.61
8.75
8.38
7.78
7.11
6.48
5.93
5.59
5.56
5.88
6.52
7.34
8.19
9
9.74
10.39
10.89
11.13
10.95
10.25
9.07
7.63
6.25
5.25
4.7
4.46
4.21
3.62
2.53
1.05
-0.5
-1.74
-2.42
-2.52
-2.27
-1.98
-1.87
-2.06
-2.56
-3.33
-4.36
-5.57
-6.82
-7.8
-8.14
-7.5
-5.78
-3.21
-0.33
2.18
3.72
3.98
3.04
1.27
-0.89
-3.15
-5.48
-7.97
-10.69
-13.36
-15.35
-15.91
-14.49
-11.11
-6.37
-1.2
3.58
7.52
10.65
13.25
15.59
17.7
19.34
20.21
20.18
19.41
18.25
17.12
16.22
15.48
14.63
13.3
11.33
8.82
6.11
3.56
1.41
-0.38
-2.01
-3.68
-5.5
-7.39
-9.13
-10.58
-11.7
-12.55
-13.13
-13.36
-12.97
-11.73
-9.54
-6.59
-3.28
-0.12
2.45
4.24
5.31
5.9
6.29
6.69
7.14
7.51
7.66
7.44
6.92
6.3
5.86
5.83
6.22
6.87
7.47
7.79
7.74
7.43
7.03
6.7
6.45
6.19
5.77
5.11
4.21
3.11
1.91
0.72
-0.34
-1.23
-1.96
-2.64
-3.4
-4.35
-5.45
-6.61
-7.74
-8.8
-9.89
-11.11
-12.47
-13.84
-14.97
-15.68
-15.95
-15.89
-15.61
-15.09
-14.15
-12.49
-9.97
-6.68
-2.97
0.7
3.93
6.49
8.33
9.48
10.04
10.1
9.78
9.25
8.67
8.17
7.81
7.56
7.36
7.13
6.81
6.37
5.83
5.25
4.74
4.44
4.35
4.4
4.39
4.05
3.21
1.86
0.14
-1.64
-3.14
-4.12
-4.51
-4.47
-4.33
-4.47
-5.13
-6.32
-7.76
-9.04
-9.86
-10.16
-10.14
-10.18
-10.55
-11.39
-12.59
-13.96
-15.28
-16.31
-16.77
-16.36
-14.83
-12.16
-8.62
-4.73
-1.07
1.97
4.31
6.14
7.75
9.32
10.82
12.08
12.89
13.15
12.89
12.31
11.63
11.06
10.66
10.41
10.19
9.89
9.42
8.76
7.93
6.99
5.93
4.73
3.38
1.95
0.53
-0.79
-1.96
-3.03
-4.06
-5.07
-5.96
-6.57
-6.77
-6.54
-6.03
-5.49
-5.15
-5.13
-5.37
-5.77
-6.22
-6.72
-7.27
-7.75
-7.86
-7.11
-5.05
-1.44
3.53
9.3
15.07
20.07
23.71
25.65
25.73
24.06
20.93
16.8
12.23
7.76
3.71
0.14
-3.09
-6.12
-8.91
-11.19
-12.64
-12.94
-12.07
-10.17
-7.62
-4.84
-2.21
-0.04
1.49
2.29
2.5
2.31
1.99
1.7
1.46
1.12
0.47
-0.63
-2.14
-3.81
-5.34
-6.52
-7.34
-7.97
-8.68
-9.71
-11.11
-12.77
-14.47
-15.98
-17.05
-17.47
-17
-15.43
-12.71
-8.96
-4.49
0.26
4.84
8.93
12.36
15.08
17.14
18.59
19.52
20.03
20.31
20.62
21.23
22.31
23.84
25.64
27.4
28.84
29.83
30.52
31.26
32.46
34.4
37.17
40.56
44.21
47.68
50.66
53.08
55.18
57.43
60.34
64.21
68.85
73.62
77.53
79.61
79.27
76.42
71.58
65.55
59.14
52.83
46.56
39.86
32.06
22.8
12.39
1.9
-7.22
-13.73
-17.27
-18.74
-20.09
-23.77
-31.99
-46.01
-65.82
-89.88
-115.29
-138.35
-155.59
-164.92
-166.57
-163.03
-158.17
-155.53
-156.75
-160.97
-165.31
-166.49
-162.5
-153.49
-141.61
-129.89
-121.06
-116.65
-116.71
-120.06
-124.78
-128.88
-130.8
-129.65
-125.31
-117.94
-107.52
-93.53
-75.18
-52.08
-25.06
3.55
30.54
53.14
70.32
83.28
94.52
106.19
118.56
129.78
136.89
137.45
130.94
118.88
103.93
88.36
73.11
57.77
41.58
24.6
8.24
-5.07
-12.91
-14.11
-9.38
-1.01
7.98
15
18.6
18.72
16.41
13.21
10.45
8.87
8.57
9.16
10.12
11.17
12.41
14.06
16.32
19.04
21.75
23.9
25.13
25.32
24.62
23.31
21.72
20.22
19.2
19.08
20.15
22.41
25.48
28.71
31.39
33.08
33.73
33.6
33.03
32.28
31.42
30.42
29.26
27.96
26.54
25
23.22
21.06
18.54
15.81
13.22
11.12
9.8
9.31
9.57
10.34
11.33
12.21
12.59
12.11
10.56
7.9
4.31
0.11
-4.34
-8.75
-12.93
-16.8
-20.38
-23.78
-27.21
-30.88
-34.85
-38.79
-42.02
-43.64
-42.93
-39.61
-34.02
-27.03
-19.58
-12.48
-6.06
-0.36
4.82
9.58
13.87
17.48
20.22
22.05
23.08
23.57
23.74
23.74
23.56
23.06
22.1
20.6
18.63
16.34
13.92
11.54
9.33
7.37
5.73
4.4
3.34
2.49
1.73
1.05
0.45
0.01
-0.19
-0.1
0.17
0.37
0.17
-0.68
-2.17
-3.94
-5.42
-6.02
-5.39
-3.58
-0.97
1.92
4.67
7.13
9.31
11.3
13.09
14.52
15.47
15.86
15.79
15.37
14.7
13.78
12.58
11.08
9.36
7.6
5.91
4.38
2.94
1.48
-0.11
-1.86
-3.69
-5.41
-6.8
-7.74
-8.23
-8.42
-8.55
-8.76
-9.13
-9.63
-10.19
-10.85
-11.69
-12.77
-13.89
-14.55
-14.08
-11.98
-8.18
-3.23
1.97
6.47
9.68
11.55
12.38
12.66
12.71
12.62
12.33
11.8
11.11
10.43
9.97
9.85
10.02
10.32
10.56
10.6
10.4
9.98
9.41
8.72
7.93
6.99
5.86
4.5
2.85
0.92
-1.23
-3.51
-5.78
-7.96
-10.02
-11.96
-13.84
-15.65
-17.3
-18.54
-19.03
-18.42
-16.46
-13.13
-8.66
-3.54
1.62
6.21
9.84
12.39
14.04
15.08
15.75
16.16
16.19
15.74
14.8
13.58
12.44
11.72
11.54
11.75
12.02
12
11.54
10.69
9.64
8.55
7.42
6.19
4.71
2.95
1
-0.94
-2.68
-4.11
-5.22
-6.15
-7.03
-8.04
-9.33
-10.98
-12.9
-14.9
-16.72
-18.06
-18.7
-18.49
-17.42
-15.56
-13
-9.88
-6.4
-2.79
0.66
3.64
6
7.67
8.76
9.46
9.94
10.29
10.51
10.59
10.56
10.53
10.64
10.97
11.48
12
12.26
12.04
11.25
9.94
8.29
6.56
4.9
3.36
1.92
0.48
-1.03
-2.61
-4.21
-5.73
-7.11
-8.31
-9.36
-10.3
-11.17
-12.01
-12.9
-13.95
-15.26
-16.87
-18.59
-20.01
-20.52
-19.56
-16.85
-12.56
-7.37
-2.16
2.22
5.3
7.11
8.05
8.61
9.14
9.73
10.22
10.41
10.22
9.71
9.04
8.38
7.79
7.35
7.09
7.02
7.14
7.36
7.52
7.43
6.98
6.14
4.94
3.46
1.75
-0.09
-1.96
-3.71
-5.19
-6.32
-7.14
-7.77
-8.38
-9.09
-9.95
-10.96
-12.09
-13.28
-14.4
-15.25
-15.57
-15.09
-13.67
-11.22
-7.84
-3.71
0.84
5.38
9.4
12.48
14.39
15.14
15.03
14.42
13.65
12.85
11.95
10.85
9.51
7.99
6.46
5.09
3.96
3.09
2.45
2.08
2.01
2.22
2.57
2.8
2.61
1.74
0.14
-2.05
-4.53
-6.94
-9
-10.57
-11.65
-12.39
-12.96
-13.5
-14.06
-14.64
-15.18
-15.61
-15.87
-15.87
-15.46
-14.48
-12.71
-9.99
-6.3
-1.8
3.21
8.3
12.97
16.71
19.14
20.04
19.46
17.65
15.04
12.08
9.18
6.63
4.58
3.11
2.24
1.91
2.05
2.5
3.11
3.75
4.29
4.65
4.75
4.5
3.83
2.68
1.06
-0.97
-3.34
-5.86
-8.31
-10.47
-12.18
-13.44
-14.39
-15.29
-16.38
-17.7
-19.1
-20.18
-20.51
-19.76
-17.83
-14.89
-11.34
-7.68
-4.43
-2.06
-0.78
-0.53
-0.95
-1.53
-1.8
-1.51
-0.64
0.63
2.09
3.56
4.98
6.24
7.26
7.97
8.42
8.86
9.66
11.06
13.09
15.45
17.67
19.4
20.57
21.35
22.05
22.84
23.67
24.22
24.16
23.25
21.52
19.24
16.91
15.1
14.31
14.77
16.4
18.82
21.43
23.62
24.92
25.13
24.32
22.68
20.46
17.96
15.46
13.15
11.2
9.62
8.26
6.93
5.53
4.06
2.68
1.53
0.61
-0.24
-1.33
-2.95
-5.19
-8.01
-11.17
-14.45
-17.7
-20.79
-23.6
-26.01
-27.91
-29.22
-30.01
-30.42
-30.47
-30.11
-29.04
-26.97
-23.66
-19.23
-14.09
-8.92
-4.44
-1.15
0.8
1.67
1.94
2.05
2.25
2.47
2.42
1.81
0.59
-1.06
-2.74
-4.07
-4.87
-5.19
-5.34
-5.64
-6.36
-7.56
-9.16
-11.01
-12.95
-14.8
-16.37
-17.37
-17.6
-17.05
-16.02
-15.05
-14.75
-15.47
-17.07
-19.05
-20.75
-21.79
-22.32
-22.88
-24.12
-26.38
-29.38
-32.38
-34.47
-34.99
-33.72
-30.83
-26.62
-21.26
-14.79
-7.22
1.18
9.77
17.62
23.85
27.97
30.01
30.45
29.9
28.78
27.17
24.89
21.74
17.7
13.08
8.35
3.93
0.09
-3.2
-6.08
-8.64
-10.73
-12.07
-12.38
-11.62
-10.09
-8.28
-6.67
-5.44
-4.43
-3.29
-1.71
0.39
2.71
4.76
6.12
6.62
6.48
6.14
6.04
6.34
6.87
7.18
6.89
5.83
4.26
2.61
1.34
0.61
0.34
0.3
0.32
0.42
0.69
1.15
1.62
1.81
1.44
0.56
-0.5
-1.17
-0.99
0.16
2.03
4.06
5.72
6.63
6.73
6.16
5.09
3.69
1.99
-0.02
-2.28
-4.63
-6.75
-8.27
-8.78
-8.12
-6.34
-3.82
-1.12
1.28
3.15
4.6
5.88
7.23
8.57
9.58
9.83
8.99
7.01
4.1
0.58
-3.18
-6.85
-10.13
-12.69
-14.24
-14.66
-13.99
-12.47
-10.4
-8.05
-5.51
-2.78
0.12
3.14
6.09
8.71
10.7
11.91
12.29
12
11.28
10.42
9.63
8.98
8.38
7.68
6.73
5.49
4.12
2.84
1.92
1.55
1.77
2.44
3.28
4.04
4.47
4.43
3.85
2.68
0.91
-1.4
-3.98
-6.41
-8.14
-8.71
-7.87
-5.76
-2.79
0.52
3.72
6.55
8.91
10.8
12.22
13.18
13.74
14.05
14.27
14.55
14.84
15
14.81
14.14
13.01
11.62
10.27
9.28
8.84
9.03
9.82
11.06
12.52
13.91
14.92
15.35
15.19
14.54
13.65
12.77
12.09
11.66
11.38
11.08
10.54
9.62
8.31
6.65
4.77
2.76
0.64
-1.58
-3.94
-6.34
-8.68
-10.83
-12.69
-14.21
-15.37
-16.04
-16.02
-15.08
-13.2
-10.59
-7.79
-5.41
-3.95
-3.59
-4.16
-5.26
-6.42
-7.25
-7.53
-7.23
-6.38
-5.04
-3.25
-1.06
1.47
4.28
7.26
10.31
13.36
16.38
19.37
22.3
24.94
26.85
27.5
26.43
23.51
19.06
13.81
8.59
3.92
-0.24
-4.59
-10.18
-18
-28.62
-41.85
-56.89
-72.45
-87.07
-99.37
-108.2
-112.77
-112.71
-108.22
-100.13
-89.97
-79.67
-71.13
-65.67
-63.48
-63.32
-62.6
-58.01
-46.6
-26.9
0.35
32.31
64.91
94.14
117.24
133.16
142.38
146
145.09
140.34
132.28
121.66
109.69
97.76
86.97
77.63
69.2
60.55
50.57
38.67
24.94
10.16
-4.64
-18.43
-30.34
-39.81
-46.5
-50.29
-51.27
-49.79
-46.39
-41.68
-36.27
-30.58
-24.89
-19.33
-13.96
-8.83
-3.99
0.39
4.05
6.51
7.18
5.45
1.02
-5.84
-14.36
-23.49
-32.3
-40.32
-47.59
-54.4
-60.94
-67.01
-71.98
-75.11
-75.81
-73.86
-69.51
-63.25
-55.54
-46.7
-36.88
-26.22
-15.05
-3.91
6.78
16.95
26.99
37.7
49.65
62.75
75.91
87.26
94.93
97.85
96.28
91.62
85.94
81.14
78.44
78.25
80.27
83.77
87.82
91.36
93.39
93.05
89.78
83.4
74.02
61.83
46.82
28.76
7.36
-17.29
-44.35
-72.15
-98.42
-120.88
-137.69
-147.92
-151.59
-149.45
-142.68
-132.62
-120.61
-107.9
-95.54
-84.25
-74.34
-65.79
-58.41
-52.12
-47.06
-43.57
-41.9
-41.94
-43.21
-44.84
-45.97
-45.95
-44.48
-41.64
-37.68
-32.91
-27.53
-21.7
-15.47
-8.91
-2.11
4.82
11.74
18.5
24.9
30.72
35.66
39.39
41.54
41.9
40.45
37.44
33.36
28.8
24.26
20.09
16.43
13.27
10.58
8.39
6.82
6.08
6.34
7.65
9.92
12.91
16.28
19.67
22.81
25.56
27.91
29.9
31.45
32.34
32.24
30.85
28.1
24.21
19.57
14.63
9.75
5.16
0.99
-2.61
-5.46
-7.29
-8.01
-7.63
-6.39
-4.6
-2.63
-0.76
0.81
1.91
2.5
2.61
2.35
1.9
1.41
0.89
0.26
-0.67
-2.08
-3.95
-6.09
-8.16
-9.77
-10.62
-10.59
-9.66
-7.91
-5.52
-2.72
0.2
2.97
5.38
7.3
8.74
9.78
10.53
11.05
11.4
11.62
11.75
11.87
12.02
12.27
12.56
12.79
12.83
12.58
11.95
10.92
9.57
8.02
6.51
5.25
4.37
3.8
3.25
2.26
0.38
-2.62
-6.62
-11.13
-15.43
-18.84
-21.01
-21.97
-22.09
-21.81
-21.44
-21.06
-20.55
-19.7
-18.36
-16.44
-14
-11.14
-7.97
-4.68
-1.4
1.74
4.64
7.33
9.81
12.08
14.07
15.65
16.67
17.07
16.86
16.15
15.18
14.14
13.14
12.08
10.71
8.74
6.02
2.65
-1.01
-4.53
-7.53
-9.83
-11.46
-12.53
-13.13
-13.23
-12.8
-11.81
-10.39
-8.81
-7.34
-6.23
-5.56
-5.28
-5.24
-5.29
-5.28
-5.12
-4.75
-4.06
-2.95
-1.35
0.75
3.22
5.84
8.32
10.45
12.02
12.96
13.24
12.89
12.05
10.91
9.6
8.2
6.65
4.79
2.56
0.04
-2.5
-4.67
-6.07
-6.5
-6.02
-4.89
-3.53
-2.27
-1.32
-0.66
-0.14
0.41
1.1
1.9
2.77
3.71
4.85
6.36
8.44
11.14
14.3
17.58
20.55
22.81
24.14
24.52
24.08
23.04
21.59
19.74
17.44
14.63
11.34
7.72
4.06
0.59
-2.54
-5.31
-7.71
-9.58
-10.57
-10.25
-8.27
-4.63
0.26
5.66
10.77
15.05
18.39
21.04
23.32
25.4
27.17
28.35
28.71
28.22
27.05
25.48
23.67
21.57
19.08
16.19
13.09
10.16
7.77
6.13
5.21
4.83
4.82
5.07
5.56
6.26
7.11
7.94
8.6
8.92
8.86
8.43
7.77
7.07
6.5
6.23
6.26
6.46
6.57
6.3
5.47
4.1
2.34
0.46
-1.35
-3.05
-4.78
-6.75
-9.17
-12.08
-15.32
-18.55
-21.38
-23.48
-24.78
-25.36
-25.48
-25.42
-25.36
-25.38
-25.53
-25.85
-26.44
-27.4
-28.71
-30.2
-31.66
-32.9
-33.84
-34.56
-35.07
-35.22
-34.6
-32.67
-29.04
-23.71
-17.2
-10.33
-3.96
1.34
5.48
8.76
11.61
14.44
17.38
20.36
23.12
25.45
27.23
28.54
29.65
30.91
32.6
34.84
37.48
40.2
42.63
44.44
45.42
45.48
44.6
42.76
40.04
36.59
32.7
28.58
24.33
19.84
14.89
9.34
3.31
-2.79
-8.38
-13.01
-16.53
-19.16
-21.28
-23.25
-25.3
-27.48
-29.89
-32.78
-36.53
-41.44
-47.49
-54.24
-60.87
-66.54
-70.57
-72.62
-72.68
-70.77
-66.84
-60.85
-52.83
-43.17
-32.57
-21.78
-11.38
-1.52
8.01
17.58
27.35
37.19
46.62
55.08
62.05
67.18
70.27
71.19
69.82
66.03
59.78
51.15
40.44
28.14
14.89
1.4
-11.59
-23.49
-33.8
-42.15
-48.27
-51.92
-53.01
-51.57
-47.82
-42.16
-35.02
-26.82
-17.93
-8.73
0.33
8.75
16.03
21.84
26.04
28.71
30.01
30.1
29.05
26.89
23.7
19.73
15.33
10.87
6.61
2.65
-1.15
-4.94
-8.87
-12.97
-17.07
-20.98
-24.49
-27.49
-29.92
-31.75
-32.89
-33.29
-32.92
-31.9
-30.41
-28.58
-26.44
-23.82
-20.51
-16.43
-11.72
-6.74
-1.91
2.44
6.31
9.87
13.36
16.94
20.55
24.06
27.28
30.08
32.41
34.31
35.86
37.17
38.36
39.39
40.07
40.03
38.81
36.13
32
26.82
21.18
15.65
10.57
6.08
2.22
-0.9
-3.09
-4.21
-4.26
-3.53
-2.42
-1.32
-0.4
0.38
1.11
1.81
2.31
2.36
1.8
0.64
-1
-2.95
-5.13
-7.6
-10.42
-13.61
-17.16
-21.06
-25.39
-30.4
-36.34
-43.3
-51.07
-59
-66.25
-71.91
-75.31
-76.03
-73.85
-68.72
-60.61
-49.75
-36.61
-22.02
-7.06
7.22
20.07
31.1
40.28
47.8
53.79
58.34
61.43
63.05
63.26
62.19
59.92
56.47
51.87
46.11
39.41
32.12
24.73
17.74
11.54
6.37
2.26
-0.9
-3.36
-5.45
-7.57
-10.02
-12.94
-16.24
-19.64
-22.88
-25.89
-28.91
-32.25
-36.06
-40.01
-43.26
-44.76
-43.67
-39.8
-33.71
-26.49
-19.28
-12.91
-7.73
-3.64
-0.36
2.58
5.69
9.58
14.88
21.93
30.57
39.96
48.76
55.5
59.1
59.19
56.22
51.11
44.97
38.68
32.81
27.66
23.27
19.62
16.59
13.97
11.4
8.46
4.74
0.02
-5.56
-11.54
-17.11
-21.43
-23.92
-24.44
-23.32
-21.19
-18.68
-16.19
-13.91
-11.81
-9.85
-8.02
-6.39
-5.14
-4.43
-4.41
-5.14
-6.57
-8.51
-10.67
-12.7
-14.3
-15.38
-15.94
-16.12
-16.04
-15.79
-15.4
-14.89
-14.36
-13.91
-13.67
-13.7
-13.96
-14.36
-14.86
-15.43
-16.14
-17.01
-17.93
-18.62
-18.66
-17.65
-15.42
-12.02
-7.85
-3.42
0.75
4.36
7.32
9.77
11.83
13.51
14.66
15.05
14.54
13.23
