2023-01-30 09:32:30.090063,-0.012044310569763099
2023-01-30 09:32:30.095063,-0.026795579798864037
2023-01-30 09:32:30.100063,0.003966689109802201
2023-01-30 09:32:30.105063,0.019692280338328264
2023-01-30 09:32:30.110063,0.004062851425260305
2023-01-30 09:32:30.115063,-0.011844324172956333
2023-01-30 09:32:30.120063,-0.01310209464281787
2023-01-30 09:32:30.125063,-0.017982507795497458
2023-01-30 09:32:30.130063,-0.03550788015127177
2023-01-30 09:32:30.135063,-0.04927263049659784
2023-01-30 09:32:30.140063,-0.049571596086025196
2023-01-30 09:32:30.145063,-0.04832706824788185
2023-01-30 09:32:30.150063,-0.05385081097483627
2023-01-30 09:32:30.155063,-0.05743525167412716
2023-01-30 09:32:30.160063,-0.05339404195547097
2023-01-30 09:32:30.165063,-0.050213615459972515
2023-01-30 09:32:30.170063,-0.05365848541259758
2023-01-30 09:32:30.175063,-0.05725064668765353
2023-01-30 09:32:30.180063,-0.0562789067625999
2023-01-30 09:32:30.185063,-0.05480362464253511
2023-01-30 09:32:30.190063,-0.0530574731528759
2023-01-30 09:32:30.195063,-0.04325663880249903
2023-01-30 09:32:30.200063,-0.023271244019269867
2023-01-30 09:32:30.205063,-0.0006472079765496517
2023-01-30 09:32:30.210063,0.020626783370971603
2023-01-30 09:32:30.215063,0.04270180309925536
2023-01-30 09:32:30.220063,0.05918781086802475
2023-01-30 09:32:30.225063,0.05319092339215485
2023-01-30 09:32:30.230063,0.016852419823408078
2023-01-30 09:32:30.235063,-0.03866363026698345
2023-01-30 09:32:30.240063,-0.09707570075988758
2023-01-30 09:32:30.245063,-0.14871135694289941
2023-01-30 09:32:30.250063,-0.1845351904630661
2023-01-30 09:32:30.255063,-0.19308965505371423
2023-01-30 09:32:30.260063,-0.17222642898559565
2023-01-30 09:32:30.265063,-0.13458925705194952
2023-01-30 09:32:30.270063,-0.09469568729400629
2023-01-30 09:32:30.275063,-0.05820844880039035
2023-01-30 09:32:30.280063,-0.02764662168920044
2023-01-30 09:32:30.285063,-0.008065593963535112
2023-01-30 09:32:30.290063,-0.0004567702708300582
2023-01-30 09:32:30.295063,0.0021592965719273516
2023-01-30 09:32:30.300063,0.005721648689359388
2023-01-30 09:32:30.305063,0.008756114494173744
2023-01-30 09:32:30.310063,0.009303689002990684
2023-01-30 09:32:30.315063,0.010620569140678071
2023-01-30 09:32:30.320063,0.015073418617248459
2023-01-30 09:32:30.325063,0.019422654707039858
2023-01-30 09:32:30.330063,0.02117971703410139
2023-01-30 09:32:30.335063,0.023354334296145376
2023-01-30 09:32:30.340063,0.028391879051923693
2023-01-30 09:32:30.345063,0.03354175605283151
2023-01-30 09:32:30.350063,0.03658970445394506
2023-01-30 09:32:30.355063,0.04029289522407966
2023-01-30 09:32:30.360063,0.0469271354377269
2023-01-30 09:32:30.365063,0.054080143914491334
2023-01-30 09:32:30.370063,0.059909027069807025
2023-01-30 09:32:30.375063,0.06714840469140665
2023-01-30 09:32:30.380063,0.0779634714126586
2023-01-30 09:32:30.385063,0.08997983769101313
2023-01-30 09:32:30.390063,0.10113855451345438
2023-01-30 09:32:30.395063,0.11344553488999061
2023-01-30 09:32:30.400063,0.1282562911510467
2023-01-30 09:32:30.405063,0.14268703867115487
2023-01-30 09:32:30.410063,0.15424410998821242
2023-01-30 09:32:30.415063,0.16437584342028802
2023-01-30 09:32:30.420063,0.17407755553722373
2023-01-30 09:32:30.425063,0.18054927565782114
2023-01-30 09:32:30.430063,0.1815541684627532
2023-01-30 09:32:30.435063,0.17874423686965119
2023-01-30 09:32:30.440063,0.17350058257579798
2023-01-30 09:32:30.445063,0.16376192862047304
2023-01-30 09:32:30.450063,0.14811377227306358
2023-01-30 09:32:30.455063,0.1289259137375657
2023-01-30 09:32:30.460063,0.1084468811750411
2023-01-30 09:32:30.465063,0.08579803019452355
2023-01-30 09:32:30.470063,0.06072640419006338
2023-01-30 09:32:30.475063,0.03635915526965212
2023-01-30 09:32:30.480063,0.015289783477783245
2023-01-30 09:32:30.485063,-0.0033868541394896875
2023-01-30 09:32:30.490063,-0.020506581291556285
2023-01-30 09:32:30.495063,-0.03410218598253194
2023-01-30 09:32:30.500063,-0.04291236400604231
2023-01-30 09:32:30.505063,-0.048965001986037635
2023-01-30 09:32:30.510063,-0.05401909351348869
2023-01-30 09:32:30.515063,-0.056913319207525605
2023-01-30 09:32:30.520063,-0.0569280013442039
2023-01-30 09:32:30.525063,-0.056271270381459106
2023-01-30 09:32:30.530063,-0.056687593460083015
2023-01-30 09:32:30.535063,-0.05690511781294885
2023-01-30 09:32:30.540063,-0.05582213401794428
2023-01-30 09:32:30.545063,-0.054924179576608875
2023-01-30 09:32:30.550063,-0.055197082459926564
2023-01-30 09:32:30.555063,-0.05489319802870324
2023-01-30 09:32:30.560063,-0.052720904350280665
2023-01-30 09:32:30.565063,-0.05018607385187453
2023-01-30 09:32:30.570063,-0.04858593270182602
2023-01-30 09:32:30.575063,-0.04675918879861401
2023-01-30 09:32:30.580063,-0.0439701490104198
2023-01-30 09:32:30.585063,-0.041975680121121746
2023-01-30 09:32:30.590063,-0.042046904563903795
2023-01-30 09:32:30.595063,-0.04280606152231654
2023-01-30 09:32:30.600063,-0.04303256794810293
2023-01-30 09:32:30.605063,-0.043743414508371735
2023-01-30 09:32:30.610063,-0.045532785356044714
2023-01-30 09:32:30.615063,-0.04673147497082808
2023-01-30 09:32:30.620063,-0.04622995853424072
2023-01-30 09:32:30.625063,-0.045438940718509645
2023-01-30 09:32:30.630063,-0.04558086395263666
2023-01-30 09:32:30.635063,-0.04569013805916715
2023-01-30 09:32:30.640063,-0.04505197331309309
2023-01-30 09:32:30.645063,-0.04491735212500724
2023-01-30 09:32:30.650063,-0.04598955437541001
2023-01-30 09:32:30.655063,-0.04678176058874013
2023-01-30 09:32:30.660063,-0.04620591923594469
2023-01-30 09:32:30.665063,-0.04533953720402564
2023-01-30 09:32:30.670063,-0.04505197331309304
2023-01-30 09:32:30.675063,-0.04434634719658921
2023-01-30 09:32:30.680063,-0.042575798928737585
2023-01-30 09:32:30.685063,-0.04088177454690757
2023-01-30 09:32:30.690063,-0.03997942060232157
2023-01-30 09:32:30.695063,-0.038854455667550566
2023-01-30 09:32:30.700063,-0.03697435185313219
2023-01-30 09:32:30.705063,-0.03548685263615079
2023-01-30 09:32:30.710063,-0.035027068108320215
2023-01-30 09:32:30.715063,-0.03454423222101312
2023-01-30 09:32:30.720063,-0.03319998830556856
2023-01-30 09:32:30.725063,-0.031112242549348506
2023-01-30 09:32:30.730063,-0.027598541229963264
2023-01-30 09:32:30.735063,-0.021343248418759155
2023-01-30 09:32:30.740063,-0.012981891632079964
2023-01-30 09:32:30.745063,-0.004792893067711086
2023-01-30 09:32:30.750063,0.002644459484145007
2023-01-30 09:32:30.755063,0.01035336822174042
2023-01-30 09:32:30.760063,0.01699666306376451
2023-01-30 09:32:30.765063,0.01863942903756877
2023-01-30 09:32:30.770063,0.013679067604243726
2023-01-30 09:32:30.775063,0.004774167738117514
2023-01-30 09:32:30.780063,-0.005216797348111801
2023-01-30 09:32:30.785063,-0.0157934167270506
2023-01-30 09:32:30.790063,-0.02610802650451659
2023-01-30 09:32:30.795063,-0.03347346211527665
2023-01-30 09:32:30.800063,-0.03663778305053711
2023-01-30 09:32:30.805063,-0.03759498967457813
2023-01-30 09:32:30.810063,-0.03832062333822246
2023-01-30 09:32:30.815063,-0.03845996760444836
2023-01-30 09:32:30.820063,-0.0378157719969749
2023-01-30 09:32:30.825063,-0.03813685588024889
2023-01-30 09:32:30.830063,-0.040508311241865096
2023-01-30 09:32:30.835063,-0.04349350186222631
2023-01-30 09:32:30.840063,-0.04543662071228015
2023-01-30 09:32:30.845063,-0.04589004798463892
2023-01-30 09:32:30.850063,-0.04310468956828109
2023-01-30 09:32:30.855063,-0.033012745851067865
2023-01-30 09:32:30.860063,-0.013150176033377614
2023-01-30 09:32:30.865063,0.013875782648810545
2023-01-30 09:32:30.870063,0.04166225716471669
2023-01-30 09:32:30.875063,0.062262936442500576
2023-01-30 09:32:30.880063,0.0665682554244994
2023-01-30 09:32:30.885063,0.04674224932869429
2023-01-30 09:32:30.890063,0.002091526985168367
2023-01-30 09:32:30.895063,-0.0581688619575628
2023-01-30 09:32:30.900063,-0.11926512420177449
2023-01-30 09:32:30.905063,-0.1670884494024958
2023-01-30 09:32:30.910063,-0.19126653671264637
2023-01-30 09:32:30.915063,-0.18727970289842827
2023-01-30 09:32:30.920063,-0.15912434458732594
2023-01-30 09:32:30.925063,-0.11812274990599027
2023-01-30 09:32:30.930063,-0.07642488181591028
2023-01-30 09:32:30.935063,-0.04165919674406449
2023-01-30 09:32:30.940063,-0.01714090630412099
2023-01-30 09:32:30.945063,-0.0035833386487636194
2023-01-30 09:32:30.950063,0.0013222297420725274
2023-01-30 09:32:30.955063,0.00231601873693009
2023-01-30 09:32:30.960063,0.0030291080474852804
2023-01-30 09:32:30.965063,0.004063225345455625
2023-01-30 09:32:30.970063,0.005288918968289996
2023-01-30 09:32:30.975063,0.007721496821256911
2023-01-30 09:32:30.980063,0.01185198687016962
2023-01-30 09:32:30.985063,0.016462254181479563
2023-01-30 09:32:30.990063,0.020698904991149913
2023-01-30 09:32:30.995063,0.025388519925174796
2023-01-30 09:32:31.000063,0.03098825737833967
2023-01-30 09:32:31.005063,0.03629934413583564
2023-01-30 09:32:31.010063,0.040580432862043325
2023-01-30 09:32:31.015063,0.04493498460738641
2023-01-30 09:32:31.020063,0.05029281228780741
2023-01-30 09:32:31.025063,0.056035645946820936
2023-01-30 09:32:31.030063,0.06192843243479719
2023-01-30 09:32:31.035063,0.06936868743451399
2023-01-30 09:32:31.040063,0.07933378219604492
2023-01-30 09:32:31.045063,0.09098815037385853
2023-01-30 09:32:31.050063,0.10356664657592773
2023-01-30 09:32:31.055063,0.11764089565792372
2023-01-30 09:32:31.060063,0.13320863246917716
2023-01-30 09:32:31.065063,0.14848004458310324
2023-01-30 09:32:31.070063,0.16188900172710408
2023-01-30 09:32:31.075063,0.17345829557271508
2023-01-30 09:32:31.080063,0.1829725503921508
2023-01-30 09:32:31.085063,0.18876198578493508
2023-01-30 09:32:31.090063,0.18960773944854728
2023-01-30 09:32:31.095063,0.186009800854601
2023-01-30 09:32:31.100063,0.17835676670074457
2023-01-30 09:32:31.105063,0.16574985606642004
2023-01-30 09:32:31.110063,0.14792144298553458
2023-01-30 09:32:31.115063,0.12649418594701334
2023-01-30 09:32:31.120063,0.10310988128185268
2023-01-30 09:32:31.125063,0.07811066673458199
2023-01-30 09:32:31.130063,0.05221605300903322
2023-01-30 09:32:31.135063,0.027573851263619824
2023-01-30 09:32:31.140063,0.005817811004817434
2023-01-30 09:32:31.145063,-0.013214612190769092
2023-01-30 09:32:31.150063,-0.029714107513427707
2023-01-30 09:32:31.155063,-0.042694322078723604
2023-01-30 09:32:31.160063,-0.051735244691371904
2023-01-30 09:32:31.165063,-0.058112474906521355
2023-01-30 09:32:31.170063,-0.06296217441558832
2023-01-30 09:32:31.175063,-0.06602581604309495
2023-01-30 09:32:31.180063,-0.06731351464986796
2023-01-30 09:32:31.185063,-0.06818119797033723
2023-01-30 09:32:31.190063,-0.0695252418518066
2023-01-30 09:32:31.195063,-0.07060803943543968
2023-01-30 09:32:31.200063,-0.07082343101501459
2023-01-30 09:32:31.205063,-0.07091851687102461
2023-01-30 09:32:31.210063,-0.07135232537984838
2023-01-30 09:32:31.215063,-0.07120587632454799
2023-01-30 09:32:31.220063,-0.06990989297628399
2023-01-30 09:32:31.225063,-0.06838369009498618
2023-01-30 09:32:31.230063,-0.06733755767345419
2023-01-30 09:32:31.235063,-0.06613172425391395
2023-01-30 09:32:31.240063,-0.06442864984273909
2023-01-30 09:32:31.245063,-0.06326224976683878
2023-01-30 09:32:31.250063,-0.06329874694347377
2023-01-30 09:32:31.255063,-0.0636658227919253
2023-01-30 09:32:31.260063,-0.06361126899719233
2023-01-30 09:32:31.265063,-0.06368012386146713
2023-01-30 09:32:31.270063,-0.0641642063856124
2023-01-30 09:32:31.275063,-0.06407442668225498
2023-01-30 09:32:31.280063,-0.06281793117523188
2023-01-30 09:32:31.285063,-0.06130626742970972
2023-01-30 09:32:31.290063,-0.06029367446899409
2023-01-30 09:32:31.295063,-0.05919945676055834
2023-01-30 09:32:31.300063,-0.05764921754598608
2023-01-30 09:32:31.305063,-0.05655761851043231
2023-01-30 09:32:31.310063,-0.05654335021972641
2023-01-30 09:32:31.315063,-0.0568149069411185
2023-01-30 09:32:31.320063,-0.05673567578196521
2023-01-30 09:32:31.325063,-0.056989170334763466
2023-01-30 09:32:31.330063,-0.058130025863647385
2023-01-30 09:32:31.335063,-0.05947803724766453
2023-01-30 09:32:31.340063,-0.060486000031232764
2023-01-30 09:32:31.345063,-0.06171229042640425
2023-01-30 09:32:31.350063,-0.06341894716024385
2023-01-30 09:32:31.355063,-0.06468780392711211
2023-01-30 09:32:31.360063,-0.06493350118398661
2023-01-30 09:32:31.365063,-0.06485110218543301
2023-01-30 09:32:31.370063,-0.06493350118398655
2023-01-30 09:32:31.375063,-0.06453284515285905
2023-01-30 09:32:31.380063,-0.06329874694347379
2023-01-30 09:32:31.385063,-0.06200657628009863
2023-01-30 09:32:31.390063,-0.06099085137248024
2023-01-30 09:32:31.395063,-0.059232704280892154
2023-01-30 09:32:31.400063,-0.05591829866170881
2023-01-30 09:32:31.405063,-0.051433632709502845
2023-01-30 09:32:31.410063,-0.04598955437540996
2023-01-30 09:32:31.415063,-0.03889236118734204
2023-01-30 09:32:31.420063,-0.030194919556379346
2023-01-30 09:32:31.425063,-0.02161003173321708
2023-01-30 09:32:31.430063,-0.014857053756713782
2023-01-30 09:32:31.435063,-0.0105084054636043
2023-01-30 09:32:31.440063,-0.009183486923575387
2023-01-30 09:32:31.445063,-0.012127377218977458
2023-01-30 09:32:31.450063,-0.019496878609061203
2023-01-30 09:32:31.455063,-0.029495118808070146
2023-01-30 09:32:31.460063,-0.040147703140974024
2023-01-30 09:32:31.465063,-0.0505777380207727
2023-01-30 09:32:31.470063,-0.05986094474792482
2023-01-30 09:32:31.475063,-0.06640415329675557
2023-01-30 09:32:31.480063,-0.06957332789897903
2023-01-30 09:32:31.485063,-0.07050625639934523
2023-01-30 09:32:31.490063,-0.07036666572093958
2023-01-30 09:32:31.495063,-0.06919888584002376
2023-01-30 09:32:31.500063,-0.06728947162628172
2023-01-30 09:32:31.505063,-0.06600150817661803
2023-01-30 09:32:31.510063,-0.06615956872701641
2023-01-30 09:32:31.515063,-0.06688437851779622
2023-01-30 09:32:31.520063,-0.06671249866485593
2023-01-30 09:32:31.525063,-0.0642574172131666
2023-01-30 09:32:31.530063,-0.05702416226267805
2023-01-30 09:32:31.535063,-0.041664286488980205
2023-01-30 09:32:31.540063,-0.017285149544477435
2023-01-30 09:32:31.545063,0.011983934680169237
2023-01-30 09:32:31.550063,0.038104258477687794
2023-01-30 09:32:31.555063,0.05173608895477755
2023-01-30 09:32:31.560063,0.04435479640960688
2023-01-30 09:32:31.565063,0.011494408784906028
2023-01-30 09:32:31.570063,-0.04308065026998508
2023-01-30 09:32:31.575063,-0.1068455599006503
2023-01-30 09:32:31.580063,-0.16364395618438718
2023-01-30 09:32:31.585063,-0.2000644490490112
2023-01-30 09:32:31.590063,-0.20884017646312708
2023-01-30 09:32:31.595063,-0.19011155047293413
2023-01-30 09:32:31.600063,-0.15162369608879078
2023-01-30 09:32:31.605063,-0.10581296593425887
2023-01-30 09:32:31.610063,-0.06389975547790519
2023-01-30 09:32:31.615063,-0.03183064738392025
2023-01-30 09:32:31.620063,-0.010866324417293006
2023-01-30 09:32:31.625063,0.00035239915972204016
2023-01-30 09:32:31.630063,0.005144675727933593
2023-01-30 09:32:31.635063,0.0077685993832296175
2023-01-30 09:32:31.640063,0.010890364646911536
2023-01-30 09:32:31.645063,0.014531533849160462
2023-01-30 09:32:31.650063,0.01800636574625959
2023-01-30 09:32:31.655063,0.021507099652590837
2023-01-30 09:32:31.660063,0.025146406143903684
2023-01-30 09:32:31.665063,0.028200527261514802
2023-01-30 09:32:31.670063,0.030459364876151012
2023-01-30 09:32:31.675063,0.03296780783380808
2023-01-30 09:32:31.680063,0.03644546121358876
2023-01-30 09:32:31.685063,0.04031113159013963
2023-01-30 09:32:31.690063,0.04416247457265849
2023-01-30 09:32:31.695063,0.04880642126130322
2023-01-30 09:32:31.700063,0.054908595979213715
2023-01-30 09:32:31.705063,0.06205331393682446
2023-01-30 09:32:31.710063,0.07007817924022669
2023-01-30 09:32:31.715063,0.07989116769184869
2023-01-30 09:32:31.720063,0.09195506572723378
2023-01-30 09:32:31.725063,0.10530753903000728
2023-01-30 09:32:31.730063,0.11900067329406719
2023-01-30 09:32:31.735063,0.13310947445149732
2023-01-30 09:32:31.740063,0.14739255607128135
2023-01-30 09:32:31.745063,0.16042072594268997
2023-01-30 09:32:31.750063,0.17107248306274406
2023-01-30 09:32:31.755063,0.17954551464063562
2023-01-30 09:32:31.760063,0.18592953681945795
2023-01-30 09:32:31.765063,0.18917209850425243
2023-01-30 09:32:31.770063,0.18842975795269004
2023-01-30 09:32:31.775063,0.18402002787272384
2023-01-30 09:32:31.780063,0.17602483928203574
2023-01-30 09:32:31.785063,0.16340788156971806
2023-01-30 09:32:31.790063,0.14566163718700392
2023-01-30 09:32:31.795063,0.1240493483606624
2023-01-30 09:32:31.800063,0.10022501647472373
2023-01-30 09:32:31.805063,0.07502678190978786
2023-01-30 09:32:31.810063,0.04966775700449938
2023-01-30 09:32:31.815063,0.02654760483730712
2023-01-30 09:32:31.820063,0.007452567573636713
2023-01-30 09:32:31.825063,-0.007904868721023387
2023-01-30 09:32:31.830063,-0.020386379212140995
2023-01-30 09:32:31.835063,-0.029742231737810848
2023-01-30 09:32:31.840063,-0.035700201988220194
2023-01-30 09:32:31.845063,-0.039487639415410725
2023-01-30 09:32:31.850063,-0.04272004216909398
2023-01-30 09:32:31.855063,-0.045543370457068855
2023-01-30 09:32:31.860063,-0.04711946099996558
2023-01-30 09:32:31.865063,-0.047217171507917155
2023-01-30 09:32:31.870063,-0.0462059192359447
2023-01-30 09:32:31.875063,-0.04418593310873467
2023-01-30 09:32:31.880063,-0.04120548814535138
2023-01-30 09:32:31.885063,-0.03780981626136048
2023-01-30 09:32:31.890063,-0.03457029908895486
2023-01-30 09:32:31.895063,-0.03162085033239827
2023-01-30 09:32:31.900063,-0.029185216873884152
2023-01-30 09:32:31.905063,-0.027753596867943982
2023-01-30 09:32:31.910063,-0.027189850807189903
2023-01-30 09:32:31.915063,-0.026548494692709264
2023-01-30 09:32:31.920063,-0.025314688682556104
2023-01-30 09:32:31.925063,-0.02392707680375782
2023-01-30 09:32:31.930063,-0.022670229896902976
2023-01-30 09:32:31.935063,-0.021165480286512897
2023-01-30 09:32:31.940063,-0.01944879814982413
2023-01-30 09:32:31.945063,-0.018338787254479294
2023-01-30 09:32:31.950063,-0.018102526664733786
2023-01-30 09:32:31.955063,-0.017893360113406632
2023-01-30 09:32:31.960063,-0.01711686514317976
2023-01-30 09:32:31.965063,-0.01620489042072172
2023-01-30 09:32:31.970063,-0.015458067879080682
2023-01-30 09:32:31.975063,-0.014351367095237983
2023-01-30 09:32:31.980063,-0.012645324692129988
2023-01-30 09:32:31.985063,-0.010985546993665711
2023-01-30 09:32:31.990063,-0.009736418724060019
2023-01-30 09:32:31.995063,-0.008415728949412052
2023-01-30 09:32:32.000063,-0.006947716232389242
2023-01-30 09:32:32.005063,-0.006262520821730717
2023-01-30 09:32:32.010063,-0.006947716232389226
2023-01-30 09:32:32.015063,-0.008449522518835673
2023-01-30 09:32:32.020063,-0.010217229835688993
2023-01-30 09:32:32.025063,-0.012392461006099779
2023-01-30 09:32:32.030063,-0.014712810516357403
2023-01-30 09:32:32.035063,-0.016041905975328258
2023-01-30 09:32:32.040063,-0.015794634819030727
2023-01-30 09:32:32.045063,-0.014707538467693742
2023-01-30 09:32:32.050063,-0.013534824363887298
2023-01-30 09:32:32.055063,-0.012137479968023349
2023-01-30 09:32:32.060063,-0.010409554466605124
2023-01-30 09:32:32.065063,-0.008712270990014492
2023-01-30 09:32:32.070063,-0.006611148826777887
2023-01-30 09:32:32.075063,-0.0025018280600890923
2023-01-30 09:32:32.080063,0.004567702766507797
2023-01-30 09:32:32.085063,0.013647505394188028
2023-01-30 09:32:32.090063,0.02293467521667485
2023-01-30 09:32:32.095063,0.030786963637923215
2023-01-30 09:32:32.100063,0.0351953506469726
2023-01-30 09:32:32.105063,0.03392950264118899
2023-01-30 09:32:32.110063,0.026420554146170595
2023-01-30 09:32:32.115063,0.014583337291854728
2023-01-30 09:32:32.120063,0.0010818243026733398
2023-01-30 09:32:32.125063,-0.012203567372669904
2023-01-30 09:32:32.130063,-0.02365589141845701
2023-01-30 09:32:32.135063,-0.0315883252009671
2023-01-30 09:32:32.140063,-0.03553191944956771
2023-01-30 09:32:32.145063,-0.036736579185223155
2023-01-30 09:32:32.150063,-0.036541622132062856
2023-01-30 09:32:32.155063,-0.03528959014608994
2023-01-30 09:32:32.160063,-0.033416353166103266
2023-01-30 09:32:32.165063,-0.03220307437192021
2023-01-30 09:32:32.170063,-0.032526850700378404
2023-01-30 09:32:32.175063,-0.03396499932254853
2023-01-30 09:32:32.180063,-0.03574828431010243
2023-01-30 09:32:32.185063,-0.03717036379968773
2023-01-30 09:32:32.190063,-0.036181014031171715
2023-01-30 09:32:32.195063,-0.02905394607501104
2023-01-30 09:32:32.200063,-0.012933811172842927
2023-01-30 09:32:32.205063,0.011515049987829581
2023-01-30 09:32:32.210063,0.03983517736196508
2023-01-30 09:32:32.215063,0.06450397971879558
2023-01-30 09:32:32.220063,0.07572770118713365
2023-01-30 09:32:32.225063,0.06442771357966488
2023-01-30 09:32:32.230063,0.02755045890808099
2023-01-30 09:32:32.235063,-0.028803430724273847
2023-01-30 09:32:32.240063,-0.09152233600616445
2023-01-30 09:32:32.245063,-0.14536889219513005
2023-01-30 09:32:32.250063,-0.17729899287223808
2023-01-30 09:32:32.255063,-0.18026383267305285
2023-01-30 09:32:32.260063,-0.15619139373302446
2023-01-30 09:32:32.265063,-0.11509844135867217
2023-01-30 09:32:32.270063,-0.06969352811574928
2023-01-30 09:32:32.275063,-0.029998094576951937
2023-01-30 09:32:32.280063,-0.001610716222785437
2023-01-30 09:32:32.285063,0.014020796181211968
2023-01-30 09:32:32.290063,0.01944879814982409
2023-01-30 09:32:32.295063,0.019827283771293745
2023-01-30 09:32:32.300063,0.019641121849417614
2023-01-30 09:32:32.305063,0.020727994733869288
2023-01-30 09:32:32.310063,0.023439526557922336
2023-01-30 09:32:32.315063,0.028051549819302492
2023-01-30 09:32:32.320063,0.03413756936788547
2023-01-30 09:32:32.325063,0.04016060775369405
2023-01-30 09:32:32.330063,0.04507601261138906
2023-01-30 09:32:32.335063,0.04939026590499117
2023-01-30 09:32:32.340063,0.05377868935465813
2023-01-30 09:32:32.345063,0.057928548017270695
2023-01-30 09:32:32.350063,0.06171206757426259
2023-01-30 09:32:32.355063,0.0661266804746402
2023-01-30 09:32:32.360063,0.07190525531768793
2023-01-30 09:32:32.365063,0.0784388132045136
2023-01-30 09:32:32.370063,0.08522371947765346
2023-01-30 09:32:32.375063,0.09311420578394686
2023-01-30 09:32:32.380063,0.10294159501791006
2023-01-30 09:32:32.385063,0.11416728640521963
2023-01-30 09:32:32.390063,0.12616476416587818
2023-01-30 09:32:32.395063,0.13948498393383318
2023-01-30 09:32:32.400063,0.1543643176555633
2023-01-30 09:32:32.405063,0.169239597304697
2023-01-30 09:32:32.410063,0.18239557743072493
2023-01-30 09:32:32.415063,0.19392765850355909
2023-01-30 09:32:32.420063,0.20424842834472648
2023-01-30 09:32:32.425063,0.21176095089643235
2023-01-30 09:32:32.430063,0.2143214195966719
2023-01-30 09:32:32.435063,0.21243245210516706
2023-01-30 09:32:32.440063,0.2084074467420578
2023-01-30 09:32:32.445063,0.20206863022414456
2023-01-30 09:32:32.450063,0.18965582549571985
2023-01-30 09:32:32.455063,0.16835494099209847
2023-01-30 09:32:32.460063,0.14068524539470667
2023-01-30 09:32:32.465063,0.11295710410211181
2023-01-30 09:32:32.470063,0.08959909528493876
2023-01-30 09:32:32.475063,0.06992456840643245
2023-01-30 09:32:32.480063,0.0505812987685203
2023-01-30 09:32:32.485063,0.03031912768662138
2023-01-30 09:32:32.490063,0.011467337608337399
2023-01-30 09:32:32.495063,-0.003104351028902414
2023-01-30 09:32:32.500063,-0.013174216262996077
2023-01-30 09:32:32.505063,-0.020522381383345393
2023-01-30 09:32:32.510063,-0.026180148124694772
2023-01-30 09:32:32.515063,-0.02988784967342978
2023-01-30 09:32:32.520063,-0.031877756118774386
2023-01-30 09:32:32.525063,-0.0333828029365706
2023-01-30 09:32:32.530063,-0.03507515043020238
2023-01-30 09:32:32.535063,-0.03646825225145249
2023-01-30 09:32:32.540063,-0.03728687763214104
2023-01-30 09:32:32.545063,-0.03808758052925669
2023-01-30 09:32:32.550063,-0.03904183954000471
2023-01-30 09:32:32.555063,-0.03941361585999372
2023-01-30 09:32:32.560063,-0.038849513977765995
2023-01-30 09:32:32.565063,-0.03802918159319
2023-01-30 09:32:32.570063,-0.037479203194379807
2023-01-30 09:32:32.575063,-0.0368897367157227
2023-01-30 09:32:32.580063,-0.0361569747328758
2023-01-30 09:32:32.585063,-0.03591903796880292
2023-01-30 09:32:32.590063,-0.036421418190002386
2023-01-30 09:32:32.595063,-0.03695892031598213
2023-01-30 09:32:32.600063,-0.037070512771606404
2023-01-30 09:32:32.605063,-0.03722062248795975
2023-01-30 09:32:32.610063,-0.037719607353210394
2023-01-30 09:32:32.615063,-0.03808749961270732
2023-01-30 09:32:32.620063,-0.038104258477687766
2023-01-30 09:32:32.625063,-0.038372877831654884
2023-01-30 09:32:32.630063,-0.03918608278036109
2023-01-30 09:32:32.635063,-0.039912329835892546
2023-01-30 09:32:32.640063,-0.040147703140973996
2023-01-30 09:32:32.645063,-0.040408599280861865
2023-01-30 09:32:32.650063,-0.04106124490499491
2023-01-30 09:32:32.655063,-0.041661603245307995
2023-01-30 09:32:32.660063,-0.04199882596731182
2023-01-30 09:32:32.665063,-0.04268421714817886
2023-01-30 09:32:32.670063,-0.044018231332301996
2023-01-30 09:32:32.675063,-0.04532958842414596
2023-01-30 09:32:32.680063,-0.04608571529388421
2023-01-30 09:32:32.685063,-0.04658601302394089
2023-01-30 09:32:32.690063,-0.04692713543772685
2023-01-30 09:32:32.695063,-0.04641915884761862
2023-01-30 09:32:32.700063,-0.044739447534084306
2023-01-30 09:32:32.705063,-0.04258604125256991
2023-01-30 09:32:32.710063,-0.04048427194356903
2023-01-30 09:32:32.715063,-0.03798485587954271
2023-01-30 09:32:32.720063,-0.03466646000742911
2023-01-30 09:32:32.725063,-0.030801174238852234
2023-01-30 09:32:32.730063,-0.026372473686933472
2023-01-30 09:32:32.735063,-0.020662193118200944
2023-01-30 09:32:32.740063,-0.013679067604243707
2023-01-30 09:32:32.745063,-0.007004829953397243
2023-01-30 09:32:32.750063,-0.0025002162437885336
2023-01-30 09:32:32.755063,-0.0011268289288263228
2023-01-30 09:32:32.760063,-0.0035099189262836603
2023-01-30 09:32:32.765063,-0.010252575257420645
2023-01-30 09:32:32.770063,-0.02072294615209099
2023-01-30 09:32:32.775063,-0.032594617390278365
2023-01-30 09:32:32.780063,-0.04351337999105451
2023-01-30 09:32:32.785063,-0.05243508523396136
2023-01-30 09:32:32.790063,-0.05889932438731189
2023-01-30 09:32:32.795063,-0.06234342624750327
2023-01-30 09:32:32.800063,-0.06301026046276088
2023-01-30 09:32:32.805063,-0.062372409487562536
2023-01-30 09:32:32.810063,-0.0617120675742626
2023-01-30 09:32:32.815063,-0.061186863140905434
2023-01-30 09:32:32.820063,-0.06089469045400614
2023-01-30 09:32:32.825063,-0.061555731517617486
2023-01-30 09:32:32.830063,-0.06313046067953101
2023-01-30 09:32:32.835063,-0.0637000850343418
2023-01-30 09:32:32.840063,-0.06051003932952881
2023-01-30 09:32:32.845063,-0.0513017497468863
2023-01-30 09:32:32.850063,-0.03447413444519041
2023-01-30 09:32:32.855063,-0.0100030838324029
2023-01-30 09:32:32.860063,0.01810252666473376
2023-01-30 09:32:32.865063,0.041116200835214625
2023-01-30 09:32:32.870063,0.048898458480834836
2023-01-30 09:32:32.875063,0.03441939333550337
2023-01-30 09:32:32.880063,-0.0037022433243690997
2023-01-30 09:32:32.885063,-0.060174553770060146
2023-01-30 09:32:32.890063,-0.12296736240386957
2023-01-30 09:32:32.895063,-0.1763439865983203
2023-01-30 09:32:32.900063,-0.20720541477203352
2023-01-30 09:32:32.905063,-0.2101910286617576
2023-01-30 09:32:32.910063,-0.18794894218444813
2023-01-30 09:32:32.915063,-0.14851610980252036
2023-01-30 09:32:32.920063,-0.10274927318096155
2023-01-30 09:32:32.925063,-0.06127907088323529
2023-01-30 09:32:32.930063,-0.03065168857574457
2023-01-30 09:32:32.935063,-0.011716862526736321
2023-01-30 09:32:32.940063,-0.0019472837448119926
2023-01-30 09:32:32.945063,0.0016214694901198641
2023-01-30 09:32:32.950063,0.001875162124633666
2023-01-30 09:32:32.955063,0.0017220928259346427
2023-01-30 09:32:32.960063,0.0027406215667723473
2023-01-30 09:32:32.965063,0.0044902384832000925
2023-01-30 09:32:32.970063,0.00629862165078516
2023-01-30 09:32:32.975063,0.00876482317194952
2023-01-30 09:32:32.980063,0.01254916191101075
2023-01-30 09:32:32.985063,0.017039965833476153
2023-01-30 09:32:32.990063,0.021540325134992513
2023-01-30 09:32:32.995063,0.026549935093405044
2023-01-30 09:32:33.000063,0.03250281140208244
2023-01-30 09:32:33.005063,0.03849959744539481
2023-01-30 09:32:33.010063,0.04384994506835929
2023-01-30 09:32:33.015063,0.04969826877712905
2023-01-30 09:32:33.020063,0.05745689198374739
2023-01-30 09:32:33.025063,0.06677592084736603
2023-01-30 09:32:33.030063,0.07690569013357153
2023-01-30 09:32:33.035063,0.08890058408870759
2023-01-30 09:32:33.040063,0.10411958396434776
2023-01-30 09:32:33.045063,0.12119589514910536
2023-01-30 09:32:33.050063,0.1370070427656172
2023-01-30 09:32:33.055063,0.15062470645914652
2023-01-30 09:32:33.060063,0.16400456428527824
2023-01-30 09:32:33.065063,0.1783656605440825
2023-01-30 09:32:33.070063,0.19189159572124473
2023-01-30 09:32:33.075063,0.20174492014870749
2023-01-30 09:32:33.080063,0.2067486494779585
2023-01-30 09:32:33.085063,0.20716766952200869
2023-01-30 09:32:33.090063,0.20307044684886916
2023-01-30 09:32:33.095063,0.19403039036528152
2023-01-30 09:32:33.100063,0.1799194067716598
2023-01-30 09:32:33.105063,0.16121484314909082
2023-01-30 09:32:33.110063,0.13873796164989463
2023-01-30 09:32:33.115063,0.11353228514992517
2023-01-30 09:32:33.120063,0.0869065523147583
2023-01-30 09:32:33.125063,0.06040159272716593
2023-01-30 09:32:33.130063,0.03567616268992418
2023-01-30 09:32:33.135063,0.014199762749552234
2023-01-30 09:32:33.140063,-0.0032214324455707554
2023-01-30 09:32:33.145063,-0.016550933349270786
2023-01-30 09:32:33.150063,-0.026083987206220568
2023-01-30 09:32:33.155063,-0.03218187994766492
2023-01-30 09:32:33.160063,-0.03550788015127178
2023-01-30 09:32:33.165063,-0.03700742789406476
2023-01-30 09:32:33.170063,-0.03733495995402332
2023-01-30 09:32:33.175063,-0.03666745436384203
2023-01-30 09:32:33.180063,-0.035267472267150796
2023-01-30 09:32:33.185063,-0.03370852929521432
2023-01-30 09:32:33.190063,-0.032286446541547754
2023-01-30 09:32:33.195063,-0.030763732780216314
2023-01-30 09:32:33.200063,-0.028992891311645487
2023-01-30 09:32:33.205063,-0.02723027444821155
2023-01-30 09:32:33.210063,-0.025555094704031934
2023-01-30 09:32:33.215063,-0.023622688866870065
2023-01-30 09:32:33.220063,-0.021347999572753896
2023-01-30 09:32:33.225063,-0.019206658935723923
2023-01-30 09:32:33.230063,-0.017501514405012072
2023-01-30 09:32:33.235063,-0.015967304818685045
2023-01-30 09:32:33.240063,-0.014448365196585659
2023-01-30 09:32:33.245063,-0.013284014656731609
2023-01-30 09:32:33.250063,-0.01264532469213003
2023-01-30 09:32:33.255063,-0.012196772804661641
2023-01-30 09:32:33.260063,-0.011827945709228516
2023-01-30 09:32:33.265063,-0.012015789757636206
2023-01-30 09:32:33.270063,-0.01302997302263972
2023-01-30 09:32:33.275063,-0.014468494792845779
2023-01-30 09:32:33.280063,-0.015986960381269413
2023-01-30 09:32:33.285063,-0.017755257759427802
2023-01-30 09:32:33.290063,-0.019761323928833
2023-01-30 09:32:33.295063,-0.021423357480767853
2023-01-30 09:32:33.300063,-0.022381743416190095
2023-01-30 09:32:33.305063,-0.022970214740914163
2023-01-30 09:32:33.310063,-0.02346356771886342
2023-01-30 09:32:33.315063,-0.023613709954161257
2023-01-30 09:32:33.320063,-0.0233914460986852
2023-01-30 09:32:33.325063,-0.023399255095727038
2023-01-30 09:32:33.330063,-0.02401649951934804
2023-01-30 09:32:33.335063,-0.024847728432923644
2023-01-30 09:32:33.340063,-0.025482973083853715
2023-01-30 09:32:33.345063,-0.02604424437284273
2023-01-30 09:32:33.350063,-0.026516716927289807
2023-01-30 09:32:33.355063,-0.02637552175999153
2023-01-30 09:32:33.360063,-0.025458931922912518
2023-01-30 09:32:33.365063,-0.02448299938620844
2023-01-30 09:32:33.370063,-0.024160742759704434
2023-01-30 09:32:33.375063,-0.024513266442591556
2023-01-30 09:32:33.380063,-0.02545893192291251
2023-01-30 09:32:33.385063,-0.027175272334874507
2023-01-30 09:32:33.390063,-0.029257338494062375
2023-01-30 09:32:33.395063,-0.030307430882703736
2023-01-30 09:32:33.400063,-0.029016932472586566
2023-01-30 09:32:33.405063,-0.02507215488363373
2023-01-30 09:32:33.410063,-0.018679499626159574
2023-01-30 09:32:33.415063,-0.010189612827695448
2023-01-30 09:32:33.420063,-0.000841418921481818
2023-01-30 09:32:33.425063,0.006998018853154813
2023-01-30 09:32:33.430063,0.011154810898005905
2023-01-30 09:32:33.435063,0.010770478858717875
2023-01-30 09:32:33.440063,0.0058899326249957085
2023-01-30 09:32:33.445063,-0.0030264481877000076
2023-01-30 09:32:33.450063,-0.014544527046382427
2023-01-30 09:32:33.455063,-0.02617200250272226
2023-01-30 09:32:33.460063,-0.035748284310102435
2023-01-30 09:32:33.465063,-0.04250054937628983
2023-01-30 09:32:33.470063,-0.0464222840964794
2023-01-30 09:32:33.475063,-0.04754609976560484
2023-01-30 09:32:33.480063,-0.0464222840964794
2023-01-30 09:32:33.485063,-0.044383499459393704
2023-01-30 09:32:33.490063,-0.042527716606855316
2023-01-30 09:32:33.495063,-0.041050667812563675
2023-01-30 09:32:33.500063,-0.04005154222249986
2023-01-30 09:32:33.505063,-0.04004065397870608
2023-01-30 09:32:33.510063,-0.04082083702087402
2023-01-30 09:32:33.515063,-0.040485245366297266
2023-01-30 09:32:33.520063,-0.03615697473287583
2023-01-30 09:32:33.525063,-0.025263168834418905
2023-01-30 09:32:33.530063,-0.006178419105708508
2023-01-30 09:32:33.535063,0.02058717088962939
2023-01-30 09:32:33.540063,0.05031685158610334
2023-01-30 09:32:33.545063,0.07380804508420066
2023-01-30 09:32:33.550063,0.08068005740642539
2023-01-30 09:32:33.555063,0.06399889199041867
2023-01-30 09:32:33.560063,0.023175081238150468
2023-01-30 09:32:33.565063,-0.03516637569280132
2023-01-30 09:32:33.570063,-0.0980132818222045
2023-01-30 09:32:33.575063,-0.1496336168311957
2023-01-30 09:32:33.580063,-0.17768363654613487
2023-01-30 09:32:33.585063,-0.17786317545653832
2023-01-30 09:32:33.590063,-0.15402774512767786
2023-01-30 09:32:33.595063,-0.11519253732779801
2023-01-30 09:32:33.600063,-0.0722658634185791
2023-01-30 09:32:33.605063,-0.03490967032602803
2023-01-30 09:32:33.610063,-0.008462270721793142
2023-01-30 09:32:33.615063,0.00708798160929606
2023-01-30 09:32:33.620063,0.014905135147273508
2023-01-30 09:32:33.625063,0.018320582875464456
2023-01-30 09:32:33.630063,0.01983344554901122
2023-01-30 09:32:33.635063,0.021407213577073647
2023-01-30 09:32:33.640063,0.024160742759704514
2023-01-30 09:32:33.645063,0.027912382563134427
2023-01-30 09:32:33.650063,0.03182967752218241
2023-01-30 09:32:33.655063,0.035390877713928195
2023-01-30 09:32:33.660063,0.038392744958400754
2023-01-30 09:32:33.665063,0.0406638586169106
2023-01-30 09:32:33.670063,0.04240751266479492
2023-01-30 09:32:33.675063,0.044360676293878326
2023-01-30 09:32:33.680063,0.04709541797637932
2023-01-30 09:32:33.685063,0.05062141892348796
2023-01-30 09:32:33.690063,0.055028796195983797
2023-01-30 09:32:33.695063,0.060862077657457
2023-01-30 09:32:33.700063,0.06841938197612767
2023-01-30 09:32:33.705063,0.07735772955866568
2023-01-30 09:32:33.710063,0.08743544667959209
2023-01-30 09:32:33.715063,0.09893324971982422
2023-01-30 09:32:33.720063,0.11188467592000959
2023-01-30 09:32:33.725063,0.12563115181815235
2023-01-30 09:32:33.730063,0.13960342109203328
2023-01-30 09:32:33.735063,0.15376087398161928
2023-01-30 09:32:33.740063,0.16775488853454573
2023-01-30 09:32:33.745063,0.18044738609091393
2023-01-30 09:32:33.750063,0.19078573584556563
2023-01-30 09:32:33.755063,0.19838133715022033
2023-01-30 09:32:33.760063,0.20273387432098372
2023-01-30 09:32:33.765063,0.20274940375262598
2023-01-30 09:32:33.770063,0.19763728976249686
2023-01-30 09:32:33.775063,0.1875373328931346
2023-01-30 09:32:33.780063,0.1727793663740158
2023-01-30 09:32:33.785063,0.15342738222416313
2023-01-30 09:32:33.790063,0.13017952442169173
2023-01-30 09:32:33.795063,0.10487678567863964
2023-01-30 09:32:33.800063,0.07945398986339554
2023-01-30 09:32:33.805063,0.055080050767883144
2023-01-30 09:32:33.810063,0.03274321556091294
2023-01-30 09:32:33.815063,0.013648857914778934
2023-01-30 09:32:33.820063,-0.0017068784218280749
2023-01-30 09:32:33.825063,-0.014043132328966142
2023-01-30 09:32:33.830063,-0.024208825081586793
2023-01-30 09:32:33.835063,-0.032343788817902216
2023-01-30 09:32:33.840063,-0.03860910981893532
2023-01-30 09:32:33.845063,-0.04374635143006575
2023-01-30 09:32:33.850063,-0.048177242279052686
2023-01-30 09:32:33.855063,-0.05140825233593594
2023-01-30 09:32:33.860063,-0.053033433854579884
2023-01-30 09:32:33.865063,-0.05351068169054377
2023-01-30 09:32:33.870063,-0.05332192033529277
2023-01-30 09:32:33.875063,-0.05228688790799398
2023-01-30 09:32:33.880063,-0.05041301250457759
2023-01-30 09:32:33.885063,-0.04850921366986123
2023-01-30 09:32:33.890063,-0.047191582620143786
2023-01-30 09:32:33.895063,-0.04611241240927623
2023-01-30 09:32:33.900063,-0.04485964775085436
2023-01-30 09:32:33.905063,-0.043722391863234636
2023-01-30 09:32:33.910063,-0.04286428540945049
2023-01-30 09:32:33.915063,-0.04170106318091774
2023-01-30 09:32:33.920063,-0.039907298982143374
2023-01-30 09:32:33.925063,-0.03816142083104262
2023-01-30 09:32:33.930063,-0.037118595093488624
2023-01-30 09:32:33.935063,-0.036522706516733054
2023-01-30 09:32:33.940063,-0.036060810089111335
2023-01-30 09:32:33.945063,-0.03611342163813938
2023-01-30 09:32:33.950063,-0.03683010861277577
2023-01-30 09:32:33.955063,-0.03742640973618111
2023-01-30 09:32:33.960063,-0.03728687763214116
2023-01-30 09:32:33.965063,-0.03687926832542549
2023-01-30 09:32:33.970063,-0.036757986992597476
2023-01-30 09:32:33.975063,-0.03662082228195569
2023-01-30 09:32:33.980063,-0.03620505332946774
2023-01-30 09:32:33.985063,-0.03610275769192341
2023-01-30 09:32:33.990063,-0.03673394769430158
2023-01-30 09:32:33.995063,-0.03747292029401083
2023-01-30 09:32:34.000063,-0.03774365037679671
2023-01-30 09:32:34.005063,-0.0380050189942612
2023-01-30 09:32:34.010063,-0.038681231439113596
2023-01-30 09:32:34.015063,-0.03913050386905781
2023-01-30 09:32:34.020063,-0.03870527073740949
2023-01-30 09:32:34.025063,-0.03782155536117782
2023-01-30 09:32:34.030063,-0.03692626953125
2023-01-30 09:32:34.035063,-0.03548729708139546
2023-01-30 09:32:34.040063,-0.03317594528198241
2023-01-30 09:32:34.045063,-0.030972285199785052
2023-01-30 09:32:34.050063,-0.029810270294546994
2023-01-30 09:32:34.055063,-0.029102033950400244
2023-01-30 09:32:34.060063,-0.027814906090497936
2023-01-30 09:32:34.065063,-0.025866651117993394
2023-01-30 09:32:34.070063,-0.023078918457031174
2023-01-30 09:32:34.075063,-0.01802343341082724
2023-01-30 09:32:34.080063,-0.009712378494441497
2023-01-30 09:32:34.085063,0.000472871877612467
2023-01-30 09:32:34.090063,0.0101931896060705
2023-01-30 09:32:34.095063,0.018412798706505005
2023-01-30 09:32:34.100063,0.024401148781180257
2023-01-30 09:32:34.105063,0.025828707674907934
2023-01-30 09:32:34.110063,0.02067486569285391
2023-01-30 09:32:34.115063,0.0106086911285144
2023-01-30 09:32:34.120063,-0.00028848648071277456
2023-01-30 09:32:34.125063,-0.010245188535631557
2023-01-30 09:32:34.130063,-0.02062678337097157
2023-01-30 09:32:34.135063,-0.031732436262634174
2023-01-30 09:32:34.140063,-0.040676593780517495
2023-01-30 09:32:34.145063,-0.04483198339926502
2023-01-30 09:32:34.150063,-0.0452442988753318
2023-01-30 09:32:34.155063,-0.0449652618725522
2023-01-30 09:32:34.160063,-0.045484703034162494
2023-01-30 09:32:34.165063,-0.04647912742720137
2023-01-30 09:32:34.170063,-0.04798492044210427
2023-01-30 09:32:34.175063,-0.05087745794627815
2023-01-30 09:32:34.180063,-0.055293243378400816
2023-01-30 09:32:34.185063,-0.059748272735822464
2023-01-30 09:32:34.190063,-0.0617361068725585
2023-01-30 09:32:34.195063,-0.05835402843392232
2023-01-30 09:32:34.200063,-0.04668673127889629
2023-01-30 09:32:34.205063,-0.025104375997277974
2023-01-30 09:32:34.210063,0.0045917434617876954
2023-01-30 09:32:34.215063,0.03594227637097001
2023-01-30 09:32:34.220063,0.05892336368560784
2023-01-30 09:32:34.225063,0.06320904116437323
2023-01-30 09:32:34.230063,0.042359434068202896
2023-01-30 09:32:34.235063,-0.002805411721507582
2023-01-30 09:32:34.240063,-0.06334682554006568
2023-01-30 09:32:34.245063,-0.12461735802777085
2023-01-30 09:32:34.250063,-0.17116865515708912
2023-01-30 09:32:34.255063,-0.19217554145818425
2023-01-30 09:32:34.260063,-0.18499195575714106
2023-01-30 09:32:34.265063,-0.15518466246506174
2023-01-30 09:32:34.270063,-0.11330306529998768
2023-01-30 09:32:34.275063,-0.07047062654810975
2023-01-30 09:32:34.280063,-0.034954946488142
2023-01-30 09:32:34.285063,-0.010558510516822495
2023-01-30 09:32:34.290063,0.0032214324455708122
2023-01-30 09:32:34.295063,0.00954468874088683
2023-01-30 09:32:34.300063,0.011996230110526019
2023-01-30 09:32:34.305063,0.013189991556713227
2023-01-30 09:32:34.310063,0.01468877028673884
2023-01-30 09:32:34.315063,0.017312418670416326
2023-01-30 09:32:34.320063,0.02113163471221925
2023-01-30 09:32:34.325063,0.02561966130364466
2023-01-30 09:32:34.330063,0.030267041176557496
2023-01-30 09:32:34.335063,0.03493291805269275
2023-01-30 09:32:34.340063,0.03954669088125225
2023-01-30 09:32:34.345063,0.043931465287365995
2023-01-30 09:32:34.350063,0.048177242279052644
2023-01-30 09:32:34.355063,0.052779297477356296
2023-01-30 09:32:34.360063,0.058130025863647364
2023-01-30 09:32:34.365063,0.06424088559905997
2023-01-30 09:32:34.370063,0.07118403911590565
2023-01-30 09:32:34.375063,0.07936314099830565
2023-01-30 09:32:34.380063,0.08907020092010487
2023-01-30 09:32:34.385063,0.10019652254787027
2023-01-30 09:32:34.390063,0.11262993514537803
2023-01-30 09:32:34.395063,0.12644702863428162
2023-01-30 09:32:34.400063,0.14138242602348314
2023-01-30 09:32:34.405063,0.15654604494251395
2023-01-30 09:32:34.410063,0.17097632586956024
2023-01-30 09:32:34.415063,0.18404507953794366
2023-01-30 09:32:34.420063,0.1950649470090866
2023-01-30 09:32:34.425063,0.2030457568037216
2023-01-30 09:32:34.430063,0.2072294652462004
2023-01-30 09:32:34.435063,0.20742319903744683
2023-01-30 09:32:34.440063,0.20347914099693287
2023-01-30 09:32:34.445063,0.1949402037258596
2023-01-30 09:32:34.450063,0.1815782040357588
2023-01-30 09:32:34.455063,0.1638483859956277
2023-01-30 09:32:34.460063,0.1425123214721679
2023-01-30 09:32:34.465063,0.11833499030737295
2023-01-30 09:32:34.470063,0.09250800311565385
2023-01-30 09:32:34.475063,0.0668119802342334
2023-01-30 09:32:34.480063,0.04286428540945052
2023-01-30 09:32:34.485063,0.021540791116773428
2023-01-30 09:32:34.490063,0.0033656756859271747
2023-01-30 09:32:34.495063,-0.011129539833488303
2023-01-30 09:32:34.500063,-0.02185285091400136
2023-01-30 09:32:34.505063,-0.02942501620596091
2023-01-30 09:32:34.510063,-0.0345462560653686
2023-01-30 09:32:34.515063,-0.03750276611394586
2023-01-30 09:32:34.520063,-0.03860910981893529
2023-01-30 09:32:34.525063,-0.03856042548836774
2023-01-30 09:32:34.530063,-0.03788789361715311
2023-01-30 09:32:34.535063,-0.0365505238043313
2023-01-30 09:32:34.540063,-0.034498177468776696
2023-01-30 09:32:34.545063,-0.032169413654851216
2023-01-30 09:32:34.550063,-0.03002663515508165
2023-01-30 09:32:34.555063,-0.028090417529677145
2023-01-30 09:32:34.560063,-0.02634843252599232
2023-01-30 09:32:34.565063,-0.025114665660524085
2023-01-30 09:32:34.570063,-0.02452135086059568
2023-01-30 09:32:34.575063,-0.024116474163699046
2023-01-30 09:32:34.580063,-0.023415487259626274
2023-01-30 09:32:34.585063,-0.022433394112061786
2023-01-30 09:32:34.590063,-0.021299919113516783
2023-01-30 09:32:34.595063,-0.01985599030630251
2023-01-30 09:32:34.600063,-0.018078487366437884
2023-01-30 09:32:34.605063,-0.01643645991400617
2023-01-30 09:32:34.610063,-0.015361905097961369
2023-01-30 09:32:34.615063,-0.014764536194509655
2023-01-30 09:32:34.620063,-0.014448365196585598
2023-01-30 09:32:34.625063,-0.014548571664861773
2023-01-30 09:32:34.630063,-0.015145540237426681
2023-01-30 09:32:34.635063,-0.015895217770878125
2023-01-30 09:32:34.640063,-0.01646777056157585
2023-01-30 09:32:34.645063,-0.016954669537998956
2023-01-30 09:32:34.650063,-0.01747747324407093
2023-01-30 09:32:34.655063,-0.01782382059779036
2023-01-30 09:32:34.660063,-0.017838081344962082
2023-01-30 09:32:34.665063,-0.01775294008943435
2023-01-30 09:32:34.670063,-0.017790000885724962
2023-01-30 09:32:34.675063,-0.017844747541417755
2023-01-30 09:32:34.680063,-0.01786212250590319
2023-01-30 09:32:34.685063,-0.01807656747256919
2023-01-30 09:32:34.690063,-0.018607378005981386
2023-01-30 09:32:34.695063,-0.019296837555600282
2023-01-30 09:32:34.700063,-0.020194053649902316
2023-01-30 09:32:34.705063,-0.021641826160601445
2023-01-30 09:32:34.710063,-0.023583769798278763
2023-01-30 09:32:34.715063,-0.025324729275230353
2023-01-30 09:32:34.720063,-0.026252269744873033
2023-01-30 09:32:34.725063,-0.026218980605187788
2023-01-30 09:32:34.730063,-0.02495408058166503
2023-01-30 09:32:34.735063,-0.021784853920948203
2023-01-30 09:32:34.740063,-0.016347568482160478
2023-01-30 09:32:34.745063,-0.009005059636124158
2023-01-30 09:32:34.750063,-0.00024040541029526707
2023-01-30 09:32:34.755063,0.009707798367704754
2023-01-30 09:32:34.760063,0.02021809481084343
2023-01-30 09:32:34.765063,0.02994270139478093
2023-01-30 09:32:34.770063,0.03755132481455804
2023-01-30 09:32:34.775063,0.042324333825206756
2023-01-30 09:32:34.780063,0.043777823448181055
2023-01-30 09:32:34.785063,0.04149533584469527
2023-01-30 09:32:34.790063,0.0358684882521629
2023-01-30 09:32:34.795063,0.028414157923793915
2023-01-30 09:32:34.800063,0.020843148231506334
2023-01-30 09:32:34.805063,0.01422666529631523
2023-01-30 09:32:34.810063,0.009255608543753631
2023-01-30 09:32:34.815063,0.006488112821659991
2023-01-30 09:32:34.820063,0.005793770309537546
2023-01-30 09:32:34.825063,0.006182633776690896
2023-01-30 09:32:34.830063,0.00673135137185446
2023-01-30 09:32:34.835063,0.007207897047488906
2023-01-30 09:32:34.840063,0.007476608268916581
2023-01-30 09:32:34.845063,0.007040589220668997
2023-01-30 09:32:34.850063,0.005793770309537552
2023-01-30 09:32:34.855063,0.004816807413975465
2023-01-30 09:32:34.860063,0.006130337715148857
2023-01-30 09:32:34.865063,0.012209432227306694
2023-01-30 09:32:34.870063,0.02574741840362535
2023-01-30 09:32:34.875063,0.048428237060326694
2023-01-30 09:32:34.880063,0.07844428718090046
2023-01-30 09:32:34.885063,0.10911320364050614
2023-01-30 09:32:34.890063,0.13049206137657157
2023-01-30 09:32:34.895063,0.13290566893644135
2023-01-30 09:32:34.900063,0.11046628654003139
2023-01-30 09:32:34.905063,0.06398261003214523
2023-01-30 09:32:34.910063,0.002380013465881319
2023-01-30 09:32:34.915063,-0.05935983312219261
2023-01-30 09:32:34.920063,-0.10580241680145255
2023-01-30 09:32:34.925063,-0.12680273441039372
2023-01-30 09:32:34.930063,-0.12013058364391319
2023-01-30 09:32:34.935063,-0.0909803706135423
2023-01-30 09:32:34.940063,-0.049667757004499366
2023-01-30 09:32:34.945063,-0.007835297450148132
2023-01-30 09:32:34.950063,0.025891661643981913
2023-01-30 09:32:34.955063,0.04819830925936861
2023-01-30 09:32:34.960063,0.060077309608459376
2023-01-30 09:32:34.965063,0.0645323682917914
2023-01-30 09:32:34.970063,0.06514986604452125
2023-01-30 09:32:34.975063,0.06516963430250329
2023-01-30 09:32:34.980063,0.06632785499095913
2023-01-30 09:32:34.985063,0.06854293993292418
2023-01-30 09:32:34.990063,0.07111191749572748
2023-01-30 09:32:34.995063,0.07382086121360308
2023-01-30 09:32:35.000063,0.0766893252730369
2023-01-30 09:32:35.005063,0.0795257949902948
2023-01-30 09:32:35.010063,0.08243501186370839
2023-01-30 09:32:35.015063,0.08616761599020654
2023-01-30 09:32:35.020063,0.09133001416921616
2023-01-30 09:32:35.025063,0.0977355194839029
2023-01-30 09:32:35.030063,0.10500907897949208
2023-01-30 09:32:35.035063,0.11321176078413615
2023-01-30 09:32:35.040063,0.12234231084585179
2023-01-30 09:32:35.045063,0.13189331844482516
2023-01-30 09:32:35.050063,0.14155070483684523
2023-01-30 09:32:35.055063,0.1517860259728934
2023-01-30 09:32:35.060063,0.16316315531730646
2023-01-30 09:32:35.065063,0.1755729879098242
2023-01-30 09:32:35.070063,0.18864612281322463
2023-01-30 09:32:35.075063,0.20226506565489966
2023-01-30 09:32:35.080063,0.21602830290794364
2023-01-30 09:32:35.085063,0.22877034464555188
2023-01-30 09:32:35.090063,0.23925146460533125
2023-01-30 09:32:35.095063,0.24683977987128045
2023-01-30 09:32:35.100063,0.25098323822021473
2023-01-30 09:32:35.105063,0.25060574149169623
2023-01-30 09:32:35.110063,0.2446846216917036
2023-01-30 09:32:35.115063,0.23298702977613317
2023-01-30 09:32:35.120063,0.21576385200023643
2023-01-30 09:32:35.125063,0.1933569299450693
2023-01-30 09:32:35.130063,0.1667692363262176
2023-01-30 09:32:35.135063,0.13809065994600483
2023-01-30 09:32:35.140063,0.10964890569448471
2023-01-30 09:32:35.145063,0.08302966783610177
2023-01-30 09:32:35.150063,0.05925993248820301
2023-01-30 09:32:35.155063,0.03923568975261774
2023-01-30 09:32:35.160063,0.02327124401926991
2023-01-30 09:32:35.165063,0.010726035150578099
2023-01-30 09:32:35.170063,0.0007452567806466774
2023-01-30 09:32:35.175063,-0.006988302377309014
2023-01-30 09:32:35.180063,-0.012669364921748572
2023-01-30 09:32:35.185063,-0.016933412635677696
2023-01-30 09:32:35.190063,-0.02038637921214095
2023-01-30 09:32:35.195063,-0.0230527217206082
2023-01-30 09:32:35.200063,-0.024857919663190765
2023-01-30 09:32:35.205063,-0.026171754866059074
2023-01-30 09:32:35.210063,-0.027310054749250377
2023-01-30 09:32:35.215063,-0.027993392870847435
2023-01-30 09:32:35.220063,-0.027887027710676096
2023-01-30 09:32:35.225063,-0.027223728856246035
2023-01-30 09:32:35.230063,-0.026348432525992296
2023-01-30 09:32:35.235063,-0.025138858455211105
2023-01-30 09:32:35.240063,-0.0234635677188634
2023-01-30 09:32:35.245063,-0.021758013258144117
2023-01-30 09:32:35.250063,-0.020554661750793398
2023-01-30 09:32:35.255063,-0.019836856454537952
2023-01-30 09:32:35.260063,-0.01937667652964593
2023-01-30 09:32:35.265063,-0.01928018158494132
2023-01-30 09:32:35.270063,-0.019665163010358783
2023-01-30 09:32:35.275063,-0.02020540365585694
2023-01-30 09:32:35.280063,-0.0205065812915563
2023-01-30 09:32:35.285063,-0.02056759252165647
2023-01-30 09:32:35.290063,-0.02045850083231922
2023-01-30 09:32:35.295063,-0.019997286060305857
2023-01-30 09:32:35.300063,-0.019184350967407216
2023-01-30 09:32:35.305063,-0.018494454008833695
2023-01-30 09:32:35.310063,-0.018294852226972493
2023-01-30 09:32:35.315063,-0.018413631946279818
2023-01-30 09:32:35.320063,-0.01865546032786355
2023-01-30 09:32:35.325063,-0.019221298746490735
2023-01-30 09:32:35.330063,-0.020218094810843353
2023-01-30 09:32:35.335063,-0.021309262617118355
2023-01-30 09:32:35.340063,-0.02228558063507084
2023-01-30 09:32:35.345063,-0.023430548664986672
2023-01-30 09:32:35.350063,-0.024881958961486768
2023-01-30 09:32:35.355063,-0.02619261808572134
2023-01-30 09:32:35.360063,-0.026973485946655183
2023-01-30 09:32:35.365063,-0.02742409387959701
2023-01-30 09:32:35.370063,-0.02781490609049784
2023-01-30 09:32:35.375063,-0.02805336779668469
2023-01-30 09:32:35.380063,-0.028199553489685034
2023-01-30 09:32:35.385063,-0.02874344247317929
2023-01-30 09:32:35.390063,-0.029810270294546977
2023-01-30 09:32:35.395063,-0.03063489268824519
2023-01-30 09:32:35.400063,-0.030315121635794515
2023-01-30 09:32:35.405063,-0.02856894710030739
2023-01-30 09:32:35.410063,-0.025410851463675336
2023-01-30 09:32:35.415063,-0.02086900820602033
2023-01-30 09:32:35.420063,-0.015650391578674303
2023-01-30 09:32:35.425063,-0.011465870548714898
2023-01-30 09:32:35.430063,-0.010024905204772864
2023-01-30 09:32:35.435063,-0.012061204326239031
2023-01-30 09:32:35.440063,-0.01759767532348627
2023-01-30 09:32:35.445063,-0.02635295402659749
2023-01-30 09:32:35.450063,-0.037286877632141016
2023-01-30 09:32:35.455063,-0.04846134267512622
2023-01-30 09:32:35.460063,-0.058130025863647385
2023-01-30 09:32:35.465063,-0.0656419723556507
2023-01-30 09:32:35.470063,-0.07096767425537098
2023-01-30 09:32:35.475063,-0.07408175964755563
2023-01-30 09:32:35.480063,-0.07536709308624258
2023-01-30 09:32:35.485063,-0.07590350722869613
2023-01-30 09:32:35.490063,-0.076641246676445
2023-01-30 09:32:35.495063,-0.07775358896540481
2023-01-30 09:32:35.500063,-0.0792135819792747
2023-01-30 09:32:35.505063,-0.08118739242001456
2023-01-30 09:32:35.510063,-0.0830600708723068
2023-01-30 09:32:35.515063,-0.08257541445896782
2023-01-30 09:32:35.520063,-0.0766652822494506
2023-01-30 09:32:35.525063,-0.06300882823892284
2023-01-30 09:32:35.530063,-0.0410131625831127
2023-01-30 09:32:35.535063,-0.012825524569661382
2023-01-30 09:32:35.540063,0.015385946258902486
2023-01-30 09:32:35.545063,0.03395309039290536
2023-01-30 09:32:35.550063,0.033344231545925127
2023-01-30 09:32:35.555063,0.008690914091140712
2023-01-30 09:32:35.560063,-0.03781577199697489
2023-01-30 09:32:35.565063,-0.0970998057240957
2023-01-30 09:32:35.570063,-0.1552538126707077
2023-01-30 09:32:35.575063,-0.19772089476043378
2023-01-30 09:32:35.580063,-0.21480223536491377
2023-01-30 09:32:35.585063,-0.20516011385127914
2023-01-30 09:32:35.590063,-0.1749430149793623
2023-01-30 09:32:35.595063,-0.13415952509716275
2023-01-30 09:32:35.600063,-0.09318113327026356
2023-01-30 09:32:35.605063,-0.06000914948064925
2023-01-30 09:32:35.610063,-0.03817638009786602
2023-01-30 09:32:35.615063,-0.02658207542474472
2023-01-30 09:32:35.620063,-0.021804770454764227
2023-01-30 09:32:35.625063,-0.020632220993732624
2023-01-30 09:32:35.630063,-0.02069890499114984
2023-01-30 09:32:35.635063,-0.020207442947882084
2023-01-30 09:32:35.640063,-0.018318891525268464
2023-01-30 09:32:35.645063,-0.015406357629864335
2023-01-30 09:32:35.650063,-0.012092391960322827
2023-01-30 09:32:35.655063,-0.0083665816687701
2023-01-30 09:32:35.660063,-0.004134973045438443
2023-01-30 09:32:35.665063,8.079122953026284e-05
2023-01-30 09:32:35.670063,0.003774364944547386
2023-01-30 09:32:35.675063,0.007233288056474886
2023-01-30 09:32:35.680063,0.01098652742803092
2023-01-30 09:32:35.685063,0.015063269671485463
2023-01-30 09:32:35.690063,0.01952091977000231
2023-01-30 09:32:35.695063,0.025092911924014614
2023-01-30 09:32:35.700063,0.03250281140208247
2023-01-30 09:32:35.705063,0.041639881690530615
2023-01-30 09:32:35.710063,0.052119892090558936
2023-01-30 09:32:35.715063,0.06406191384150292
2023-01-30 09:32:35.720063,0.07753074169158927
2023-01-30 09:32:35.725063,0.09180034104768217
2023-01-30 09:32:35.730063,0.10599474608898155
2023-01-30 09:32:35.735063,0.11990919830522431
2023-01-30 09:32:35.740063,0.13337692618370045
2023-01-30 09:32:35.745063,0.1453760864176766
2023-01-30 09:32:35.750063,0.15460471808910353
2023-01-30 09:32:35.755063,0.1603976032383977
2023-01-30 09:32:35.760063,0.16224960982799524
2023-01-30 09:32:35.765063,0.1590802126115263
2023-01-30 09:32:35.770063,0.1500129699707031
2023-01-30 09:32:35.775063,0.1354687467168651
2023-01-30 09:32:35.780063,0.11662065982818595
2023-01-30 09:32:35.785063,0.09433041568950577
2023-01-30 09:32:35.790063,0.06959736347198482
2023-01-30 09:32:35.795063,0.04441291908740722
2023-01-30 09:32:35.800063,0.02086718939244738
2023-01-30 09:32:35.805063,-0.00030691853946146827
2023-01-30 09:32:35.810063,-0.01918435096740716
2023-01-30 09:32:35.815063,-0.0350527675915209
2023-01-30 09:32:35.820063,-0.046758852899074485
2023-01-30 09:32:35.825063,-0.0545685254127098
2023-01-30 09:32:35.830063,-0.06029367446899401
2023-01-30 09:32:35.835063,-0.06527068358862748
2023-01-30 09:32:35.840063,-0.06926079839468
2023-01-30 09:32:35.845063,-0.07162443068079842
2023-01-30 09:32:35.850063,-0.07257839292287818
2023-01-30 09:32:35.855063,-0.07283339226842388
2023-01-30 09:32:35.860063,-0.07274667918682093
2023-01-30 09:32:35.865063,-0.07234412492586868
2023-01-30 09:32:35.870063,-0.07171293348073948
2023-01-30 09:32:35.875063,-0.07097613764769255
2023-01-30 09:32:35.880063,-0.07015030086040493
2023-01-30 09:32:35.885063,-0.0692396211928183
2023-01-30 09:32:35.890063,-0.0682751387357711
2023-01-30 09:32:35.895063,-0.06722240055806172
2023-01-30 09:32:35.900063,-0.0660634040832519
2023-01-30 09:32:35.905063,-0.0649162270659089
2023-01-30 09:32:35.910063,-0.06385167688131327
2023-01-30 09:32:35.915063,-0.06272310522292224
2023-01-30 09:32:35.920063,-0.06142358109354969
2023-01-30 09:32:35.925063,-0.06013174601289607
2023-01-30 09:32:35.930063,-0.05904356762766833
2023-01-30 09:32:35.935063,-0.05808266524409456
2023-01-30 09:32:35.940063,-0.05714436620473862
2023-01-30 09:32:35.945063,-0.05635273779870133
2023-01-30 09:32:35.950063,-0.055774055421352255
2023-01-30 09:32:35.955063,-0.055178162458189045
2023-01-30 09:32:35.960063,-0.05442778393626209
2023-01-30 09:32:35.965063,-0.0538163601480733
2023-01-30 09:32:35.970063,-0.053682528436183874
2023-01-30 09:32:35.975063,-0.05398536767956705
2023-01-30 09:32:35.980063,-0.054572027176618486
2023-01-30 09:32:35.985063,-0.05549862288752081
2023-01-30 09:32:35.990063,-0.05671163648366916
2023-01-30 09:32:35.995063,-0.05777090677922243
2023-01-30 09:32:36.000063,-0.05829831212759006
2023-01-30 09:32:36.005063,-0.05838940238814191
2023-01-30 09:32:36.010063,-0.05822619050741184
2023-01-30 09:32:36.015063,-0.05765512177705032
2023-01-30 09:32:36.020063,-0.056543350219726486
2023-01-30 09:32:36.025063,-0.05517899877873122
2023-01-30 09:32:36.030063,-0.05389889329671848
2023-01-30 09:32:36.035063,-0.05267189316958646
2023-01-30 09:32:36.040063,-0.05144675821065898
2023-01-30 09:32:36.045063,-0.05051344023611921
2023-01-30 09:32:36.050063,-0.05005240440368645
2023-01-30 09:32:36.055063,-0.04964898394870994
2023-01-30 09:32:36.060063,-0.0486580543220043
2023-01-30 09:32:36.065063,-0.0466946339775549
2023-01-30 09:32:36.070063,-0.04339317604899397
2023-01-30 09:32:36.075063,-0.03817212081310282
2023-01-30 09:32:36.080063,-0.030844014137983284
2023-01-30 09:32:36.085063,-0.022249990298184072
2023-01-30 09:32:36.090063,-0.013919472694396869
2023-01-30 09:32:36.095063,-0.007403130076696539
2023-01-30 09:32:36.100063,-0.004183053970336966
2023-01-30 09:32:36.105063,-0.0055657330748316355
2023-01-30 09:32:36.110063,-0.011876027099788113
2023-01-30 09:32:36.115063,-0.021884563971698752
2023-01-30 09:32:36.120063,-0.033464431762695285
2023-01-30 09:32:36.125063,-0.04465707935672513
2023-01-30 09:32:36.130063,-0.053971014916896765
2023-01-30 09:32:36.135063,-0.06034521610863013
2023-01-30 09:32:36.140063,-0.06356319040060049
2023-01-30 09:32:36.145063,-0.06447078407986102
2023-01-30 09:32:36.150063,-0.06423632800579071
2023-01-30 09:32:36.155063,-0.06352678880386438
2023-01-30 09:32:36.160063,-0.06267368793487543
2023-01-30 09:32:36.165063,-0.0621719095855517
2023-01-30 09:32:36.170063,-0.06240924447774886
2023-01-30 09:32:36.175063,-0.06304543988411625
2023-01-30 09:32:36.180063,-0.06293813884258276
2023-01-30 09:32:36.185063,-0.06028603502309944
2023-01-30 09:32:36.190063,-0.05252858251333231
2023-01-30 09:32:36.195063,-0.03690045653813227
2023-01-30 09:32:36.200063,-0.012404918670654234
2023-01-30 09:32:36.205063,0.018059331822427586
2023-01-30 09:32:36.210063,0.04735986515879631
2023-01-30 09:32:36.215063,0.06589843000671165
2023-01-30 09:32:36.220063,0.06462097167968744
2023-01-30 09:32:36.225063,0.03863549543536411
2023-01-30 09:32:36.230063,-0.009616216644644652
2023-01-30 09:32:36.235063,-0.0697850614679496
2023-01-30 09:32:36.240063,-0.12688598036766047
2023-01-30 09:32:36.245063,-0.16678278594005325
2023-01-30 09:32:36.250063,-0.18088102340698242
2023-01-30 09:32:36.255063,-0.16834783825177357
2023-01-30 09:32:36.260063,-0.13566076755523676
2023-01-30 09:32:36.265063,-0.09368009846220524
2023-01-30 09:32:36.270063,-0.05324979871511446
2023-01-30 09:32:36.275063,-0.021580341365320492
2023-01-30 09:32:36.280063,-0.0011779865017160157
2023-01-30 09:32:36.285063,0.009101082515791904
2023-01-30 09:32:36.290063,0.01240491867065417
2023-01-30 09:32:36.295063,0.012378595771223286
2023-01-30 09:32:36.300063,0.011876027099788146
2023-01-30 09:32:36.305063,0.012307278668969322
2023-01-30 09:32:36.310063,0.013919472694396896
2023-01-30 09:32:36.315063,0.01644822775515335
2023-01-30 09:32:36.320063,0.019448798149824108
2023-01-30 09:32:36.325063,0.022392438889814528
2023-01-30 09:32:36.330063,0.024881958961486796
2023-01-30 09:32:36.335063,0.026879006883005842
2023-01-30 09:32:36.340063,0.028704404830932617
2023-01-30 09:32:36.345063,0.030865535735558797
2023-01-30 09:32:36.350063,0.03382503986358637
2023-01-30 09:32:36.355063,0.037808418467990275
2023-01-30 09:32:36.360063,0.04286428540945053
2023-01-30 09:32:36.365063,0.04910164804013869
2023-01-30 09:32:36.370063,0.05661547183990466
2023-01-30 09:32:36.375063,0.06517873921554428
2023-01-30 09:32:36.380063,0.0745256766676902
2023-01-30 09:32:36.385063,0.08506325459718597
2023-01-30 09:32:36.390063,0.0974843949079513
2023-01-30 09:32:36.395063,0.11121887691541422
2023-01-30 09:32:36.400063,0.12424151599407193
2023-01-30 09:32:36.405063,0.13531549881718533
2023-01-30 09:32:36.410063,0.14551739394664756
2023-01-30 09:32:36.415063,0.15625686669925762
2023-01-30 09:32:36.420063,0.16650478541851038
2023-01-30 09:32:36.425063,0.173572718706093
2023-01-30 09:32:36.430063,0.17619311809539787
2023-01-30 09:32:36.435063,0.1750132743165906
2023-01-30 09:32:36.440063,0.17015895247459403
2023-01-30 09:32:36.445063,0.16033937114149027
2023-01-30 09:32:36.450063,0.14486829936504364
2023-01-30 09:32:36.455063,0.12488776765146448
2023-01-30 09:32:36.460063,0.1019559353590011
2023-01-30 09:32:36.465063,0.07695189621322009
2023-01-30 09:32:36.470063,0.051110189408063784
2023-01-30 09:32:36.475063,0.026654977404171654
2023-01-30 09:32:36.480063,0.005361040588468313
2023-01-30 09:32:36.485063,-0.012524228318210649
2023-01-30 09:32:36.490063,-0.027213891968131027
2023-01-30 09:32:36.495063,-0.03836199170018937
2023-01-30 09:32:36.500063,-0.045893393456935785
2023-01-30 09:32:36.505063,-0.05074144263954588
2023-01-30 09:32:36.510063,-0.05382677167654025
2023-01-30 09:32:36.515063,-0.05517021881664747
2023-01-30 09:32:36.520063,-0.054788392037153154
2023-01-30 09:32:36.525063,-0.05353464582875298
2023-01-30 09:32:36.530063,-0.05221605300903318
2023-01-30 09:32:36.535063,-0.05072669993859868
2023-01-30 09:32:36.540063,-0.04885037988424309
2023-01-30 09:32:36.545063,-0.04707090323888862
2023-01-30 09:32:36.550063,-0.04577318951487539
2023-01-30 09:32:36.555063,-0.04446121851904665
2023-01-30 09:32:36.560063,-0.042599838227033636
2023-01-30 09:32:36.565063,-0.040481671894181816
2023-01-30 09:32:36.570063,-0.0384889058768749
2023-01-30 09:32:36.575063,-0.03627684893461934
2023-01-30 09:32:36.580063,-0.03348847478628151
2023-01-30 09:32:36.585063,-0.030523126327598845
2023-01-30 09:32:36.590063,-0.027790864929556788
2023-01-30 09:32:36.595063,-0.024930092109270708
2023-01-30 09:32:36.600063,-0.021564364433288487
2023-01-30 09:32:36.605063,-0.018139316012586348
2023-01-30 09:32:36.610063,-0.015241703018546075
2023-01-30 09:32:36.615063,-0.012796416290665974
2023-01-30 09:32:36.620063,-0.010698040947318029
2023-01-30 09:32:36.625063,-0.00949226608480322
2023-01-30 09:32:36.630063,-0.009592175483703596
2023-01-30 09:32:36.635063,-0.010472074059947233
2023-01-30 09:32:36.640063,-0.011419257149100318
2023-01-30 09:32:36.645063,-0.012428079507044228
2023-01-30 09:32:36.650063,-0.013606945984065514
2023-01-30 09:32:36.655063,-0.014430755696534249
2023-01-30 09:32:36.660063,-0.01442432403564452
2023-01-30 09:32:36.665063,-0.013947940884336117
2023-01-30 09:32:36.670063,-0.01351078413426869
2023-01-30 09:32:36.675063,-0.01295014249719117
2023-01-30 09:32:36.680063,-0.012068351730704275
2023-01-30 09:32:36.685063,-0.011395586713039835
2023-01-30 09:32:36.690063,-0.01146733760833737
2023-01-30 09:32:36.695063,-0.01194956303841991
2023-01-30 09:32:36.700063,-0.012284716591238875
2023-01-30 09:32:36.705063,-0.012594370571250603
2023-01-30 09:32:36.710063,-0.013150176033377599
2023-01-30 09:32:36.715063,-0.013580696198150537
2023-01-30 09:32:36.720063,-0.01341462135314937
2023-01-30 09:32:36.725063,-0.012778836036992909
2023-01-30 09:32:36.730063,-0.011707743629813132
2023-01-30 09:32:36.735063,-0.009350144308951825
2023-01-30 09:32:36.740063,-0.004735986702144193
2023-01-30 09:32:36.745063,0.00212292661823363
2023-01-30 09:32:36.750063,0.010529756546020423
2023-01-30 09:32:36.755063,0.019761559988137296
2023-01-30 09:32:36.760063,0.028584202751517185
2023-01-30 09:32:36.765063,0.0348201210616055
2023-01-30 09:32:36.770063,0.03649353981018061
2023-01-30 09:32:36.775063,0.033182808105497265
2023-01-30 09:32:36.780063,0.025723379105329427
2023-01-30 09:32:36.785063,0.015287127765734942
2023-01-30 09:32:36.790063,0.0035099189262836317
2023-01-30 09:32:36.795063,-0.0073038021945762395
2023-01-30 09:32:36.800063,-0.01531382463872433
2023-01-30 09:32:36.805063,-0.020280612688110773
2023-01-30 09:32:36.810063,-0.022958716377615915
2023-01-30 09:32:36.815063,-0.023929684957371997
2023-01-30 09:32:36.820063,-0.023728013038635202
2023-01-30 09:32:36.825063,-0.02336721122875418
2023-01-30 09:32:36.830063,-0.023703973740339192
2023-01-30 09:32:36.835063,-0.02466586726014011
2023-01-30 09:32:36.840063,-0.0258195400238037
2023-01-30 09:32:36.845063,-0.02702450505336526
2023-01-30 09:32:36.850063,-0.027526419609785
2023-01-30 09:32:36.855063,-0.024874298842685532
2023-01-30 09:32:36.860063,-0.01579463481903069
2023-01-30 09:32:36.865063,0.001779627290848083
2023-01-30 09:32:36.870063,0.0274542979896068
2023-01-30 09:32:36.875063,0.057655746893414864
2023-01-30 09:32:36.880063,0.08486311137676232
2023-01-30 09:32:36.885063,0.0986170251140733
2023-01-30 09:32:36.890063,0.08976738154888145
2023-01-30 09:32:36.895063,0.05544011990226671
2023-01-30 09:32:36.900063,0.0009375810623168282
2023-01-30 09:32:36.905063,-0.061855683245459335
2023-01-30 09:32:36.910063,-0.11779864877462379
2023-01-30 09:32:36.915063,-0.153038926976995
2023-01-30 09:32:36.920063,-0.1602061688899993
2023-01-30 09:32:36.925063,-0.14119633727731717
2023-01-30 09:32:36.930063,-0.10505716502666475
2023-01-30 09:32:36.935063,-0.06304119773730159
2023-01-30 09:32:36.940063,-0.024785798043012598
2023-01-30 09:32:36.945063,0.0035385436189949242
2023-01-30 09:32:36.950063,0.020338296890258678
2023-01-30 09:32:36.955063,0.02836874577039318
2023-01-30 09:32:36.960063,0.03207008168101312
2023-01-30 09:32:36.965063,0.03445667315054275
2023-01-30 09:32:36.970063,0.03658970445394506
2023-01-30 09:32:36.975063,0.03905461299998728
2023-01-30 09:32:36.980063,0.04250367730855942
2023-01-30 09:32:36.985063,0.04687923236906213
2023-01-30 09:32:36.990063,0.05137463659048076
2023-01-30 09:32:36.995063,0.0554551975195803
2023-01-30 09:32:37.000063,0.05923589318990698
2023-01-30 09:32:37.005063,0.06289058000984978
2023-01-30 09:32:37.010063,0.06642401218414298
2023-01-30 09:32:37.015063,0.07001165862432862
2023-01-30 09:32:37.020063,0.07392466068267822
2023-01-30 09:32:37.025063,0.0781700619837041
2023-01-30 09:32:37.030063,0.08274754136800758
2023-01-30 09:32:37.035063,0.08811535133953326
2023-01-30 09:32:37.040063,0.09488801658153534
2023-01-30 09:32:37.045063,0.10328290657326755
2023-01-30 09:32:37.050063,0.11332710832357393
2023-01-30 09:32:37.055063,0.1252402619842867
2023-01-30 09:32:37.060063,0.13900241255760187
2023-01-30 09:32:37.065063,0.1538281610805844
2023-01-30 09:32:37.070063,0.1686203479766844
2023-01-30 09:32:37.075063,0.1826369686100199
2023-01-30 09:32:37.080063,0.19523322582244865
2023-01-30 09:32:37.085063,0.20542318430132872
2023-01-30 09:32:37.090063,0.2123501002788542
2023-01-30 09:32:37.095063,0.21582001443581278
2023-01-30 09:32:37.100063,0.2157638520002365
2023-01-30 09:32:37.105063,0.21155947514548862
2023-01-30 09:32:37.110063,0.20249347388744338
2023-01-30 09:32:37.115063,0.18852268073133704
2023-01-30 09:32:37.120063,0.17006278038024902
2023-01-30 09:32:37.125063,0.1475757723381331
2023-01-30 09:32:37.130063,0.1220778673887252
2023-01-30 09:32:37.135063,0.09560294107508222
2023-01-30 09:32:37.140063,0.07039070129394534
2023-01-30 09:32:37.145063,0.04783521251945177
2023-01-30 09:32:37.150063,0.028632283210754228
2023-01-30 09:32:37.155063,0.013312461001864562
2023-01-30 09:32:37.160063,0.001875162124633706
2023-01-30 09:32:37.165063,-0.006612396540325469
2023-01-30 09:32:37.170063,-0.013246337883174393
2023-01-30 09:32:37.175063,-0.018399809507712188
2023-01-30 09:32:37.180063,-0.02211729809641828
2023-01-30 09:32:37.185063,-0.024824013113562794
2023-01-30 09:32:37.190063,-0.02692540548741811
2023-01-30 09:32:37.195063,-0.02819281909268997
2023-01-30 09:32:37.200063,-0.028295716270804412
2023-01-30 09:32:37.205063,-0.02752978860422915
2023-01-30 09:32:37.210063,-0.026348432525992282
2023-01-30 09:32:37.215063,-0.024656561445381687
2023-01-30 09:32:37.220063,-0.022285580635070776
2023-01-30 09:32:37.225063,-0.019693508386928547
2023-01-30 09:32:37.230063,-0.017453432083129737
2023-01-30 09:32:37.235063,-0.015484556735859632
2023-01-30 09:32:37.240063,-0.013486742973327547
2023-01-30 09:32:37.245063,-0.01165233180024965
2023-01-30 09:32:37.250063,-0.010217229835688997
2023-01-30 09:32:37.255063,-0.008795124861031872
2023-01-30 09:32:37.260063,-0.006923675537109342
2023-01-30 09:32:37.265063,-0.0048294360284593454
2023-01-30 09:32:37.270063,-0.002932945964857917
2023-01-30 09:32:37.275063,-0.0010849040355538004
2023-01-30 09:32:37.280063,0.0009616216411813324
2023-01-30 09:32:37.285063,0.002829625175428819
2023-01-30 09:32:37.290063,0.004062851425260317
2023-01-30 09:32:37.295063,0.004928323954407499
2023-01-30 09:32:37.300063,0.0059139728546141815
2023-01-30 09:32:37.305063,0.006912027187585382
2023-01-30 09:32:37.310063,0.007668932434171388
2023-01-30 09:32:37.315063,0.008520461317172035
2023-01-30 09:32:37.320063,0.009832581505179391
2023-01-30 09:32:37.325063,0.011173502023599506
2023-01-30 09:32:37.330063,0.011876027099788097
2023-01-30 09:32:37.335063,0.01199377757094179
2023-01-30 09:32:37.340063,0.011924108490347748
2023-01-30 09:32:37.345063,0.011586935106217354
2023-01-30 09:32:37.350063,0.010818243026733315
2023-01-30 09:32:37.355063,0.010080881832149743
2023-01-30 09:32:37.360063,0.009880661964416499
2023-01-30 09:32:37.365063,0.009882705376113535
2023-01-30 09:32:37.370063,0.00944793224334711
2023-01-30 09:32:37.375063,0.00863985539379784
2023-01-30 09:32:37.380063,0.007933378219604345
2023-01-30 09:32:37.385063,0.007466834219458358
2023-01-30 09:32:37.390063,0.007476608268916578
2023-01-30 09:32:37.395063,0.008958570375513137
2023-01-30 09:32:37.400063,0.012885729782283296
2023-01-30 09:32:37.405063,0.019046592622389596
2023-01-30 09:32:37.410063,0.026372473686933497
2023-01-30 09:32:37.415063,0.03385960074328013
2023-01-30 09:32:37.420063,0.04031598567962636
2023-01-30 09:32:37.425063,0.04387081389400953
2023-01-30 09:32:37.430063,0.04296044632792471
2023-01-30 09:32:37.435063,0.03762878966453661
2023-01-30 09:32:37.440063,0.029113095253705912
2023-01-30 09:32:37.445063,0.0186663333128809
2023-01-30 09:32:37.450063,0.007620851509272979
2023-01-30 09:32:37.455063,-0.002155961023720148
2023-01-30 09:32:37.460063,-0.009207527153193947
2023-01-30 09:32:37.465063,-0.013648024791612565
2023-01-30 09:32:37.470063,-0.016443729400634714
2023-01-30 09:32:37.475063,-0.018008353989416855
2023-01-30 09:32:37.480063,-0.01848717592656609
2023-01-30 09:32:37.485063,-0.018765931497772993
2023-01-30 09:32:37.490063,-0.019857486709952275
2023-01-30 09:32:37.495063,-0.02163680421612838
2023-01-30 09:32:37.500063,-0.023295283317565883
2023-01-30 09:32:37.505063,-0.024369023289192653
2023-01-30 09:32:37.510063,-0.02375205419957628
2023-01-30 09:32:37.515063,-0.018229012359743953
2023-01-30 09:32:37.520063,-0.004159013740718262
2023-01-30 09:32:37.525063,0.01872958862808232
2023-01-30 09:32:37.530063,0.046181879937648655
2023-01-30 09:32:37.535063,0.07177036984028522
2023-01-30 09:32:37.540063,0.08882980048656455
2023-01-30 09:32:37.545063,0.09038781923203036
2023-01-30 09:32:37.550063,0.07027050107717508
2023-01-30 09:32:37.555063,0.027071770682951357
2023-01-30 09:32:37.560063,-0.032526850700378404
2023-01-30 09:32:37.565063,-0.09496929576757739
2023-01-30 09:32:37.570063,-0.14489233493804923
2023-01-30 09:32:37.575063,-0.17065949946962405
2023-01-30 09:32:37.580063,-0.16804337501525862
2023-01-30 09:32:37.585063,-0.141087663169752
2023-01-30 09:32:37.590063,-0.0997922867536543
2023-01-30 09:32:37.595063,-0.05574031176418612
2023-01-30 09:32:37.600063,-0.018126567825674983
2023-01-30 09:32:37.605063,0.008211746293494996
2023-01-30 09:32:37.610063,0.022910635918378764
2023-01-30 09:32:37.615063,0.028863894114616682
2023-01-30 09:32:37.620063,0.030074715614318796
2023-01-30 09:32:37.625063,0.029685341476112567
2023-01-30 09:32:37.630063,0.02937754057347768
2023-01-30 09:32:37.635063,0.02982930477816305
2023-01-30 09:32:37.640063,0.03106037899851788
2023-01-30 09:32:37.645063,0.032581358567500086
2023-01-30 09:32:37.650063,0.033945243805646765
2023-01-30 09:32:37.655063,0.035277444238699385
2023-01-30 09:32:37.660063,0.03697435185313223
2023-01-30 09:32:37.665063,0.039111749062776625
2023-01-30 09:32:37.670063,0.041590135544538394
2023-01-30 09:32:37.675063,0.04459857173724344
2023-01-30 09:32:37.680063,0.04841765016317358
2023-01-30 09:32:37.685063,0.053013133471179766
2023-01-30 09:32:37.690063,0.05837043374776836
2023-01-30 09:32:37.695063,0.06499997942302792
2023-01-30 09:32:37.700063,0.0735640525817871
2023-01-30 09:32:37.705063,0.08421574999736434
2023-01-30 09:32:37.710063,0.09678721427917475
2023-01-30 09:32:37.715063,0.11128724527824992
2023-01-30 09:32:37.720063,0.12758314609527577
2023-01-30 09:32:37.725063,0.14483224816298124
2023-01-30 09:32:37.730063,0.16181688010692588
2023-01-30 09:32:37.735063,0.17760925798764468
2023-01-30 09:32:37.740063,0.19138674437999714
2023-01-30 09:32:37.745063,0.20196479274912682
2023-01-30 09:32:37.750063,0.20821511745452875
2023-01-30 09:32:37.755063,0.20974250909919306
2023-01-30 09:32:37.760063,0.20658037066459647
2023-01-30 09:32:37.765063,0.19852037336167025
2023-01-30 09:32:37.770063,0.185376614332199
2023-01-30 09:32:37.775063,0.16764354718388824
2023-01-30 09:32:37.780063,0.14628669619560233
2023-01-30 09:32:37.785063,0.12219158420506299
2023-01-30 09:32:37.790063,0.09645064920186983
2023-01-30 09:32:37.795063,0.07083840209812306
2023-01-30 09:32:37.800063,0.04721562191843975
2023-01-30 09:32:37.805063,0.026567183149198814
2023-01-30 09:32:37.810063,0.009111365303397097
2023-01-30 09:32:37.815063,-0.005030052726761634
2023-01-30 09:32:37.820063,-0.01593887805938718
2023-01-30 09:32:37.825063,-0.024309507709260006
2023-01-30 09:32:37.830063,-0.030964216217398616
2023-01-30 09:32:37.835063,-0.036118439926214725
2023-01-30 09:32:37.840063,-0.039690934121608734
2023-01-30 09:32:37.845063,-0.04200725447907728
2023-01-30 09:32:37.850063,-0.04353741928935051
2023-01-30 09:32:37.855063,-0.04426821124328224
2023-01-30 09:32:37.860063,-0.04404227063059801
2023-01-30 09:32:37.865063,-0.043237117533653086
2023-01-30 09:32:37.870063,-0.042431555688381084
2023-01-30 09:32:37.875063,-0.041691567597483666
2023-01-30 09:32:37.880063,-0.04084488004446023
2023-01-30 09:32:37.885063,-0.04011848256005137
2023-01-30 09:32:37.890063,-0.03978709504008287
2023-01-30 09:32:37.895063,-0.03950999901350604
2023-01-30 09:32:37.900063,-0.0387533530592918
2023-01-30 09:32:37.905063,-0.03759650999177987
2023-01-30 09:32:37.910063,-0.036445461213588694
2023-01-30 09:32:37.915063,-0.03529334297900663
2023-01-30 09:32:37.920063,-0.033993326127529165
2023-01-30 09:32:37.925063,-0.03291600381948012
2023-01-30 09:32:37.930063,-0.03255089372396459
2023-01-30 09:32:37.935063,-0.032731927613344654
2023-01-30 09:32:37.940063,-0.032983623445033985
2023-01-30 09:32:37.945063,-0.033319941740230855
2023-01-30 09:32:37.950063,-0.03396928310394275
2023-01-30 09:32:37.955063,-0.03466753523492854
2023-01-30 09:32:37.960063,-0.03502706810832019
2023-01-30 09:32:37.965063,-0.03529728465854477
2023-01-30 09:32:37.970063,-0.03596464917063708
2023-01-30 09:32:37.975063,-0.03689266360686122
2023-01-30 09:32:37.980063,-0.03762344643473621
2023-01-30 09:32:37.985063,-0.038190089430627856
2023-01-30 09:32:37.990063,-0.03882547467946998
2023-01-30 09:32:37.995063,-0.03922418611398536
2023-01-30 09:32:38.000063,-0.03896971791982649
2023-01-30 09:32:38.005063,-0.0384068081950964
2023-01-30 09:32:38.010063,-0.03824850171804413
2023-01-30 09:32:38.015063,-0.03860691418766283
2023-01-30 09:32:38.020063,-0.03921012207865709
2023-01-30 09:32:38.025063,-0.040166069600015814
2023-01-30 09:32:38.030063,-0.041542053222656146
2023-01-30 09:32:38.035063,-0.04248520898313823
2023-01-30 09:32:38.040063,-0.04173437878489487
2023-01-30 09:32:38.045063,-0.03881069014278838
2023-01-30 09:32:38.050063,-0.033921204507350845
2023-01-30 09:32:38.055063,-0.027182632960531472
2023-01-30 09:32:38.060063,-0.019064148887991884
2023-01-30 09:32:38.065063,-0.01128418053378715
2023-01-30 09:32:38.070063,-0.0060582160949706745
2023-01-30 09:32:38.075063,-0.004504971746774859
2023-01-30 09:32:38.080063,-0.006659229751676274
2023-01-30 09:32:38.085063,-0.012547205117529532
2023-01-30 09:32:38.090063,-0.021828811615705376
2023-01-30 09:32:38.095063,-0.03256081489773172
2023-01-30 09:32:38.100063,-0.041950743645429625
2023-01-30 09:32:38.105063,-0.048769668613750476
2023-01-30 09:32:38.110063,-0.053922932595014454
2023-01-30 09:32:38.115063,-0.05843414896316916
2023-01-30 09:32:38.120063,-0.06209671497344969
2023-01-30 09:32:38.125063,-0.06450249271429438
2023-01-30 09:32:38.130063,-0.06618361175060267
2023-01-30 09:32:38.135063,-0.06801075835044777
2023-01-30 09:32:38.140063,-0.07024645805358877
2023-01-30 09:32:38.145063,-0.07276186229955729
2023-01-30 09:32:38.150063,-0.07543921470642082
2023-01-30 09:32:38.155063,-0.07760689137614694
2023-01-30 09:32:38.160063,-0.07736246287822718
2023-01-30 09:32:38.165063,-0.071938300226136
2023-01-30 09:32:38.170063,-0.05885124206542964
2023-01-30 09:32:38.175063,-0.03729039138492198
2023-01-30 09:32:38.180063,-0.00968833826482293
2023-01-30 09:32:38.185063,0.017320045410235314
2023-01-30 09:32:38.190063,0.034089487046003286
2023-01-30 09:32:38.195063,0.031456686244186884
2023-01-30 09:32:38.200063,0.004711946006864267
2023-01-30 09:32:38.205063,-0.043811912567977646
2023-01-30 09:32:38.210063,-0.10440807044506073
2023-01-30 09:32:38.215063,-0.16246579977636902
2023-01-30 09:32:38.220063,-0.2035031765699385
2023-01-30 09:32:38.225063,-0.2185128845791067
2023-01-30 09:32:38.230063,-0.2066284418106078
2023-01-30 09:32:38.235063,-0.1742197417123255
2023-01-30 09:32:38.240063,-0.13181428611278528
2023-01-30 09:32:38.245063,-0.09031923986739837
2023-01-30 09:32:38.250063,-0.05750497430562969
2023-01-30 09:32:38.255063,-0.036148215798813416
2023-01-30 09:32:38.260063,-0.024833878502249652
2023-01-30 09:32:38.265063,-0.020306474194804768
2023-01-30 09:32:38.270063,-0.019256472587585383
2023-01-30 09:32:38.275063,-0.019026895081745793
2023-01-30 09:32:38.280063,-0.018078487366437884
2023-01-30 09:32:38.285063,-0.01621907638894905
2023-01-30 09:32:38.290063,-0.013967554084956622
2023-01-30 09:32:38.295063,-0.011615602733851912
2023-01-30 09:32:38.300063,-0.009135405533015699
2023-01-30 09:32:38.305063,-0.006626022297204173
2023-01-30 09:32:38.310063,-0.004183053970336895
2023-01-30 09:32:38.315063,-0.0014397064639848055
2023-01-30 09:32:38.320063,0.002187689300626478
2023-01-30 09:32:38.325063,0.00688454298725866
2023-01-30 09:32:38.330063,0.012549161911010699
2023-01-30 09:32:38.335063,0.01931924705842847
2023-01-30 09:32:38.340063,0.027430256828665695
2023-01-30 09:32:38.345063,0.036734423797278974
2023-01-30 09:32:38.350063,0.04695117473602285
2023-01-30 09:32:38.355063,0.05825019906817106
2023-01-30 09:32:38.360063,0.07101576030254365
2023-01-30 09:32:38.365063,0.08516723113863285
2023-01-30 09:32:38.370063,0.10022501647472377
2023-01-30 09:32:38.375063,0.11580662911432957
2023-01-30 09:32:38.380063,0.1314296424388885
2023-01-30 09:32:38.385063,0.14600632064750302
2023-01-30 09:32:38.390063,0.15818676352500904
2023-01-30 09:32:38.395063,0.1671168649598215
2023-01-30 09:32:38.400063,0.17234663665294636
2023-01-30 09:32:38.405063,0.17323823559383605
2023-01-30 09:32:38.410063,0.16912519931793202
2023-01-30 09:32:38.415063,0.15991284648556253
2023-01-30 09:32:38.420063,0.14592608809471122
2023-01-30 09:32:38.425063,0.12737107442044815
2023-01-30 09:32:38.430063,0.10462443530559522
2023-01-30 09:32:38.435063,0.07892371244688588
2023-01-30 09:32:38.440063,0.052119892090558964
2023-01-30 09:32:38.445063,0.025817875192626683
2023-01-30 09:32:38.450063,0.0012501081218941807
2023-01-30 09:32:38.455063,-0.020333548943453805
2023-01-30 09:32:38.460063,-0.037960015237331286
2023-01-30 09:32:38.465063,-0.05157596613868213
2023-01-30 09:32:38.470063,-0.061784189194440856
2023-01-30 09:32:38.475063,-0.06903414477132727
2023-01-30 09:32:38.480063,-0.0736121386289596
2023-01-30 09:32:38.485063,-0.07616991681723755
2023-01-30 09:32:38.490063,-0.07750670611858353
2023-01-30 09:32:38.495063,-0.07788767625447994
2023-01-30 09:32:38.500063,-0.07719417661428447
2023-01-30 09:32:38.505063,-0.07562571495906387
2023-01-30 09:32:38.510063,-0.07363617420196522
2023-01-30 09:32:38.515063,-0.0713369857715223
2023-01-30 09:32:38.520063,-0.06863574683666218
2023-01-30 09:32:38.525063,-0.06584577982490857
2023-01-30 09:32:38.530063,-0.06349106878042225
2023-01-30 09:32:38.535063,-0.061598287593724675
2023-01-30 09:32:38.540063,-0.05981286615133278
2023-01-30 09:32:38.545063,-0.05810809773245891
2023-01-30 09:32:38.550063,-0.05675971508026113
2023-01-30 09:32:38.555063,-0.055761847480357174
2023-01-30 09:32:38.560063,-0.05493263527750961
2023-01-30 09:32:38.565063,-0.05448369710593454
2023-01-30 09:32:38.570063,-0.05481243133544915
2023-01-30 09:32:38.575063,-0.05580253710290933
2023-01-30 09:32:38.580063,-0.05695204064249988
2023-01-30 09:32:38.585063,-0.05808853659417238
2023-01-30 09:32:38.590063,-0.059332054108381146
2023-01-30 09:32:38.595063,-0.060483968365398905
2023-01-30 09:32:38.600063,-0.06113509461283676
2023-01-30 09:32:38.605063,-0.061310589955892045
2023-01-30 09:32:38.610063,-0.06137549877166736
2023-01-30 09:32:38.615063,-0.061392806435026766
2023-01-30 09:32:38.620063,-0.061207216233015005
2023-01-30 09:32:38.625063,-0.06105272224159294
2023-01-30 09:32:38.630063,-0.061399541795253705
2023-01-30 09:32:38.635063,-0.06224664778848528
2023-01-30 09:32:38.640063,-0.06317853927612296
2023-01-30 09:32:38.645063,-0.06402617069930691
2023-01-30 09:32:38.650063,-0.06483733654022207
2023-01-30 09:32:38.655063,-0.06531483645192
2023-01-30 09:32:38.660063,-0.06500562280416479
2023-01-30 09:32:38.665063,-0.06404256851970046
2023-01-30 09:32:38.670063,-0.06305833905935278
2023-01-30 09:32:38.675063,-0.06236795399772711
2023-01-30 09:32:38.680063,-0.061808228492736775
2023-01-30 09:32:38.685063,-0.06127181024499252
2023-01-30 09:32:38.690063,-0.06067832559347144
2023-01-30 09:32:38.695063,-0.05937476837323525
2023-01-30 09:32:38.700063,-0.05623082444071764
2023-01-30 09:32:38.705063,-0.050526176046353385
2023-01-30 09:32:38.710063,-0.04243155568838104
2023-01-30 09:32:38.715063,-0.03281863297231519
2023-01-30 09:32:38.720063,-0.02319912239909166
2023-01-30 09:32:38.725063,-0.015727896767250334
2023-01-30 09:32:38.730063,-0.012477040290832471
2023-01-30 09:32:38.735063,-0.014359218364649885
2023-01-30 09:32:38.740063,-0.0208912305533885
2023-01-30 09:32:38.745063,-0.03074577280016544
2023-01-30 09:32:38.750063,-0.04209498688578599
2023-01-30 09:32:38.755063,-0.052782428128311826
2023-01-30 09:32:38.760063,-0.06103893369436261
2023-01-30 09:32:38.765063,-0.06627219039312544
2023-01-30 09:32:38.770063,-0.0688761472702026
2023-01-30 09:32:38.775063,-0.06944897285796955
2023-01-30 09:32:38.780063,-0.06861170381307599
2023-01-30 09:32:38.785063,-0.06726800667257664
2023-01-30 09:32:38.790063,-0.06632785499095907
2023-01-30 09:32:38.795063,-0.06616459035238746
2023-01-30 09:32:38.800063,-0.06671249866485585
2023-01-30 09:32:38.805063,-0.06773517297988756
2023-01-30 09:32:38.810063,-0.06825109571218492
2023-01-30 09:32:38.815063,-0.06580595976703972
2023-01-30 09:32:38.820063,-0.0571443662047386
2023-01-30 09:32:38.825063,-0.04012798674132452
2023-01-30 09:32:38.830063,-0.015409986488520966
2023-01-30 09:32:38.835063,0.01272314972070104
2023-01-30 09:32:38.840063,0.036301217973232214
2023-01-30 09:32:38.845063,0.04533089346137284
2023-01-30 09:32:38.850063,0.031805634498596046
2023-01-30 09:32:38.855063,-0.005873154174518348
2023-01-30 09:32:38.860063,-0.06118317693471897
2023-01-30 09:32:38.865063,-0.12137223107672779
2023-01-30 09:32:38.870063,-0.1715052127838134
2023-01-30 09:32:38.875063,-0.1992392925831282
2023-01-30 09:32:38.880063,-0.19912779331207267
2023-01-30 09:32:38.885063,-0.174364520142437
2023-01-30 09:32:38.890063,-0.134530872106552
2023-01-30 09:32:38.895063,-0.0909399487244535
2023-01-30 09:32:38.900063,-0.052744947373866945
2023-01-30 09:32:38.905063,-0.02510673689449969
2023-01-30 09:32:38.910063,-0.008798837661743128
2023-01-30 09:32:38.915063,-0.0010682974870469526
2023-01-30 09:32:38.920063,0.00213960814289738
2023-01-30 09:32:38.925063,0.003933117266913911
2023-01-30 09:32:38.930063,0.005889932624995651
2023-01-30 09:32:38.935063,0.00871674146045973
2023-01-30 09:32:38.940063,0.012549161911010732
2023-01-30 09:32:38.945063,0.016849137475503928
2023-01-30 09:32:38.950063,0.020915269851684484
2023-01-30 09:32:38.955063,0.024629959841486585
2023-01-30 09:32:38.960063,0.028271675109863184
2023-01-30 09:32:38.965063,0.031826983895737335
2023-01-30 09:32:38.970063,0.03512322902679439
2023-01-30 09:32:38.975063,0.038458847621916516
2023-01-30 09:32:38.980063,0.04243155568838109
2023-01-30 09:32:38.985063,0.04726004992495385
2023-01-30 09:32:38.990063,0.05288919061422335
2023-01-30 09:32:38.995063,0.059604802187336964
2023-01-30 09:32:39.000063,0.06789048761129368
2023-01-30 09:32:39.005063,0.07780019286219618
2023-01-30 09:32:39.010063,0.08909424394369117
2023-01-30 09:32:39.015063,0.10183706461577233
2023-01-30 09:32:39.020063,0.11618793010711656
2023-01-30 09:32:39.025063,0.13169349196328883
2023-01-30 09:32:39.030063,0.14739255607128127
2023-01-30 09:32:39.035063,0.1624782894882394
2023-01-30 09:32:39.040063,0.17624120414257033
2023-01-30 09:32:39.045063,0.18754906192351636
2023-01-30 09:32:39.050063,0.195113033056259
2023-01-30 09:32:39.055063,0.1982339235163999
2023-01-30 09:32:39.060063,0.19672374427318565
2023-01-30 09:32:39.065063,0.1902815661845269
2023-01-30 09:32:39.070063,0.1786452531814574
2023-01-30 09:32:39.075063,0.1622713369765911
2023-01-30 09:32:39.080063,0.14222383499145497
2023-01-30 09:32:39.085063,0.1194895231051539
2023-01-30 09:32:39.090063,0.0950082167983054
2023-01-30 09:32:39.095063,0.07019253829755863
2023-01-30 09:32:39.100063,0.04666268825530994
2023-01-30 09:32:39.105063,0.02545415742360803
2023-01-30 09:32:39.110063,0.007019837852567406
2023-01-30 09:32:39.115063,-0.008185964838185584
2023-01-30 09:32:39.120063,-0.01983344554901124
2023-01-30 09:32:39.125063,-0.02831823022085669
2023-01-30 09:32:39.130063,-0.034522216767072574
2023-01-30 09:32:39.135063,-0.03897287128879746
2023-01-30 09:32:39.140063,-0.04178246110677714
2023-01-30 09:32:39.145063,-0.043239030131305846
2023-01-30 09:32:39.150063,-0.04375378414988506
2023-01-30 09:32:39.155063,-0.04330969554723956
2023-01-30 09:32:39.160063,-0.04166225716471671
2023-01-30 09:32:39.165063,-0.03906624685292791
2023-01-30 09:32:39.170063,-0.036181014031171646
2023-01-30 09:32:39.175063,-0.03331586574994016
2023-01-30 09:32:39.180063,-0.030387243255972796
2023-01-30 09:32:39.185063,-0.027528887769382705
2023-01-30 09:32:39.190063,-0.025074284523725465
2023-01-30 09:32:39.195063,-0.022979040611235627
2023-01-30 09:32:39.200063,-0.020915269851684504
2023-01-30 09:32:39.205063,-0.01892598372659095
2023-01-30 09:32:39.210063,-0.017381310462951632
2023-01-30 09:32:39.215063,-0.016326865677235968
2023-01-30 09:32:39.220063,-0.01548210810869935
2023-01-30 09:32:39.225063,-0.014838244293705874
2023-01-30 09:32:39.230063,-0.014640688896179062
2023-01-30 09:32:39.235063,-0.014801884637317674
2023-01-30 09:32:39.240063,-0.014929175376891994
2023-01-30 09:32:39.245063,-0.014927563634155995
2023-01-30 09:32:39.250063,-0.015025338158011393
2023-01-30 09:32:39.255063,-0.015249480019572393
2023-01-30 09:32:39.260063,-0.015434026718139619
2023-01-30 09:32:39.265063,-0.01569673307151994
2023-01-30 09:32:39.270063,-0.016347568482160516
2023-01-30 09:32:39.275063,-0.017361780916729144
2023-01-30 09:32:39.280063,-0.01846313476562501
2023-01-30 09:32:39.285063,-0.019652911513558625
2023-01-30 09:32:39.290063,-0.021131634712219165
2023-01-30 09:32:39.295063,-0.02279278542115936
2023-01-30 09:32:39.300063,-0.02432902716100208
2023-01-30 09:32:39.305063,-0.025737856765528522
2023-01-30 09:32:39.310063,-0.027189850807189907
2023-01-30 09:32:39.315063,-0.028522246193773176
2023-01-30 09:32:39.320063,-0.0294256210327148
2023-01-30 09:32:39.325063,-0.030028689206058827
2023-01-30 09:32:39.330063,-0.03074785135686389
2023-01-30 09:32:39.335063,-0.031647375032183615
2023-01-30 09:32:39.340063,-0.032430689781904255
2023-01-30 09:32:39.345063,-0.0328541291605395
2023-01-30 09:32:39.350063,-0.03255089372396457
2023-01-30 09:32:39.355063,-0.030628562105607143
2023-01-30 09:32:39.360063,-0.02615610882639882
2023-01-30 09:32:39.365063,-0.019130914013038666
2023-01-30 09:32:39.370063,-0.010601878166198645
2023-01-30 09:32:39.375063,-0.0020715046444947233
2023-01-30 09:32:39.380063,0.004735986702144108
2023-01-30 09:32:39.385063,0.007922564139242515
2023-01-30 09:32:39.390063,0.006178419105708523
2023-01-30 09:32:39.395063,-0.00030395151696381123
2023-01-30 09:32:39.400063,-0.010048946365714007
2023-01-30 09:32:39.405063,-0.021289208489271905
2023-01-30 09:32:39.410063,-0.03238260746002183
2023-01-30 09:32:39.415063,-0.04174889574458779
2023-01-30 09:32:39.420063,-0.04832148551940909
2023-01-30 09:32:39.425063,-0.0521255492153421
2023-01-30 09:32:39.430063,-0.05387485027313223
2023-01-30 09:32:39.435063,-0.054088959656013305
2023-01-30 09:32:39.440063,-0.05308151245117177
2023-01-30 09:32:39.445063,-0.051519325029381925
2023-01-30 09:32:39.450063,-0.050244729965925175
2023-01-30 09:32:39.455063,-0.04954996393387401
2023-01-30 09:32:39.460063,-0.04904270172119138
2023-01-30 09:32:39.465063,-0.047840136702139276
2023-01-30 09:32:39.470063,-0.04413843154907221
2023-01-30 09:32:39.475063,-0.03491859784088147
2023-01-30 09:32:39.480063,-0.017333230003714523
2023-01-30 09:32:39.485063,0.008779008770739276
2023-01-30 09:32:39.490063,0.03940244764089574
2023-01-30 09:32:39.495063,0.06673817535925897
2023-01-30 09:32:39.500063,0.08094450086355195
2023-01-30 09:32:39.505063,0.07320557220593855
2023-01-30 09:32:39.510063,0.03995537757873525
2023-01-30 09:32:39.515063,-0.014017818512927854
2023-01-30 09:32:39.520063,-0.07635276019573206
2023-01-30 09:32:39.525063,-0.13157383730707642
2023-01-30 09:32:39.530063,-0.16640862822532648
2023-01-30 09:32:39.535063,-0.17382190666434114
2023-01-30 09:32:39.540063,-0.15501341223716725
2023-01-30 09:32:39.545063,-0.11850016186281842
2023-01-30 09:32:39.550063,-0.07604023069143284
2023-01-30 09:32:39.555063,-0.03767411640821344
2023-01-30 09:32:39.560063,-0.009015202522277832
2023-01-30 09:32:39.565063,0.008679477941901723
2023-01-30 09:32:39.570063,0.01735727116465558
2023-01-30 09:32:39.575063,0.020765129044944073
2023-01-30 09:32:39.580063,0.02255002781748773
2023-01-30 09:32:39.585063,0.024689922743736152
2023-01-30 09:32:39.590063,0.027574500069022116
2023-01-30 09:32:39.595063,0.03113383615697961
2023-01-30 09:32:39.600063,0.03526747226715081
2023-01-30 09:32:39.605063,0.039541447967821296
2023-01-30 09:32:39.610063,0.04344125837087623
2023-01-30 09:32:39.615063,0.04704969323513393
2023-01-30 09:32:39.620063,0.0508938245475292
2023-01-30 09:32:39.625063,0.05518308986196607
2023-01-30 09:32:39.630063,0.05978882312774643
2023-01-30 09:32:39.635063,0.064838760352894
2023-01-30 09:32:39.640063,0.07065515220165247
2023-01-30 09:32:39.645063,0.0771949729515036
2023-01-30 09:32:39.650063,0.08423805236816395
2023-01-30 09:32:39.655063,0.09209234441312482
2023-01-30 09:32:39.660063,0.10147511959075917
2023-01-30 09:32:39.665063,0.11272781573295895
2023-01-30 09:32:39.670063,0.12570798397064192
2023-01-30 09:32:39.675063,0.14028580424133086
2023-01-30 09:32:39.680063,0.15621542930603016
2023-01-30 09:32:39.685063,0.17253733643840188
2023-01-30 09:32:39.690063,0.18778066337108604
2023-01-30 09:32:39.695063,0.20080350372072772
2023-01-30 09:32:39.700063,0.2109317034482955
2023-01-30 09:32:39.705063,0.21743032613905977
2023-01-30 09:32:39.710063,0.21953821182250965
2023-01-30 09:32:39.715063,0.21701882468816475
2023-01-30 09:32:39.720063,0.21006624400615684
2023-01-30 09:32:39.725063,0.1986888508999772
2023-01-30 09:32:39.730063,0.18278023600578297
2023-01-30 09:32:39.735063,0.16278586174620582
2023-01-30 09:32:39.740063,0.1397476643323898
2023-01-30 09:32:39.745063,0.1147360625683039
2023-01-30 09:32:39.750063,0.08878171443939195
2023-01-30 09:32:39.755063,0.06327223970579479
2023-01-30 09:32:39.760063,0.039763055741786874
2023-01-30 09:32:39.765063,0.01928800858794772
2023-01-30 09:32:39.770063,0.0022357702255248906
2023-01-30 09:32:39.775063,-0.01122230351534043
2023-01-30 09:32:39.780063,-0.0210835542529821
2023-01-30 09:32:39.785063,-0.027796125522280394
2023-01-30 09:32:39.790063,-0.03209412097930896
2023-01-30 09:32:39.795063,-0.034584099840657155
2023-01-30 09:32:39.800063,-0.0357963666319847
2023-01-30 09:32:39.805063,-0.03635087733606758
2023-01-30 09:32:39.810063,-0.03658970445394509
2023-01-30 09:32:39.815063,-0.03629996876387311
2023-01-30 09:32:39.820063,-0.0352915152907371
2023-01-30 09:32:39.825063,-0.03397044942445001
2023-01-30 09:32:39.830063,-0.03283938020467751
2023-01-30 09:32:39.835063,-0.03177132253735018
2023-01-30 09:32:39.840063,-0.03036320209503173
2023-01-30 09:32:39.845063,-0.02867961081482355
2023-01-30 09:32:39.850063,-0.02702156826853756
2023-01-30 09:32:39.855063,-0.02529006256041445
2023-01-30 09:32:39.860063,-0.023271244019269936
2023-01-30 09:32:39.865063,-0.021275455221935694
2023-01-30 09:32:39.870063,-0.019785365089774083
2023-01-30 09:32:39.875063,-0.018689853990158344
2023-01-30 09:32:39.880063,-0.017525553703308085
2023-01-30 09:32:39.885063,-0.01623132326223265
2023-01-30 09:32:39.890063,-0.015001296997070312
2023-01-30 09:32:39.895063,-0.013673063264015956
2023-01-30 09:32:39.900063,-0.011996230110526009
2023-01-30 09:32:39.905063,-0.010292080938188272
2023-01-30 09:32:39.910063,-0.009135405533015699
2023-01-30 09:32:39.915063,-0.008573458038156465
2023-01-30 09:32:39.920063,-0.008318027481436691
2023-01-30 09:32:39.925063,-0.008455472468371814
2023-01-30 09:32:39.930063,-0.009255608543753594
2023-01-30 09:32:39.935063,-0.010516442407854064
2023-01-30 09:32:39.940063,-0.011827945709228509
2023-01-30 09:32:39.945063,-0.013272241349432095
2023-01-30 09:32:39.950063,-0.01514554023742669
2023-01-30 09:32:39.955063,-0.01719957518526998
2023-01-30 09:32:39.960063,-0.018871825188398285
2023-01-30 09:32:39.965063,-0.020054179295606628
2023-01-30 09:32:39.970063,-0.020939311012625555
2023-01-30 09:32:39.975063,-0.021365732850663496
2023-01-30 09:32:39.980063,-0.02105951309204103
2023-01-30 09:32:39.985063,-0.020271756956151587
2023-01-30 09:32:39.990063,-0.019376676529645878
2023-01-30 09:32:39.995063,-0.017999796688484476
2023-01-30 09:32:40.000063,-0.015265743248164598
2023-01-30 09:32:40.005063,-0.010734466346019784
2023-01-30 09:32:40.010063,-0.004471540451049807
2023-01-30 09:32:40.015063,0.003404541247206685
2023-01-30 09:32:40.020063,0.01233279705047597
2023-01-30 09:32:40.025063,0.020654580057274392
2023-01-30 09:32:40.030063,0.026228230446576985
2023-01-30 09:32:40.035063,0.02773042201858837
2023-01-30 09:32:40.040063,0.024906000122427913
2023-01-30 09:32:40.045063,0.01804283743200806
2023-01-30 09:32:40.050063,0.008125702850520639
2023-01-30 09:32:40.055063,-0.0027686903480304108
2023-01-30 09:32:40.060063,-0.012260675430297787
2023-01-30 09:32:40.065063,-0.018979108797314074
2023-01-30 09:32:40.070063,-0.022646188735961886
2023-01-30 09:32:40.075063,-0.02332075657132168
2023-01-30 09:32:40.080063,-0.021420121192932143
2023-01-30 09:32:40.085063,-0.018172221508215063
2023-01-30 09:32:40.090063,-0.015049378387629885
2023-01-30 09:32:40.095063,-0.012754328834129889
2023-01-30 09:32:40.100063,-0.01134713552892199
2023-01-30 09:32:40.105063,-0.010914947290152155
2023-01-30 09:32:40.110063,-0.01108268927782772
2023-01-30 09:32:40.115063,-0.00996307129543457
2023-01-30 09:32:40.120063,-0.004495581146329603
2023-01-30 09:32:40.125063,0.007990687851266822
2023-01-30 09:32:40.130063,0.028584202751517178
2023-01-30 09:32:40.135063,0.05590876688472701
2023-01-30 09:32:40.140063,0.08481502532958976
2023-01-30 09:32:40.145063,0.10616480501858423
2023-01-30 09:32:40.150063,0.10976910591125479
2023-01-30 09:32:40.155063,0.0891847765790247
2023-01-30 09:32:40.160063,0.0449317693710327
2023-01-30 09:32:40.165063,-0.01515396495951139
2023-01-30 09:32:40.170063,-0.07760286331176752
2023-01-30 09:32:40.175063,-0.12699702223396248
2023-01-30 09:32:40.180063,-0.15152752399444572
2023-01-30 09:32:40.185063,-0.147558039449285
2023-01-30 09:32:40.190063,-0.11989017575979233
2023-01-30 09:32:40.195063,-0.07835246563674109
2023-01-30 09:32:40.200063,-0.03396928310394281
2023-01-30 09:32:40.205063,0.0039660690419644875
2023-01-30 09:32:40.210063,0.030339162796735698
2023-01-30 09:32:40.215063,0.04515844434818844
2023-01-30 09:32:40.220063,0.051687162369489614
2023-01-30 09:32:40.225063,0.05349545333447057
2023-01-30 09:32:40.230063,0.053297877311706494
2023-01-30 09:32:40.235063,0.05325711985247572
2023-01-30 09:32:40.240063,0.05462010949850081
2023-01-30 09:32:40.245063,0.05708326486379261
2023-01-30 09:32:40.250063,0.05966862291097639
2023-01-30 09:32:40.255063,0.06216594314752733
2023-01-30 09:32:40.260063,0.06490945816040031
2023-01-30 09:32:40.265063,0.0676963814324944
2023-01-30 09:32:40.270063,0.07015030086040486
2023-01-30 09:32:40.275063,0.072765803647656
2023-01-30 09:32:40.280063,0.07635276019573209
2023-01-30 09:32:40.285063,0.08079264635046983
2023-01-30 09:32:40.290063,0.0855602845549583
2023-01-30 09:32:40.295063,0.0910539633374618
2023-01-30 09:32:40.300063,0.098109446465969
2023-01-30 09:32:40.305063,0.10665168723928914
2023-01-30 09:32:40.310063,0.11621197313070288
2023-01-30 09:32:40.315063,0.1272653271198237
2023-01-30 09:32:40.320063,0.14049291610717768
2023-01-30 09:32:40.325063,0.1551722785986133
2023-01-30 09:32:40.330063,0.16991853713989252
2023-01-30 09:32:40.335063,0.18448651495713397
2023-01-30 09:32:40.340063,0.199007600545883
2023-01-30 09:32:40.345063,0.21200696981127862
2023-01-30 09:32:40.350063,0.22134125232696525
2023-01-30 09:32:40.355063,0.22667709127034522
2023-01-30 09:32:40.360063,0.22862553596496565
2023-01-30 09:32:40.365063,0.22581750671546238
2023-01-30 09:32:40.370063,0.21593213081359852
2023-01-30 09:32:40.375063,0.19995541530633074
2023-01-30 09:32:40.380063,0.1821311414241789
2023-01-30 09:32:40.385063,0.1645172228584377
2023-01-30 09:32:40.390063,0.14460384845733626
2023-01-30 09:32:40.395063,0.1200763993961559
2023-01-30 09:32:40.400063,0.09327729791402802
2023-01-30 09:32:40.405063,0.06865601273344503
2023-01-30 09:32:40.410063,0.047840677201747776
2023-01-30 09:32:40.415063,0.02974531256961556
2023-01-30 09:32:40.420063,0.014039675705134784
2023-01-30 09:32:40.425063,0.0017333069951901336
2023-01-30 09:32:40.430063,-0.007067918777465839
2023-01-30 09:32:40.435063,-0.013563955917747108
2023-01-30 09:32:40.440063,-0.018463134765625017
2023-01-30 09:32:40.445063,-0.021556948528272366
2023-01-30 09:32:40.450063,-0.023054879158735175
2023-01-30 09:32:40.455063,-0.023832355715948834
2023-01-30 09:32:40.460063,-0.024280946701765015
2023-01-30 09:32:40.465063,-0.024110220778697667
2023-01-30 09:32:40.470063,-0.023319324478506955
2023-01-30 09:32:40.475063,-0.022360394902714076
2023-01-30 09:32:40.480063,-0.02137204073369504
2023-01-30 09:32:40.485063,-0.02015792261520155
2023-01-30 09:32:40.490063,-0.018895864486694273
2023-01-30 09:32:40.495063,-0.018088562939315985
2023-01-30 09:32:40.500063,-0.01786212250590317
2023-01-30 09:32:40.505063,-0.01796398820878176
2023-01-30 09:32:40.510063,-0.018318891525268482
2023-01-30 09:32:40.515063,-0.018967288474833522
2023-01-30 09:32:40.520063,-0.019617080688476486
2023-01-30 09:32:40.525063,-0.01985679181427751
2023-01-30 09:32:40.530063,-0.019689202308654657
2023-01-30 09:32:40.535063,-0.019374281888337827
2023-01-30 09:32:40.540063,-0.018943946808576483
2023-01-30 09:32:40.545063,-0.01832747305991014
2023-01-30 09:32:40.550063,-0.01771787926554667
2023-01-30 09:32:40.555063,-0.017358615924643443
2023-01-30 09:32:40.560063,-0.017188986763358043
2023-01-30 09:32:40.565063,-0.017095944233037147
2023-01-30 09:32:40.570063,-0.017261108383536266
2023-01-30 09:32:40.575063,-0.017883945910608042
2023-01-30 09:32:40.580063,-0.018823742866516124
2023-01-30 09:32:40.585063,-0.019842015491471566
2023-01-30 09:32:40.590063,-0.020891230553388457
2023-01-30 09:32:40.595063,-0.02184231058757443
2023-01-30 09:32:40.600063,-0.02226154133677474
2023-01-30 09:32:40.605063,-0.021806651668461952
2023-01-30 09:32:40.610063,-0.02057870291173447
2023-01-30 09:32:40.615063,-0.018856964230247058
2023-01-30 09:32:40.620063,-0.016852419823408127
2023-01-30 09:32:40.625063,-0.01494955533378469
2023-01-30 09:32:40.630063,-0.013727148994803344
2023-01-30 09:32:40.635063,-0.013353305409068999
2023-01-30 09:32:40.640063,-0.013222297653555794
2023-01-30 09:32:40.645063,-0.01238873644812469
2023-01-30 09:32:40.650063,-0.010048946365713992
2023-01-30 09:32:40.655063,-0.005574180074635462
2023-01-30 09:32:40.660063,0.0012501081218941816
2023-01-30 09:32:40.665063,0.009575574689235372
2023-01-30 09:32:40.670063,0.01742939278483391
2023-01-30 09:32:40.675063,0.022629128436288264
2023-01-30 09:32:40.680063,0.02363185212016099
2023-01-30 09:32:40.685063,0.01969303475684825
2023-01-30 09:32:40.690063,0.011010567657649526
2023-01-30 09:32:40.695063,-0.0009178985821142783
2023-01-30 09:32:40.700063,-0.013630986213684037
2023-01-30 09:32:40.705063,-0.024876311983440626
2023-01-30 09:32:40.710063,-0.033368270844221046
2023-01-30 09:32:40.715063,-0.03858477167366745
2023-01-30 09:32:40.720063,-0.04055639356374739
2023-01-30 09:32:40.725063,-0.040074970983834765
2023-01-30 09:32:40.730063,-0.03846486657857887
2023-01-30 09:32:40.735063,-0.03676006834937328
2023-01-30 09:32:40.740063,-0.0354117155075073
2023-01-30 09:32:40.745063,-0.03476516515620592
2023-01-30 09:32:40.750063,-0.03507515043020235
2023-01-30 09:32:40.755063,-0.03568859693121821
2023-01-30 09:32:40.760063,-0.03464242070913311
2023-01-30 09:32:40.765063,-0.029302345883057346
2023-01-30 09:32:40.770063,-0.017261108383536332
2023-01-30 09:32:40.775063,0.0027238454234598253
2023-01-30 09:32:40.780063,0.029113095253705874
2023-01-30 09:32:40.785063,0.05606547743724932
2023-01-30 09:32:40.790063,0.07418911159038534
2023-01-30 09:32:40.795063,0.07398855106957658
2023-01-30 09:32:40.800063,0.04986008256673814
2023-01-30 09:32:40.805063,0.0027367617695377836
2023-01-30 09:32:40.810063,-0.05904356762766831
2023-01-30 09:32:40.815063,-0.12131598274306252
2023-01-30 09:32:40.820063,-0.16878864169120772
2023-01-30 09:32:40.825063,-0.19094845937569704
2023-01-30 09:32:40.830063,-0.1854006499052046
2023-01-30 09:32:40.835063,-0.15725519900144908
2023-01-30 09:32:40.840063,-0.11640429496765127
2023-01-30 09:32:40.845063,-0.07420481241254732
2023-01-30 09:32:40.850063,-0.03969093412160867
2023-01-30 09:32:40.855063,-0.016715819022860526
2023-01-30 09:32:40.860063,-0.004303256981074779
2023-01-30 09:32:40.865063,0.0005626354083133548
2023-01-30 09:32:40.870063,0.0011058648815378072
2023-01-30 09:32:40.875063,0.0006640623215545508
2023-01-30 09:32:40.880063,0.001899202703498337
2023-01-30 09:32:40.885063,0.0051245406310182155
2023-01-30 09:32:40.890063,0.008774797432124596
2023-01-30 09:32:40.895063,0.012206035442641061
2023-01-30 09:32:40.900063,0.016612013801932345
2023-01-30 09:32:40.905063,0.022508382896000285
2023-01-30 09:32:40.910063,0.028127431869506732
2023-01-30 09:32:40.915063,0.03170879726874741
2023-01-30 09:32:40.920063,0.034017365425825105
2023-01-30 09:32:40.925063,0.037013755520449575
2023-01-30 09:32:40.930063,0.041085284203290856
2023-01-30 09:32:40.935063,0.04529000354266822
2023-01-30 09:32:40.940063,0.04959563538432122
2023-01-30 09:32:40.945063,0.055087745816179146
2023-01-30 09:32:40.950063,0.06226500123739232
2023-01-30 09:32:40.955063,0.07072061104118835
2023-01-30 09:32:40.960063,0.08043964952230448
2023-01-30 09:32:40.965063,0.09200830174468634
2023-01-30 09:32:40.970063,0.1054177731275558
2023-01-30 09:32:40.975063,0.11975655696039965
2023-01-30 09:32:40.980063,0.13414621353149409
2023-01-30 09:32:40.985063,0.14799850379135657
2023-01-30 09:32:40.990063,0.16032636165618885
2023-01-30 09:32:40.995063,0.16978292813778495
2023-01-30 09:32:41.000063,0.17554402351379386
2023-01-30 09:32:41.005063,0.17741574092881143
2023-01-30 09:32:41.010063,0.17506322264671315
2023-01-30 09:32:41.015063,0.1679002749006526
2023-01-30 09:32:41.020063,0.15578269958496088
2023-01-30 09:32:41.025063,0.13913087659527051
2023-01-30 09:32:41.030063,0.11839966475963583
2023-01-30 09:32:41.035063,0.09415351637753523
2023-01-30 09:32:41.040063,0.06769816577434526
2023-01-30 09:32:41.045063,0.04095978481761817
2023-01-30 09:32:41.050063,0.015626352280378328
2023-01-30 09:32:41.055063,-0.007155585940464945
2023-01-30 09:32:41.060063,-0.02644459530711168
2023-01-30 09:32:41.065063,-0.041623385008878445
2023-01-30 09:32:41.070063,-0.05291322991251936
2023-01-30 09:32:41.075063,-0.06117877199750198
2023-01-30 09:32:41.080063,-0.06714522838592521
2023-01-30 09:32:41.085063,-0.07121470004057438
2023-01-30 09:32:41.090063,-0.07387658208608616
2023-01-30 09:32:41.095063,-0.07565363050898223
2023-01-30 09:32:41.100063,-0.07664124667644497
2023-01-30 09:32:41.105063,-0.07664577794349833
2023-01-30 09:32:41.110063,-0.07577578723430624
2023-01-30 09:32:41.115063,-0.07442252064043903
2023-01-30 09:32:41.120063,-0.07274667918682086
2023-01-30 09:32:41.125063,-0.07071491589910395
2023-01-30 09:32:41.130063,-0.06856362521648396
2023-01-30 09:32:41.135063,-0.066670453942842
2023-01-30 09:32:41.140063,-0.06500562280416478
2023-01-30 09:32:41.145063,-0.06323551431490383
2023-01-30 09:32:41.150063,-0.061327420175075455
2023-01-30 09:32:41.155063,-0.05955050502259015
2023-01-30 09:32:41.160063,-0.057961743324994944
2023-01-30 09:32:41.165063,-0.05643712487110334
2023-01-30 09:32:41.170063,-0.0551490001380443
2023-01-30 09:32:41.175063,-0.05444088956443982
2023-01-30 09:32:41.180063,-0.05423545837402339
2023-01-30 09:32:41.185063,-0.05408865922595305
2023-01-30 09:32:41.190063,-0.0538027286529541
2023-01-30 09:32:41.195063,-0.05346792476934149
2023-01-30 09:32:41.200063,-0.05296131223440173
2023-01-30 09:32:41.205063,-0.051995173819906745
2023-01-30 09:32:41.210063,-0.0506774596869945
2023-01-30 09:32:41.215063,-0.04947592134973826
2023-01-30 09:32:41.220063,-0.048609972000122015
2023-01-30 09:32:41.225063,-0.0479983243216674
2023-01-30 09:32:41.230063,-0.04776855558156963
2023-01-30 09:32:41.235063,-0.04820739600055332
2023-01-30 09:32:41.240063,-0.04916290566325177
2023-01-30 09:32:41.245063,-0.0500781521862181
2023-01-30 09:32:41.250063,-0.0506774596869945
2023-01-30 09:32:41.255063,-0.05106786551897993
2023-01-30 09:32:41.260063,-0.051158271729946095
2023-01-30 09:32:41.265063,-0.050632441750923844
2023-01-30 09:32:41.270063,-0.04959563538432114
2023-01-30 09:32:41.275063,-0.04861509865160438
2023-01-30 09:32:41.280063,-0.04798492044210431
2023-01-30 09:32:41.285063,-0.047535153084486095
2023-01-30 09:32:41.290063,-0.04721562191843975
2023-01-30 09:32:41.295063,-0.04711804777262625
2023-01-30 09:32:41.300063,-0.046710770577192307
2023-01-30 09:32:41.305063,-0.04477052631666771
2023-01-30 09:32:41.310063,-0.04038810729980457
2023-01-30 09:32:41.315063,-0.03350602717973267
2023-01-30 09:32:41.320063,-0.024425189942121478
2023-01-30 09:32:41.325063,-0.013710712758134064
2023-01-30 09:32:41.330063,-0.002956986427307034
2023-01-30 09:32:41.335063,0.005257630669561176
2023-01-30 09:32:41.340063,0.008846919052302766
2023-01-30 09:32:41.345063,0.007213551339620326
2023-01-30 09:32:41.350063,0.0006731351604685471
2023-01-30 09:32:41.355063,-0.010045818422154544
2023-01-30 09:32:41.360063,-0.02317508123815051
2023-01-30 09:32:41.365063,-0.035907896001766235
2023-01-30 09:32:41.370063,-0.046085715293884104
2023-01-30 09:32:41.375063,-0.05334153826168736
2023-01-30 09:32:41.380063,-0.05800982564687717
2023-01-30 09:32:41.385063,-0.05998210171708347
2023-01-30 09:32:41.390063,-0.059620540589094044
2023-01-30 09:32:41.395063,-0.05862261658545147
2023-01-30 09:32:41.400063,-0.058466594666242454
2023-01-30 09:32:41.405063,-0.05883480167712584
2023-01-30 09:32:41.410063,-0.059067606925964286
2023-01-30 09:32:41.415063,-0.059987681883212365
2023-01-30 09:32:41.420063,-0.06188035011291496
2023-01-30 09:32:41.425063,-0.06135702323959403
2023-01-30 09:32:41.430063,-0.05334595963358866
2023-01-30 09:32:41.435063,-0.03670400694226966
2023-01-30 09:32:41.440063,-0.015217661857604838
2023-01-30 09:32:41.445063,0.007339161648722798
2023-01-30 09:32:41.450063,0.029425621032714823
2023-01-30 09:32:41.455063,0.04696748704164273
2023-01-30 09:32:41.460063,0.049956243485212284
2023-01-30 09:32:41.465063,0.02845687812932954
2023-01-30 09:32:41.470063,-0.017790000885725025
2023-01-30 09:32:41.475063,-0.07769454191187776
2023-01-30 09:32:41.480063,-0.13578097522258747
2023-01-30 09:32:41.485063,-0.17881807683287562
2023-01-30 09:32:41.490063,-0.19792577624320976
2023-01-30 09:32:41.495063,-0.1899576282936953
2023-01-30 09:32:41.500063,-0.1596291959285735
2023-01-30 09:32:41.505063,-0.11816211332011489
2023-01-30 09:32:41.510063,-0.07729034125804896
2023-01-30 09:32:41.515063,-0.0441896616159351
2023-01-30 09:32:41.520063,-0.021323960274457873
2023-01-30 09:32:41.525063,-0.008407388073297568
2023-01-30 09:32:41.530063,-0.0030531487427651314
2023-01-30 09:32:41.535063,-0.0013863674924446438
2023-01-30 09:32:41.540063,-0.00026444596005601774
2023-01-30 09:32:41.545063,0.0011596560408576313
2023-01-30 09:32:41.550063,0.002596378326415959
2023-01-30 09:32:41.555063,0.004294787666176158
2023-01-30 09:32:41.560063,0.006683270446956091
2023-01-30 09:32:41.565063,0.00941425587979962
2023-01-30 09:32:41.570063,0.011996230110525967
2023-01-30 09:32:41.575063,0.014757383104398954
2023-01-30 09:32:41.580063,0.01819868944585318
2023-01-30 09:32:41.585063,0.022013560808831628
2023-01-30 09:32:41.590063,0.025723379105329465
2023-01-30 09:32:41.595063,0.02974138332453018
2023-01-30 09:32:41.600063,0.034882824867963645
2023-01-30 09:32:41.605063,0.04132665188676693
2023-01-30 09:32:41.610063,0.04894654080271721
2023-01-30 09:32:41.615063,0.05814968411736818
2023-01-30 09:32:41.620063,0.06942908465862269
2023-01-30 09:32:41.625063,0.08246671129244229
2023-01-30 09:32:41.630063,0.09654681384563436
2023-01-30 09:32:41.635063,0.11147138286682647
2023-01-30 09:32:41.640063,0.12719850242137898
2023-01-30 09:32:41.645063,0.14292229361456202
2023-01-30 09:32:41.650063,0.15736937522888178
2023-01-30 09:32:41.655063,0.1697112553386106
2023-01-30 09:32:41.660063,0.17939051985740662
2023-01-30 09:32:41.665063,0.1854016219603451
2023-01-30 09:32:41.670063,0.18665075302124023
2023-01-30 09:32:41.675063,0.18284115533474438
2023-01-30 09:32:41.680063,0.17424583435058585
2023-01-30 09:32:41.685063,0.16088002392805983
2023-01-30 09:32:41.690063,0.1427286863327026
2023-01-30 09:32:41.695063,0.12060024096669511
2023-01-30 09:32:41.700063,0.0959698408842086
2023-01-30 09:32:41.705063,0.0701403331270614
2023-01-30 09:32:41.710063,0.044258635491132695
2023-01-30 09:32:41.715063,0.019865482771260396
2023-01-30 09:32:41.720063,-0.0014905135612934685
2023-01-30 09:32:41.725063,-0.019179540279209806
2023-01-30 09:32:41.730063,-0.03339231014251696
2023-01-30 09:32:41.735063,-0.044304490691662916
2023-01-30 09:32:41.740063,-0.05204777047038066
2023-01-30 09:32:41.745063,-0.05729655542300937
2023-01-30 09:32:41.750063,-0.061038933694362585
2023-01-30 09:32:41.755063,-0.06376465186401223
2023-01-30 09:32:41.760063,-0.06551047414541236
2023-01-30 09:32:41.765063,-0.06656107474971065
2023-01-30 09:32:41.770063,-0.06738563627004618
2023-01-30 09:32:41.775063,-0.06798272360848517
2023-01-30 09:32:41.780063,-0.06801068782806383
2023-01-30 09:32:41.785063,-0.06751703779265998
2023-01-30 09:32:41.790063,-0.06688078492879859
2023-01-30 09:32:41.795063,-0.06612655837795114
2023-01-30 09:32:41.800063,-0.06498157978057859
2023-01-30 09:32:41.805063,-0.06353760223777079
2023-01-30 09:32:41.810063,-0.06216883659362789
2023-01-30 09:32:41.815063,-0.06084359462636688
2023-01-30 09:32:41.820063,-0.05918781086802477
2023-01-30 09:32:41.825063,-0.0571938984097367
2023-01-30 09:32:41.830063,-0.05522112175822249
2023-01-30 09:32:41.835063,-0.05334647303175453
2023-01-30 09:32:41.840063,-0.051374636590480804
2023-01-30 09:32:41.845063,-0.04945311135227331
2023-01-30 09:32:41.850063,-0.048008959740400266
2023-01-30 09:32:41.855063,-0.04706796837554529
2023-01-30 09:32:41.860063,-0.046254001557826864
2023-01-30 09:32:41.865063,-0.0454541839949855
2023-01-30 09:32:41.870063,-0.04488369077444067
2023-01-30 09:32:41.875063,-0.04453118766369446
2023-01-30 09:32:41.880063,-0.044186513870954465
2023-01-30 09:32:41.885063,-0.04403376954780017
2023-01-30 09:32:41.890063,-0.04459520429372777
2023-01-30 09:32:41.895063,-0.04602522187854111
2023-01-30 09:32:41.900063,-0.04798492044210431
2023-01-30 09:32:41.905063,-0.05018984548923411
2023-01-30 09:32:41.910063,-0.052504539489745934
2023-01-30 09:32:41.915063,-0.054500554706956694
2023-01-30 09:32:41.920063,-0.05553364753723139
2023-01-30 09:32:41.925063,-0.05538145734928438
2023-01-30 09:32:41.930063,-0.05437970161437978
2023-01-30 09:32:41.935063,-0.052937196644094756
2023-01-30 09:32:41.940063,-0.05135059356689456
2023-01-30 09:32:41.945063,-0.05002651093816343
2023-01-30 09:32:41.950063,-0.04937927052378643
2023-01-30 09:32:41.955063,-0.04944242692559038
2023-01-30 09:32:41.960063,-0.04981200024485578
2023-01-30 09:32:41.965063,-0.049748445452124264
2023-01-30 09:32:41.970063,-0.04808108136057845
2023-01-30 09:32:41.975063,-0.04359902407325537
2023-01-30 09:32:41.980063,-0.0363012179732323
2023-01-30 09:32:41.985063,-0.028001114243020462
2023-01-30 09:32:41.990063,-0.021011432632803865
2023-01-30 09:32:41.995063,-0.016477816042669825
2023-01-30 09:32:42.000063,-0.014616648666560594
2023-01-30 09:32:42.005063,-0.016020874405402376
2023-01-30 09:32:42.010063,-0.021492242813110227
2023-01-30 09:32:42.015063,-0.03053703785814511
2023-01-30 09:32:42.020063,-0.041037201881408594
2023-01-30 09:32:42.025063,-0.05066842703530105
2023-01-30 09:32:42.030063,-0.05803386494517322
2023-01-30 09:32:42.035063,-0.06253857889060553
2023-01-30 09:32:42.040063,-0.06418824195861804
2023-01-30 09:32:42.045063,-0.06383732065517063
2023-01-30 09:32:42.050063,-0.06289005279541011
2023-01-30 09:32:42.055063,-0.062356092325682344
2023-01-30 09:32:42.060063,-0.06255348771810529
2023-01-30 09:32:42.065063,-0.06367839847777124
2023-01-30 09:32:42.070063,-0.06594320386648173
2023-01-30 09:32:42.075063,-0.06891387784571723
2023-01-30 09:32:42.080063,-0.07113596051931378
2023-01-30 09:32:42.085063,-0.07041872423806782
2023-01-30 09:32:42.090063,-0.0640920847654342
2023-01-30 09:32:42.095063,-0.0494952526106639
2023-01-30 09:32:42.100063,-0.025723379105329486
2023-01-30 09:32:42.105063,0.0040641251171457185
2023-01-30 09:32:42.110063,0.032094120979308985
2023-01-30 09:32:42.115063,0.048132030178808405
2023-01-30 09:32:42.120063,0.043056607246398905
2023-01-30 09:32:42.125063,0.012482623742410605
2023-01-30 09:32:42.130063,-0.04038810729980461
2023-01-30 09:32:42.135063,-0.10427943629939182
2023-01-30 09:32:42.140063,-0.16323527693748466
2023-01-30 09:32:42.145063,-0.20263788560090157
2023-01-30 09:32:42.150063,-0.2142733335494995
2023-01-30 09:32:42.155063,-0.1981714869410294
2023-01-30 09:32:42.160063,-0.16155242919921864
2023-01-30 09:32:42.165063,-0.1157827437069603
2023-01-30 09:32:42.170063,-0.07204949855804443
2023-01-30 09:32:42.175063,-0.03755634478080589
2023-01-30 09:32:42.180063,-0.014424324035644472
2023-01-30 09:32:42.185063,-0.001216814182927962
2023-01-30 09:32:42.190063,0.005072554107755408
2023-01-30 09:32:42.195063,0.007771215334515946
2023-01-30 09:32:42.200063,0.009520053863525236
2023-01-30 09:32:42.205063,0.011497623553980226
2023-01-30 09:32:42.210063,0.013727148994803377
2023-01-30 09:32:42.215063,0.016136927484430987
2023-01-30 09:32:42.220063,0.018919905647635436
2023-01-30 09:32:42.225063,0.02204821644196604
2023-01-30 09:32:42.230063,0.02521852776408189
2023-01-30 09:32:42.235063,0.02842355314938758
2023-01-30 09:32:42.240063,0.03199796006083476
2023-01-30 09:32:42.245063,0.03603270706214222
2023-01-30 09:32:42.250063,0.040340028703212676
2023-01-30 09:32:42.255063,0.04506371078182447
2023-01-30 09:32:42.260063,0.05072554200887683
2023-01-30 09:32:42.265063,0.05759911280743183
2023-01-30 09:32:42.270063,0.06563067436218256
2023-01-30 09:32:42.275063,0.07503040757800525
2023-01-30 09:32:42.280063,0.08630554378032676
2023-01-30 09:32:42.285063,0.09958808079786771
2023-01-30 09:32:42.290063,0.11448105424642557
2023-01-30 09:32:42.295063,0.13059775031396037
2023-01-30 09:32:42.300063,0.14760892093181607
2023-01-30 09:32:42.305063,0.16465740343128588
2023-01-30 09:32:42.310063,0.18035213649272896
2023-01-30 09:32:42.315063,0.19349269377306427
2023-01-30 09:32:42.320063,0.2032868117094038
2023-01-30 09:32:42.325063,0.2088535391753231
2023-01-30 09:32:42.330063,0.20920078456401814
2023-01-30 09:32:42.335063,0.20387278240076837
2023-01-30 09:32:42.340063,0.19309362769126884
2023-01-30 09:32:42.345063,0.1772237627297991
2023-01-30 09:32:42.350063,0.15669624507427202
2023-01-30 09:32:42.355063,0.13258814516158535
2023-01-30 09:32:42.360063,0.10661979764699925
2023-01-30 09:32:42.365063,0.0803954089329744
2023-01-30 09:32:42.370063,0.055100917816162116
2023-01-30 09:32:42.375063,0.0319064679767811
2023-01-30 09:32:42.380063,0.011948148719966394
2023-01-30 09:32:42.385063,-0.004280673347985271
2023-01-30 09:32:42.390063,-0.01697262190282339
2023-01-30 09:32:42.395063,-0.026339918962982545
2023-01-30 09:32:42.400063,-0.0324547290802001
2023-01-30 09:32:42.405063,-0.03579673403747553
2023-01-30 09:32:42.410063,-0.03731092065572727
2023-01-30 09:32:42.415063,-0.03775527612797277
2023-01-30 09:32:42.420063,-0.03750324249267561
2023-01-30 09:32:42.425063,-0.0370123064870349
2023-01-30 09:32:42.430063,-0.036830108612775775
2023-01-30 09:32:42.435063,-0.03699836500658007
2023-01-30 09:32:42.440063,-0.03704647347331039
2023-01-30 09:32:42.445063,-0.0367215789194476
2023-01-30 09:32:42.450063,-0.03620505332946769
2023-01-30 09:32:42.455063,-0.03557912986201952
2023-01-30 09:32:42.460063,-0.03471454232931126
2023-01-30 09:32:42.465063,-0.03377612188151234
2023-01-30 09:32:42.470063,-0.03319998830556856
2023-01-30 09:32:42.475063,-0.033034223924841545
2023-01-30 09:32:42.480063,-0.03288745880126947
2023-01-30 09:32:42.485063,-0.03262310713998937
2023-01-30 09:32:42.490063,-0.032502811402082415
2023-01-30 09:32:42.495063,-0.032572032162777056
2023-01-30 09:32:42.500063,-0.03255089372396457
2023-01-30 09:32:42.505063,-0.032433861183684264
2023-01-30 09:32:42.510063,-0.03255089372396454
2023-01-30 09:32:42.515063,-0.03293257715531274
2023-01-30 09:32:42.520063,-0.03327210992574691
2023-01-30 09:32:42.525063,-0.03361538579473283
2023-01-30 09:32:42.530063,-0.03440201282501221
2023-01-30 09:32:42.535063,-0.03570623357506437
2023-01-30 09:32:42.540063,-0.037142634391784626
2023-01-30 09:32:42.545063,-0.03864527496341153
2023-01-30 09:32:42.550063,-0.0405804328620433
2023-01-30 09:32:42.555063,-0.042911796891184836
2023-01-30 09:32:42.560063,-0.045051973313093116
2023-01-30 09:32:42.565063,-0.04681366197967966
2023-01-30 09:32:42.570063,-0.048730175942182465
2023-01-30 09:32:42.575063,-0.05106861949277324
2023-01-30 09:32:42.580063,-0.053225755691528334
2023-01-30 09:32:42.585063,-0.054508224290855875
2023-01-30 09:32:42.590063,-0.05490859597921364
2023-01-30 09:32:42.595063,-0.05474284963167641
2023-01-30 09:32:42.600063,-0.05411525815725315
2023-01-30 09:32:42.605063,-0.05312580279982065
