2023-01-28 14:17:30.004643,-0.036806069314479814
2023-01-28 14:17:30.009643,-0.043205089873750456
2023-01-28 14:17:30.014643,-0.035652123391628196
2023-01-28 14:17:30.019643,-0.03099326314520836
2023-01-28 14:17:30.024643,-0.03404140472412099
2023-01-28 14:17:30.029643,-0.03588294829262328
2023-01-28 14:17:30.034643,-0.032382607460021896
2023-01-28 14:17:30.039643,-0.02968936991766249
2023-01-28 14:17:30.044643,-0.03144502639770498
2023-01-28 14:17:30.049643,-0.033125973668760245
2023-01-28 14:17:30.054643,-0.031493108719587284
2023-01-28 14:17:30.059643,-0.029601564161807686
2023-01-28 14:17:30.064643,-0.02920925617218011
2023-01-28 14:17:30.069643,-0.02639868235684508
2023-01-28 14:17:30.074643,-0.01827081106603139
2023-01-28 14:17:30.079643,-0.007464944177635895
2023-01-28 14:17:30.084643,0.0030291080474852948
2023-01-28 14:17:30.089643,0.013654486444156263
2023-01-28 14:17:30.094643,0.0238722562789916
2023-01-28 14:17:30.099643,0.02935834033217936
2023-01-28 14:17:30.104643,0.0270215682685375
2023-01-28 14:17:30.109643,0.018758684634833923
2023-01-28 14:17:30.114643,0.0076689324341713905
2023-01-28 14:17:30.119643,-0.005434059243727105
2023-01-28 14:17:30.124643,-0.019376676529645892
2023-01-28 14:17:30.129643,-0.030681607501769053
2023-01-28 14:17:30.134643,-0.037286877632141086
2023-01-28 14:17:30.139643,-0.0411159077594653
2023-01-28 14:17:30.144643,-0.04449903964996329
2023-01-28 14:17:30.149643,-0.046802754638550936
2023-01-28 14:17:30.154643,-0.04639824479818345
2023-01-28 14:17:30.159643,-0.042658724420912994
2023-01-28 14:17:30.164643,-0.03375291824340819
2023-01-28 14:17:30.169643,-0.015635131386813796
2023-01-28 14:17:30.174643,0.013775229454040496
2023-01-28 14:17:30.179643,0.05097420389647122
2023-01-28 14:17:30.184643,0.08880575746297828
2023-01-28 14:17:30.189643,0.11974783878155783
2023-01-28 14:17:30.194643,0.13643006980419148
2023-01-28 14:17:30.199643,0.1328893074424362
2023-01-28 14:17:30.204643,0.10887961089611049
2023-01-28 14:17:30.209643,0.07175993733813639
2023-01-28 14:17:30.214643,0.03216624259948728
2023-01-28 14:17:30.219643,-0.0013835349764427982
2023-01-28 14:17:30.224643,-0.023776095360517488
2023-01-28 14:17:30.229643,-0.0330265846345231
2023-01-28 14:17:30.234643,-0.0313969478011131
2023-01-28 14:17:30.239643,-0.024805509506420638
2023-01-28 14:17:30.244643,-0.018583338707685377
2023-01-28 14:17:30.249643,-0.01437930539560921
2023-01-28 14:17:30.254643,-0.011755824089050192
2023-01-28 14:17:30.259643,-0.010565403609491854
2023-01-28 14:17:30.264643,-0.010337432846426898
2023-01-28 14:17:30.269643,-0.009488974698481915
2023-01-28 14:17:30.274643,-0.00709195947274559
2023-01-28 14:17:30.279643,-0.004078799215422639
2023-01-28 14:17:30.284643,-0.0013943513622506742
2023-01-28 14:17:30.289643,0.0015142874454912426
2023-01-28 14:17:30.294643,0.005192756652831987
2023-01-28 14:17:30.299643,0.008851351536732652
2023-01-28 14:17:30.304643,0.011803905479609937
2023-01-28 14:17:30.309643,0.01466821131996834
2023-01-28 14:17:30.314643,0.01798232458531847
2023-01-28 14:17:30.319643,0.021182366591101797
2023-01-28 14:17:30.324643,0.02399246022105212
2023-01-28 14:17:30.329643,0.027204328532511902
2023-01-28 14:17:30.334643,0.031108459457754964
2023-01-28 14:17:30.339643,0.03488894308356439
2023-01-28 14:17:30.344643,0.03853698819875715
2023-01-28 14:17:30.349643,0.04349196381110327
2023-01-28 14:17:30.354643,0.0503168515861034
2023-01-28 14:17:30.359643,0.0576469405885236
2023-01-28 14:17:30.364643,0.0645969361066818
2023-01-28 14:17:30.369643,0.07228320691227702
2023-01-28 14:17:30.374643,0.08171379566192619
2023-01-28 14:17:30.379643,0.09209784786939004
2023-01-28 14:17:30.384643,0.10260502994060511
2023-01-28 14:17:30.389643,0.11390482556990499
2023-01-28 14:17:30.394643,0.1264532506465911
2023-01-28 14:17:30.399643,0.1389801274326951
2023-01-28 14:17:30.404643,0.15018126368522636
2023-01-28 14:17:30.409643,0.16029066815860205
2023-01-28 14:17:30.414643,0.16950985789299006
2023-01-28 14:17:30.419643,0.17646217241761591
2023-01-28 14:17:30.424643,0.1796790063381195
2023-01-28 14:17:30.429643,0.1791187027412054
2023-01-28 14:17:30.434643,0.17482280731201166
2023-01-28 14:17:30.439643,0.1656543600919716
2023-01-28 14:17:30.444643,0.15092651546001423
2023-01-28 14:17:30.449643,0.13193031950895032
2023-01-28 14:17:30.454643,0.11046628654003143
2023-01-28 14:17:30.459643,0.08724795683155455
2023-01-28 14:17:30.464643,0.0630583390593528
2023-01-28 14:17:30.469643,0.03992673234268856
2023-01-28 14:17:30.474643,0.019593041390180553
2023-01-28 14:17:30.479643,0.002051425630772921
2023-01-28 14:17:30.484643,-0.013078054413199406
2023-01-28 14:17:30.489643,-0.025122088964850887
2023-01-28 14:17:30.494643,-0.03363271802663798
2023-01-28 14:17:30.499643,-0.03966232681765308
2023-01-28 14:17:30.504643,-0.04433075711131092
2023-01-28 14:17:30.509643,-0.04741002711431196
2023-01-28 14:17:30.514643,-0.04863401502370833
2023-01-28 14:17:30.519643,-0.04902240419485161
2023-01-28 14:17:30.524643,-0.04952351376414292
2023-01-28 14:17:30.529643,-0.049683089341764075
2023-01-28 14:17:30.534643,-0.04901866242289543
2023-01-28 14:17:30.539643,-0.048365668907738094
2023-01-28 14:17:30.544643,-0.04848977178335181
2023-01-28 14:17:30.549643,-0.04870295190339927
2023-01-28 14:17:30.554643,-0.048225324600934885
2023-01-28 14:17:30.559643,-0.04758738817153311
2023-01-28 14:17:30.564643,-0.04733582586050031
2023-01-28 14:17:30.569643,-0.046735480356519046
2023-01-28 14:17:30.574643,-0.04517217725515354
2023-01-28 14:17:30.579643,-0.04350540642646234
2023-01-28 14:17:30.584643,-0.04262387752532949
2023-01-28 14:17:30.589643,-0.04198281070793448
2023-01-28 14:17:30.594643,-0.04094104096293438
2023-01-28 14:17:30.599643,-0.040159149483977
2023-01-28 14:17:30.604643,-0.04024386405944824
2023-01-28 14:17:30.609643,-0.040386968786854056
2023-01-28 14:17:30.614643,-0.03981113433837888
2023-01-28 14:17:30.619643,-0.03921695760464266
2023-01-28 14:17:30.624643,-0.03935436531901349
2023-01-28 14:17:30.629643,-0.039534784365147256
2023-01-28 14:17:30.634643,-0.03901779651641839
2023-01-28 14:17:30.639643,-0.03847419196975936
2023-01-28 14:17:30.644643,-0.03858506679534908
2023-01-28 14:17:30.649643,-0.03859868178397686
2023-01-28 14:17:30.654643,-0.0377917289733886
2023-01-28 14:17:30.659643,-0.0369444522847249
2023-01-28 14:17:30.664643,-0.03683010861277584
2023-01-28 14:17:30.669643,-0.03667484854236212
2023-01-28 14:17:30.674643,-0.03567616268992418
2023-01-28 14:17:30.679643,-0.03459491975700393
2023-01-28 14:17:30.684643,-0.03425776958465569
2023-01-28 14:17:30.689643,-0.033972227640487955
2023-01-28 14:17:30.694643,-0.033055745065212215
2023-01-28 14:17:30.699643,-0.03240810445536077
2023-01-28 14:17:30.704643,-0.0328634195029735
2023-01-28 14:17:30.709643,-0.033497755698777526
2023-01-28 14:17:30.714643,-0.03329614922404279
2023-01-28 14:17:30.719643,-0.032959419088197474
2023-01-28 14:17:30.724643,-0.033320188522338756
2023-01-28 14:17:30.729643,-0.033593697123641
2023-01-28 14:17:30.734643,-0.03303170204162589
2023-01-28 14:17:30.739643,-0.032628623350481216
2023-01-28 14:17:30.744643,-0.03319998830556861
2023-01-28 14:17:30.749643,-0.033356511091256806
2023-01-28 14:17:30.754643,-0.03132482618093485
2023-01-28 14:17:30.759643,-0.027117589114514822
2023-01-28 14:17:30.764643,-0.02101143263280389
2023-01-28 14:17:30.769643,-0.0119097970555662
2023-01-28 14:17:30.774643,0.000360608100891118
2023-01-28 14:17:30.779643,0.012831860271473127
2023-01-28 14:17:30.784643,0.021828811615705376
2023-01-28 14:17:30.789643,0.026020975781741958
2023-01-28 14:17:30.794643,0.025098323822021387
2023-01-28 14:17:30.799643,0.01786632961290211
2023-01-28 14:17:30.804643,0.004567702766507807
2023-01-28 14:17:30.809643,-0.010946017430362597
2023-01-28 14:17:30.814643,-0.02447327040135859
2023-01-28 14:17:30.819643,-0.03526196119386619
2023-01-28 14:17:30.824643,-0.04401823133230204
2023-01-28 14:17:30.829643,-0.04967086005776298
2023-01-28 14:17:30.834643,-0.05149483680725086
2023-01-28 14:17:30.839643,-0.051828170776306935
2023-01-28 14:17:30.844643,-0.05238433927297588
2023-01-28 14:17:30.849643,-0.049795924455486425
2023-01-28 14:17:30.854643,-0.039041839540004675
2023-01-28 14:17:30.859643,-0.01931773306192769
2023-01-28 14:17:30.864643,0.007644891738891581
2023-01-28 14:17:30.869643,0.04175489296509983
2023-01-28 14:17:30.874643,0.08046369254589075
2023-01-28 14:17:30.879643,0.11274478190013551
2023-01-28 14:17:30.884643,0.12558779120445246
2023-01-28 14:17:30.889643,0.11717937173559606
2023-01-28 14:17:30.894643,0.09657084941864005
2023-01-28 14:17:30.899643,0.06995447490956189
2023-01-28 14:17:30.904643,0.03603677079081527
2023-01-28 14:17:30.909643,-0.0024878426641192796
2023-01-28 14:17:30.914643,-0.03257493302226058
2023-01-28 14:17:30.919643,-0.042994959636859086
2023-01-28 14:17:30.924643,-0.03733495995402329
2023-01-28 14:17:30.929643,-0.028203600795743407
2023-01-28 14:17:30.934643,-0.022381743416190113
2023-01-28 14:17:30.939643,-0.01810700384381813
2023-01-28 14:17:30.944643,-0.01372714899480338
2023-01-28 14:17:30.949643,-0.011194747330719361
2023-01-28 14:17:30.954643,-0.011178851127624517
2023-01-28 14:17:30.959643,-0.011087730747493649
2023-01-28 14:17:30.964643,-0.009327730163931812
2023-01-28 14:17:30.969643,-0.00728653211979364
2023-01-28 14:17:30.974643,-0.005986094474792423
2023-01-28 14:17:30.979643,-0.0042144759825722905
2023-01-28 14:17:30.984643,-0.001057783840224109
2023-01-28 14:17:30.989643,0.002545716824856631
2023-01-28 14:17:30.994643,0.005817811004817396
2023-01-28 14:17:30.999643,0.00940232401797515
2023-01-28 14:17:31.004643,0.013703107833862298
2023-01-28 14:17:31.009643,0.01790028663438212
2023-01-28 14:17:31.014643,0.021468203514814273
2023-01-28 14:17:31.019643,0.02508450792370267
2023-01-28 14:17:31.024643,0.02932946011424062
2023-01-28 14:17:31.029643,0.0338542619044339
2023-01-28 14:17:31.034643,0.03844082355499257
2023-01-28 14:17:31.039643,0.043677250571404994
2023-01-28 14:17:31.044643,0.05002836510539049
2023-01-28 14:17:31.049643,0.057253281806197424
2023-01-28 14:17:31.054643,0.06519794464111317
2023-01-28 14:17:31.059643,0.07426197390426502
2023-01-28 14:17:31.064643,0.08467078208923329
2023-01-28 14:17:31.069643,0.09604498604213924
2023-01-28 14:17:31.074643,0.10801415145397178
2023-01-28 14:17:31.079643,0.12058036447531674
2023-01-28 14:17:31.084643,0.13359329104423523
2023-01-28 14:17:31.089643,0.14644033638110218
2023-01-28 14:17:31.094643,0.15847525000572196
2023-01-28 14:17:31.099643,0.16925187391864557
2023-01-28 14:17:31.104643,0.17816445231437678
2023-01-28 14:17:31.109643,0.1843044046204352
2023-01-28 14:17:31.114643,0.18684308230876923
2023-01-28 14:17:31.119643,0.1852521320364955
2023-01-28 14:17:31.124643,0.17912606894969932
2023-01-28 14:17:31.129643,0.1681654041449971
2023-01-28 14:17:31.134643,0.15246510505676256
2023-01-28 14:17:31.139643,0.1326423658052432
2023-01-28 14:17:31.144643,0.10969698429107656
2023-01-28 14:17:31.149643,0.08491500867425643
2023-01-28 14:17:31.154643,0.059812866151332765
2023-01-28 14:17:31.159643,0.03591326637514895
2023-01-28 14:17:31.164643,0.01447240542620419
2023-01-28 14:17:31.169643,-0.0036503723931356306
2023-01-28 14:17:31.174643,-0.01807848736643789
2023-01-28 14:17:31.179643,-0.02898013227849999
2023-01-28 14:17:31.184643,-0.036902230232953984
2023-01-28 14:17:31.189643,-0.04246708661375695
2023-01-28 14:17:31.194643,-0.04627804085612285
2023-01-28 14:17:31.199643,-0.04894890461412248
2023-01-28 14:17:31.204643,-0.05091786384582507
2023-01-28 14:17:31.209643,-0.052259322181528366
2023-01-28 14:17:31.214643,-0.05291322991251935
2023-01-28 14:17:31.219643,-0.05301061089261617
2023-01-28 14:17:31.224643,-0.05274494737386696
2023-01-28 14:17:31.229643,-0.05212068116038099
2023-01-28 14:17:31.234643,-0.05115827172994609
2023-01-28 14:17:31.239643,-0.05014781241657662
2023-01-28 14:17:31.244643,-0.04933118820190417
2023-01-28 14:17:31.249643,-0.04854071671816334
2023-01-28 14:17:31.254643,-0.04752814769744871
2023-01-28 14:17:31.259643,-0.04639809764032042
2023-01-28 14:17:31.264643,-0.04531642049551008
2023-01-28 14:17:31.269643,-0.04410919811746633
2023-01-28 14:17:31.274643,-0.0426238775253295
2023-01-28 14:17:31.279643,-0.041155885101499506
2023-01-28 14:17:31.284643,-0.040003459900617495
2023-01-28 14:17:31.289643,-0.03894578926595239
2023-01-28 14:17:31.294643,-0.037695568054914357
2023-01-28 14:17:31.299643,-0.03648007261976822
2023-01-28 14:17:31.304643,-0.035604041069745955
2023-01-28 14:17:31.309643,-0.034871737800910865
2023-01-28 14:17:31.314643,-0.03406544774770729
2023-01-28 14:17:31.319643,-0.03352739682925907
2023-01-28 14:17:31.324643,-0.033584635704755686
2023-01-28 14:17:31.329643,-0.033874855175445334
2023-01-28 14:17:31.334643,-0.033945243805646806
2023-01-28 14:17:31.339643,-0.03399716541945443
2023-01-28 14:17:31.344643,-0.03430585190653797
2023-01-28 14:17:31.349643,-0.03450346365297662
2023-01-28 14:17:31.354643,-0.034257769584655665
2023-01-28 14:17:31.359643,-0.0340345604262969
2023-01-28 14:17:31.364643,-0.03430585190653797
2023-01-28 14:17:31.369643,-0.03465658938242807
2023-01-28 14:17:31.374643,-0.03459433838725089
2023-01-28 14:17:31.379643,-0.03451453168457722
2023-01-28 14:17:31.384643,-0.034858785569667775
2023-01-28 14:17:31.389643,-0.035100715276079775
2023-01-28 14:17:31.394643,-0.034666460007429054
2023-01-28 14:17:31.399643,-0.034045210374367516
2023-01-28 14:17:31.404643,-0.0338250398635864
2023-01-28 14:17:31.409643,-0.03352713199357573
2023-01-28 14:17:31.414643,-0.0326710939407348
2023-01-28 14:17:31.419643,-0.03202072770196804
2023-01-28 14:17:31.424643,-0.03233452886343005
2023-01-28 14:17:31.429643,-0.03283339141375057
2023-01-28 14:17:31.434643,-0.03235856816172593
2023-01-28 14:17:31.439643,-0.030919210143718363
2023-01-28 14:17:31.444643,-0.028464000672101916
2023-01-28 14:17:31.449643,-0.023439928547021083
2023-01-28 14:17:31.454643,-0.014640688896179095
2023-01-28 14:17:31.459643,-0.003451353200739137
2023-01-28 14:17:31.464643,0.00764489173889154
2023-01-28 14:17:31.469643,0.017424824828511015
2023-01-28 14:17:31.474643,0.024689635261893158
2023-01-28 14:17:31.479643,0.02654858312458682
2023-01-28 14:17:31.484643,0.021035473793744992
2023-01-28 14:17:31.489643,0.01022400671706574
2023-01-28 14:17:31.494643,-0.0021876893006264973
2023-01-28 14:17:31.499643,-0.014910229803838897
2023-01-28 14:17:31.504643,-0.027550458908081055
2023-01-28 14:17:31.509643,-0.03732748871572627
2023-01-28 14:17:31.514643,-0.04195074364542961
2023-01-28 14:17:31.519643,-0.044159756568069
2023-01-28 14:17:31.524643,-0.04796087741851799
2023-01-28 14:17:31.529643,-0.05137471535554488
2023-01-28 14:17:31.534643,-0.04899462312459934
2023-01-28 14:17:31.539643,-0.04092853336810527
2023-01-28 14:17:31.544643,-0.03146906942129133
2023-01-28 14:17:31.549643,-0.018230835805970125
2023-01-28 14:17:31.554643,0.007981459610164119
2023-01-28 14:17:31.559643,0.04812508988619462
2023-01-28 14:17:31.564643,0.08753161132335664
2023-01-28 14:17:31.569643,0.1096341459601994
2023-01-28 14:17:31.574643,0.11133174598217013
2023-01-28 14:17:31.579643,0.09893726349315671
2023-01-28 14:17:31.584643,0.0754632577300071
2023-01-28 14:17:31.589643,0.041102833899233415
2023-01-28 14:17:31.594643,0.002908905502408738
2023-01-28 14:17:31.599643,-0.026239126661867895
2023-01-28 14:17:31.604643,-0.03947456926107396
2023-01-28 14:17:31.609643,-0.040285944793423026
2023-01-28 14:17:31.614643,-0.03476262092590327
2023-01-28 14:17:31.619643,-0.025875426233415173
2023-01-28 14:17:31.624643,-0.016227364540099994
2023-01-28 14:17:31.629643,-0.009793649579495627
2023-01-28 14:17:31.634643,-0.007885297760367276
2023-01-28 14:17:31.639643,-0.007477230183000906
2023-01-28 14:17:31.644643,-0.00584185123443598
2023-01-28 14:17:31.649643,-0.0036287992074352285
2023-01-28 14:17:31.654643,-0.0018992027034983132
2023-01-28 14:17:31.659643,0.0003387562812764197
2023-01-28 14:17:31.664643,0.0037503242492675447
2023-01-28 14:17:31.669643,0.006878710568947544
2023-01-28 14:17:31.674643,0.008678635582327766
2023-01-28 14:17:31.679643,0.010386260021719801
2023-01-28 14:17:31.684643,0.013222297653555789
2023-01-28 14:17:31.689643,0.01651853492030423
2023-01-28 14:17:31.694643,0.019641121849417572
2023-01-28 14:17:31.699643,0.023582693551753048
2023-01-28 14:17:31.704643,0.02908905409276478
2023-01-28 14:17:31.709643,0.03514388687699026
2023-01-28 14:17:31.714643,0.04077275842428197
2023-01-28 14:17:31.719643,0.04659219950156976
2023-01-28 14:17:31.724643,0.053249798715114476
2023-01-28 14:17:31.729643,0.0600511412840996
2023-01-28 14:17:31.734643,0.06647209823131556
2023-01-28 14:17:31.739643,0.07346430579984849
2023-01-28 14:17:31.744643,0.08197824656963336
2023-01-28 14:17:31.749643,0.09161813181235227
2023-01-28 14:17:31.754643,0.10190784931182857
2023-01-28 14:17:31.759643,0.11344135411996474
2023-01-28 14:17:31.764643,0.12657344341278065
2023-01-28 14:17:31.769643,0.14026861823605055
2023-01-28 14:17:31.774643,0.15337865054607386
2023-01-28 14:17:31.779643,0.16584432284240092
2023-01-28 14:17:31.784643,0.17758747935295097
2023-01-28 14:17:31.789643,0.18743046350320192
2023-01-28 14:17:31.794643,0.19417545199394218
2023-01-28 14:17:31.799643,0.19762911045990972
2023-01-28 14:17:31.804643,0.19756516814231864
2023-01-28 14:17:31.809643,0.1928114959819675
2023-01-28 14:17:31.814643,0.18244366347789756
2023-01-28 14:17:31.819643,0.16695930395761374
2023-01-28 14:17:31.824643,0.1474165916442871
2023-01-28 14:17:31.829643,0.12446173844079729
2023-01-28 14:17:31.834643,0.09911914914846418
2023-01-28 14:17:31.839643,0.07347881763638504
2023-01-28 14:17:31.844643,0.049523513764142886
2023-01-28 14:17:31.849643,0.028009612138520868
2023-01-28 14:17:31.854643,0.009231567382812486
2023-01-28 14:17:31.859643,-0.006101758196949813
2023-01-28 14:17:31.864643,-0.017645757645368524
2023-01-28 14:17:31.869643,-0.026171736269869184
2023-01-28 14:17:31.874643,-0.03262301534414287
2023-01-28 14:17:31.879643,-0.037161876346401945
2023-01-28 14:17:31.884643,-0.03988325595855715
2023-01-28 14:17:31.889643,-0.04159015048343137
2023-01-28 14:17:31.894643,-0.04300852864980688
2023-01-28 14:17:31.899643,-0.043999128659811294
2023-01-28 14:17:31.904643,-0.0443307571113109
2023-01-28 14:17:31.909643,-0.04446926216973528
2023-01-28 14:17:31.914643,-0.04483560845255845
2023-01-28 14:17:31.919643,-0.045047309311156594
2023-01-28 14:17:31.924643,-0.044667325913906
2023-01-28 14:17:31.929643,-0.04397679412684103
2023-01-28 14:17:31.934643,-0.04327297210693354
2023-01-28 14:17:31.939643,-0.04215429606092382
2023-01-28 14:17:31.944643,-0.040267907083034515
2023-01-28 14:17:31.949643,-0.038062091354302226
2023-01-28 14:17:31.954643,-0.03606081008911131
2023-01-28 14:17:31.959643,-0.03408828977463659
2023-01-28 14:17:31.964643,-0.031925838440656586
2023-01-28 14:17:31.969643,-0.030014312284015417
2023-01-28 14:17:31.974643,-0.028752487152814785
2023-01-28 14:17:31.979643,-0.027778952105253562
2023-01-28 14:17:31.984643,-0.02668499946594227
2023-01-28 14:17:31.989643,-0.025769209158231915
2023-01-28 14:17:31.994643,-0.025362771004438373
2023-01-28 14:17:31.999643,-0.025087190340017676
2023-01-28 14:17:32.004643,-0.024521350860595682
2023-01-28 14:17:32.009643,-0.023943305192056067
2023-01-28 14:17:32.014643,-0.023679932579398117
2023-01-28 14:17:32.019643,-0.023393732540662057
2023-01-28 14:17:32.024643,-0.022766392678022305
2023-01-28 14:17:32.029643,-0.022227216519471415
2023-01-28 14:17:32.034643,-0.02223750017583372
2023-01-28 14:17:32.039643,-0.02249494640212029
2023-01-28 14:17:32.044643,-0.022598108276724805
2023-01-28 14:17:32.049643,-0.02282815800739677
2023-01-28 14:17:32.054643,-0.02348760887980462
2023-01-28 14:17:32.059643,-0.024139945952883015
2023-01-28 14:17:32.064643,-0.02432902716100211
2023-01-28 14:17:32.069643,-0.024394273472538988
2023-01-28 14:17:32.074643,-0.02473771572113032
2023-01-28 14:17:32.079643,-0.024961239269967687
2023-01-28 14:17:32.084643,-0.024617513641714963
2023-01-28 14:17:32.089643,-0.024143306860336895
2023-01-28 14:17:32.094643,-0.02411266230046742
2023-01-28 14:17:32.099643,-0.024220094156545583
2023-01-28 14:17:32.104643,-0.023944377899169894
2023-01-28 14:17:32.109643,-0.02346795111683255
2023-01-28 14:17:32.114643,-0.022814473137259355
2023-01-28 14:17:32.119643,-0.020769938924127908
2023-01-28 14:17:32.124643,-0.01593887805938719
2023-01-28 14:17:32.129643,-0.008375645050770802
2023-01-28 14:17:32.134643,0.0009375810623168187
2023-01-28 14:17:32.139643,0.011391914659475692
2023-01-28 14:17:32.144643,0.021924972534179576
2023-01-28 14:17:32.149643,0.029594155315535914
2023-01-28 14:17:32.154643,0.031180581077933284
2023-01-28 14:17:32.159643,0.026441086972199476
2023-01-28 14:17:32.164643,0.018054446205496708
2023-01-28 14:17:32.169643,0.008140026455901585
2023-01-28 14:17:32.174643,-0.0033175945281981993
2023-01-28 14:17:32.179643,-0.016082065112850437
2023-01-28 14:17:32.184643,-0.027766823768615688
2023-01-28 14:17:32.189643,-0.03578483042730447
2023-01-28 14:17:32.194643,-0.04009962081909164
2023-01-28 14:17:32.199643,-0.042692490598576785
2023-01-28 14:17:32.204643,-0.04485964775085442
2023-01-28 14:17:32.209643,-0.04592469563608618
2023-01-28 14:17:32.214643,-0.04380186647176735
2023-01-28 14:17:32.219643,-0.03553854570989111
2023-01-28 14:17:32.224643,-0.017790000885724994
2023-01-28 14:17:32.229643,0.011412375790200532
2023-01-28 14:17:32.234643,0.050172608345746904
2023-01-28 14:17:32.239643,0.09184154529625638
2023-01-28 14:17:32.244643,0.1267176866531372
2023-01-28 14:17:32.249643,0.14527120792620238
2023-01-28 14:17:32.254643,0.1415507048368453
2023-01-28 14:17:32.259643,0.11576667810252453
2023-01-28 14:17:32.264643,0.07476608455181116
2023-01-28 14:17:32.269643,0.029575057079706982
2023-01-28 14:17:32.274643,-0.008919040672481036
2023-01-28 14:17:32.279643,-0.033745917177952806
2023-01-28 14:17:32.284643,-0.043417215347289984
2023-01-28 14:17:32.289643,-0.04117096816698735
2023-01-28 14:17:32.294643,-0.0326710939407348
2023-01-28 14:17:32.299643,-0.023280556562153793
2023-01-28 14:17:32.304643,-0.01617928408086294
2023-01-28 14:17:32.309643,-0.012070982052998796
2023-01-28 14:17:32.314643,-0.010097026824951115
2023-01-28 14:17:32.319643,-0.00897067814062529
2023-01-28 14:17:32.324643,-0.007717013359069772
2023-01-28 14:17:32.329643,-0.005950181780560001
2023-01-28 14:17:32.334643,-0.0037743649445473103
2023-01-28 14:17:32.339643,-0.0014642568024676543
2023-01-28 14:17:32.344643,0.0007933378219603923
2023-01-28 14:17:32.349643,0.00294079644428344
2023-01-28 14:17:32.354643,0.005000432487577105
2023-01-28 14:17:32.359643,0.007063007089362903
2023-01-28 14:17:32.364643,0.009255608543753594
2023-01-28 14:17:32.369643,0.011667713193223081
2023-01-28 14:17:32.374643,0.014352202415466303
2023-01-28 14:17:32.379643,0.01740419445529873
2023-01-28 14:17:32.384643,0.02096335217356677
2023-01-28 14:17:32.389643,0.02512950460911931
2023-01-28 14:17:32.394643,0.029954513534903464
2023-01-28 14:17:32.399643,0.03551908816014372
2023-01-28 14:17:32.404643,0.04192670434713362
2023-01-28 14:17:32.409643,0.049208760028493975
2023-01-28 14:17:32.414643,0.057312648743391065
2023-01-28 14:17:32.419643,0.06618023121823627
2023-01-28 14:17:32.424643,0.07575174421071998
2023-01-28 14:17:32.429643,0.0858956938709085
2023-01-28 14:17:32.434643,0.09642660617828361
2023-01-28 14:17:32.439643,0.10719927638971499
2023-01-28 14:17:32.444643,0.11811117827892295
2023-01-28 14:17:32.449643,0.1290165993833477
2023-01-28 14:17:32.454643,0.13969957828521717
2023-01-28 14:17:32.459643,0.14988120859519313
2023-01-28 14:17:32.464643,0.15912434458732597
2023-01-28 14:17:32.469643,0.16670832539908637
2023-01-28 14:17:32.474643,0.1716735064983367
2023-01-28 14:17:32.479643,0.17301452481327592
2023-01-28 14:17:32.484643,0.16984641551971427
2023-01-28 14:17:32.489643,0.16154541144778017
2023-01-28 14:17:32.494643,0.1479695290327071
2023-01-28 14:17:32.499643,0.12965095181012642
2023-01-28 14:17:32.504643,0.1077497005462646
2023-01-28 14:17:32.509643,0.0838069984728001
2023-01-28 14:17:32.514643,0.0595003366470336
2023-01-28 14:17:32.519643,0.03642741587592297
2023-01-28 14:17:32.524643,0.015842717140913013
2023-01-28 14:17:32.529643,-0.0015428700784205962
2023-01-28 14:17:32.534643,-0.01553018949925888
2023-01-28 14:17:32.539643,-0.02625699895241209
2023-01-28 14:17:32.544643,-0.03408948704600327
2023-01-28 14:17:32.549643,-0.039564148747173636
2023-01-28 14:17:32.554643,-0.043248932808637564
2023-01-28 14:17:32.559643,-0.045600106773265765
2023-01-28 14:17:32.564643,-0.046975217759609195
2023-01-28 14:17:32.569643,-0.04772189282759054
2023-01-28 14:17:32.574643,-0.048153202980756704
2023-01-28 14:17:32.579643,-0.048453268779944825
2023-01-28 14:17:32.584643,-0.048682093620300196
2023-01-28 14:17:32.589643,-0.04884661285628943
2023-01-28 14:17:32.594643,-0.04889845848083489
2023-01-28 14:17:32.599643,-0.048709418904057125
2023-01-28 14:17:32.604643,-0.04815320298075672
2023-01-28 14:17:32.609643,-0.04721366146894464
2023-01-28 14:17:32.614643,-0.045965515077114105
2023-01-28 14:17:32.619643,-0.044495124686627696
2023-01-28 14:17:32.624643,-0.042912364006042356
2023-01-28 14:17:32.629643,-0.041388192087370955
2023-01-28 14:17:32.634643,-0.040075581520795815
2023-01-28 14:17:32.639643,-0.03899861900093718
2023-01-28 14:17:32.644643,-0.03808021545410149
2023-01-28 14:17:32.649643,-0.03724715994899506
2023-01-28 14:17:32.654643,-0.03644546121358869
2023-01-28 14:17:32.659643,-0.03560837511502935
2023-01-28 14:17:32.664643,-0.03471454232931126
2023-01-28 14:17:32.669643,-0.033862796345756105
2023-01-28 14:17:32.674643,-0.03319998830556858
2023-01-28 14:17:32.679643,-0.03277219011925417
2023-01-28 14:17:32.684643,-0.03250281140208238
2023-01-28 14:17:32.689643,-0.032292263987942056
2023-01-28 14:17:32.694643,-0.03207008168101313
2023-01-28 14:17:32.699643,-0.03177789670197685
2023-01-28 14:17:32.704643,-0.03139694780111309
2023-01-28 14:17:32.709643,-0.03100627642523858
2023-01-28 14:17:32.714643,-0.030747851356863885
2023-01-28 14:17:32.719643,-0.030712597411390683
2023-01-28 14:17:32.724643,-0.030892094597220393
2023-01-28 14:17:32.729643,-0.03123252716752164
2023-01-28 14:17:32.734643,-0.03168543428182602
2023-01-28 14:17:32.739643,-0.03220084479209609
2023-01-28 14:17:32.744643,-0.03271917626261707
2023-01-28 14:17:32.749643,-0.03319845172217405
2023-01-28 14:17:32.754643,-0.03363271802663801
2023-01-28 14:17:32.759643,-0.03401909636831197
2023-01-28 14:17:32.764643,-0.03430585190653798
2023-01-28 14:17:32.769643,-0.034405822108493515
2023-01-28 14:17:32.774643,-0.034305851906537996
2023-01-28 14:17:32.779643,-0.03415406403595537
2023-01-28 14:17:32.784643,-0.03416160866618146
2023-01-28 14:17:32.789643,-0.03438064192908389
2023-01-28 14:17:32.794643,-0.03464242070913308
2023-01-28 14:17:32.799643,-0.03472694069872961
2023-01-28 14:17:32.804643,-0.03442605584859835
2023-01-28 14:17:32.809643,-0.03328768709225936
2023-01-28 14:17:32.814643,-0.030435323715209895
2023-01-28 14:17:32.819643,-0.024946056116508873
2023-01-28 14:17:32.824643,-0.0165398921817541
2023-01-28 14:17:32.829643,-0.005878215972243195
2023-01-28 14:17:32.834643,0.005673567764460927
2023-01-28 14:17:32.839643,0.016327411159202367
2023-01-28 14:17:32.844643,0.024016499519348034
2023-01-28 14:17:32.849643,0.0268056889143152
2023-01-28 14:17:32.854643,0.02367993257939809
2023-01-28 14:17:32.859643,0.015099783758250064
2023-01-28 14:17:32.864643,0.002812743186950551
2023-01-28 14:17:32.869643,-0.010823301588665615
2023-01-28 14:17:32.874643,-0.02351164817810051
2023-01-28 14:17:32.879643,-0.033592014971806375
2023-01-28 14:17:32.884643,-0.04050831124186508
2023-01-28 14:17:32.889643,-0.04481781432883012
2023-01-28 14:17:32.894643,-0.047504108399152666
2023-01-28 14:17:32.899643,-0.048988572580231066
2023-01-28 14:17:32.904643,-0.04846572875976557
2023-01-28 14:17:32.909643,-0.04381083056890927
2023-01-28 14:17:32.914643,-0.03209412097930895
2023-01-28 14:17:32.919643,-0.010834788311256886
2023-01-28 14:17:32.924643,0.02019405364990231
2023-01-28 14:17:32.929643,0.05755487052995903
2023-01-28 14:17:32.934643,0.09423892199993131
2023-01-28 14:17:32.939643,0.12154025852839674
2023-01-28 14:17:32.944643,0.13200661540031428
2023-01-28 14:17:32.949643,0.12232594551611355
2023-01-28 14:17:32.954643,0.0949360951781272
2023-01-28 14:17:32.959643,0.0573950397179734
2023-01-28 14:17:32.964643,0.019520919770002337
2023-01-28 14:17:32.969643,-0.010322056230538194
2023-01-28 14:17:32.974643,-0.027887027710676054
2023-01-28 14:17:32.979643,-0.033589476068391265
2023-01-28 14:17:32.984643,-0.03115653991699205
2023-01-28 14:17:32.989643,-0.025344132413571432
2023-01-28 14:17:32.994643,-0.019833445549011196
2023-01-28 14:17:32.999643,-0.016207234938029592
2023-01-28 14:17:33.004643,-0.014256040565669493
2023-01-28 14:17:33.009643,-0.013017212070186279
2023-01-28 14:17:33.014643,-0.011659662239253485
2023-01-28 14:17:33.019643,-0.009816464379901245
2023-01-28 14:17:33.024643,-0.007524689193814896
2023-01-28 14:17:33.029643,-0.0050112772025727075
2023-01-28 14:17:33.034643,-0.002452135086059493
2023-01-28 14:17:33.039643,0.0001499481767304136
2023-01-28 14:17:33.044643,0.002884864807128911
2023-01-28 14:17:33.049643,0.0058030379452840095
2023-01-28 14:17:33.054643,0.008919040672481008
2023-01-28 14:17:33.059643,0.012281097795536185
2023-01-28 14:17:33.064643,0.015938878059387165
2023-01-28 14:17:33.069643,0.01986588680820278
2023-01-28 14:17:33.074643,0.023992460221052097
2023-01-28 14:17:33.079643,0.028294741315783897
2023-01-28 14:17:33.084643,0.032791297882795306
2023-01-28 14:17:33.089643,0.037504996061808286
2023-01-28 14:17:33.094643,0.04252771660685529
2023-01-28 14:17:33.099643,0.048101950162340035
2023-01-28 14:17:33.104643,0.05454798787832256
2023-01-28 14:17:33.109643,0.062110523410234444
2023-01-28 14:17:33.114643,0.07091959565877909
2023-01-28 14:17:33.119643,0.0810323992744333
2023-01-28 14:17:33.124643,0.09238779544830313
2023-01-28 14:17:33.129643,0.10471617193890809
2023-01-28 14:17:33.134643,0.1175822839140892
2023-01-28 14:17:33.139643,0.1305295289149027
2023-01-28 14:17:33.144643,0.14313738048076616
2023-01-28 14:17:33.149643,0.15497939298301122
2023-01-28 14:17:33.154643,0.16561529040336592
2023-01-28 14:17:33.159643,0.1745994617437673
2023-01-28 14:17:33.164643,0.1813858747482298
2023-01-28 14:17:33.169643,0.18520659723772753
2023-01-28 14:17:33.174643,0.1851361989974974
2023-01-28 14:17:33.179643,0.18034927582790586
2023-01-28 14:17:33.184643,0.17037531733512867
2023-01-28 14:17:33.189643,0.1552584791579257
2023-01-28 14:17:33.194643,0.1356607675552367
2023-01-28 14:17:33.199643,0.11284798565889008
2023-01-28 14:17:33.204643,0.08844514936208717
2023-01-28 14:17:33.209643,0.06406170782180114
2023-01-28 14:17:33.214643,0.04103720188140862
2023-01-28 14:17:33.219643,0.020373856677839388
2023-01-28 14:17:33.224643,0.0027165811043232016
2023-01-28 14:17:33.229643,-0.011672805520816159
2023-01-28 14:17:33.234643,-0.02286255359649648
2023-01-28 14:17:33.239643,-0.031127919932195828
2023-01-28 14:17:33.244643,-0.03687819093465801
2023-01-28 14:17:33.249643,-0.04063996548778539
2023-01-28 14:17:33.254643,-0.042984485626220724
2023-01-28 14:17:33.259643,-0.04439846774277449
2023-01-28 14:17:33.264643,-0.045220255851745605
2023-01-28 14:17:33.269643,-0.045664728526301455
2023-01-28 14:17:33.274643,-0.04584531113505358
2023-01-28 14:17:33.279643,-0.045781708616542204
2023-01-28 14:17:33.284643,-0.0454606637358665
2023-01-28 14:17:33.289643,-0.0449139802072704
2023-01-28 14:17:33.294643,-0.04421055316925037
2023-01-28 14:17:33.299643,-0.04339324620108041
2023-01-28 14:17:33.304643,-0.04247963428497309
2023-01-28 14:17:33.309643,-0.04151036522938718
2023-01-28 14:17:33.314643,-0.04053235054016101
2023-01-28 14:17:33.319643,-0.03953896767948234
2023-01-28 14:17:33.324643,-0.038488905876874875
2023-01-28 14:17:33.329643,-0.037384222247938935
2023-01-28 14:17:33.334643,-0.0362771749496459
2023-01-28 14:17:33.339643,-0.035213219610824374
2023-01-28 14:17:33.344643,-0.034233730286359614
2023-01-28 14:17:33.349643,-0.0334256355847294
2023-01-28 14:17:33.354643,-0.03288745880126949
2023-01-28 14:17:33.359643,-0.0326278116711999
2023-01-28 14:17:33.364643,-0.032550893723964545
2023-01-28 14:17:33.369643,-0.03254432087550111
2023-01-28 14:17:33.374643,-0.03252685070037836
2023-01-28 14:17:33.379643,-0.0324248826706772
2023-01-28 14:17:33.384643,-0.032190285623073495
2023-01-28 14:17:33.389643,-0.03186201485203485
2023-01-28 14:17:33.394643,-0.031541191041469505
2023-01-28 14:17:33.399643,-0.031282045920866794
2023-01-28 14:17:33.404643,-0.031060378998517886
2023-01-28 14:17:33.409643,-0.030852943340380325
2023-01-28 14:17:33.414643,-0.030675729736685663
2023-01-28 14:17:33.419643,-0.030529773999368074
2023-01-28 14:17:33.424643,-0.030387243255972786
2023-01-28 14:17:33.429643,-0.03026130829401506
2023-01-28 14:17:33.434643,-0.03021895885467518
2023-01-28 14:17:33.439643,-0.030284497460374888
2023-01-28 14:17:33.444643,-0.030387243255972776
2023-01-28 14:17:33.449643,-0.030442609244029094
2023-01-28 14:17:33.454643,-0.030435323715209923
2023-01-28 14:17:33.459643,-0.030390566851692027
2023-01-28 14:17:33.464643,-0.030315121635794605
2023-01-28 14:17:33.469643,-0.030202902501975916
2023-01-28 14:17:33.474643,-0.030050676316022824
2023-01-28 14:17:33.479643,-0.02983433948347828
2023-01-28 14:17:33.484643,-0.029521783813834142
2023-01-28 14:17:33.489643,-0.029154621568575633
2023-01-28 14:17:33.494643,-0.02887268923223016
2023-01-28 14:17:33.499643,-0.028790544225894242
2023-01-28 14:17:33.504643,-0.028824608772993088
2023-01-28 14:17:33.509643,-0.02860109425201845
2023-01-28 14:17:33.514643,-0.02745429798960681
2023-01-28 14:17:33.519643,-0.02452094672976257
2023-01-28 14:17:33.524643,-0.019016068428754786
2023-01-28 14:17:33.529643,-0.010671398140739028
2023-01-28 14:17:33.534643,-9.616216266293047e-05
2023-01-28 14:17:33.539643,0.0111812945002367
2023-01-28 14:17:33.544643,0.02101143263280388
2023-01-28 14:17:33.549643,0.027152757238810367
2023-01-28 14:17:33.554643,0.027935108169913205
2023-01-28 14:17:33.559643,0.022876394596498314
2023-01-28 14:17:33.564643,0.012933811172842879
2023-01-28 14:17:33.569643,0.00018523476805476472
2023-01-28 14:17:33.574643,-0.012909770011901796
2023-01-28 14:17:33.579643,-0.02430644963589456
2023-01-28 14:17:33.584643,-0.032935541123151696
2023-01-28 14:17:33.589643,-0.03885491487358683
2023-01-28 14:17:33.594643,-0.04288832470774653
2023-01-28 14:17:33.599643,-0.045827847682025406
2023-01-28 14:17:33.604643,-0.04755219072103498
2023-01-28 14:17:33.609643,-0.04651445629139427
2023-01-28 14:17:33.614643,-0.039907298982143354
2023-01-28 14:17:33.619643,-0.024611301763637912
2023-01-28 14:17:33.624643,0.0012020270805804926
2023-01-28 14:17:33.629643,0.03635194491916419
2023-01-28 14:17:33.634643,0.07575174421071997
2023-01-28 14:17:33.639643,0.11115132707267161
2023-01-28 14:17:33.644643,0.13356924057006825
2023-01-28 14:17:33.649643,0.13653985996916826
2023-01-28 14:17:33.654643,0.11878430843353263
2023-01-28 14:17:33.659643,0.08501996597402606
2023-01-28 14:17:33.664643,0.044354796409606864
2023-01-28 14:17:33.669643,0.006880298532325611
2023-01-28 14:17:33.674643,-0.019929608330130483
2023-01-28 14:17:33.679643,-0.03333215967980274
2023-01-28 14:17:33.684643,-0.0351953506469726
2023-01-28 14:17:33.689643,-0.030112128853756047
2023-01-28 14:17:33.694643,-0.022934675216674756
2023-01-28 14:17:33.699643,-0.016919949075729218
2023-01-28 14:17:33.704643,-0.013150176033377581
2023-01-28 14:17:33.709643,-0.011116674775508168
2023-01-28 14:17:33.714643,-0.009760459885001101
2023-01-28 14:17:33.719643,-0.008247441673107763
2023-01-28 14:17:33.724643,-0.006226500030606885
2023-01-28 14:17:33.729643,-0.003738962569686786
2023-01-28 14:17:33.734643,-0.0010097026824950651
2023-01-28 14:17:33.739643,0.0017507198271497514
2023-01-28 14:17:33.744643,0.00444750022143125
2023-01-28 14:17:33.749643,0.007080188229204068
2023-01-28 14:17:33.754643,0.009688338264822856
2023-01-28 14:17:33.759643,0.01235792979109804
2023-01-28 14:17:33.764643,0.01524170301854609
2023-01-28 14:17:33.769643,0.018501118703840948
2023-01-28 14:17:33.774643,0.02221345901489255
2023-01-28 14:17:33.779643,0.026360184725505945
2023-01-28 14:17:33.784643,0.030892094597220376
2023-01-28 14:17:33.789643,0.03577308361254276
2023-01-28 14:17:33.794643,0.04098912328481667
2023-01-28 14:17:33.799643,0.04658616198521781
2023-01-28 14:17:33.804643,0.05272090435028069
2023-01-28 14:17:33.809643,0.05963862023442561
2023-01-28 14:17:33.814643,0.06757795810699463
2023-01-28 14:17:33.819643,0.07669274468121526
2023-01-28 14:17:33.824643,0.08702675998210896
2023-01-28 14:17:33.829643,0.09850046427526522
2023-01-28 14:17:33.834643,0.11089901626110066
2023-01-28 14:17:33.839643,0.12389267096547052
2023-01-28 14:17:33.844643,0.13707916438579548
2023-01-28 14:17:33.849643,0.15000657058359607
2023-01-28 14:17:33.854643,0.16217748820781702
2023-01-28 14:17:33.859643,0.17305047988469263
2023-01-28 14:17:33.864643,0.18201093375682825
2023-01-28 14:17:33.869643,0.18830505466516922
2023-01-28 14:17:33.874643,0.19102613627910608
2023-01-28 14:17:33.879643,0.18924213210585056
2023-01-28 14:17:33.884643,0.1822272986173628
2023-01-28 14:17:33.889643,0.16969014262368506
2023-01-28 14:17:33.894643,0.15193621814250935
2023-01-28 14:17:33.899643,0.12992525225215368
2023-01-28 14:17:33.904643,0.10515332221984854
2023-01-28 14:17:33.909643,0.07935815741623513
2023-01-28 14:17:33.914643,0.05418737977743139
2023-01-28 14:17:33.919643,0.0309768782842129
2023-01-28 14:17:33.924643,0.01064995955675839
2023-01-28 14:17:33.929643,-0.006313453710590489
2023-01-28 14:17:33.934643,-0.01983344554901114
2023-01-28 14:17:33.939643,-0.030116486480768215
2023-01-28 14:17:33.944643,-0.03755132481455798
2023-01-28 14:17:33.949643,-0.04265696668191849
2023-01-28 14:17:33.954643,-0.04601359367370594
2023-01-28 14:17:33.959643,-0.04814195868537228
2023-01-28 14:17:33.964643,-0.04942735284566866
2023-01-28 14:17:33.969643,-0.05015042345920348
2023-01-28 14:17:33.974643,-0.05053321644663804
2023-01-28 14:17:33.979643,-0.05072169520055698
2023-01-28 14:17:33.984643,-0.05077362060546863
2023-01-28 14:17:33.989643,-0.050707926945006455
2023-01-28 14:17:33.994643,-0.050533216446638086
2023-01-28 14:17:33.999643,-0.05020883734064472
2023-01-28 14:17:34.004643,-0.04964371770620339
2023-01-28 14:17:34.009643,-0.04878204053310314
2023-01-28 14:17:34.014643,-0.04764835163950919
2023-01-28 14:17:34.019643,-0.04629398815816336
2023-01-28 14:17:34.024643,-0.04478752613067617
2023-01-28 14:17:34.029643,-0.04329779982179421
2023-01-28 14:17:34.034643,-0.042070947587490026
2023-01-28 14:17:34.039643,-0.041227063911511826
2023-01-28 14:17:34.044643,-0.040652554482221576
2023-01-28 14:17:34.049643,-0.040176356316967865
2023-01-28 14:17:34.054643,-0.039763055741786894
2023-01-28 14:17:34.059643,-0.03942830093781295
2023-01-28 14:17:34.064643,-0.039065878838300705
2023-01-28 14:17:34.069643,-0.03852390070487626
2023-01-28 14:17:34.074643,-0.0378157719969749
2023-01-28 14:17:34.079643,-0.03711190444606709
2023-01-28 14:17:34.084643,-0.03654162213206291
2023-01-28 14:17:34.089643,-0.03612595233954605
2023-01-28 14:17:34.094643,-0.03586848825216294
2023-01-28 14:17:34.099643,-0.03575706358598192
2023-01-28 14:17:34.104643,-0.03567616268992416
2023-01-28 14:17:34.109643,-0.03546590672907493
2023-01-28 14:17:34.114643,-0.03509918972849839
2023-01-28 14:17:34.119643,-0.034695470649987875
2023-01-28 14:17:34.124643,-0.034353934228420174
2023-01-28 14:17:34.129643,-0.03408393029347817
2023-01-28 14:17:34.134643,-0.03389716148376459
2023-01-28 14:17:34.139643,-0.033834396738109736
2023-01-28 14:17:34.144643,-0.033873122185468646
2023-01-28 14:17:34.149643,-0.03392326596150266
2023-01-28 14:17:34.154643,-0.033945243805646855
2023-01-28 14:17:34.159643,-0.03397484819854984
2023-01-28 14:17:34.164643,-0.034017365425825105
2023-01-28 14:17:34.169643,-0.034027453788233755
2023-01-28 14:17:34.174643,-0.03401736542582515
2023-01-28 14:17:34.179643,-0.0340771832615401
2023-01-28 14:17:34.184643,-0.034257769584655706
2023-01-28 14:17:34.189643,-0.0345307588435461
2023-01-28 14:17:34.194643,-0.03488282486796365
2023-01-28 14:17:34.199643,-0.03533485793282148
2023-01-28 14:17:34.204643,-0.03582040593028059
2023-01-28 14:17:34.209643,-0.036120113529491515
2023-01-28 14:17:34.214643,-0.03591656684875483
2023-01-28 14:17:34.219643,-0.03479099361061537
2023-01-28 14:17:34.224643,-0.032142203301191254
2023-01-28 14:17:34.229643,-0.027280238952878354
2023-01-28 14:17:34.234643,-0.019785365089774097
2023-01-28 14:17:34.239643,-0.00987575356492868
2023-01-28 14:17:34.244643,0.0014424324035643868
2023-01-28 14:17:34.249643,0.01242727414475347
2023-01-28 14:17:34.254643,0.020867189392447374
2023-01-28 14:17:34.259643,0.024678013567958273
2023-01-28 14:17:34.264643,0.022694271057844096
2023-01-28 14:17:34.269643,0.015182709419648771
2023-01-28 14:17:34.274643,0.003750324249267514
2023-01-28 14:17:34.279643,-0.009232809508446196
2023-01-28 14:17:34.284643,-0.021396081894636095
2023-01-28 14:17:34.289643,-0.031093471543341005
2023-01-28 14:17:34.294643,-0.03783981129527085
2023-01-28 14:17:34.299643,-0.04218370087087813
2023-01-28 14:17:34.304643,-0.04502793401479719
2023-01-28 14:17:34.309643,-0.046764299080594485
2023-01-28 14:17:34.314643,-0.04661460965871811
2023-01-28 14:17:34.319643,-0.042427593977830816
2023-01-28 14:17:34.324643,-0.03118058107793333
2023-01-28 14:17:34.329643,-0.010322582720696144
2023-01-28 14:17:34.334643,0.020434459671378084
2023-01-28 14:17:34.339643,0.057802147367055245
2023-01-28 14:17:34.344643,0.09493609517812715
2023-01-28 14:17:34.349643,0.12306604077374007
2023-01-28 14:17:34.354643,0.13436257839202875
2023-01-28 14:17:34.359643,0.12504557561545682
2023-01-28 14:17:34.364643,0.09726803004741653
2023-01-28 14:17:34.369643,0.0585880993175057
2023-01-28 14:17:34.374643,0.019112229347228997
2023-01-28 14:17:34.379643,-0.012247958180864955
2023-01-28 14:17:34.384643,-0.030627649277448602
2023-01-28 14:17:34.389643,-0.036099204199047705
2023-01-28 14:17:34.394643,-0.03252685070037842
2023-01-28 14:17:34.399643,-0.025154658811929863
2023-01-28 14:17:34.404643,-0.01822273060679435
2023-01-28 14:17:34.409643,-0.013751569928541487
2023-01-28 14:17:34.414643,-0.011731783859431725
2023-01-28 14:17:34.419643,-0.011067372850984289
2023-01-28 14:17:34.424643,-0.01050571631640191
2023-01-28 14:17:34.429643,-0.0092155335840866
2023-01-28 14:17:34.434643,-0.006971756927669003
2023-01-28 14:17:34.439643,-0.003993148574423329
2023-01-28 14:17:34.444643,-0.0006250540609470896
2023-01-28 14:17:34.449643,0.0028592669936805763
2023-01-28 14:17:34.454643,0.006274580955505297
2023-01-28 14:17:34.459643,0.009519227589002806
2023-01-28 14:17:34.464643,0.012621283531188947
2023-01-28 14:17:34.469643,0.01572623855940373
2023-01-28 14:17:34.474643,0.01899202726781358
2023-01-28 14:17:34.479643,0.02251189610853857
2023-01-28 14:17:34.484643,0.026324391365051197
2023-01-28 14:17:34.489643,0.030443698211661166
2023-01-28 14:17:34.494643,0.03488282486796369
2023-01-28 14:17:34.499643,0.03970005185013282
2023-01-28 14:17:34.504643,0.0450279340147972
2023-01-28 14:17:34.509643,0.051026033628198714
2023-01-28 14:17:34.514643,0.0578175000846385
2023-01-28 14:17:34.519643,0.06549063617747244
2023-01-28 14:17:34.524643,0.07411698997020716
2023-01-28 14:17:34.529643,0.08372207805533628
2023-01-28 14:17:34.534643,0.09426295757293693
2023-01-28 14:17:34.539643,0.10564590829720498
2023-01-28 14:17:34.544643,0.11770248413085926
2023-01-28 14:17:34.549643,0.13012080510756588
2023-01-28 14:17:34.554643,0.14246425032615656
2023-01-28 14:17:34.559643,0.15427213506064738
2023-01-28 14:17:34.564643,0.16506235301494585
2023-01-28 14:17:34.569643,0.17423698917425084
2023-01-28 14:17:34.574643,0.18109738826751698
2023-01-28 14:17:34.579643,0.18495116435859665
2023-01-28 14:17:34.584643,0.18508812785148612
2023-01-28 14:17:34.589643,0.18072970527243676
2023-01-28 14:17:34.594643,0.17128884792327873
2023-01-28 14:17:34.599643,0.1567804137193242
2023-01-28 14:17:34.604643,0.13784846663475028
2023-01-28 14:17:34.609643,0.11548039384661275
2023-01-28 14:17:34.614643,0.09099344909191129
2023-01-28 14:17:34.619643,0.06617280950582315
2023-01-28 14:17:34.624643,0.042816203087568165
2023-01-28 14:17:34.629643,0.021923270097434146
2023-01-28 14:17:34.634643,0.003750324249267535
2023-01-28 14:17:34.639643,-0.01127421284584463
2023-01-28 14:17:34.644643,-0.0224298238754272
2023-01-28 14:17:34.649643,-0.029876955040437834
2023-01-28 14:17:34.654643,-0.03517131134867655
2023-01-28 14:17:34.659643,-0.03983292420452435
2023-01-28 14:17:34.664643,-0.04384994506835932
2023-01-28 14:17:34.669643,-0.04634851841957343
2023-01-28 14:17:34.674643,-0.047311782836913965
2023-01-28 14:17:34.679643,-0.04768995568185814
2023-01-28 14:17:34.684643,-0.048032999038696185
2023-01-28 14:17:34.689643,-0.04805392499847295
2023-01-28 14:17:34.694643,-0.047600269317626835
2023-01-28 14:17:34.699643,-0.04709388465150721
2023-01-28 14:17:34.704643,-0.046758852899074464
2023-01-28 14:17:34.709643,-0.04623013539427768
2023-01-28 14:17:34.714643,-0.045268338173627756
2023-01-28 14:17:34.719643,-0.04419990596302247
2023-01-28 14:17:34.724643,-0.043321054428815745
2023-01-28 14:17:34.729643,-0.04246210224930866
2023-01-28 14:17:34.734643,-0.04146993160247797
2023-01-28 14:17:34.739643,-0.040563471790220566
2023-01-28 14:17:34.744643,-0.03985921666026107
2023-01-28 14:17:34.749643,-0.03904299397338733
2023-01-28 14:17:34.754643,-0.03786385059356679
2023-01-28 14:17:34.759643,-0.03651207254717634
2023-01-28 14:17:34.764643,-0.0351953506469726
2023-01-28 14:17:34.769643,-0.033789560245975916
2023-01-28 14:17:34.774643,-0.03223836421966555
2023-01-28 14:17:34.779643,-0.03086783762879648
2023-01-28 14:17:34.784643,-0.029954513534903488
2023-01-28 14:17:34.789643,-0.029358557803530895
2023-01-28 14:17:34.794643,-0.02889673039317131
2023-01-28 14:17:34.799643,-0.02869040505732484
2023-01-28 14:17:34.804643,-0.02882460877299301
2023-01-28 14:17:34.809643,-0.029046075861332156
2023-01-28 14:17:34.814643,-0.029137134552001915
2023-01-28 14:17:34.819643,-0.02924018446648653
2023-01-28 14:17:34.824643,-0.029497742652893018
2023-01-28 14:17:34.829643,-0.029726067257001876
2023-01-28 14:17:34.834643,-0.029762189835309896
2023-01-28 14:17:34.839643,-0.029779241596206082
2023-01-28 14:17:34.844643,-0.02993047237396241
2023-01-28 14:17:34.849643,-0.030024049245759375
2023-01-28 14:17:34.854643,-0.02988239191472531
2023-01-28 14:17:34.859643,-0.029698179696830095
2023-01-28 14:17:34.864643,-0.02971410751342769
2023-01-28 14:17:34.869643,-0.029866456287906983
2023-01-28 14:17:34.874643,-0.03002663515508169
2023-01-28 14:17:34.879643,-0.030200109407722952
2023-01-28 14:17:34.884643,-0.030098756775259895
2023-01-28 14:17:34.889643,-0.028827663317336525
2023-01-28 14:17:34.894643,-0.0253868103027343
2023-01-28 14:17:34.899643,-0.01931031470380059
2023-01-28 14:17:34.904643,-0.010698040947317963
2023-01-28 14:17:34.909643,-0.00015936870954629965
2023-01-28 14:17:34.914643,0.010818243026733322
2023-01-28 14:17:34.919643,0.019831700410457447
2023-01-28 14:17:34.924643,0.024497311562299694
2023-01-28 14:17:34.929643,0.023515540931659064
2023-01-28 14:17:34.934643,0.016900500282645173
2023-01-28 14:17:34.939643,0.005767191995658924
2023-01-28 14:17:34.944643,-0.00774105405434959
2023-01-28 14:17:34.949643,-0.020901677900222716
2023-01-28 14:17:34.954643,-0.03158926963806151
2023-01-28 14:17:34.959643,-0.03915274478172388
2023-01-28 14:17:34.964643,-0.0440903529524803
2023-01-28 14:17:34.969643,-0.04720110869135754
2023-01-28 14:17:34.974643,-0.04909078404307363
2023-01-28 14:17:34.979643,-0.04965455226939987
2023-01-28 14:17:34.984643,-0.0472396612167358
2023-01-28 14:17:34.989643,-0.03859516042908978
2023-01-28 14:17:34.994643,-0.020482540130615224
2023-01-28 14:17:34.999643,0.008108067360024404
2023-01-28 14:17:35.004643,0.04469136521220192
2023-01-28 14:17:35.009643,0.08319623477211344
2023-01-28 14:17:35.014643,0.1148897409439085
2023-01-28 14:17:35.019643,0.13087639041924315
2023-01-28 14:17:35.024643,0.12587627768516532
2023-01-28 14:17:35.029643,0.10094013016275337
2023-01-28 14:17:35.034643,0.06303429603576655
2023-01-28 14:17:35.039643,0.022127571693125236
2023-01-28 14:17:35.044643,-0.012236635200679288
2023-01-28 14:17:35.049643,-0.033857792658112985
2023-01-28 14:17:35.054643,-0.04168629646301259
2023-01-28 14:17:35.059643,-0.03935949073274749
2023-01-28 14:17:35.064643,-0.0323826074600219
2023-01-28 14:17:35.069643,-0.02516485032704905
2023-01-28 14:17:35.074643,-0.019977688789367617
2023-01-28 14:17:35.079643,-0.017346717348369244
2023-01-28 14:17:35.084643,-0.01649181172251699
2023-01-28 14:17:35.089643,-0.01591554487870677
2023-01-28 14:17:35.094643,-0.014544527046382382
2023-01-28 14:17:35.099643,-0.012377711001828306
2023-01-28 14:17:35.104643,-0.009808540344238198
2023-01-28 14:17:35.109643,-0.006833551220092663
2023-01-28 14:17:35.114643,-0.0033897161483763937
2023-01-28 14:17:35.119643,0.00013555094419792605
2023-01-28 14:17:35.124643,0.003413756843656316
2023-01-28 14:17:35.129643,0.006739364617066954
2023-01-28 14:17:35.134643,0.010457634925842204
2023-01-28 14:17:35.139643,0.014306328954607227
2023-01-28 14:17:35.144643,0.017958283424377414
2023-01-28 14:17:35.149643,0.021689479968774485
2023-01-28 14:17:35.154643,0.025819540023803676
2023-01-28 14:17:35.159643,0.030051380682581126
2023-01-28 14:17:35.164643,0.034137569367885506
2023-01-28 14:17:35.169643,0.038654039076845406
2023-01-28 14:17:35.174643,0.04430671781301489
2023-01-28 14:17:35.179643,0.05103858015025128
2023-01-28 14:17:35.184643,0.05865892022848122
2023-01-28 14:17:35.189643,0.06769081384611526
2023-01-28 14:17:35.194643,0.07858853042125696
2023-01-28 14:17:35.199643,0.09073128391307796
2023-01-28 14:17:35.204643,0.10325412452220908
2023-01-28 14:17:35.209643,0.11622833683625325
2023-01-28 14:17:35.214643,0.1298670023679733
2023-01-28 14:17:35.219643,0.14329193845648702
2023-01-28 14:17:35.224643,0.1554461419582366
2023-01-28 14:17:35.229643,0.1664861613246987
2023-01-28 14:17:35.234643,0.17667393386363975
2023-01-28 14:17:35.239643,0.18459235440610067
2023-01-28 14:17:35.244643,0.18830955028533924
2023-01-28 14:17:35.249643,0.1876489642433896
2023-01-28 14:17:35.254643,0.18311679363250724
2023-01-28 14:17:35.259643,0.1732443260983989
2023-01-28 14:17:35.264643,0.15602311491966236
2023-01-28 14:17:35.269643,0.13317820138604675
2023-01-28 14:17:35.274643,0.10976910591125483
2023-01-28 14:17:35.279643,0.08838102051307072
2023-01-28 14:17:35.284643,0.06661634147167197
2023-01-28 14:17:35.289643,0.042082707773685155
2023-01-28 14:17:35.294643,0.0172130279242992
2023-01-28 14:17:35.299643,-0.003350063690183693
2023-01-28 14:17:35.304643,-0.018246769905090315
2023-01-28 14:17:35.309643,-0.029526801099935912
2023-01-28 14:17:35.314643,-0.03856102749705307
2023-01-28 14:17:35.319643,-0.044802058274694044
2023-01-28 14:17:35.324643,-0.04824936389923093
2023-01-28 14:17:35.329643,-0.050394790396752015
2023-01-28 14:17:35.334643,-0.052264135330915375
2023-01-28 14:17:35.339643,-0.05348921904451212
2023-01-28 14:17:35.344643,-0.05382677167654022
2023-01-28 14:17:35.349643,-0.054001356004986296
2023-01-28 14:17:35.354643,-0.05449990555644026
2023-01-28 14:17:35.359643,-0.05484162091872133
2023-01-28 14:17:35.364643,-0.054596066474914474
2023-01-28 14:17:35.369643,-0.05407327233517792
2023-01-28 14:17:35.374643,-0.05353828519582739
2023-01-28 14:17:35.379643,-0.05268670265920203
2023-01-28 14:17:35.384643,-0.051374636590480784
2023-01-28 14:17:35.389643,-0.05007453731797807
2023-01-28 14:17:35.394643,-0.049162905663251745
2023-01-28 14:17:35.399643,-0.0484162441647395
2023-01-28 14:17:35.404643,-0.0475762300193309
2023-01-28 14:17:35.409643,-0.046796657250517
2023-01-28 14:17:35.414643,-0.04618187993764862
2023-01-28 14:17:35.419643,-0.04544189721065646
2023-01-28 14:17:35.424643,-0.04435479640960688
2023-01-28 14:17:35.429643,-0.04310931743359662
2023-01-28 14:17:35.434643,-0.04190266132354726
2023-01-28 14:17:35.439643,-0.0406332605234716
2023-01-28 14:17:35.444643,-0.039258204400539294
2023-01-28 14:17:35.449643,-0.038054318263363016
2023-01-28 14:17:35.454643,-0.03726283833384503
2023-01-28 14:17:35.459643,-0.036807913496855034
2023-01-28 14:17:35.464643,-0.03656566143035878
2023-01-28 14:17:35.469643,-0.036570930536773336
2023-01-28 14:17:35.474643,-0.0367579869925975
2023-01-28 14:17:35.479643,-0.03681949529114936
2023-01-28 14:17:35.484643,-0.03654162213206287
2023-01-28 14:17:35.489643,-0.036034447810968394
2023-01-28 14:17:35.494643,-0.035483837127685464
2023-01-28 14:17:35.499643,-0.034940346490114495
2023-01-28 14:17:35.504643,-0.03449817746877666
2023-01-28 14:17:35.509643,-0.03440563474368567
2023-01-28 14:17:35.514643,-0.03478666394948954
2023-01-28 14:17:35.519643,-0.035395603505264675
2023-01-28 14:17:35.524643,-0.035724245011806405
2023-01-28 14:17:35.529643,-0.03513860633013342
2023-01-28 14:17:35.534643,-0.032839380204677526
2023-01-28 14:17:35.539643,-0.02800417443720921
2023-01-28 14:17:35.544643,-0.020290216431021593
2023-01-28 14:17:35.549643,-0.010258462779657805
2023-01-28 14:17:35.554643,0.0006490945816039755
2023-01-28 14:17:35.559643,0.010412224275424894
2023-01-28 14:17:35.564643,0.016828378662467003
2023-01-28 14:17:35.569643,0.018111306013643136
2023-01-28 14:17:35.574643,0.013606945984065467
2023-01-28 14:17:35.579643,0.004140741383805448
2023-01-28 14:17:35.584643,-0.008293986320495559
2023-01-28 14:17:35.589643,-0.02125122042542716
2023-01-28 14:17:35.594643,-0.03257493302226062
2023-01-28 14:17:35.599643,-0.04100636436025534
2023-01-28 14:17:35.604643,-0.04649440571665761
2023-01-28 14:17:35.609643,-0.04996617481096589
2023-01-28 14:17:35.614643,-0.05255262181162833
2023-01-28 14:17:35.619643,-0.0546128301986482
2023-01-28 14:17:35.624643,-0.05498071759939187
2023-01-28 14:17:35.629643,-0.05079899584719351
2023-01-28 14:17:35.634643,-0.03827254101634014
2023-01-28 14:17:35.639643,-0.014396154964783307
2023-01-28 14:17:35.644643,0.020915269851684532
2023-01-28 14:17:35.649643,0.06336522814350276
2023-01-28 14:17:35.654643,0.10448019206523881
2023-01-28 14:17:35.659643,0.13386123610098916
2023-01-28 14:17:35.664643,0.14289698004722584
2023-01-28 14:17:35.669643,0.12836343409282336
2023-01-28 14:17:35.674643,0.0940465927124023
2023-01-28 14:17:35.679643,0.04944539425697328
2023-01-28 14:17:35.684643,0.006178419105708523
2023-01-28 14:17:35.689643,-0.02620840714710765
2023-01-28 14:17:35.694643,-0.04322489351034159
2023-01-28 14:17:35.699643,-0.04603367721656275
2023-01-28 14:17:35.704643,-0.0396428517997264
2023-01-28 14:17:35.709643,-0.02994382909588773
2023-01-28 14:17:35.714643,-0.02129991911351678
2023-01-28 14:17:35.719643,-0.015615274215681268
2023-01-28 14:17:35.724643,-0.01269340515136709
2023-01-28 14:17:35.729643,-0.011245373220530291
2023-01-28 14:17:35.734643,-0.00997682474553578
2023-01-28 14:17:35.739643,-0.008242647691689906
2023-01-28 14:17:35.744643,-0.006010135170072312
2023-01-28 14:17:35.749643,-0.0034597726365020566
2023-01-28 14:17:35.754643,-0.0007692973013035195
2023-01-28 14:17:35.759643,0.0018781460382130888
2023-01-28 14:17:35.764643,0.004375378601253018
2023-01-28 14:17:35.769643,0.0068190531850473
2023-01-28 14:17:35.774643,0.009399851784110026
2023-01-28 14:17:35.779643,0.012200954991278592
2023-01-28 14:17:35.784643,0.015265743248164553
2023-01-28 14:17:35.789643,0.01876857904937885
2023-01-28 14:17:35.794643,0.02288659475743766
2023-01-28 14:17:35.799643,0.02757959510972053
2023-01-28 14:17:35.804643,0.03274321556091297
2023-01-28 14:17:35.809643,0.038492599330638456
2023-01-28 14:17:35.814643,0.04502793401479717
2023-01-28 14:17:35.819643,0.05233294177901169
2023-01-28 14:17:35.824643,0.060317717492580414
2023-01-28 14:17:35.829643,0.06912619305638641
2023-01-28 14:17:35.834643,0.07892509549856178
2023-01-28 14:17:35.839643,0.08951351380960701
2023-01-28 14:17:35.844643,0.10056158155202856
2023-01-28 14:17:35.849643,0.1120882574275285
2023-01-28 14:17:35.854643,0.12419342994689941
2023-01-28 14:17:35.859643,0.13645772506697862
2023-01-28 14:17:35.864643,0.14820992946624745
2023-01-28 14:17:35.869643,0.1592342868452402
2023-01-28 14:17:35.874643,0.16941368579864496
2023-01-28 14:17:35.879643,0.17771903441404374
2023-01-28 14:17:35.884643,0.18256387114524836
2023-01-28 14:17:35.889643,0.1834105472779705
2023-01-28 14:17:35.894643,0.18100123107433302
2023-01-28 14:17:35.899643,0.17550868038173098
2023-01-28 14:17:35.904643,0.1654950827360152
2023-01-28 14:17:35.909643,0.14959579713252522
2023-01-28 14:17:35.914643,0.12856881320476524
2023-01-28 14:17:35.919643,0.10479176970483016
2023-01-28 14:17:35.924643,0.08027136325836186
2023-01-28 14:17:35.929643,0.05610135219603791
2023-01-28 14:17:35.934643,0.03341635316610332
2023-01-28 14:17:35.939643,0.01359188570011608
2023-01-28 14:17:35.944643,-0.0026925406418739895
2023-01-28 14:17:35.949643,-0.01576272738215777
2023-01-28 14:17:35.954643,-0.026132067665457698
2023-01-28 14:17:35.959643,-0.03399671862513266
2023-01-28 14:17:35.964643,-0.039642851799726354
2023-01-28 14:17:35.969643,-0.04368451349168838
2023-01-28 14:17:35.974643,-0.04661460965871813
2023-01-28 14:17:35.979643,-0.048552120675264335
2023-01-28 14:17:35.984643,-0.049619674682617014
2023-01-28 14:17:35.989643,-0.05017692238597321
2023-01-28 14:17:35.994643,-0.05050917714834209
2023-01-28 14:17:35.999643,-0.0506320513124147
2023-01-28 14:17:36.004643,-0.050557255744933985
2023-01-28 14:17:36.009643,-0.050436639331318804
2023-01-28 14:17:36.014643,-0.05029281228780737
2023-01-28 14:17:36.019643,-0.049879062673423596
2023-01-28 14:17:36.024643,-0.04894654080271712
2023-01-28 14:17:36.029643,-0.04743946653692126
2023-01-28 14:17:36.034643,-0.045364499092101974
2023-01-28 14:17:36.039643,-0.04273541952983733
2023-01-28 14:17:36.044643,-0.03976305574178688
2023-01-28 14:17:36.049643,-0.03687956190279518
2023-01-28 14:17:36.054643,-0.03445009514689436
2023-01-28 14:17:36.059643,-0.032599701626906084
2023-01-28 14:17:36.064643,-0.031348865479230784
2023-01-28 14:17:36.069643,-0.03070646260119318
2023-01-28 14:17:36.074643,-0.030555527657270345
2023-01-28 14:17:36.079643,-0.03063436469587189
2023-01-28 14:17:36.084643,-0.03072381019592279
2023-01-28 14:17:36.089643,-0.030732941719806048
2023-01-28 14:17:36.094643,-0.030579566955566382
2023-01-28 14:17:36.099643,-0.030159018605765607
2023-01-28 14:17:36.104643,-0.02949774265289298
2023-01-28 14:17:36.109643,-0.02880947351658069
2023-01-28 14:17:36.114643,-0.028343796730041493
2023-01-28 14:17:36.119643,-0.028263930162630548
2023-01-28 14:17:36.124643,-0.02865632437169549
2023-01-28 14:17:36.129643,-0.029503724349988516
2023-01-28 14:17:36.134643,-0.030603608116507502
2023-01-28 14:17:36.139643,-0.031632478733701216
2023-01-28 14:17:36.144643,-0.032358568161725894
2023-01-28 14:17:36.149643,-0.032762385453123065
2023-01-28 14:17:36.154643,-0.032983623445034034
2023-01-28 14:17:36.159643,-0.033225202581083225
2023-01-28 14:17:36.164643,-0.03363271802663797
2023-01-28 14:17:36.169643,-0.03407037631811188
2023-01-28 14:17:36.174643,-0.033921204507350866
2023-01-28 14:17:36.179643,-0.03216100703618146
2023-01-28 14:17:36.184643,-0.027718743309378572
2023-01-28 14:17:36.189643,-0.01992472020332918
2023-01-28 14:17:36.194643,-0.008919040672480998
2023-01-28 14:17:36.199643,0.0040711496340261845
2023-01-28 14:17:36.204643,0.016804337501525792
2023-01-28 14:17:36.209643,0.026586542203395184
2023-01-28 14:17:36.214643,0.031108459457755054
2023-01-28 14:17:36.219643,0.029172979720862736
2023-01-28 14:17:36.224643,0.02108355425298212
2023-01-28 14:17:36.229643,0.00859327997942051
2023-01-28 14:17:36.234643,-0.005649527069181156
2023-01-28 14:17:36.239643,-0.019002390221968583
2023-01-28 14:17:36.244643,-0.029641985893249515
2023-01-28 14:17:36.249643,-0.03694235552824403
2023-01-28 14:17:36.254643,-0.041397809982299805
2023-01-28 14:17:36.259643,-0.04416609022498169
2023-01-28 14:17:36.264643,-0.04625400155782688
2023-01-28 14:17:36.269643,-0.04757180593139268
2023-01-28 14:17:36.274643,-0.0463742017745971
2023-01-28 14:17:36.279643,-0.039515891085166864
2023-01-28 14:17:36.284643,-0.02358376979827881
2023-01-28 14:17:36.289643,0.0033178404337036414
2023-01-28 14:17:36.294643,0.03969093412160869
2023-01-28 14:17:36.299643,0.0797145937908348
2023-01-28 14:17:36.304643,0.1142646893858909
2023-01-28 14:17:36.309643,0.13387202534375836
2023-01-28 14:17:36.314643,0.1323672235012054
2023-01-28 14:17:36.319643,0.1095354895499443
2023-01-28 14:17:36.324643,0.07154464721679679
2023-01-28 14:17:36.329643,0.02877008799971909
2023-01-28 14:17:36.334643,-0.008173784241080206
2023-01-28 14:17:36.339643,-0.03227055290029568
2023-01-28 14:17:36.344643,-0.04190266132354725
2023-01-28 14:17:36.349643,-0.04012035946925656
2023-01-28 14:17:36.354643,-0.03233452886342998
2023-01-28 14:17:36.359643,-0.023738589367440117
2023-01-28 14:17:36.364643,-0.017453432083129793
2023-01-28 14:17:36.369643,-0.014064212241495951
2023-01-28 14:17:36.374643,-0.012549161911010699
2023-01-28 14:17:36.379643,-0.011634952283289148
2023-01-28 14:17:36.384643,-0.010505716316401915
2023-01-28 14:17:36.389643,-0.008813333461929742
2023-01-28 14:17:36.394643,-0.0065871081314979865
2023-01-28 14:17:36.399643,-0.004148375042372876
2023-01-28 14:17:36.404643,-0.00177900004200629
2023-01-28 14:17:36.409643,0.0005673374411685508
2023-01-28 14:17:36.414643,0.003053148742765083
2023-01-28 14:17:36.419643,0.005610477361643108
2023-01-28 14:17:36.424643,0.008101662620901973
2023-01-28 14:17:36.429643,0.010668400324523337
2023-01-28 14:17:36.434643,0.013558864593505807
2023-01-28 14:17:36.439643,0.016758109897560346
2023-01-28 14:17:36.444643,0.02019405364990228
2023-01-28 14:17:36.449643,0.024135479627657323
2023-01-28 14:17:36.454643,0.028896730393171314
2023-01-28 14:17:36.459643,0.03431342694138344
2023-01-28 14:17:36.464643,0.04007558152079574
2023-01-28 14:17:36.469643,0.046412764805412746
2023-01-28 14:17:36.474643,0.053778689354658106
2023-01-28 14:17:36.479643,0.06202173343500591
2023-01-28 14:17:36.484643,0.07070323079824437
2023-01-28 14:17:36.489643,0.08011849721846587
2023-01-28 14:17:36.494643,0.09089728444814678
2023-01-28 14:17:36.499643,0.10243848585099952
2023-01-28 14:17:36.504643,0.11299054324626912
2023-01-28 14:17:36.509643,0.12184838267062323
2023-01-28 14:17:36.514643,0.1303478181362151
2023-01-28 14:17:36.519643,0.1398361676703034
2023-01-28 14:17:36.524643,0.14955620467662806
2023-01-28 14:17:36.529643,0.15749694221226362
2023-01-28 14:17:36.534643,0.16253809630870808
2023-01-28 14:17:36.539643,0.16454351156730102
2023-01-28 14:17:36.544643,0.16285061836242665
2023-01-28 14:17:36.549643,0.15609101273034753
2023-01-28 14:17:36.554643,0.14361819624900807
2023-01-28 14:17:36.559643,0.1261574919023983
2023-01-28 14:17:36.564643,0.10498504340648651
2023-01-28 14:17:36.569643,0.08135916959587669
2023-01-28 14:17:36.574643,0.05687991902232168
2023-01-28 14:17:36.579643,0.03348205043948612
2023-01-28 14:17:36.584643,0.012597243301570391
2023-01-28 14:17:36.589643,-0.005267149420469977
2023-01-28 14:17:36.594643,-0.020001729950308706
2023-01-28 14:17:36.599643,-0.03149556736571555
2023-01-28 14:17:36.604643,-0.039931338280439294
2023-01-28 14:17:36.609643,-0.0459376554006047
2023-01-28 14:17:36.614643,-0.050148569047451
2023-01-28 14:17:36.619643,-0.05292351288485624
2023-01-28 14:17:36.624643,-0.05462010949850073
2023-01-28 14:17:36.629643,-0.0557376497675289
2023-01-28 14:17:36.634643,-0.056591432541608734
2023-01-28 14:17:36.639643,-0.05715869743711164
2023-01-28 14:17:36.644643,-0.05740880966186518
2023-01-28 14:17:36.649643,-0.057508439500328135
2023-01-28 14:17:36.654643,-0.05757709592580788
2023-01-28 14:17:36.659643,-0.0575209532982255
2023-01-28 14:17:36.664643,-0.05724052712321279
2023-01-28 14:17:36.669643,-0.05675857082393064
2023-01-28 14:17:36.674643,-0.056038498878478935
2023-01-28 14:17:36.679643,-0.05492260398603452
2023-01-28 14:17:36.684643,-0.05336999893188469
2023-01-28 14:17:36.689643,-0.05155813565709873
2023-01-28 14:17:36.694643,-0.04966775700449941
2023-01-28 14:17:36.699643,-0.04775962413758099
2023-01-28 14:17:36.704643,-0.04591743275523178
2023-01-28 14:17:36.709643,-0.04429792963613744
2023-01-28 14:17:36.714643,-0.04296044632792468
2023-01-28 14:17:36.719643,-0.04182667940370159
2023-01-28 14:17:36.724643,-0.040868919342756174
2023-01-28 14:17:36.729643,-0.040167920838142565
2023-01-28 14:17:36.734643,-0.039739012718200614
2023-01-28 14:17:36.739643,-0.03947069025642347
2023-01-28 14:17:36.744643,-0.03928224369883525
2023-01-28 14:17:36.749643,-0.03918994232483415
2023-01-28 14:17:36.754643,-0.03918608278036109
2023-01-28 14:17:36.759643,-0.03920414204633885
2023-01-28 14:17:36.764643,-0.039234161376953076
2023-01-28 14:17:36.769643,-0.03933337179918803
2023-01-28 14:17:36.774643,-0.039498608559369965
2023-01-28 14:17:36.779643,-0.03965246647015731
2023-01-28 14:17:36.784643,-0.039763055741786915
2023-01-28 14:17:36.789643,-0.039858283193949615
2023-01-28 14:17:36.794643,-0.03993133828043932
2023-01-28 14:17:36.799643,-0.03995919943530443
2023-01-28 14:17:36.804643,-0.04000345990061749
2023-01-28 14:17:36.809643,-0.04015670132147654
2023-01-28 14:17:36.814643,-0.04036406800150867
2023-01-28 14:17:36.819643,-0.04035619508914976
2023-01-28 14:17:36.824643,-0.03969093412160869
2023-01-28 14:17:36.829643,-0.03774798203916852
2023-01-28 14:17:36.834643,-0.03377696126699437
2023-01-28 14:17:36.839643,-0.02720595196741418
2023-01-28 14:17:36.844643,-0.01807848736643789
2023-01-28 14:17:36.849643,-0.00728416681812817
2023-01-28 14:17:36.854643,0.003509918926283698
2023-01-28 14:17:36.859643,0.012145769761027575
2023-01-28 14:17:36.864643,0.0165158510208129
2023-01-28 14:17:36.869643,0.015318286945004141
2023-01-28 14:17:36.874643,0.008630554191768131
2023-01-28 14:17:36.879643,-0.0021058777674580727
2023-01-28 14:17:36.884643,-0.014640688896179085
2023-01-28 14:17:36.889643,-0.026669121274273854
2023-01-28 14:17:36.894643,-0.03654162213206288
2023-01-28 14:17:36.899643,-0.04372943801672985
2023-01-28 14:17:36.904643,-0.04877825826406467
2023-01-28 14:17:36.909643,-0.0526925334814404
2023-01-28 14:17:36.914643,-0.05606254190206519
2023-01-28 14:17:36.919643,-0.05829617881603904
2023-01-28 14:17:36.924643,-0.0571924448013305
2023-01-28 14:17:36.929643,-0.04920011144935042
2023-01-28 14:17:36.934643,-0.03069977089762678
2023-01-28 14:17:36.939643,-3.6866473358453315e-05
2023-01-28 14:17:36.944643,0.04067659378051752
2023-01-28 14:17:36.949643,0.08499093735091244
2023-01-28 14:17:36.954643,0.12327989190816868
2023-01-28 14:17:36.959643,0.14560451011289893
2023-01-28 14:17:36.964643,0.14546930789947493
2023-01-28 14:17:36.969643,0.12270295467944159
2023-01-28 14:17:36.974643,0.08373320102691646
2023-01-28 14:17:36.979643,0.039073055676247075
2023-01-28 14:17:36.984643,-0.0005529324407688847
2023-01-28 14:17:36.989643,-0.027730102570160755
2023-01-28 14:17:36.994643,-0.04031598567962638
2023-01-28 14:17:36.999643,-0.04110693701391482
2023-01-28 14:17:37.004643,-0.03541171550750724
2023-01-28 14:17:37.009643,-0.02814610414304222
2023-01-28 14:17:37.014643,-0.022261541336774816
2023-01-28 14:17:37.019643,-0.018733625188745082
2023-01-28 14:17:37.024643,-0.01711686514317979
2023-01-28 14:17:37.029643,-0.01622408969456494
2023-01-28 14:17:37.034643,-0.015073418617248502
2023-01-28 14:17:37.039643,-0.013538941797129073
2023-01-28 14:17:37.044643,-0.011948148719966408
2023-01-28 14:17:37.049643,-0.01030131724666669
2023-01-28 14:17:37.054643,-0.008390149101614881
2023-01-28 14:17:37.059643,-0.006404813750303029
2023-01-28 14:17:37.064643,-0.0046398243866859964
2023-01-28 14:17:37.069643,-0.002721266031397803
2023-01-28 14:17:37.074643,-2.4040540665689984e-05
2023-01-28 14:17:37.079643,0.0031580971688820038
2023-01-28 14:17:37.084643,0.00588993262499568
2023-01-28 14:17:37.089643,0.008180875993829516
2023-01-28 14:17:37.094643,0.011154810898005943
2023-01-28 14:17:37.099643,0.015295719735278292
2023-01-28 14:17:37.104643,0.019737284630537012
2023-01-28 14:17:37.109643,0.023886524177930746
2023-01-28 14:17:37.114643,0.028512081131338997
2023-01-28 14:17:37.119643,0.03432575067252113
2023-01-28 14:17:37.124643,0.04065255448222156
2023-01-28 14:17:37.129643,0.04674028639156784
2023-01-28 14:17:37.134643,0.05346616357564919
2023-01-28 14:17:37.139643,0.062271492972459014
2023-01-28 14:17:37.144643,0.07293900102376924
2023-01-28 14:17:37.149643,0.08388206271680644
2023-01-28 14:17:37.154643,0.09433507919311519
2023-01-28 14:17:37.159643,0.10480722463543786
2023-01-28 14:17:37.164643,0.11544267833232869
2023-01-28 14:17:37.169643,0.12536245181309472
2023-01-28 14:17:37.174643,0.13383369147777543
2023-01-28 14:17:37.179643,0.140816864163845
2023-01-28 14:17:37.184643,0.1459501236677168
2023-01-28 14:17:37.189643,0.1480232019893704
2023-01-28 14:17:37.194643,0.14592608809471125
2023-01-28 14:17:37.199643,0.1393516187958883
2023-01-28 14:17:37.204643,0.12828032672405232
2023-01-28 14:17:37.209643,0.11266309618050653
2023-01-28 14:17:37.214643,0.09310901165008537
2023-01-28 14:17:37.219643,0.07122828483474923
2023-01-28 14:17:37.224643,0.048826336860656634
2023-01-28 14:17:37.229643,0.027200999131914864
2023-01-28 14:17:37.234643,0.00740448664873828
2023-01-28 14:17:37.239643,-0.009535253999988143
2023-01-28 14:17:37.244643,-0.023127000778913425
2023-01-28 14:17:37.249643,-0.03368573900991646
2023-01-28 14:17:37.254643,-0.04173437878489494
2023-01-28 14:17:37.259643,-0.04752763057568932
2023-01-28 14:17:37.264643,-0.05137463659048082
2023-01-28 14:17:37.269643,-0.053889786836246976
2023-01-28 14:17:37.274643,-0.05555769056081767
2023-01-28 14:17:37.279643,-0.05643952381388595
2023-01-28 14:17:37.284643,-0.05659143254160881
2023-01-28 14:17:37.289643,-0.05637947434222757
2023-01-28 14:17:37.294643,-0.056110620498657185
2023-01-28 14:17:37.299643,-0.05573438175152211
2023-01-28 14:17:37.304643,-0.05517303943634032
2023-01-28 14:17:37.309643,-0.05458331135239565
2023-01-28 14:17:37.314643,-0.05404313653707499
2023-01-28 14:17:37.319643,-0.053344016607290067
2023-01-28 14:17:37.324643,-0.05236029624938959
2023-01-28 14:17:37.329643,-0.05130857081692178
2023-01-28 14:17:37.334643,-0.05041301250457761
2023-01-28 14:17:37.339643,-0.049624883057825836
2023-01-28 14:17:37.344643,-0.04887441918253886
2023-01-28 14:17:37.349643,-0.0482676767157908
2023-01-28 14:17:37.354643,-0.047816634178161566
2023-01-28 14:17:37.359643,-0.04729510085263313
2023-01-28 14:17:37.364643,-0.046590566635131746
2023-01-28 14:17:37.369643,-0.04591699463632162
2023-01-28 14:17:37.374643,-0.0454847030341625
2023-01-28 14:17:37.379643,-0.04524046327717694
2023-01-28 14:17:37.384643,-0.045100055634975385
2023-01-28 14:17:37.389643,-0.04512360545797796
2023-01-28 14:17:37.394643,-0.045268338173627826
2023-01-28 14:17:37.399643,-0.04527036443464598
2023-01-28 14:17:37.404643,-0.044979851692914866
2023-01-28 14:17:37.409643,-0.04455487841790571
2023-01-28 14:17:37.414643,-0.04416247457265848
2023-01-28 14:17:37.419643,-0.04377078575358026
2023-01-28 14:17:37.424643,-0.04339317604899391
2023-01-28 14:17:37.429643,-0.043226053669850543
2023-01-28 14:17:37.434643,-0.0433450937271118
2023-01-28 14:17:37.439643,-0.04353583977139456
2023-01-28 14:17:37.444643,-0.04360954090952865
2023-01-28 14:17:37.449643,-0.04363416151244194
2023-01-28 14:17:37.454643,-0.04370570182800285
2023-01-28 14:17:37.459643,-0.043777605849952606
2023-01-28 14:17:37.464643,-0.04387398809194557
2023-01-28 14:17:37.469643,-0.04415070658031819
2023-01-28 14:17:37.474643,-0.04449903964996326
2023-01-28 14:17:37.479643,-0.044290745779692775
2023-01-28 14:17:37.484643,-0.04267195984721179
2023-01-28 14:17:37.489643,-0.03891307204705732
2023-01-28 14:17:37.494643,-0.0324547290802001
2023-01-28 14:17:37.499643,-0.02308985387109926
2023-01-28 14:17:37.504643,-0.011491378769278514
2023-01-28 14:17:37.509643,0.0005667089336398246
2023-01-28 14:17:37.514643,0.010722081176936628
2023-01-28 14:17:37.519643,0.016752341887705493
2023-01-28 14:17:37.524643,0.01704474352300162
2023-01-28 14:17:37.529643,0.011052991602381344
2023-01-28 14:17:37.534643,-0.00021636486053459218
2023-01-28 14:17:37.539643,-0.01434948936086287
2023-01-28 14:17:37.544643,-0.0285361222922801
2023-01-28 14:17:37.549643,-0.0406243655931928
2023-01-28 14:17:37.554643,-0.0495235137641429
2023-01-28 14:17:37.559643,-0.0552139186275578
2023-01-28 14:17:37.564643,-0.058634877204894964
2023-01-28 14:17:37.569643,-0.061064079486786764
2023-01-28 14:17:37.574643,-0.06293813884258266
2023-01-28 14:17:37.579643,-0.06301797411230332
2023-01-28 14:17:37.584643,-0.058610837906599
2023-01-28 14:17:37.589643,-0.046519918550460865
2023-01-28 14:17:37.594643,-0.02425690554082385
2023-01-28 14:17:37.599643,0.008418275465174853
2023-01-28 14:17:37.604643,0.04800895974040027
2023-01-28 14:17:37.609643,0.08716347521574136
2023-01-28 14:17:37.614643,0.11671682447195045
2023-01-28 14:17:37.619643,0.1289579297136197
2023-01-28 14:17:37.624643,0.12046714872121807
2023-01-28 14:17:37.629643,0.09352728078944417
2023-01-28 14:17:37.634643,0.05562981218099589
2023-01-28 14:17:37.639643,0.016844938788134305
2023-01-28 14:17:37.644643,-0.014063715934753437
2023-01-28 14:17:37.649643,-0.032631598379268004
2023-01-28 14:17:37.654643,-0.03921012207865709
2023-01-28 14:17:37.659643,-0.03742942457286582
2023-01-28 14:17:37.664643,-0.03202199935913074
2023-01-28 14:17:37.669643,-0.0268714824982938
2023-01-28 14:17:37.674643,-0.023752054199576274
2023-01-28 14:17:37.679643,-0.022346204365660052
2023-01-28 14:17:37.684643,-0.021468203514814304
2023-01-28 14:17:37.689643,-0.020272197506731576
2023-01-28 14:17:37.694643,-0.018463134765624972
2023-01-28 14:17:37.699643,-0.015979104316934722
2023-01-28 14:17:37.704643,-0.012981891632079948
2023-01-28 14:17:37.709643,-0.009927169984276557
2023-01-28 14:17:37.714643,-0.007164081092923792
2023-01-28 14:17:37.719643,-0.00452993689010781
2023-01-28 14:17:37.724643,-0.0016828378429636312
2023-01-28 14:17:37.729643,0.0012878352214651773
2023-01-28 14:17:37.734643,0.003990729805081983
2023-01-28 14:17:37.739643,0.006423508794393451
2023-01-28 14:17:37.744643,0.009111365303397055
2023-01-28 14:17:37.749643,0.012488027885364544
2023-01-28 14:17:37.754643,0.016491811722517014
2023-01-28 14:17:37.759643,0.020900105494278575
2023-01-28 14:17:37.764643,0.025771459564566536
2023-01-28 14:17:37.769643,0.03137359862585067
2023-01-28 14:17:37.774643,0.03786385059356676
2023-01-28 14:17:37.779643,0.04522796643554437
2023-01-28 14:17:37.784643,0.053442120552062856
2023-01-28 14:17:37.789643,0.0625462737450039
2023-01-28 14:17:37.794643,0.07257839292287813
2023-01-28 14:17:37.799643,0.08351261114046707
2023-01-28 14:17:37.804643,0.09524862468242637
2023-01-28 14:17:37.809643,0.10761482786370785
2023-01-28 14:17:37.814643,0.12037098407745357
2023-01-28 14:17:37.819643,0.13320322428211462
2023-01-28 14:17:37.824643,0.14570972323417655
2023-01-28 14:17:37.829643,0.157401938897652
2023-01-28 14:17:37.834643,0.16770681738853443
2023-01-28 14:17:37.839643,0.17591456114270057
2023-01-28 14:17:37.844643,0.1811214387416838
2023-01-28 14:17:37.849643,0.1823162811798625
2023-01-28 14:17:37.854643,0.17862121760845173
2023-01-28 14:17:37.859643,0.1695166835096755
2023-01-28 14:17:37.864643,0.15496532618999465
2023-01-28 14:17:37.869643,0.13550608713498696
2023-01-28 14:17:37.874643,0.11229336261749254
2023-01-28 14:17:37.879643,0.08692831149550266
2023-01-28 14:17:37.884643,0.06111105531454072
2023-01-28 14:17:37.889643,0.03635976958221917
2023-01-28 14:17:37.894643,0.013895432464778375
2023-01-28 14:17:37.899643,-0.005445122431720392
2023-01-28 14:17:37.904643,-0.021299919113516808
2023-01-28 14:17:37.909643,-0.03372628754916427
2023-01-28 14:17:37.914643,-0.043008528649806844
2023-01-28 14:17:37.919643,-0.049544325635925764
2023-01-28 14:17:37.924643,-0.05385081097483633
2023-01-28 14:17:37.929643,-0.05650304304507199
2023-01-28 14:17:37.934643,-0.05798578262329096
2023-01-28 14:17:37.939643,-0.05865950552564319
2023-01-28 14:17:37.944643,-0.05885124206542959
2023-01-28 14:17:37.949643,-0.0588484345619227
2023-01-28 14:17:37.954643,-0.05877912044525141
2023-01-28 14:17:37.959643,-0.05861175326494871
2023-01-28 14:17:37.964643,-0.058298312127590124
2023-01-28 14:17:37.969643,-0.057821992380538326
2023-01-28 14:17:37.974643,-0.05712032318115233
2023-01-28 14:17:37.979643,-0.056115886256314994
2023-01-28 14:17:37.984643,-0.054860513657331376
2023-01-28 14:17:37.989643,-0.0535279593997832
2023-01-28 14:17:37.994643,-0.05224009603261942
2023-01-28 14:17:37.999643,-0.05101831733759971
2023-01-28 14:17:38.004643,-0.04990816116333001
2023-01-28 14:17:38.009643,-0.048996835546327555
2023-01-28 14:17:38.014643,-0.04827340692281721
2023-01-28 14:17:38.019643,-0.047614877638553016
2023-01-28 14:17:38.024643,-0.04695117473602288
2023-01-28 14:17:38.029643,-0.04631433097974927
2023-01-28 14:17:38.034643,-0.0457010678946971
2023-01-28 14:17:38.039643,-0.0450385890288638
2023-01-28 14:17:38.044643,-0.04433075711131092
2023-01-28 14:17:38.049643,-0.04369463141878615
2023-01-28 14:17:38.054643,-0.043200850486755274
2023-01-28 14:17:38.059643,-0.0428062905402449
2023-01-28 14:17:38.064643,-0.04247963428497307
2023-01-28 14:17:38.069643,-0.04224815779729962
2023-01-28 14:17:38.074643,-0.04207094758749
2023-01-28 14:17:38.079643,-0.04180762769609427
2023-01-28 14:17:38.084643,-0.04137377068400375
2023-01-28 14:17:38.089643,-0.040808002442917365
2023-01-28 14:17:38.094643,-0.040147703140973996
2023-01-28 14:17:38.099643,-0.039375608523867234
2023-01-28 14:17:38.104643,-0.038536988198757095
2023-01-28 14:17:38.109643,-0.037773873789980296
2023-01-28 14:17:38.114643,-0.037190716713666874
2023-01-28 14:17:38.119643,-0.036812447688880125
2023-01-28 14:17:38.124643,-0.03670990467071526
2023-01-28 14:17:38.129643,-0.03700122608215889
2023-01-28 14:17:38.134643,-0.03762344643473617
2023-01-28 14:17:38.139643,-0.038169742607953236
2023-01-28 14:17:38.144643,-0.03796001523733128
2023-01-28 14:17:38.149643,-0.03615550473399081
2023-01-28 14:17:38.154643,-0.03185371682047836
2023-01-28 14:17:38.159643,-0.024397277021890908
2023-01-28 14:17:38.164643,-0.013895432464778359
2023-01-28 14:17:38.169643,-0.0015307450555691441
2023-01-28 14:17:38.174643,0.01062591932713977
2023-01-28 14:17:38.179643,0.020107770482671854
2023-01-28 14:17:38.184643,0.024641554802656077
2023-01-28 14:17:38.189643,0.02283510613973412
2023-01-28 14:17:38.194643,0.014784932136535619
2023-01-28 14:17:38.199643,0.0021513437373952135
2023-01-28 14:17:38.204643,-0.012453000061213899
2023-01-28 14:17:38.209643,-0.026361622885939146
2023-01-28 14:17:38.214643,-0.037599407136440194
2023-01-28 14:17:38.219643,-0.04534980924983026
2023-01-28 14:17:38.224643,-0.05005240440368652
2023-01-28 14:17:38.229643,-0.05293685691699006
2023-01-28 14:17:38.234643,-0.05507687851786606
2023-01-28 14:17:38.239643,-0.056442588275252656
2023-01-28 14:17:38.244643,-0.055389404296874986
2023-01-28 14:17:38.249643,-0.048774937926874117
2023-01-28 14:17:38.254643,-0.032887458801269476
2023-01-28 14:17:38.259643,-0.005250145934485801
2023-01-28 14:17:38.264643,0.033296149224042795
2023-01-28 14:17:38.269643,0.07744511707071583
2023-01-28 14:17:38.274643,0.1181592568755149
2023-01-28 14:17:38.279643,0.14528452236737982
2023-01-28 14:17:38.284643,0.1511669158935546
2023-01-28 14:17:38.289643,0.13382893026639234
2023-01-28 14:17:38.294643,0.098109446465969
2023-01-28 14:17:38.299643,0.053920269815372214
2023-01-28 14:17:38.304643,0.012380878441035685
2023-01-28 14:17:38.309643,-0.018176496767873657
2023-01-28 14:17:38.314643,-0.034522216767072574
2023-01-28 14:17:38.319643,-0.03848617859146207
2023-01-28 14:17:38.324643,-0.034954946488141986
2023-01-28 14:17:38.329643,-0.029069903796632723
2023-01-28 14:17:38.334643,-0.024136703461408594
2023-01-28 14:17:38.339643,-0.02117512967189734
2023-01-28 14:17:38.344643,-0.019713243469595864
2023-01-28 14:17:38.349643,-0.01872429938678577
2023-01-28 14:17:38.354643,-0.01718898676335811
2023-01-28 14:17:38.359643,-0.014487569071711903
2023-01-28 14:17:38.364643,-0.010649959556758393
2023-01-28 14:17:38.369643,-0.006165829886299039
2023-01-28 14:17:38.374643,-0.0014905135612933477
2023-01-28 14:17:38.379643,0.0031657660919394886
2023-01-28 14:17:38.384643,0.007644891738891611
2023-01-28 14:17:38.389643,0.011750064945426289
2023-01-28 14:17:38.394643,0.015458067879080701
2023-01-28 14:17:38.399643,0.019016578186197605
2023-01-28 14:17:38.404643,0.022718310356140116
2023-01-28 14:17:38.409643,0.026723887668815543
2023-01-28 14:17:38.414643,0.031156539916992083
2023-01-28 14:17:38.419643,0.03616854249083863
2023-01-28 14:17:38.424643,0.0418065004050731
2023-01-28 14:17:38.429643,0.04797135703567423
2023-01-28 14:17:38.434643,0.054620109498500796
2023-01-28 14:17:38.439643,0.06188913102502657
2023-01-28 14:17:38.444643,0.06995797157287588
2023-01-28 14:17:38.449643,0.07893118780062501
2023-01-28 14:17:38.454643,0.08890192210674278
2023-01-28 14:17:38.459643,0.09994866879016602
2023-01-28 14:17:38.464643,0.1119567975401878
2023-01-28 14:17:38.469643,0.12456134745264065
2023-01-28 14:17:38.474643,0.1373436152935028
2023-01-28 14:17:38.479643,0.14997832282101686
2023-01-28 14:17:38.484643,0.16215345263481135
2023-01-28 14:17:38.489643,0.1734922583279366
2023-01-28 14:17:38.494643,0.18359760940074912
2023-01-28 14:17:38.499643,0.19199716473548892
2023-01-28 14:17:38.504643,0.19794981181621543
2023-01-28 14:17:38.509643,0.20044118858911797
2023-01-28 14:17:38.514643,0.19847869873046856
2023-01-28 14:17:38.519643,0.19136251403616628
2023-01-28 14:17:38.524643,0.17876546084880812
2023-01-28 14:17:38.529643,0.16084697988332397
2023-01-28 14:17:38.534643,0.1384494751691817
2023-01-28 14:17:38.539643,0.11304672702455146
2023-01-28 14:17:38.544643,0.08635362237691864
2023-01-28 14:17:38.549643,0.05997940605280777
2023-01-28 14:17:38.554643,0.03533959388732906
2023-01-28 14:17:38.559643,0.01357678723873694
2023-01-28 14:17:38.564643,-0.004639824386686002
2023-01-28 14:17:38.569643,-0.0191620463013592
2023-01-28 14:17:38.574643,-0.030146837234496987
2023-01-28 14:17:38.579643,-0.037895879104479495
2023-01-28 14:17:38.584643,-0.04291236400604236
2023-01-28 14:17:38.589643,-0.045892984031510244
2023-01-28 14:17:38.594643,-0.047504108399152686
2023-01-28 14:17:38.599643,-0.048221449548705116
2023-01-28 14:17:38.604643,-0.04839360713958736
2023-01-28 14:17:38.609643,-0.04828262479655307
2023-01-28 14:17:38.614643,-0.04796087741851794
2023-01-28 14:17:38.619643,-0.04732888514251446
2023-01-28 14:17:38.624643,-0.04635016247630104
2023-01-28 14:17:38.629643,-0.045175970862545975
2023-01-28 14:17:38.634643,-0.04399418830871577
2023-01-28 14:17:38.639643,-0.04289325190642417
2023-01-28 14:17:38.644643,-0.041926704347133616
2023-01-28 14:17:38.649643,-0.04114988213871071
2023-01-28 14:17:38.654643,-0.040508311241865116
2023-01-28 14:17:38.659643,-0.03983356452496404
2023-01-28 14:17:38.664643,-0.039041839540004654
2023-01-28 14:17:38.669643,-0.03822306252902063
2023-01-28 14:17:38.674643,-0.03747920319437977
2023-01-28 14:17:38.679643,-0.03681611172712359
2023-01-28 14:17:38.684643,-0.03625313565134999
2023-01-28 14:17:38.689643,-0.03587417192553578
2023-01-28 14:17:38.694643,-0.035676162689924205
2023-01-28 14:17:38.699643,-0.03550691677908584
2023-01-28 14:17:38.704643,-0.03524343296885484
2023-01-28 14:17:38.709643,-0.03490536571100582
2023-01-28 14:17:38.714643,-0.034522216767072594
2023-01-28 14:17:38.719643,-0.034038247946827076
2023-01-28 14:17:38.724643,-0.03344039246439932
2023-01-28 14:17:38.729643,-0.03284072189832236
2023-01-28 14:17:38.734643,-0.03233452886343001
2023-01-28 14:17:38.739643,-0.03189967957597505
2023-01-28 14:17:38.744643,-0.03151714801788327
2023-01-28 14:17:38.749643,-0.03125382906362758
2023-01-28 14:17:38.754643,-0.031132500618696168
2023-01-28 14:17:38.759643,-0.031049307491252908
2023-01-28 14:17:38.764643,-0.030916135758161517
2023-01-28 14:17:38.769643,-0.030768081795401102
2023-01-28 14:17:38.774643,-0.030651688575744577
2023-01-28 14:17:38.779643,-0.030541530162689075
2023-01-28 14:17:38.784643,-0.030459364876150998
2023-01-28 14:17:38.789643,-0.030541033034163778
2023-01-28 14:17:38.794643,-0.030868053436279196
2023-01-28 14:17:38.799643,-0.031310150911071824
2023-01-28 14:17:38.804643,-0.03156523033976549
2023-01-28 14:17:38.809643,-0.03118217032053996
2023-01-28 14:17:38.814643,-0.029449662193655878
2023-01-28 14:17:38.819643,-0.025460157766720153
2023-01-28 14:17:38.824643,-0.018535256385803178
2023-01-28 14:17:38.829643,-0.008682587939711241
2023-01-28 14:17:38.834643,0.0032454729080199627
2023-01-28 14:17:38.839643,0.015594320318534338
2023-01-28 14:17:38.844643,0.02605994604527952
2023-01-28 14:17:38.849643,0.032189219706376046
2023-01-28 14:17:38.854643,0.0322624072432518
2023-01-28 14:17:38.859643,0.026023771862619477
2023-01-28 14:17:38.864643,0.014760891906917045
2023-01-28 14:17:38.869643,0.000835367365820962
2023-01-28 14:17:38.874643,-0.013005932793021166
2023-01-28 14:17:38.879643,-0.02444047985216401
2023-01-28 14:17:38.884643,-0.03233452886342995
2023-01-28 14:17:38.889643,-0.0369862700786293
2023-01-28 14:17:38.894643,-0.03959476947784417
2023-01-28 14:17:38.899643,-0.04132369102669478
2023-01-28 14:17:38.904643,-0.04245559498667709
2023-01-28 14:17:38.909643,-0.041801534171843416
2023-01-28 14:17:38.914643,-0.036565661430358797
2023-01-28 14:17:38.919643,-0.02314613162735948
2023-01-28 14:17:38.924643,0.0010337432613596036
2023-01-28 14:17:38.929643,0.03550005429452125
2023-01-28 14:17:38.934643,0.07567962259054181
2023-01-28 14:17:38.939643,0.11346579281937587
2023-01-28 14:17:38.944643,0.13941109180450423
2023-01-28 14:17:38.949643,0.14605454068510992
2023-01-28 14:17:38.954643,0.1311171054840086
2023-01-28 14:17:38.959643,0.09878380044218475
2023-01-28 14:17:38.964643,0.058130025863647405
2023-01-28 14:17:38.969643,0.01955386130846297
2023-01-28 14:17:38.974643,-0.008895000442862455
2023-01-28 14:17:38.979643,-0.02380575179963731
2023-01-28 14:17:38.984643,-0.026684999465942272
2023-01-28 14:17:38.989643,-0.022254803269905653
2023-01-28 14:17:38.994643,-0.015650391578674278
2023-01-28 14:17:38.999643,-0.010169277509842284
2023-01-28 14:17:39.004643,-0.006779432296752887
2023-01-28 14:17:39.009643,-0.005021846443290163
2023-01-28 14:17:39.014643,-0.004014770500361905
2023-01-28 14:17:39.019643,-0.0029099906875631517
2023-01-28 14:17:39.024643,-0.0011058648815378356
2023-01-28 14:17:39.029643,0.0015279099889376274
2023-01-28 14:17:39.034643,0.004663865081965911
2023-01-28 14:17:39.039643,0.007889171448215266
2023-01-28 14:17:39.044643,0.011058649048209105
2023-01-28 14:17:39.049643,0.014289395675467026
2023-01-28 14:17:39.054643,0.0177419185638427
2023-01-28 14:17:39.059643,0.02149158980508397
2023-01-28 14:17:39.064643,0.025531053543090793
2023-01-28 14:17:39.069643,0.02978684653278709
2023-01-28 14:17:39.074643,0.034137569367885465
2023-01-28 14:17:39.079643,0.0384841007661409
2023-01-28 14:17:39.084643,0.042840242385864216
2023-01-28 14:17:39.089643,0.04736503838093977
2023-01-28 14:17:39.094643,0.05231221765279758
2023-01-28 14:17:39.099643,0.057936955266098086
2023-01-28 14:17:39.104643,0.06442864984273909
2023-01-28 14:17:39.109643,0.07191645057858088
2023-01-28 14:17:39.114643,0.08051177114248273
2023-01-28 14:17:39.119643,0.0903016954427042
2023-01-28 14:17:39.124643,0.10128279775381077
2023-01-28 14:17:39.129643,0.1133136566654407
2023-01-28 14:17:39.134643,0.12611667811870564
2023-01-28 14:17:39.139643,0.13928385842439506
2023-01-28 14:17:39.144643,0.15229682624340046
2023-01-28 14:17:39.149643,0.16462611794505674
2023-01-28 14:17:39.154643,0.17585656046867365
2023-01-28 14:17:39.159643,0.1856806185512339
2023-01-28 14:17:39.164643,0.19374272227287284
2023-01-28 14:17:39.169643,0.1995066678912681
2023-01-28 14:17:39.174643,0.2022530734539031
2023-01-28 14:17:39.179643,0.20114717151964062
2023-01-28 14:17:39.184643,0.1953534334897993
2023-01-28 14:17:39.189643,0.18427532995387857
2023-01-28 14:17:39.194643,0.1678750962018966
2023-01-28 14:17:39.199643,0.14684884376138985
2023-01-28 14:17:39.204643,0.12253463268280015
2023-01-28 14:17:39.209643,0.09666863133008616
2023-01-28 14:17:39.214643,0.07111191749572748
2023-01-28 14:17:39.219643,0.04753779606954602
2023-01-28 14:17:39.224643,0.02711772918701168
2023-01-28 14:17:39.229643,0.01037267149888252
2023-01-28 14:17:39.234643,-0.0027406215667724015
2023-01-28 14:17:39.239643,-0.012641632356358392
2023-01-28 14:17:39.244643,-0.019953649491071673
2023-01-28 14:17:39.249643,-0.0253250429603715
2023-01-28 14:17:39.254643,-0.029257338494062417
2023-01-28 14:17:39.259643,-0.03205635096648316
2023-01-28 14:17:39.264643,-0.03392120450735088
2023-01-28 14:17:39.269643,-0.035024323196635225
2023-01-28 14:17:39.274643,-0.035507880151271785
2023-01-28 14:17:39.279643,-0.03548386356145797
2023-01-28 14:17:39.284643,-0.03507515043020239
2023-01-28 14:17:39.289643,-0.03440987427650036
2023-01-28 14:17:39.294643,-0.03356059640645978
2023-01-28 14:17:39.299643,-0.03254465149423382
2023-01-28 14:17:39.304643,-0.03139694780111306
2023-01-28 14:17:39.309643,-0.030181573472958082
2023-01-28 14:17:39.314643,-0.028920769691467188
2023-01-28 14:17:39.319643,-0.02758491859073251
2023-01-28 14:17:39.324643,-0.026180148124694765
2023-01-28 14:17:39.329643,-0.024789346951360425
2023-01-28 14:17:39.334643,-0.02351164817810052
2023-01-28 14:17:39.339643,-0.02242400060526672
2023-01-28 14:17:39.344643,-0.021612446755170774
2023-01-28 14:17:39.349643,-0.021159416212971394
2023-01-28 14:17:39.354643,-0.021059513092041016
2023-01-28 14:17:39.359643,-0.02119652951207293
2023-01-28 14:17:39.364643,-0.021420121192932157
2023-01-28 14:17:39.369643,-0.021592553823952573
2023-01-28 14:17:39.374643,-0.021564364433288553
2023-01-28 14:17:39.379643,-0.02119764812315881
2023-01-28 14:17:39.384643,-0.020458500832319215
2023-01-28 14:17:39.389643,-0.019441064662337713
2023-01-28 14:17:39.394643,-0.018294852226972486
2023-01-28 14:17:39.399643,-0.017194077394184437
2023-01-28 14:17:39.404643,-0.01637160778045651
2023-01-28 14:17:39.409643,-0.016067009742119814
2023-01-28 14:17:39.414643,-0.016371607780456533
2023-01-28 14:17:39.419643,-0.01715947534974904
2023-01-28 14:17:39.424643,-0.01817464828491209
2023-01-28 14:17:39.429643,-0.01912108172342702
2023-01-28 14:17:39.434643,-0.019689202308654705
2023-01-28 14:17:39.439643,-0.01964844397082266
2023-01-28 14:17:39.444643,-0.01901606842875483
2023-01-28 14:17:39.449643,-0.01808473693809212
2023-01-28 14:17:39.454643,-0.017213027924299195
2023-01-28 14:17:39.459643,-0.01657465496666695
2023-01-28 14:17:39.464643,-0.016035040840506436
2023-01-28 14:17:39.469643,-0.015098755512149892
2023-01-28 14:17:39.474643,-0.01290977001190179
2023-01-28 14:17:39.479643,-0.008474694949085272
2023-01-28 14:17:39.484643,-0.0011539459228514814
2023-01-28 14:17:39.489643,0.008861377231477228
2023-01-28 14:17:39.494643,0.020386379212140985
2023-01-28 14:17:39.499643,0.03141866915207833
2023-01-28 14:17:39.504643,0.039570730179548166
2023-01-28 14:17:39.509643,0.04274205778488699
2023-01-28 14:17:39.514643,0.0398832559585571
2023-01-28 14:17:39.519643,0.031452364775085624
2023-01-28 14:17:39.524643,0.019256472587585435
2023-01-28 14:17:39.529643,0.005792075394657184
2023-01-28 14:17:39.534643,-0.006563067436218133
2023-01-28 14:17:39.539643,-0.016242579341198864
2023-01-28 14:17:39.544643,-0.022886594757437685
2023-01-28 14:17:39.549643,-0.02724058527417797
2023-01-28 14:17:39.554643,-0.03050744533538805
2023-01-28 14:17:39.559643,-0.03340750877283771
2023-01-28 14:17:39.564643,-0.0353395938873291
2023-01-28 14:17:39.569643,-0.0339777304408955
2023-01-28 14:17:39.574643,-0.025627216324210077
2023-01-28 14:17:39.579643,-0.006591567237519096
2023-01-28 14:17:39.584643,0.024689635261893193
2023-01-28 14:17:39.589643,0.06569951570178442
2023-01-28 14:17:39.594643,0.10931234061717973
2023-01-28 14:17:39.599643,0.14532487701756794
2023-01-28 14:17:39.604643,0.16374012827873216
2023-01-28 14:17:39.609643,0.15861469294019703
2023-01-28 14:17:39.614643,0.13075649738311762
2023-01-28 14:17:39.619643,0.08777004966014595
2023-01-28 14:17:39.624643,0.04118144512176508
2023-01-28 14:17:39.629643,0.0020389386418913206
2023-01-28 14:17:39.634643,-0.022814473137259407
2023-01-28 14:17:39.639643,-0.03224604844948154
2023-01-28 14:17:39.644643,-0.02990643307566634
2023-01-28 14:17:39.649643,-0.021692859810294958
2023-01-28 14:17:39.654643,-0.012909770011901744
2023-01-28 14:17:39.659643,-0.006460117178147016
2023-01-28 14:17:39.664643,-0.0027646622620521814
2023-01-28 14:17:39.669643,-0.0009226524958837435
2023-01-28 14:17:39.674643,0.00012020270514762879
2023-01-28 14:17:39.679643,0.001148992487677829
2023-01-28 14:17:39.684643,0.0027165811043231907
2023-01-28 14:17:39.689643,0.005087657046549729
2023-01-28 14:17:39.694643,0.008125702850520626
2023-01-28 14:17:39.699643,0.011460898939847223
2023-01-28 14:17:39.704643,0.014833013527095313
2023-01-28 14:17:39.709643,0.018183158727571064
2023-01-28 14:17:39.714643,0.021468203514814325
2023-01-28 14:17:39.719643,0.024592079158898692
2023-01-28 14:17:39.724643,0.02757450006902209
2023-01-28 14:17:39.729643,0.030630032946079636
2023-01-28 14:17:39.734643,0.03399332612752913
2023-01-28 14:17:39.739643,0.03776422515524007
2023-01-28 14:17:39.744643,0.041974782943725475
2023-01-28 14:17:39.749643,0.046684450397659776
2023-01-28 14:17:39.754643,0.051927566528320285
2023-01-28 14:17:39.759643,0.057674868515572145
2023-01-28 14:17:39.764643,0.06394784152507785
2023-01-28 14:17:39.769643,0.07090026997659173
2023-01-28 14:17:39.774643,0.0787087306380271
2023-01-28 14:17:39.779643,0.08745130429017622
2023-01-28 14:17:39.784643,0.09714782238006588
2023-01-28 14:17:39.789643,0.1078026042918475
2023-01-28 14:17:39.794643,0.11928915977478022
2023-01-28 14:17:39.799643,0.1312520469931246
2023-01-28 14:17:39.804643,0.14320950210094444
2023-01-28 14:17:39.809643,0.15469093740331213
2023-01-28 14:17:39.814643,0.16520659625530232
2023-01-28 14:17:39.819643,0.1741786416568051
2023-01-28 14:17:39.824643,0.18100123107433308
2023-01-28 14:17:39.829643,0.18508644463971297
2023-01-28 14:17:39.834643,0.18576125800609572
2023-01-28 14:17:39.839643,0.18224013216739127
2023-01-28 14:17:39.844643,0.17388522624969482
2023-01-28 14:17:39.849643,0.16053245514386588
2023-01-28 14:17:39.854643,0.14258444309234602
2023-01-28 14:17:39.859643,0.12096011175219369
2023-01-28 14:17:39.864643,0.09707570075988758
2023-01-28 14:17:39.869643,0.07269506098160076
2023-01-28 14:17:39.874643,0.04949947446584696
2023-01-28 14:17:39.879643,0.028676473794677623
2023-01-28 14:17:39.884643,0.01086632441729301
2023-01-28 14:17:39.889643,-0.0036927384608909266
2023-01-28 14:17:39.894643,-0.015121500007808198
2023-01-28 14:17:39.899643,-0.02385303748205408
2023-01-28 14:17:39.904643,-0.030387243255972772
2023-01-28 14:17:39.909643,-0.03506790125942569
2023-01-28 14:17:39.914643,-0.03815233707427967
2023-01-28 14:17:39.919643,-0.039962833254132545
2023-01-28 14:17:39.924643,-0.04082083702087398
2023-01-28 14:17:39.929643,-0.040939395225856816
2023-01-28 14:17:39.934643,-0.04053235054016109
2023-01-28 14:17:39.939643,-0.03992234389090972
2023-01-28 14:17:39.944643,-0.03937840461730952
2023-01-28 14:17:39.949643,-0.03893652446706745
2023-01-28 14:17:39.954643,-0.03851294517517083
2023-01-28 14:17:39.959643,-0.03806931766031335
2023-01-28 14:17:39.964643,-0.037527285516261985
2023-01-28 14:17:39.969643,-0.03668781209442407
2023-01-28 14:17:39.974643,-0.03543575853109347
2023-01-28 14:17:39.979643,-0.03390276855150061
2023-01-28 14:17:39.984643,-0.03226240724325178
2023-01-28 14:17:39.989643,-0.030520184514339035
2023-01-28 14:17:39.994643,-0.02868036553263659
2023-01-28 14:17:39.999643,-0.026929144513989953
2023-01-28 14:17:40.004643,-0.025434892624616574
2023-01-28 14:17:40.009643,-0.024146385134688614
2023-01-28 14:17:40.014643,-0.02300679683685299
2023-01-28 14:17:40.019643,-0.022165461644344787
2023-01-28 14:17:40.024643,-0.02173264883458613
2023-01-28 14:17:40.029643,-0.021530336565475906
2023-01-28 14:17:40.034643,-0.0213479995727539
2023-01-28 14:17:40.039643,-0.021238238292788106
2023-01-28 14:17:40.044643,-0.021299919113516794
2023-01-28 14:17:40.049643,-0.021414125210018765
2023-01-28 14:17:40.054643,-0.021492242813110317
2023-01-28 14:17:40.059643,-0.021726995305840678
2023-01-28 14:17:40.064643,-0.02226154133677485
2023-01-28 14:17:40.069643,-0.02285673625844037
2023-01-28 14:17:40.074643,-0.023223161697387647
2023-01-28 14:17:40.079643,-0.02341549453443654
2023-01-28 14:17:40.084643,-0.023559730499982806
2023-01-28 14:17:40.089643,-0.023523367713627664
2023-01-28 14:17:40.094643,-0.023271244019269936
2023-01-28 14:17:40.099643,-0.023213817372482747
2023-01-28 14:17:40.104643,-0.02372801303863518
2023-01-28 14:17:40.109643,-0.024615111800114012
2023-01-28 14:17:40.114643,-0.025434892624616613
2023-01-28 14:17:40.119643,-0.02594901749749306
2023-01-28 14:17:40.124643,-0.02569933794438825
2023-01-28 14:17:40.129643,-0.02359606385664849
2023-01-28 14:17:40.134643,-0.01863141916692251
2023-01-28 14:17:40.139643,-0.010791274911214234
2023-01-28 14:17:40.144643,-0.0008654594421385913
2023-01-28 14:17:40.149643,0.010036011510690767
2023-01-28 14:17:40.154643,0.020097892731428122
2023-01-28 14:17:40.159643,0.026634871469034378
2023-01-28 14:17:40.164643,0.02745429798960679
2023-01-28 14:17:40.169643,0.022303889772488292
2023-01-28 14:17:40.174643,0.012477040290832438
2023-01-28 14:17:40.179643,-0.00032238877899483495
2023-01-28 14:17:40.184643,-0.013943513855337968
2023-01-28 14:17:40.189643,-0.02566786267653287
2023-01-28 14:17:40.194643,-0.03372887894511217
2023-01-28 14:17:40.199643,-0.0386986496206667
2023-01-28 14:17:40.204643,-0.04226326942443841
2023-01-28 14:17:40.209643,-0.045122346390951584
2023-01-28 14:17:40.214643,-0.04702329635620104
2023-01-28 14:17:40.219643,-0.047504109226318564
2023-01-28 14:17:40.224643,-0.044547121971845585
2023-01-28 14:17:40.229643,-0.033481928155975116
2023-01-28 14:17:40.234643,-0.010024905204772913
2023-01-28 14:17:40.239643,0.025275438168077903
2023-01-28 14:17:40.244643,0.06700098514556879
2023-01-28 14:17:40.249643,0.10794518672937516
2023-01-28 14:17:40.254643,0.139627456665039
2023-01-28 14:17:40.259643,0.1519100718942721
2023-01-28 14:17:40.264643,0.13828119635581965
2023-01-28 14:17:40.269643,0.10353003070038763
2023-01-28 14:17:40.274643,0.061976514756679486
2023-01-28 14:17:40.279643,0.02558153740243228
2023-01-28 14:17:40.284643,-0.003149310825392617
2023-01-28 14:17:40.289643,-0.025230166339375342
2023-01-28 14:17:40.294643,-0.03781577199697488
2023-01-28 14:17:40.299643,-0.037662712854403015
2023-01-28 14:17:40.304643,-0.02853612229228011
2023-01-28 14:17:40.309643,-0.0190904776044213
2023-01-28 14:17:40.314643,-0.013943513855338001
2023-01-28 14:17:40.319643,-0.011317743759773197
2023-01-28 14:17:40.324643,-0.00889500044286252
2023-01-28 14:17:40.329643,-0.007161981943557123
2023-01-28 14:17:40.334643,-0.0064428648911415585
2023-01-28 14:17:40.339643,-0.005087601512173932
2023-01-28 14:17:40.344643,-0.002283851383253894
2023-01-28 14:17:40.349643,0.00043187808374341326
2023-01-28 14:17:40.354643,0.0019472837448120306
2023-01-28 14:17:40.359643,0.0033376631250118007
2023-01-28 14:17:40.364643,0.005625486373901329
2023-01-28 14:17:40.369643,0.008122519892744274
2023-01-28 14:17:40.374643,0.010265311226248675
2023-01-28 14:17:40.379643,0.012982857485677244
2023-01-28 14:17:40.384643,0.016924541443586273
2023-01-28 14:17:40.389643,0.021155966036876604
2023-01-28 14:17:40.394643,0.024857919663190797
2023-01-28 14:17:40.399643,0.028694105691491636
2023-01-28 14:17:40.404643,0.03336827084422109
2023-01-28 14:17:40.409643,0.03839583009239451
2023-01-28 14:17:40.414643,0.04344125837087634
2023-01-28 14:17:40.419643,0.04941446157990839
2023-01-28 14:17:40.424643,0.05709628388285629
2023-01-28 14:17:40.429643,0.06596287083781405
2023-01-28 14:17:40.434643,0.07539113610982887
2023-01-28 14:17:40.439643,0.08574237680904
2023-01-28 14:17:40.444643,0.0972199440002441
2023-01-28 14:17:40.449643,0.10887898920140097
2023-01-28 14:17:40.454643,0.1198180541396141
2023-01-28 14:17:40.459643,0.13024606493469842
2023-01-28 14:17:40.464643,0.14039675891399378
2023-01-28 14:17:40.469643,0.14946535023046612
2023-01-28 14:17:40.474643,0.15655200183391565
2023-01-28 14:17:40.479643,0.16156888703083852
2023-01-28 14:17:40.484643,0.16424497961997972
2023-01-28 14:17:40.489643,0.16327344888720513
2023-01-28 14:17:40.494643,0.15746554732322685
2023-01-28 14:17:40.499643,0.1469004817387273
2023-01-28 14:17:40.504643,0.1321508586406706
2023-01-28 14:17:40.509643,0.11342255149828488
2023-01-28 14:17:40.514643,0.09140213578939427
2023-01-28 14:17:40.519643,0.0679783124059031
2023-01-28 14:17:40.524643,0.045100055634975385
2023-01-28 14:17:40.529643,0.02365633909493829
2023-01-28 14:17:40.534643,0.004207094665616744
2023-01-28 14:17:40.539643,-0.012196990229280932
2023-01-28 14:17:40.544643,-0.024881958961486768
2023-01-28 14:17:40.549643,-0.034380748734859246
2023-01-28 14:17:40.554643,-0.04149397462606426
2023-01-28 14:17:40.559643,-0.04631755520792341
2023-01-28 14:17:40.564643,-0.04899462312459937
2023-01-28 14:17:40.569643,-0.05050496798157888
2023-01-28 14:17:40.574643,-0.05175928398966782
2023-01-28 14:17:40.579643,-0.0526795226932327
2023-01-28 14:17:40.584643,-0.053009390830993576
2023-01-28 14:17:40.589643,-0.053206706605056046
2023-01-28 14:17:40.594643,-0.0536825284361839
2023-01-28 14:17:40.599643,-0.054001920313430596
2023-01-28 14:17:40.604643,-0.05373060703277576
2023-01-28 14:17:40.609643,-0.05327247507783157
2023-01-28 14:17:40.614643,-0.0530093908309936
2023-01-28 14:17:40.619643,-0.05244361715896889
2023-01-28 14:17:40.624643,-0.05108615010976786
2023-01-28 14:17:40.629643,-0.04938789724934863
2023-01-28 14:17:40.634643,-0.0479127988219261
2023-01-28 14:17:40.639643,-0.0464145554063375
2023-01-28 14:17:40.644643,-0.04461924359202375
2023-01-28 14:17:40.649643,-0.04306152365666348
2023-01-28 14:17:40.654643,-0.042191147804260226
2023-01-28 14:17:40.659643,-0.04146435941539658
2023-01-28 14:17:40.664643,-0.04026790708303447
2023-01-28 14:17:40.669643,-0.038943596668589736
2023-01-28 14:17:40.674643,-0.0379840545356273
2023-01-28 14:17:40.679643,-0.03708036265789197
2023-01-28 14:17:40.684643,-0.03594060987234109
2023-01-28 14:17:40.689643,-0.03517662669730086
2023-01-28 14:17:40.694643,-0.03533959388732911
2023-01-28 14:17:40.699643,-0.03589489802592068
2023-01-28 14:17:40.704643,-0.03615697473287577
2023-01-28 14:17:40.709643,-0.036382816646418306
2023-01-28 14:17:40.714643,-0.036926269531249986
2023-01-28 14:17:40.719643,-0.03724241463620122
2023-01-28 14:17:40.724643,-0.0368541479110717
2023-01-28 14:17:40.729643,-0.03641416083131883
2023-01-28 14:17:40.734643,-0.036661826074123334
2023-01-28 14:17:40.739643,-0.03720683302448393
2023-01-28 14:17:40.744643,-0.037479203194379834
2023-01-28 14:17:40.749643,-0.0379252875855815
2023-01-28 14:17:40.754643,-0.03904183954000469
2023-01-28 14:17:40.759643,-0.04019862189789399
2023-01-28 14:17:40.764643,-0.04070063680410379
2023-01-28 14:17:40.769643,-0.04100823515839409
2023-01-28 14:17:40.774643,-0.04151801392436019
2023-01-28 14:17:40.779643,-0.04111670581822027
2023-01-28 14:17:40.784643,-0.03836870193481443
2023-01-28 14:17:40.789643,-0.033159329434420064
2023-01-28 14:17:40.794643,-0.02581954002380371
2023-01-28 14:17:40.799643,-0.01595815301116662
2023-01-28 14:17:40.804643,-0.003990729805082002
2023-01-28 14:17:40.809643,0.007279941428559634
2023-01-28 14:17:40.814643,0.014544527046382334
2023-01-28 14:17:40.819643,0.01659365540318301
2023-01-28 14:17:40.824643,0.013558864593505757
2023-01-28 14:17:40.829643,0.0052176792734432665
2023-01-28 14:17:40.834643,-0.0075968108139932156
2023-01-28 14:17:40.839643,-0.02135006305133883
2023-01-28 14:17:40.844643,-0.032430689781904255
2023-01-28 14:17:40.849643,-0.040568140104835296
2023-01-28 14:17:40.854643,-0.04721562191843982
2023-01-28 14:17:40.859643,-0.05207774373719706
2023-01-28 14:17:40.864643,-0.054451823234558154
2023-01-28 14:17:40.869643,-0.05622383163264497
2023-01-28 14:17:40.874643,-0.058779120445251395
2023-01-28 14:17:40.879643,-0.05753738903120137
2023-01-28 14:17:40.884643,-0.04490773007273669
2023-01-28 14:17:40.889643,-0.01948736370662714
2023-01-28 14:17:40.894643,0.012621283531188899
2023-01-28 14:17:40.899643,0.0466413434055676
2023-01-28 14:17:40.904643,0.08315622806549067
2023-01-28 14:17:40.909643,0.12005959463468839
2023-01-28 14:17:40.914643,0.14604628086090074
2023-01-28 14:17:40.919643,0.14815539122352794
2023-01-28 14:17:40.924643,0.12412130832672104
2023-01-28 14:17:40.929643,0.0833902515789561
2023-01-28 14:17:40.934643,0.038080215454101486
2023-01-28 14:17:40.939643,-0.0028433091343961457
2023-01-28 14:17:40.944643,-0.03281533718109133
2023-01-28 14:17:40.949643,-0.04786008284155603
2023-01-28 14:17:40.954643,-0.049523513764142935
2023-01-28 14:17:40.959643,-0.04422089898036324
2023-01-28 14:17:40.964643,-0.03788789361715311
2023-01-28 14:17:40.969643,-0.032739586473338966
2023-01-28 14:17:40.974643,-0.029040973633527666
2023-01-28 14:17:40.979643,-0.027065804758832277
2023-01-28 14:17:40.984643,-0.02632439136505121
2023-01-28 14:17:40.989643,-0.025222548482126655
2023-01-28 14:17:40.994643,-0.02291063591837878
2023-01-28 14:17:40.999643,-0.020184531103142715
2023-01-28 14:17:41.004643,-0.017862122505903185
2023-01-28 14:17:41.009643,-0.01565578523287643
2023-01-28 14:17:41.014643,-0.013270378112792873
2023-01-28 14:17:41.019643,-0.011204094027553414
2023-01-28 14:17:41.024643,-0.009688338264822901
2023-01-28 14:17:41.029643,-0.007986638617096501
2023-01-28 14:17:41.034643,-0.0054572029039263135
2023-01-28 14:17:41.039643,-0.002346419229795642
2023-01-28 14:17:41.044643,0.0010337432613595691
2023-01-28 14:17:41.049643,0.004962301424958128
2023-01-28 14:17:41.054643,0.009592175483703606
2023-01-28 14:17:41.059643,0.014467989929771458
2023-01-28 14:17:41.064643,0.019328594207763568
2023-01-28 14:17:41.069643,0.024642342720981567
2023-01-28 14:17:41.074643,0.030868053436279172
2023-01-28 14:17:41.079643,0.037893827386286015
2023-01-28 14:17:41.084643,0.04562894627451889
2023-01-28 14:17:41.089643,0.05443049059244817
2023-01-28 14:17:41.094643,0.064476728439331
2023-01-28 14:17:41.099643,0.0753338336634982
2023-01-28 14:17:41.104643,0.08654594421386708
2023-01-28 14:17:41.109643,0.09805835429726588
2023-01-28 14:17:41.114643,0.10967294871807089
2023-01-28 14:17:41.119643,0.12065425210270248
2023-01-28 14:17:41.124643,0.13025164604187006
2023-01-28 14:17:41.129643,0.13808779262560616
2023-01-28 14:17:41.134643,0.1436903178691864
2023-01-28 14:17:41.139643,0.1461672498442629
2023-01-28 14:17:41.144643,0.14472405612468708
2023-01-28 14:17:41.149643,0.13908295946031538
2023-01-28 14:17:41.154643,0.12914578616619113
2023-01-28 14:17:41.159643,0.11478791854221028
2023-01-28 14:17:41.164643,0.09637852758169169
2023-01-28 14:17:41.169643,0.07511251953428459
2023-01-28 14:17:41.174643,0.05250453948974602
2023-01-28 14:17:41.179643,0.02987298415174224
2023-01-28 14:17:41.184643,0.008462270721793128
2023-01-28 14:17:41.189643,-0.01049241514949144
2023-01-28 14:17:41.194643,-0.026252269744873
2023-01-28 14:17:41.199643,-0.03884512693380253
2023-01-28 14:17:41.204643,-0.04860997200012195
2023-01-28 14:17:41.209643,-0.05579149522224543
2023-01-28 14:17:41.214643,-0.06075044721364967
2023-01-28 14:17:41.219643,-0.06412052108097434
2023-01-28 14:17:41.224643,-0.06642401218414298
2023-01-28 14:17:41.229643,-0.06781928760153055
2023-01-28 14:17:41.234643,-0.06844341754913325
2023-01-28 14:17:41.239643,-0.06866687769028382
2023-01-28 14:17:41.244643,-0.06877999007701868
2023-01-28 14:17:41.249643,-0.06875762009729929
2023-01-28 14:17:41.254643,-0.06856362521648396
2023-01-28 14:17:41.259643,-0.06836648700103458
2023-01-28 14:17:41.264643,-0.06822705268859859
2023-01-28 14:17:41.269643,-0.06789290349459826
2023-01-28 14:17:41.274643,-0.06714522838592515
2023-01-28 14:17:41.279643,-0.06607310789247806
2023-01-28 14:17:41.284643,-0.06481330096721634
2023-01-28 14:17:41.289643,-0.06333707664105853
2023-01-28 14:17:41.294643,-0.06171206757426259
2023-01-28 14:17:41.299643,-0.06025726109605286
2023-01-28 14:17:41.304643,-0.05918781086802477
2023-01-28 14:17:41.309643,-0.05836939560790145
2023-01-28 14:17:41.314643,-0.05762517452239986
2023-01-28 14:17:41.319643,-0.056992768439413755
2023-01-28 14:17:41.324643,-0.05647122859954824
2023-01-28 14:17:41.329643,-0.055834283057385636
2023-01-28 14:17:41.334643,-0.05495667457580559
2023-01-28 14:17:41.339643,-0.054062336506225855
2023-01-28 14:17:41.344643,-0.053418081253766916
2023-01-28 14:17:41.349643,-0.05304494409083187
2023-01-28 14:17:41.354643,-0.0529372692108154
2023-01-28 14:17:41.359643,-0.053249444079447865
2023-01-28 14:17:41.364643,-0.05399505421519272
2023-01-28 14:17:41.369643,-0.05483890685348463
2023-01-28 14:17:41.374643,-0.05546152591705324
2023-01-28 14:17:41.379643,-0.05588435976657809
2023-01-28 14:17:41.384643,-0.0562067851424217
2023-01-28 14:17:41.389643,-0.05632775146673981
2023-01-28 14:17:41.394643,-0.05620678514242172
2023-01-28 14:17:41.399643,-0.0560947972745724
2023-01-28 14:17:41.404643,-0.05618274211883537
2023-01-28 14:17:41.409643,-0.056289313075162016
2023-01-28 14:17:41.414643,-0.05620678514242171
2023-01-28 14:17:41.419643,-0.05607093161504504
2023-01-28 14:17:41.424643,-0.05606254190206525
2023-01-28 14:17:41.429643,-0.05605713046993177
2023-01-28 14:17:41.434643,-0.05594233796000479
2023-01-28 14:17:41.439643,-0.055934020523196036
2023-01-28 14:17:41.444643,-0.05608658120036121
2023-01-28 14:17:41.449643,-0.055749940249166255
2023-01-28 14:17:41.454643,-0.05399505421519274
2023-01-28 14:17:41.459643,-0.05031307897802791
2023-01-28 14:17:41.464643,-0.044426918029785156
2023-01-28 14:17:41.469643,-0.03590991076773865
2023-01-28 14:17:41.474643,-0.024954080581664977
2023-01-28 14:17:41.479643,-0.013434227350209951
2023-01-28 14:17:41.484643,-0.00423113536089654
2023-01-28 14:17:41.489643,0.0007676550257014346
2023-01-28 14:17:41.494643,0.0013462703209369783
2023-01-28 14:17:41.499643,-0.002325227411497508
2023-01-28 14:17:41.504643,-0.010481676086783364
2023-01-28 14:17:41.509643,-0.022604629997410797
2023-01-28 14:17:41.514643,-0.0363252572715282
2023-01-28 14:17:41.519643,-0.04854253765221232
2023-01-28 14:17:41.524643,-0.057553052902221576
2023-01-28 14:17:41.529643,-0.06359718327206232
2023-01-28 14:17:41.534643,-0.0676741227507591
2023-01-28 14:17:41.539643,-0.07048810998645816
2023-01-28 14:17:41.544643,-0.0721937417984008
2023-01-28 14:17:41.549643,-0.07203771275412381
2023-01-28 14:17:41.554643,-0.06779432296752916
2023-01-28 14:17:41.559643,-0.056167537901615314
2023-01-28 14:17:41.564643,-0.03454625606536859
2023-01-28 14:17:41.569643,-0.002929658862332161
2023-01-28 14:17:41.574643,0.035147272050380714
2023-01-28 14:17:41.579643,0.07287174593219943
2023-01-28 14:17:41.584643,0.10159532725811
2023-01-28 14:17:41.589643,0.11357271853379293
2023-01-28 14:17:41.594643,0.10517736524343485
2023-01-28 14:17:41.599643,0.0787151321145321
2023-01-28 14:17:41.604643,0.041590135544538394
2023-01-28 14:17:41.609643,0.003403896786422154
2023-01-28 14:17:41.614643,-0.027430256828665706
2023-01-28 14:17:41.619643,-0.04624909395180138
2023-01-28 14:17:41.624643,-0.05305747315287588
2023-01-28 14:17:41.629643,-0.05145528295010738
2023-01-28 14:17:41.634643,-0.04620591923594468
2023-01-28 14:17:41.639643,-0.040983892170241405
2023-01-28 14:17:41.644643,-0.03747920319437983
2023-01-28 14:17:41.649643,-0.03574461691970975
2023-01-28 14:17:41.654643,-0.034978985786437905
2023-01-28 14:17:41.659643,-0.03424737919398844
2023-01-28 14:17:41.664643,-0.03298362344503403
2023-01-28 14:17:41.669643,-0.03110019152516588
2023-01-28 14:17:41.674643,-0.028704404830932617
2023-01-28 14:17:41.679643,-0.025818616393221888
2023-01-28 14:17:41.684643,-0.022429823875427225
2023-01-28 14:17:41.689643,-0.018668944576396743
2023-01-28 14:17:41.694643,-0.014784932136535582
2023-01-28 14:17:41.699643,-0.010986965880550679
2023-01-28 14:17:41.704643,-0.00740448664873835
2023-01-28 14:17:41.709643,-0.004117072592435344
2023-01-28 14:17:41.714643,-0.0010818243026733494
2023-01-28 14:17:41.719643,0.0019420474346461677
2023-01-28 14:17:41.724643,0.00528891896828997
2023-01-28 14:17:41.729643,0.009217470691093042
2023-01-28 14:17:41.734643,0.013895432464778404
2023-01-28 14:17:41.739643,0.019473229554799434
2023-01-28 14:17:41.744643,0.026059946045279454
2023-01-28 14:17:41.749643,0.033661558539805826
2023-01-28 14:17:41.754643,0.04223923012614252
2023-01-28 14:17:41.759643,0.05179918227973932
2023-01-28 14:17:41.764643,0.06233712285757055
2023-01-28 14:17:41.769643,0.07372074199539029
2023-01-28 14:17:41.774643,0.08570452779531469
2023-01-28 14:17:41.779643,0.09802436516802863
2023-01-28 14:17:41.784643,0.11039416491985313
2023-01-28 14:17:41.789643,0.12244270116934132
2023-01-28 14:17:41.794643,0.1337375342845916
2023-01-28 14:17:41.799643,0.14383435930751517
2023-01-28 14:17:41.804643,0.15220066905021656
2023-01-28 14:17:41.809643,0.15809651140576292
2023-01-28 14:17:41.814643,0.16061484813690186
2023-01-28 14:17:41.819643,0.15886661891251988
2023-01-28 14:17:41.824643,0.15215258300304407
2023-01-28 14:17:41.829643,0.14011897935314835
2023-01-28 14:17:41.834643,0.1229673624038696
2023-01-28 14:17:41.839643,0.10159269037609597
2023-01-28 14:17:41.844643,0.07745862007141109
2023-01-28 14:17:41.849643,0.052276965911651964
2023-01-28 14:17:41.854643,0.02771874330937868
2023-01-28 14:17:41.859643,0.005210841687713902
2023-01-28 14:17:41.864643,-0.01425604056566946
2023-01-28 14:17:41.869643,-0.0302387233657862
2023-01-28 14:17:41.874643,-0.042744081467389915
2023-01-28 14:17:41.879643,-0.05201898720305863
2023-01-28 14:17:41.884643,-0.058442555367946604
2023-01-28 14:17:41.889643,-0.06252249513943077
2023-01-28 14:17:41.894643,-0.06483733654022203
2023-01-28 14:17:41.899643,-0.06592247719309756
2023-01-28 14:17:41.904643,-0.06623169034719453
2023-01-28 14:17:41.909643,-0.06616174972139091
2023-01-28 14:17:41.914643,-0.06601532548665998
2023-01-28 14:17:41.919643,-0.06592814708084235
2023-01-28 14:17:41.924643,-0.0658951252698898
2023-01-28 14:17:41.929643,-0.06587361384954665
2023-01-28 14:17:41.934643,-0.06582300364971158
2023-01-28 14:17:41.939643,-0.06568119810024248
2023-01-28 14:17:41.944643,-0.06539027392864219
2023-01-28 14:17:41.949643,-0.0649524246438427
2023-01-28 14:17:41.954643,-0.0644046068191528
2023-01-28 14:17:41.959643,-0.06374476524739016
2023-01-28 14:17:41.964643,-0.06293813884258269
2023-01-28 14:17:41.969643,-0.061983891114646014
2023-01-28 14:17:41.974643,-0.06091872975230212
2023-01-28 14:17:41.979643,-0.059772562670223024
2023-01-28 14:17:41.984643,-0.058586798608302966
2023-01-28 14:17:41.989643,-0.05746340901582039
2023-01-28 14:17:41.994643,-0.05651931092143047
2023-01-28 14:17:41.999643,-0.05577776535450011
2023-01-28 14:17:42.004643,-0.0551490001380443
2023-01-28 14:17:42.009643,-0.05451283226031019
2023-01-28 14:17:42.014643,-0.05377868935465813
2023-01-28 14:17:42.019643,-0.052894273502317145
2023-01-28 14:17:42.024643,-0.05187948793172827
2023-01-28 14:17:42.029643,-0.050867791858551656
2023-01-28 14:17:42.034643,-0.05005240440368651
2023-01-28 14:17:42.039643,-0.049554967903303576
2023-01-28 14:17:42.044643,-0.049355231225490494
2023-01-28 14:17:42.049643,-0.049334692299548406
2023-01-28 14:17:42.054643,-0.049355231225490515
2023-01-28 14:17:42.059643,-0.04931112966117106
2023-01-28 14:17:42.064643,-0.04916290566325178
2023-01-28 14:17:42.069643,-0.04895236069568444
2023-01-28 14:17:42.074643,-0.04877825826406474
2023-01-28 14:17:42.079643,-0.04874062328338331
2023-01-28 14:17:42.084643,-0.048874419182538854
2023-01-28 14:17:42.089643,-0.049094080315777826
2023-01-28 14:17:42.094643,-0.04921098798513408
2023-01-28 14:17:42.099643,-0.049064943148627436
2023-01-28 14:17:42.104643,-0.04865805432200425
2023-01-28 14:17:42.109643,-0.04812638073929109
2023-01-28 14:17:42.114643,-0.047600269317626905
2023-01-28 14:17:42.119643,-0.04716597682222836
2023-01-28 14:17:42.124643,-0.04692713543772687
2023-01-28 14:17:42.129643,-0.04691836207195778
2023-01-28 14:17:42.134643,-0.04683097451925275
2023-01-28 14:17:42.139643,-0.04588178010731745
2023-01-28 14:17:42.144643,-0.043056607246398905
2023-01-28 14:17:42.149643,-0.03753670929519821
2023-01-28 14:17:42.154643,-0.02904097363352771
2023-01-28 14:17:42.159643,-0.01808380747090925
2023-01-28 14:17:42.164643,-0.006154378410428691
2023-01-28 14:17:42.169643,0.004435791053023964
2023-01-28 14:17:42.174643,0.01120289228856558
2023-01-28 14:17:42.179643,0.012347022016637607
2023-01-28 14:17:42.184643,0.007356405258178673
2023-01-28 14:17:42.189643,-0.0028155790956341255
2023-01-28 14:17:42.194643,-0.015986960381269393
2023-01-28 14:17:42.199643,-0.02942841752712087
2023-01-28 14:17:42.204643,-0.04084488004446022
2023-01-28 14:17:42.209643,-0.04914266306665689
2023-01-28 14:17:42.214643,-0.0545239448547363
2023-01-28 14:17:42.219643,-0.05797624562329885
2023-01-28 14:17:42.224643,-0.06051003932952886
2023-01-28 14:17:42.229643,-0.062336974349680586
2023-01-28 14:17:42.234643,-0.06216883659362793
2023-01-28 14:17:42.239643,-0.05711207877617646
2023-01-28 14:17:42.244643,-0.043585501611232716
2023-01-28 14:17:42.249643,-0.019063155369591717
2023-01-28 14:17:42.254643,0.016107162460684683
2023-01-28 14:17:42.259643,0.05761179413977065
2023-01-28 14:17:42.264643,0.09746035188436498
2023-01-28 14:17:42.269643,0.12603998761689686
2023-01-28 14:17:42.274643,0.13551652431488026
2023-01-28 14:17:42.279643,0.12307871487432809
2023-01-28 14:17:42.284643,0.092267595231533
2023-01-28 14:17:42.289643,0.05167163149087423
2023-01-28 14:17:42.294643,0.011683702468872022
2023-01-28 14:17:42.299643,-0.01920069567553553
2023-01-28 14:17:42.304643,-0.03699839115142818
2023-01-28 14:17:42.309643,-0.04269395712121375
2023-01-28 14:17:42.314643,-0.040532350540161105
2023-01-28 14:17:42.319643,-0.035370351952038054
2023-01-28 14:17:42.324643,-0.030651688575744605
2023-01-28 14:17:42.329643,-0.027745026221386068
2023-01-28 14:17:42.334643,-0.02637247368693352
2023-01-28 14:17:42.339643,-0.02551837521592846
2023-01-28 14:17:42.344643,-0.024304986000060976
2023-01-28 14:17:42.349643,-0.022422490643397096
2023-01-28 14:17:42.354643,-0.019977688789367617
2023-01-28 14:17:42.359643,-0.01711356375267625
2023-01-28 14:17:42.364643,-0.013871392235159785
2023-01-28 14:17:42.369643,-0.01031052627681342
2023-01-28 14:17:42.374643,-0.006563067436218207
2023-01-28 14:17:42.379643,-0.002740551735031351
2023-01-28 14:17:42.384643,0.001105864881537741
2023-01-28 14:17:42.389643,0.00493291928067669
2023-01-28 14:17:42.394643,0.008726716041564875
2023-01-28 14:17:42.399643,0.012589578286465206
2023-01-28 14:17:42.404643,0.01670817658305157
2023-01-28 14:17:42.409643,0.0212220671993589
2023-01-28 14:17:42.414643,0.02620418928563592
2023-01-28 14:17:42.419643,0.03176517398008751
2023-01-28 14:17:42.424643,0.038080215454101445
2023-01-28 14:17:42.429643,0.045300946405521396
2023-01-28 14:17:42.434643,0.053514242172241155
2023-01-28 14:17:42.439643,0.06277518196193899
2023-01-28 14:17:42.444643,0.0730832442641258
2023-01-28 14:17:42.449643,0.08431500552054581
2023-01-28 14:17:42.454643,0.09625832736492149
2023-01-28 14:17:42.459643,0.10871858618514837
2023-01-28 14:17:42.464643,0.12152493000030506
2023-01-28 14:17:42.469643,0.1344431503639067
2023-01-28 14:17:42.474643,0.14715215563774098
2023-01-28 14:17:42.479643,0.15927279563344082
2023-01-28 14:17:42.484643,0.17030319571495045
2023-01-28 14:17:42.489643,0.17950149118485034
2023-01-28 14:17:42.494643,0.18590550124645228
2023-01-28 14:17:42.499643,0.18849480420999487
2023-01-28 14:17:42.504643,0.18633823096752156
2023-01-28 14:17:42.509643,0.178722386310959
