2023-01-27 13:47:40.052105,0.07678548991680141
2023-01-27 13:47:40.057105,0.0404006943787784
2023-01-27 13:47:40.062105,-0.04594147205352781
2023-01-27 13:47:40.067105,-0.12283490694217601
2023-01-27 13:47:40.072105,-0.16455750167369837
2023-01-27 13:47:40.077105,-0.18729106197588583
2023-01-27 13:47:40.082105,-0.20210883021354667
2023-01-27 13:47:40.087105,-0.19943137648168832
2023-01-27 13:47:40.092105,-0.17838081717491133
2023-01-27 13:47:40.097105,-0.15722372115977107
2023-01-27 13:47:40.102105,-0.14724831283092488
2023-01-27 13:47:40.107105,-0.1404461678528959
2023-01-27 13:47:40.112105,-0.12996315956115712
2023-01-27 13:47:40.117105,-0.12236515765425342
2023-01-27 13:47:40.122105,-0.12236635386943809
2023-01-27 13:47:40.127105,-0.12299804446193915
2023-01-27 13:47:40.132105,-0.11895259469747535
2023-01-27 13:47:40.137105,-0.1154033865184344
2023-01-27 13:47:40.142105,-0.1163321733474731
2023-01-27 13:47:40.147105,-0.11656283447953125
2023-01-27 13:47:40.152105,-0.11219720542430868
2023-01-27 13:47:40.157105,-0.10796998286098447
2023-01-27 13:47:40.162105,-0.10782182216644279
2023-01-27 13:47:40.167105,-0.1079101629157694
2023-01-27 13:47:40.172105,-0.10488887876272197
2023-01-27 13:47:40.177105,-0.10219937058933554
2023-01-27 13:47:40.182105,-0.10246078670024869
2023-01-27 13:47:40.187105,-0.10167872069221805
2023-01-27 13:47:40.192105,-0.09637852758169171
2023-01-27 13:47:40.197105,-0.0891900107498407
2023-01-27 13:47:40.202105,-0.0824350118637084
2023-01-27 13:47:40.207105,-0.07307614460032581
2023-01-27 13:47:40.212105,-0.058827202767133685
2023-01-27 13:47:40.217105,-0.04295771838727461
2023-01-27 13:47:40.222105,-0.028512081131338986
2023-01-27 13:47:40.227105,-0.013620459105570295
2023-01-27 13:47:40.232105,0.0032454729080199627
2023-01-27 13:47:40.237105,0.018974529017766507
2023-01-27 13:47:40.242105,0.030868053436279207
2023-01-27 13:47:40.247105,0.04079488718674624
2023-01-27 13:47:40.252105,0.05048513412475578
2023-01-27 13:47:40.257105,0.05763749260146752
2023-01-27 13:47:40.262105,0.06038983911275856
2023-01-27 13:47:40.267105,0.06093390753784341
2023-01-27 13:47:40.272105,0.06106297299265854
2023-01-27 13:47:40.277105,0.05850186361095971
2023-01-27 13:47:40.282105,0.051062107086181543
2023-01-27 13:47:40.287105,0.040296381846301625
2023-01-27 13:47:40.292105,0.02788702771067608
2023-01-27 13:47:40.297105,0.012569712506234159
2023-01-27 13:47:40.302105,-0.0061303377151489015
2023-01-27 13:47:40.307105,-0.024987927361381623
2023-01-27 13:47:40.312105,-0.04106124490499488
2023-01-27 13:47:40.317105,-0.055105643412607506
2023-01-27 13:47:40.322105,-0.06832321733236305
2023-01-27 13:47:40.327105,-0.07937678530590359
2023-01-27 13:47:40.332105,-0.08743544667959208
2023-01-27 13:47:40.337105,-0.09465250187026272
2023-01-27 13:47:40.342105,-0.10270118713378898
2023-01-27 13:47:40.347105,-0.10995111215978563
2023-01-27 13:47:40.352105,-0.11464934051036832
2023-01-27 13:47:40.357105,-0.11780505477889058
2023-01-27 13:47:40.362105,-0.12049119174480429
2023-01-27 13:47:40.367105,-0.12144567213363268
2023-01-27 13:47:40.372105,-0.11989017575979224
2023-01-27 13:47:40.377105,-0.11778880024498323
2023-01-27 13:47:40.382105,-0.1168370246887207
2023-01-27 13:47:40.387105,-0.11592802829588812
2023-01-27 13:47:40.392105,-0.11383195966482154
2023-01-27 13:47:40.397105,-0.11162285919978804
2023-01-27 13:47:40.402105,-0.11024992167949668
2023-01-27 13:47:40.407105,-0.10844548139751257
2023-01-27 13:47:40.412105,-0.10529756546020497
2023-01-27 13:47:40.417105,-0.10234790758242722
2023-01-27 13:47:40.422105,-0.10099431127309784
2023-01-27 13:47:40.427105,-0.10025065773676692
2023-01-27 13:47:40.432105,-0.09907107055187216
2023-01-27 13:47:40.437105,-0.09841876395580212
2023-01-27 13:47:40.442105,-0.09902298450469968
2023-01-27 13:47:40.447105,-0.09948050874603712
2023-01-27 13:47:40.452105,-0.09859025478363029
2023-01-27 13:47:40.457105,-0.09734436966436687
2023-01-27 13:47:40.462105,-0.09676317870616909
2023-01-27 13:47:40.467105,-0.0960060782161521
2023-01-27 13:47:40.472105,-0.09445528686046605
2023-01-27 13:47:40.477105,-0.09346120041869103
2023-01-27 13:47:40.482105,-0.09416680037975306
2023-01-27 13:47:40.487105,-0.09563159106696581
2023-01-27 13:47:40.492105,-0.09678721427917476
2023-01-27 13:47:40.497105,-0.09819092281999672
2023-01-27 13:47:40.502105,-0.1002009734511375
2023-01-27 13:47:40.507105,-0.1014836563189388
2023-01-27 13:47:40.512105,-0.10104238986968989
2023-01-27 13:47:40.517105,-0.09986490796644083
2023-01-27 13:47:40.522105,-0.09902298450469972
2023-01-27 13:47:40.527105,-0.09797701922609547
2023-01-27 13:47:40.532105,-0.09616216272115699
2023-01-27 13:47:40.537105,-0.0943393981080015
2023-01-27 13:47:40.542105,-0.09294073283672327
2023-01-27 13:47:40.547105,-0.09089669272325558
2023-01-27 13:47:40.552105,-0.08745948970317836
2023-01-27 13:47:40.557105,-0.08346041334487847
2023-01-27 13:47:40.562105,-0.07962226867675778
2023-01-27 13:47:40.567105,-0.0754673499277139
2023-01-27 13:47:40.572105,-0.07094363868236542
2023-01-27 13:47:40.577105,-0.0671358767811927
2023-01-27 13:47:40.582105,-0.0642844066023826
2023-01-27 13:47:40.587105,-0.06119773455300969
2023-01-27 13:47:40.592105,-0.05781750008463848
2023-01-27 13:47:40.597105,-0.056277530010989035
2023-01-27 13:47:40.602105,-0.058154068887233686
2023-01-27 13:47:40.607105,-0.0626450279868323
2023-01-27 13:47:40.612105,-0.06858766078948969
2023-01-27 13:47:40.617105,-0.07605446769367268
2023-01-27 13:47:40.622105,-0.0845746248960494
2023-01-27 13:47:40.627105,-0.09195612510289856
2023-01-27 13:47:40.632105,-0.09654681384563442
2023-01-27 13:47:40.637105,-0.09895118799166547
2023-01-27 13:47:40.642105,-0.10017693042755121
2023-01-27 13:47:40.647105,-0.09992382416779359
2023-01-27 13:47:40.652105,-0.09806136786937708
2023-01-27 13:47:40.657105,-0.09592238786376682
2023-01-27 13:47:40.662105,-0.09464760869741425
2023-01-27 13:47:40.667105,-0.09394524889965343
2023-01-27 13:47:40.672105,-0.09385427087545387
2023-01-27 13:47:40.677105,-0.09592144296459616
2023-01-27 13:47:40.682105,-0.10092218965291969
2023-01-27 13:47:40.687105,-0.10657026062596663
2023-01-27 13:47:40.692105,-0.10847091674804679
2023-01-27 13:47:40.697105,-0.10183864742047145
2023-01-27 13:47:40.702105,-0.08171379566192617
2023-01-27 13:47:40.707105,-0.04443595916449884
2023-01-27 13:47:40.712105,0.008173784241080227
2023-01-27 13:47:40.717105,0.06648383734995228
2023-01-27 13:47:40.722105,0.11621197313070286
2023-01-27 13:47:40.727105,0.14394831180199316
2023-01-27 13:47:40.732105,0.14094969630241386
2023-01-27 13:47:40.737105,0.1057714066319139
2023-01-27 13:47:40.742105,0.046302080154418813
2023-01-27 13:47:40.747105,-0.02205140358444925
2023-01-27 13:47:40.752105,-0.08308410644531247
2023-01-27 13:47:40.757105,-0.12619732804476172
2023-01-27 13:47:40.762105,-0.14792144298553456
2023-01-27 13:47:40.767105,-0.15043926094161558
2023-01-27 13:47:40.772105,-0.14015635848045332
2023-01-27 13:47:40.777105,-0.12530100406345687
2023-01-27 13:47:40.782105,-0.11193275451660141
2023-01-27 13:47:40.787105,-0.10188127386440947
2023-01-27 13:47:40.792105,-0.09467165172100057
2023-01-27 13:47:40.797105,-0.08992427038549923
2023-01-27 13:47:40.802105,-0.08712291717529283
2023-01-27 13:47:40.807105,-0.08495969156952013
2023-01-27 13:47:40.812105,-0.08257925510406489
2023-01-27 13:47:40.817105,-0.08048323367106945
2023-01-27 13:47:40.822105,-0.07914146035909651
2023-01-27 13:47:40.827105,-0.0778700532942127
2023-01-27 13:47:40.832105,-0.0760642737150192
2023-01-27 13:47:40.837105,-0.07425128203140033
2023-01-27 13:47:40.842105,-0.07284283638000474
2023-01-27 13:47:40.847105,-0.07107036623683038
2023-01-27 13:47:40.852105,-0.06822705268859863
2023-01-27 13:47:40.857105,-0.06479535206238314
2023-01-27 13:47:40.862105,-0.06132742017507549
2023-01-27 13:47:40.867105,-0.05737521451951026
2023-01-27 13:47:40.872105,-0.05250453948974594
2023-01-27 13:47:40.877105,-0.0471561068060722
2023-01-27 13:47:40.882105,-0.04146993160247797
2023-01-27 13:47:40.887105,-0.03441095428531929
2023-01-27 13:47:40.892105,-0.02509832382202137
2023-01-27 13:47:40.897105,-0.013958864759596143
2023-01-27 13:47:40.902105,-0.0016828378429635553
2023-01-27 13:47:40.907105,0.011805843009348633
2023-01-27 13:47:40.912105,0.026420554146170578
2023-01-27 13:47:40.917105,0.04113815547168305
2023-01-27 13:47:40.922105,0.05514900013804425
2023-01-27 13:47:40.927105,0.06871335864243118
2023-01-27 13:47:40.932105,0.08195420354604717
2023-01-27 13:47:40.937105,0.09385578003421854
2023-01-27 13:47:40.942105,0.1033262461423873
2023-01-27 13:47:40.947105,0.11015802261102843
2023-01-27 13:47:40.952105,0.11407236754894243
2023-01-27 13:47:40.957105,0.11396591672651034
2023-01-27 13:47:40.962105,0.10909597575664517
2023-01-27 13:47:40.967105,0.10004312847166424
2023-01-27 13:47:40.972105,0.08767585456371296
2023-01-27 13:47:40.977105,0.07221779220301604
2023-01-27 13:47:40.982105,0.054163336753845166
2023-01-27 13:47:40.987105,0.034990372146042545
2023-01-27 13:47:40.992105,0.016010999679565374
2023-01-27 13:47:40.997105,-0.0025257088743875517
2023-01-27 13:47:41.002105,-0.02038637921214099
2023-01-27 13:47:41.007105,-0.036473216385441196
2023-01-27 13:47:41.012105,-0.04986008256673809
2023-01-27 13:47:41.017105,-0.060718991913789
2023-01-27 13:47:41.022105,-0.06940504163503639
2023-01-27 13:47:41.027105,-0.07564229085859199
2023-01-27 13:47:41.032105,-0.07945398986339558
2023-01-27 13:47:41.037105,-0.08188382951943303
2023-01-27 13:47:41.042105,-0.08390148729085922
2023-01-27 13:47:41.047105,-0.08547979149992627
2023-01-27 13:47:41.052105,-0.08649786561727515
2023-01-27 13:47:41.057105,-0.08754925666268938
2023-01-27 13:47:41.062105,-0.08902212232351299
2023-01-27 13:47:41.067105,-0.09032185907770064
2023-01-27 13:47:41.072105,-0.09082516282796844
2023-01-27 13:47:41.077105,-0.09072226336406225
2023-01-27 13:47:41.082105,-0.09020011126995083
2023-01-27 13:47:41.087105,-0.08878382743325203
2023-01-27 13:47:41.092105,-0.0863055437803268
2023-01-27 13:47:41.097105,-0.08361977406238424
2023-01-27 13:47:41.102105,-0.0815695524215698
2023-01-27 13:47:41.107105,-0.0800949153799544
2023-01-27 13:47:41.112105,-0.07904529571533198
2023-01-27 13:47:41.117105,-0.07890347747953563
2023-01-27 13:47:41.122105,-0.07991075515747068
2023-01-27 13:47:41.127105,-0.08135665906465371
2023-01-27 13:47:41.132105,-0.08250713348388668
2023-01-27 13:47:41.137105,-0.0834208223451676
2023-01-27 13:47:41.142105,-0.08418997377157209
2023-01-27 13:47:41.147105,-0.08430544615674132
2023-01-27 13:47:41.152105,-0.08354087918996805
2023-01-27 13:47:41.157105,-0.0826336417662615
2023-01-27 13:47:41.162105,-0.08236289024353019
2023-01-27 13:47:41.167105,-0.08271875717892099
2023-01-27 13:47:41.172105,-0.08356492221355429
2023-01-27 13:47:41.177105,-0.08520311278562846
2023-01-27 13:47:41.182105,-0.08757968991994848
2023-01-27 13:47:41.187105,-0.08978001481325802
2023-01-27 13:47:41.192105,-0.0910174846649169
2023-01-27 13:47:41.197105,-0.09139987552659154
2023-01-27 13:47:41.202105,-0.09120981395244589
2023-01-27 13:47:41.207105,-0.0903227123752802
2023-01-27 13:47:41.212105,-0.08890192210674282
2023-01-27 13:47:41.217105,-0.08772320066636323
2023-01-27 13:47:41.222105,-0.0871469601988792
2023-01-27 13:47:41.227105,-0.08661352082152242
2023-01-27 13:47:41.232105,-0.08572857081890098
2023-01-27 13:47:41.237105,-0.08494202358362836
2023-01-27 13:47:41.242105,-0.08457462489604936
2023-01-27 13:47:41.247105,-0.08413040512864349
2023-01-27 13:47:41.252105,-0.08320431411266316
2023-01-27 13:47:41.257105,-0.08210645980293192
2023-01-27 13:47:41.262105,-0.08089642226696006
2023-01-27 13:47:41.267105,-0.07872991315451386
2023-01-27 13:47:41.272105,-0.07491032779216757
2023-01-27 13:47:41.277105,-0.0697863381338429
2023-01-27 13:47:41.282105,-0.06399592012166963
2023-01-27 13:47:41.287105,-0.057729434455351225
2023-01-27 13:47:41.292105,-0.05142271518707268
2023-01-27 13:47:41.297105,-0.04627451205389592
2023-01-27 13:47:41.302105,-0.043297015130519825
2023-01-27 13:47:41.307105,-0.04257783197497407
2023-01-27 13:47:41.312105,-0.044066309928894
2023-01-27 13:47:41.317105,-0.04819728758491893
2023-01-27 13:47:41.322105,-0.05500475689768795
2023-01-27 13:47:41.327105,-0.06339339382579033
2023-01-27 13:47:41.332105,-0.07197737693786618
2023-01-27 13:47:41.337105,-0.07993581805866115
2023-01-27 13:47:41.342105,-0.08652190864086151
2023-01-27 13:47:41.347105,-0.09067879366798469
2023-01-27 13:47:41.352105,-0.0919550657272338
2023-01-27 13:47:41.357105,-0.09114270007274745
2023-01-27 13:47:41.362105,-0.08940677344799047
2023-01-27 13:47:41.367105,-0.08749968417363592
2023-01-27 13:47:41.372105,-0.08630554378032676
2023-01-27 13:47:41.377105,-0.08708348557868875
2023-01-27 13:47:41.382105,-0.09007990360260001
2023-01-27 13:47:41.387105,-0.09316603642398219
2023-01-27 13:47:41.392105,-0.09219547361135479
2023-01-27 13:47:41.397105,-0.0821647178098424
2023-01-27 13:47:41.402105,-0.05825022980570791
2023-01-27 13:47:41.407105,-0.017848317818453693
2023-01-27 13:47:41.412105,0.03625313565135004
2023-01-27 13:47:41.417105,0.09446007168008276
2023-01-27 13:47:41.422105,0.1428969800472259
2023-01-27 13:47:41.427105,0.168213961285633
2023-01-27 13:47:41.432105,0.16193708777427662
2023-01-27 13:47:41.437105,0.12355453417613929
2023-01-27 13:47:41.442105,0.06171206757426258
2023-01-27 13:47:41.447105,-0.008279473246217943
2023-01-27 13:47:41.452105,-0.0704628229141235
2023-01-27 13:47:41.457105,-0.1139949224756449
2023-01-27 13:47:41.462105,-0.13532420992851246
2023-01-27 13:47:41.467105,-0.1373015983449928
2023-01-27 13:47:41.472105,-0.12705425918102256
2023-01-27 13:47:41.477105,-0.11290323679959242
2023-01-27 13:47:41.482105,-0.10087411105632776
2023-01-27 13:47:41.487105,-0.09308646015196148
2023-01-27 13:47:41.492105,-0.08902212232351299
2023-01-27 13:47:41.497105,-0.08747033305450172
2023-01-27 13:47:41.502105,-0.08712291717529283
2023-01-27 13:47:41.507105,-0.0866819066277936
2023-01-27 13:47:41.512105,-0.08558432757854458
2023-01-27 13:47:41.517105,-0.08426209435454296
2023-01-27 13:47:41.522105,-0.08313219249248502
2023-01-27 13:47:41.527105,-0.08185199005004158
2023-01-27 13:47:41.532105,-0.07998287677764886
2023-01-27 13:47:41.537105,-0.07765552058504994
2023-01-27 13:47:41.542105,-0.07503052800893777
2023-01-27 13:47:41.547105,-0.07180150812534483
2023-01-27 13:47:41.552105,-0.06781836599111547
2023-01-27 13:47:41.557105,-0.06355984408233185
2023-01-27 13:47:41.562105,-0.05942821502685538
2023-01-27 13:47:41.567105,-0.05519204946879776
2023-01-27 13:47:41.572105,-0.05062937736511229
2023-01-27 13:47:41.577105,-0.04603975102699004
2023-01-27 13:47:41.582105,-0.04154205322265621
2023-01-27 13:47:41.587105,-0.0364652019002143
2023-01-27 13:47:41.592105,-0.029954513534903505
2023-01-27 13:47:41.597105,-0.02159926564572677
2023-01-27 13:47:41.602105,-0.01105864904820909
2023-01-27 13:47:41.607105,0.0021395596886969437
2023-01-27 13:47:41.612105,0.017765959724783804
2023-01-27 13:47:41.617105,0.03441833277492137
2023-01-27 13:47:41.622105,0.050437055528163924
2023-01-27 13:47:41.627105,0.06481618918780918
2023-01-27 13:47:41.632105,0.07690569013357156
2023-01-27 13:47:41.637105,0.08601780233978013
2023-01-27 13:47:41.642105,0.09193103015422817
2023-01-27 13:47:41.647105,0.09515039765519748
2023-01-27 13:47:41.652105,0.09606599807739247
2023-01-27 13:47:41.657105,0.09434274463706994
2023-01-27 13:47:41.662105,0.08955101668834678
2023-01-27 13:47:41.667105,0.08176881381343726
2023-01-27 13:47:41.672105,0.07111191749572746
2023-01-27 13:47:41.677105,0.057363928185440116
2023-01-27 13:47:41.682105,0.04065255448222158
2023-01-27 13:47:41.687105,0.021943704623554636
2023-01-27 13:47:41.692105,0.0023800134658812813
2023-01-27 13:47:41.697105,-0.017321415528669552
2023-01-27 13:47:41.702105,-0.03642141819000237
2023-01-27 13:47:41.707105,-0.05381240278964553
2023-01-27 13:47:41.712105,-0.06868382543325416
2023-01-27 13:47:41.717105,-0.08099961201119461
2023-01-27 13:47:41.722105,-0.09087324142456052
2023-01-27 13:47:41.727105,-0.09806561840558325
2023-01-27 13:47:41.732105,-0.10255694389343262
2023-01-27 13:47:41.737105,-0.10499786351658466
2023-01-27 13:47:41.742105,-0.1060909032821655
2023-01-27 13:47:41.747105,-0.10607240371839513
2023-01-27 13:47:41.752105,-0.10522544384002674
2023-01-27 13:47:41.757105,-0.1042641982662467
2023-01-27 13:47:41.762105,-0.1036868542432785
2023-01-27 13:47:41.767105,-0.1032854002620946
2023-01-27 13:47:41.772105,-0.10274927318096158
2023-01-27 13:47:41.777105,-0.10220700668809862
2023-01-27 13:47:41.782105,-0.10176360607147208
2023-01-27 13:47:41.787105,-0.10112884496266691
2023-01-27 13:47:41.792105,-0.10020097345113746
2023-01-27 13:47:41.797105,-0.0994674964912438
2023-01-27 13:47:41.802105,-0.0993595570325851
2023-01-27 13:47:41.807105,-0.09972429714438798
2023-01-27 13:47:41.812105,-0.1003211736679076
2023-01-27 13:47:41.817105,-0.10123139819695834
2023-01-27 13:47:41.822105,-0.10231654345989213
2023-01-27 13:47:41.827105,-0.10285155026650597
2023-01-27 13:47:41.832105,-0.10219633579254145
2023-01-27 13:47:41.837105,-0.10037685722267146
2023-01-27 13:47:41.842105,-0.09767671674489972
2023-01-27 13:47:41.847105,-0.0942772997091142
2023-01-27 13:47:41.852105,-0.09072899818420407
2023-01-27 13:47:41.857105,-0.08814551981054394
2023-01-27 13:47:41.862105,-0.08736332505941388
2023-01-27 13:47:41.867105,-0.08829254901411125
2023-01-27 13:47:41.872105,-0.09039243310689918
2023-01-27 13:47:41.877105,-0.09320715797240404
2023-01-27 13:47:41.882105,-0.09609004110097875
2023-01-27 13:47:41.887105,-0.09809349291260652
2023-01-27 13:47:41.892105,-0.09871046245098108
2023-01-27 13:47:41.897105,-0.09831012693570385
2023-01-27 13:47:41.902105,-0.09748439490795131
2023-01-27 13:47:41.907105,-0.09646023687871995
2023-01-27 13:47:41.912105,-0.09544094651937479
2023-01-27 13:47:41.917105,-0.09486120327756244
2023-01-27 13:47:41.922105,-0.09483993053436265
2023-01-27 13:47:41.927105,-0.09492012911879821
2023-01-27 13:47:41.932105,-0.09476780891418451
2023-01-27 13:47:41.937105,-0.09461913951894518
2023-01-27 13:47:41.942105,-0.09469568729400632
2023-01-27 13:47:41.947105,-0.09476409146326621
2023-01-27 13:47:41.952105,-0.09464760869741431
2023-01-27 13:47:41.957105,-0.09455765833190771
2023-01-27 13:47:41.962105,-0.09447932243347158
2023-01-27 13:47:41.967105,-0.09378821243152123
2023-01-27 13:47:41.972105,-0.09190698713064194
2023-01-27 13:47:41.977105,-0.08882843649448584
2023-01-27 13:47:41.982105,-0.08464674651622772
2023-01-27 13:47:41.987105,-0.07920095454063324
2023-01-27 13:47:41.992105,-0.07265051454305636
2023-01-27 13:47:41.997105,-0.06587610472866366
2023-01-27 13:47:42.002105,-0.05988498777151101
2023-01-27 13:47:42.007105,-0.05531146323271855
2023-01-27 13:47:42.012105,-0.0528170689940452
2023-01-27 13:47:42.017105,-0.0533037433724473
2023-01-27 13:47:42.022105,-0.057168405503034536
2023-01-27 13:47:42.027105,-0.0637603545871979
2023-01-27 13:47:42.032105,-0.07192929834127418
2023-01-27 13:47:42.037105,-0.08061392852973068
2023-01-27 13:47:42.042105,-0.08861343562602988
2023-01-27 13:47:42.047105,-0.09450619023829099
2023-01-27 13:47:42.052105,-0.09741227328777308
2023-01-27 13:47:42.057105,-0.09747789683032555
2023-01-27 13:47:42.062105,-0.0952967032790184
2023-01-27 13:47:42.067105,-0.09140352897103193
2023-01-27 13:47:42.072105,-0.08671423047780988
2023-01-27 13:47:42.077105,-0.08283473713464662
2023-01-27 13:47:42.082105,-0.08128106594085688
2023-01-27 13:47:42.087105,-0.08248183427386001
2023-01-27 13:47:42.092105,-0.08541604131460181
2023-01-27 13:47:42.097105,-0.08728654214434402
2023-01-27 13:47:42.102105,-0.08310814946889866
2023-01-27 13:47:42.107105,-0.0667267359017656
2023-01-27 13:47:42.112105,-0.033921204507350894
2023-01-27 13:47:42.117105,0.014362148441743699
2023-01-27 13:47:42.122105,0.07087151706218713
2023-01-27 13:47:42.127105,0.12326147834393725
2023-01-27 13:47:42.132105,0.15715301036834708
2023-01-27 13:47:42.137105,0.16090613700198403
2023-01-27 13:47:42.142105,0.13068437576293934
2023-01-27 13:47:42.147105,0.07265025228870754
2023-01-27 13:47:42.152105,0.0005769729614257055
2023-01-27 13:47:42.157105,-0.06932805179981318
2023-01-27 13:47:42.162105,-0.12349625676870338
2023-01-27 13:47:42.167105,-0.15459558005247429
2023-01-27 13:47:42.172105,-0.16297082602977747
2023-01-27 13:47:42.177105,-0.15503696462062969
2023-01-27 13:47:42.182105,-0.13926684856414787
2023-01-27 13:47:42.187105,-0.12254466827042865
2023-01-27 13:47:42.192105,-0.10885556787252418
2023-01-27 13:47:42.197105,-0.09955440738659342
2023-01-27 13:47:42.202105,-0.09390234947204575
2023-01-27 13:47:42.207105,-0.09001336669981189
2023-01-27 13:47:42.212105,-0.08630554378032675
2023-01-27 13:47:42.217105,-0.0822487324745745
2023-01-27 13:47:42.222105,-0.07781922817230219
2023-01-27 13:47:42.227105,-0.07293715074288064
2023-01-27 13:47:42.232105,-0.0678183659911155
2023-01-27 13:47:42.237105,-0.06326656249364267
2023-01-27 13:47:42.242105,-0.060077309608459355
2023-01-27 13:47:42.247105,-0.05848284669645289
2023-01-27 13:47:42.252105,-0.05841851234436031
2023-01-27 13:47:42.257105,-0.05973165552110176
2023-01-27 13:47:42.262105,-0.061688028275966623
2023-01-27 13:47:42.267105,-0.06279996151816833
2023-01-27 13:47:42.272105,-0.061688028275966644
2023-01-27 13:47:42.277105,-0.05787168812155582
2023-01-27 13:47:42.282105,-0.05154291912913317
2023-01-27 13:47:42.287105,-0.04313675483055492
2023-01-27 13:47:42.292105,-0.03346443176269532
2023-01-27 13:47:42.297105,-0.02363997068067878
2023-01-27 13:47:42.302105,-0.014280080795287966
2023-01-27 13:47:42.307105,-0.005058680579022498
2023-01-27 13:47:42.312105,0.004639824386685977
2023-01-27 13:47:42.317105,0.015018760747528214
2023-01-27 13:47:42.322105,0.026035904884338264
2023-01-27 13:47:42.327105,0.03766216263496095
2023-01-27 13:47:42.332105,0.04952351376414287
2023-01-27 13:47:42.337105,0.06073465666646468
2023-01-27 13:47:42.342105,0.07051090896129597
2023-01-27 13:47:42.347105,0.07858599209275967
2023-01-27 13:47:42.352105,0.08474290370941154
2023-01-27 13:47:42.357105,0.08841624798303367
2023-01-27 13:47:42.362105,0.08911828696727742
2023-01-27 13:47:42.367105,0.08681424978687638
2023-01-27 13:47:42.372105,0.08154551684856404
2023-01-27 13:47:42.377105,0.0731621582212724
2023-01-27 13:47:42.382105,0.061808228492736775
2023-01-27 13:47:42.387105,0.04824160019507328
2023-01-27 13:47:42.392105,0.033320188522338735
2023-01-27 13:47:42.397105,0.01758124625942362
2023-01-27 13:47:42.402105,0.0016107162227853918
2023-01-27 13:47:42.407105,-0.013688782416355209
2023-01-27 13:47:42.412105,-0.02759854122996328
2023-01-27 13:47:42.417105,-0.039942666359197146
2023-01-27 13:47:42.422105,-0.050629377365112305
2023-01-27 13:47:42.427105,-0.059288535128870175
2023-01-27 13:47:42.432105,-0.0657027959823608
2023-01-27 13:47:42.437105,-0.07015117494696636
2023-01-27 13:47:42.442105,-0.07298707962036133
2023-01-27 13:47:42.447105,-0.07431861575251399
2023-01-27 13:47:42.452105,-0.07442951202392568
2023-01-27 13:47:42.457105,-0.07403334427825133
2023-01-27 13:47:42.462105,-0.0737082958221435
2023-01-27 13:47:42.467105,-0.07344575038908861
2023-01-27 13:47:42.472105,-0.0730351656675338
2023-01-27 13:47:42.477105,-0.07244514972467768
2023-01-27 13:47:42.482105,-0.0715446472167968
2023-01-27 13:47:42.487105,-0.06998687604778368
2023-01-27 13:47:42.492105,-0.0677943229675292
2023-01-27 13:47:42.497105,-0.06565633134934411
2023-01-27 13:47:42.502105,-0.0642844066023826
2023-01-27 13:47:42.507105,-0.06382376242914023
2023-01-27 13:47:42.512105,-0.06411612033843989
2023-01-27 13:47:42.517105,-0.06501462356820836
2023-01-27 13:47:42.522105,-0.06611149013042436
2023-01-27 13:47:42.527105,-0.06670056363307873
2023-01-27 13:47:42.532105,-0.06647209823131564
2023-01-27 13:47:42.537105,-0.06587540607549834
2023-01-27 13:47:42.542105,-0.06546239554882038
2023-01-27 13:47:42.547105,-0.06527315807067781
2023-01-27 13:47:42.552105,-0.065125823020935
2023-01-27 13:47:42.557105,-0.06496629911503114
2023-01-27 13:47:42.562105,-0.06454885005950918
2023-01-27 13:47:42.567105,-0.06330902505925089
2023-01-27 13:47:42.572105,-0.0610629729926586
2023-01-27 13:47:42.577105,-0.05846956911378085
2023-01-27 13:47:42.582105,-0.05639910697937012
2023-01-27 13:47:42.587105,-0.05521111721992862
2023-01-27 13:47:42.592105,-0.054980717599391896
2023-01-27 13:47:42.597105,-0.05592682423400967
2023-01-27 13:47:42.602105,-0.05808194726705552
2023-01-27 13:47:42.607105,-0.06084340289759662
2023-01-27 13:47:42.612105,-0.06329874694347379
2023-01-27 13:47:42.617105,-0.0647758367184048
2023-01-27 13:47:42.622105,-0.0648133009672164
2023-01-27 13:47:42.627105,-0.06300200849421482
2023-01-27 13:47:42.632105,-0.05928397178649897
2023-01-27 13:47:42.637105,-0.0541441380791605
2023-01-27 13:47:42.642105,-0.04817724227905271
2023-01-27 13:47:42.647105,-0.041724589228108885
2023-01-27 13:47:42.652105,-0.035171311348676605
2023-01-27 13:47:42.657105,-0.02922392945425012
2023-01-27 13:47:42.662105,-0.024569433182477906
2023-01-27 13:47:42.667105,-0.02156179519039357
2023-01-27 13:47:42.672105,-0.02048254013061515
2023-01-27 13:47:42.677105,-0.021712330508582206
2023-01-27 13:47:42.682105,-0.025314688682556125
2023-01-27 13:47:42.687105,-0.030764995638473184
2023-01-27 13:47:42.692105,-0.03735899925231925
2023-01-27 13:47:42.697105,-0.0445636652167349
2023-01-27 13:47:42.702105,-0.051759283989667795
2023-01-27 13:47:42.707105,-0.058086855931323685
2023-01-27 13:47:42.712105,-0.0629140958189964
2023-01-27 13:47:42.717105,-0.0661632125953268
2023-01-27 13:47:42.722105,-0.06796260923147196
2023-01-27 13:47:42.727105,-0.068383263467493
2023-01-27 13:47:42.732105,-0.06781836599111551
2023-01-27 13:47:42.737105,-0.06725332663884602
2023-01-27 13:47:42.742105,-0.06781836599111546
2023-01-27 13:47:42.747105,-0.07024207636337892
2023-01-27 13:47:42.752105,-0.07464587688446038
2023-01-27 13:47:42.757105,-0.08002296108527035
2023-01-27 13:47:42.762105,-0.08325239270925518
2023-01-27 13:47:42.767105,-0.07898840994267414
2023-01-27 13:47:42.772105,-0.06142358109354967
2023-01-27 13:47:42.777105,-0.027078599837401175
2023-01-27 13:47:42.782105,0.022814473137259386
2023-01-27 13:47:42.787105,0.0810450574010726
2023-01-27 13:47:42.792105,0.13501167297363278
2023-01-27 13:47:42.797105,0.17012857856345348
2023-01-27 13:47:42.802105,0.17535170912742604
2023-01-27 13:47:42.807105,0.14785108619627121
2023-01-27 13:47:42.812105,0.0941908359527587
2023-01-27 13:47:42.817105,0.027908202179034135
2023-01-27 13:47:42.822105,-0.03507515043020239
2023-01-27 13:47:42.827105,-0.0817211840778709
2023-01-27 13:47:42.832105,-0.10594666004180897
2023-01-27 13:47:42.837105,-0.10941818121324379
2023-01-27 13:47:42.842105,-0.09885470569133743
2023-01-27 13:47:42.847105,-0.0821381404235914
2023-01-27 13:47:42.852105,-0.06555855274200427
2023-01-27 13:47:42.857105,-0.052586208623910995
2023-01-27 13:47:42.862105,-0.04375378414988506
2023-01-27 13:47:42.867105,-0.03768341475033894
2023-01-27 13:47:42.872105,-0.03281533718109129
2023-01-27 13:47:42.877105,-0.028440863216594423
2023-01-27 13:47:42.882105,-0.024425189942121485
2023-01-27 13:47:42.887105,-0.02066100996802303
2023-01-27 13:47:42.892105,-0.017116865143179807
2023-01-27 13:47:42.897105,-0.013926376023698154
2023-01-27 13:47:42.902105,-0.011034607887268016
2023-01-27 13:47:42.907105,-0.008079700229736853
2023-01-27 13:47:42.912105,-0.004904270172119046
2023-01-27 13:47:42.917105,-0.0018463289144538936
2023-01-27 13:47:42.922105,0.0007212162017822129
2023-01-27 13:47:42.927105,0.0027934896316717753
2023-01-27 13:47:42.932105,0.004495581146329618
2023-01-27 13:47:42.937105,0.005907293235152125
2023-01-27 13:47:42.942105,0.007428526878356912
2023-01-27 13:47:42.947105,0.009916122381840009
2023-01-27 13:47:42.952105,0.014111797325312965
2023-01-27 13:47:42.957105,0.02019750616024729
2023-01-27 13:47:42.962105,0.028079351410269692
2023-01-27 13:47:42.967105,0.03768809273818126
2023-01-27 13:47:42.972105,0.04875421524047854
2023-01-27 13:47:42.977105,0.060723273162365005
2023-01-27 13:47:42.982105,0.07322748750448216
2023-01-27 13:47:42.987105,0.08631613355517868
2023-01-27 13:47:42.992105,0.09996056556701652
2023-01-27 13:47:42.997105,0.11365449142944015
2023-01-27 13:47:43.002105,0.12669365108013142
2023-01-27 13:47:43.007105,0.1384448883307073
2023-01-27 13:47:43.012105,0.14811377227306355
2023-01-27 13:47:43.017105,0.15469766337645788
2023-01-27 13:47:43.022105,0.15751361846923817
2023-01-27 13:47:43.027105,0.1564841535832445
2023-01-27 13:47:43.032105,0.15171985328197468
2023-01-27 13:47:43.037105,0.14323307692066697
2023-01-27 13:47:43.042105,0.13130943477153764
2023-01-27 13:47:43.047105,0.11675659212881268
2023-01-27 13:47:43.052105,0.1005135029554367
2023-01-27 13:47:43.057105,0.08336632814305862
2023-01-27 13:47:43.062105,0.06623169034719462
2023-01-27 13:47:43.067105,0.05022525114862544
2023-01-27 13:47:43.072105,0.03608485311269762
2023-01-27 13:47:43.077105,0.023829485840271808
2023-01-27 13:47:43.082105,0.013198256492614658
2023-01-27 13:47:43.087105,0.004046409175119424
2023-01-27 13:47:43.092105,-0.0038705270271748114
2023-01-27 13:47:43.097105,-0.010991924653245793
2023-01-27 13:47:43.102105,-0.01747747324407099
2023-01-27 13:47:43.107105,-0.022996701636536603
2023-01-27 13:47:43.112105,-0.02726197242736809
2023-01-27 13:47:43.117105,-0.030412962249728143
2023-01-27 13:47:43.122105,-0.03267109394073475
2023-01-27 13:47:43.127105,-0.03407164932719507
2023-01-27 13:47:43.132105,-0.03481070324778547
2023-01-27 13:47:43.137105,-0.03539220009396575
2023-01-27 13:47:43.142105,-0.03608485311269758
2023-01-27 13:47:43.147105,-0.036608341346619055
2023-01-27 13:47:43.152105,-0.036637783050537054
2023-01-27 13:47:43.157105,-0.03621627691572991
2023-01-27 13:47:43.162105,-0.03541171550750731
2023-01-27 13:47:43.167105,-0.03404995927838233
2023-01-27 13:47:43.172105,-0.03214220330119129
2023-01-27 13:47:43.177105,-0.03013380482969727
2023-01-27 13:47:43.182105,-0.028343796730041466
2023-01-27 13:47:43.187105,-0.026556159418929106
2023-01-27 13:47:43.192105,-0.024545392021536768
2023-01-27 13:47:43.197105,-0.022613116224454728
2023-01-27 13:47:43.202105,-0.021203756332397364
2023-01-27 13:47:43.207105,-0.020371077440569707
2023-01-27 13:47:43.212105,-0.020073851570487026
2023-01-27 13:47:43.217105,-0.020676913010901438
2023-01-27 13:47:43.222105,-0.022670229896903017
2023-01-27 13:47:43.227105,-0.026053434253593678
2023-01-27 13:47:43.232105,-0.03031512163579462
2023-01-27 13:47:43.237105,-0.034780729288971676
2023-01-27 13:47:43.242105,-0.03868123143911363
2023-01-27 13:47:43.247105,-0.0412011281891825
2023-01-27 13:47:43.252105,-0.04192670434713358
2023-01-27 13:47:43.257105,-0.04118637454997173
2023-01-27 13:47:43.262105,-0.03973901271820064
2023-01-27 13:47:43.267105,-0.03828924364769631
2023-01-27 13:47:43.272105,-0.03740708157420142
2023-01-27 13:47:43.277105,-0.037516179953327136
2023-01-27 13:47:43.282105,-0.03860910981893527
2023-01-27 13:47:43.287105,-0.04019757191284528
2023-01-27 13:47:43.292105,-0.04180650040507306
2023-01-27 13:47:43.297105,-0.04330263580660218
2023-01-27 13:47:43.302105,-0.04454712197184561
2023-01-27 13:47:43.307105,-0.04502134112444613
2023-01-27 13:47:43.312105,-0.04404227063059797
2023-01-27 13:47:43.317105,-0.041110218383598816
2023-01-27 13:47:43.322105,-0.03591656684875479
2023-01-27 13:47:43.327105,-0.028449364799836462
2023-01-27 13:47:43.332105,-0.01947283744812005
2023-01-27 13:47:43.337105,-0.010674825925881171
2023-01-27 13:47:43.342105,-0.004014770500361914
2023-01-27 13:47:43.347105,-0.0009639499986071153
2023-01-27 13:47:43.352105,-0.0022838513832539272
2023-01-27 13:47:43.357105,-0.007958721725536065
2023-01-27 13:47:43.362105,-0.016948580741882276
2023-01-27 13:47:43.367105,-0.027325244222627717
2023-01-27 13:47:43.372105,-0.037094555795192684
2023-01-27 13:47:43.377105,-0.04492800335130437
2023-01-27 13:47:43.382105,-0.05019664764404292
2023-01-27 13:47:43.387105,-0.052801600494240535
2023-01-27 13:47:43.392105,-0.05324979871511447
2023-01-27 13:47:43.397105,-0.05251737051779182
2023-01-27 13:47:43.402105,-0.051470797508954974
2023-01-27 13:47:43.407105,-0.05058311512238652
2023-01-27 13:47:43.412105,-0.050340890884399414
2023-01-27 13:47:43.417105,-0.051541148920960254
2023-01-27 13:47:43.422105,-0.05481243133544922
2023-01-27 13:47:43.427105,-0.05985495169061213
2023-01-27 13:47:43.432105,-0.0649815797805786
2023-01-27 13:47:43.437105,-0.06681587329695338
2023-01-27 13:47:43.442105,-0.06034175679087626
2023-01-27 13:47:43.447105,-0.04029942108180475
2023-01-27 13:47:43.452105,-0.004062851425260344
2023-01-27 13:47:43.457105,0.04568501883798902
2023-01-27 13:47:43.462105,0.10032117366790771
2023-01-27 13:47:43.467105,0.14705740912378662
2023-01-27 13:47:43.472105,0.17256300151348114
2023-01-27 13:47:43.477105,0.16766156073451477
2023-01-27 13:47:43.482105,0.13140559196472157
2023-01-27 13:47:43.487105,0.0720775151902455
2023-01-27 13:47:43.492105,0.004159013740718309
2023-01-27 13:47:43.497105,-0.056965868332111966
2023-01-27 13:47:43.502105,-0.09988844394683827
2023-01-27 13:47:43.507105,-0.12007312842605036
2023-01-27 13:47:43.512105,-0.12017866224050514
2023-01-27 13:47:43.517105,-0.10767918712914261
2023-01-27 13:47:43.522105,-0.09092132747173298
2023-01-27 13:47:43.527105,-0.07595138927150809
2023-01-27 13:47:43.532105,-0.0655585527420043
2023-01-27 13:47:43.537105,-0.0598987459177827
2023-01-27 13:47:43.542105,-0.05750497430562971
2023-01-27 13:47:43.547105,-0.056403350101604056
2023-01-27 13:47:43.552105,-0.055221121758222524
2023-01-27 13:47:43.557105,-0.0535947113692834
2023-01-27 13:47:43.562105,-0.05166312307119358
2023-01-27 13:47:43.567105,-0.04953344797549251
2023-01-27 13:47:43.572105,-0.04733582586050029
2023-01-27 13:47:43.577105,-0.045327918520866026
2023-01-27 13:47:43.582105,-0.043609540909528705
2023-01-27 13:47:43.587105,-0.04200410502130902
2023-01-27 13:47:43.592105,-0.04046022891998291
2023-01-27 13:47:43.597105,-0.03929253237898268
2023-01-27 13:47:43.602105,-0.038801431655883706
2023-01-27 13:47:43.607105,-0.03890812186560501
2023-01-27 13:47:43.612105,-0.039306282997131285
2023-01-27 13:47:43.617105,-0.03960828100205306
2023-01-27 13:47:43.622105,-0.039113961160182856
2023-01-27 13:47:43.627105,-0.03679460210750142
2023-01-27 13:47:43.632105,-0.031829677522182395
2023-01-27 13:47:43.637105,-0.023982846402510544
2023-01-27 13:47:43.642105,-0.013342499732971072
2023-01-27 13:47:43.647105,-6.272315418514533e-05
2023-01-27 13:47:43.652105,0.015409986488520998
2023-01-27 13:47:43.657105,0.032193233729772876
2023-01-27 13:47:43.662105,0.04933118820190417
2023-01-27 13:47:43.667105,0.06607172625172755
2023-01-27 13:47:43.672105,0.08164167404174794
2023-01-27 13:47:43.677105,0.09511235464248449
2023-01-27 13:47:43.682105,0.1057543382048606
2023-01-27 13:47:43.687105,0.11326836705376765
2023-01-27 13:47:43.692105,0.11748611927032471
2023-01-27 13:47:43.697105,0.11815656783647081
2023-01-27 13:47:43.702105,0.11522631347179405
2023-01-27 13:47:43.707105,0.10900095262013747
2023-01-27 13:47:43.712105,0.09979228675365437
2023-01-27 13:47:43.717105,0.08768828366885038
2023-01-27 13:47:43.722105,0.07286687940359102
2023-01-27 13:47:43.727105,0.05583913966423809
2023-01-27 13:47:43.732105,0.037214756011962793
2023-01-27 13:47:43.737105,0.01759099952008021
2023-01-27 13:47:43.742105,-0.002091526985168396
2023-01-27 13:47:43.747105,-0.020430608016435054
2023-01-27 13:47:43.752105,-0.036108892410993465
2023-01-27 13:47:43.757105,-0.04839941508117348
2023-01-27 13:47:43.762105,-0.057096283882856314
2023-01-27 13:47:43.767105,-0.06240363034161049
2023-01-27 13:47:43.772105,-0.06514986604452128
2023-01-27 13:47:43.777105,-0.06670792177545513
2023-01-27 13:47:43.782105,-0.06829917430877679
2023-01-27 13:47:43.787105,-0.07046912493622053
2023-01-27 13:47:43.792105,-0.07327556610107416
2023-01-27 13:47:43.797105,-0.07656998179065959
2023-01-27 13:47:43.802105,-0.07988671958446501
2023-01-27 13:47:43.807105,-0.08249252441991498
2023-01-27 13:47:43.812105,-0.08392553031444536
2023-01-27 13:47:43.817105,-0.08429175301612682
2023-01-27 13:47:43.822105,-0.08387744426727287
2023-01-27 13:47:43.827105,-0.08281783428556229
2023-01-27 13:47:43.832105,-0.0813531875610351
2023-01-27 13:47:43.837105,-0.08000572888685827
2023-01-27 13:47:43.842105,-0.07916550338268274
2023-01-27 13:47:43.847105,-0.07876338097260428
2023-01-27 13:47:43.852105,-0.07858853042125695
2023-01-27 13:47:43.857105,-0.07861364283727106
2023-01-27 13:47:43.862105,-0.0787568092346191
2023-01-27 13:47:43.867105,-0.07867053537145322
2023-01-27 13:47:43.872105,-0.07810771465301508
2023-01-27 13:47:43.877105,-0.07727016353700684
2023-01-27 13:47:43.882105,-0.07654508203268046
2023-01-27 13:47:43.887105,-0.07614098652703137
2023-01-27 13:47:43.892105,-0.07618447393178926
2023-01-27 13:47:43.897105,-0.07684172712202328
2023-01-27 13:47:43.902105,-0.07803559303283684
2023-01-27 13:47:43.907105,-0.07928252058076196
2023-01-27 13:47:43.912105,-0.08007904142141342
2023-01-27 13:47:43.917105,-0.08025263087324015
2023-01-27 13:47:43.922105,-0.0797665119171142
2023-01-27 13:47:43.927105,-0.07849460698433831
2023-01-27 13:47:43.932105,-0.07644891738891596
2023-01-27 13:47:43.937105,-0.07396707961125724
2023-01-27 13:47:43.942105,-0.07142444700002673
2023-01-27 13:47:43.947105,-0.06898479780813795
2023-01-27 13:47:43.952105,-0.06680866330862037
2023-01-27 13:47:43.957105,-0.06518276176363134
2023-01-27 13:47:43.962105,-0.06416420638561238
2023-01-27 13:47:43.967105,-0.06333422758223131
2023-01-27 13:47:43.972105,-0.06214479729533184
2023-01-27 13:47:43.977105,-0.06030924025763691
2023-01-27 13:47:43.982105,-0.0577213391661643
2023-01-27 13:47:43.987105,-0.054336514230895944
2023-01-27 13:47:43.992105,-0.050388973206281586
2023-01-27 13:47:43.997105,-0.04643188382574952
2023-01-27 13:47:44.002105,-0.04286428540945051
2023-01-27 13:47:44.007105,-0.039593254817265916
2023-01-27 13:47:44.012105,-0.036325257271528175
2023-01-27 13:47:44.017105,-0.03293454081498416
2023-01-27 13:47:44.022105,-0.029401581734418803
2023-01-27 13:47:44.027105,-0.02575777735899582
2023-01-27 13:47:44.032105,-0.02238174341619011
2023-01-27 13:47:44.037105,-0.02008514174871583
2023-01-27 13:47:44.042105,-0.019617080688476524
2023-01-27 13:47:44.047105,-0.02123482710581168
2023-01-27 13:47:44.052105,-0.02485791966319082
2023-01-27 13:47:44.057105,-0.030283870275131543
2023-01-27 13:47:44.062105,-0.036998391151428174
2023-01-27 13:47:44.067105,-0.04407900635929998
2023-01-27 13:47:44.072105,-0.050605338066816254
2023-01-27 13:47:44.077105,-0.05602440903823503
2023-01-27 13:47:44.082105,-0.06000518798828116
2023-01-27 13:47:44.087105,-0.06227577810942271
2023-01-27 13:47:44.092105,-0.06286601722240438
2023-01-27 13:47:44.097105,-0.06226946796702095
2023-01-27 13:47:44.102105,-0.0611591339111328
2023-01-27 13:47:44.107105,-0.06018641570558218
2023-01-27 13:47:44.112105,-0.06017347425222391
2023-01-27 13:47:44.117105,-0.06199705604689409
2023-01-27 13:47:44.122105,-0.06567876040935507
2023-01-27 13:47:44.127105,-0.06941945457227008
2023-01-27 13:47:44.132105,-0.06947716325521452
2023-01-27 13:47:44.137105,-0.06089346448967694
2023-01-27 13:47:44.142105,-0.03889759629964811
2023-01-27 13:47:44.147105,-0.0011763005986332473
2023-01-27 13:47:44.152105,0.04957159608602524
2023-01-27 13:47:44.157105,0.10464270908602365
2023-01-27 13:47:44.162105,0.15123903751373294
2023-01-27 13:47:44.167105,0.17657666967291683
2023-01-27 13:47:44.172105,0.1723466366529464
2023-01-27 13:47:44.177105,0.13798108067409884
2023-01-27 13:47:44.182105,0.08147339522838587
2023-01-27 13:47:44.187105,0.016847793874780453
2023-01-27 13:47:44.192105,-0.04098912328481668
2023-01-27 13:47:44.197105,-0.08135548487621388
2023-01-27 13:47:44.202105,-0.10039329528808585
2023-01-27 13:47:44.207105,-0.10074122073695203
2023-01-27 13:47:44.212105,-0.08923848718404755
2023-01-27 13:47:44.217105,-0.07368887628975891
2023-01-27 13:47:44.222105,-0.059884987771510946
2023-01-27 13:47:44.227105,-0.05030609785604075
2023-01-27 13:47:44.232105,-0.04483560845255845
2023-01-27 13:47:44.237105,-0.042237726107354406
2023-01-27 13:47:44.242105,-0.04110932350158692
2023-01-27 13:47:44.247105,-0.04030120790668513
2023-01-27 13:47:44.252105,-0.03921012207865708
2023-01-27 13:47:44.257105,-0.03774110368224249
2023-01-27 13:47:44.262105,-0.035844445228576556
2023-01-27 13:47:44.267105,-0.033263707576315096
2023-01-27 13:47:44.272105,-0.029858350753784065
2023-01-27 13:47:44.277105,-0.025889171061492935
2023-01-27 13:47:44.282105,-0.021780729293823214
2023-01-27 13:47:44.287105,-0.01784151262802942
2023-01-27 13:47:44.292105,-0.014376243576407422
2023-01-27 13:47:44.297105,-0.011749306525654738
2023-01-27 13:47:44.302105,-0.010048946365714045
2023-01-27 13:47:44.307105,-0.008865429895187127
2023-01-27 13:47:44.312105,-0.007572770118713322
2023-01-27 13:47:44.317105,-0.005618318726975696
2023-01-27 13:47:44.322105,-0.002428094623610318
2023-01-27 13:47:44.327105,0.0026205063059899984
2023-01-27 13:47:44.332105,0.009856621734797896
2023-01-27 13:47:44.337105,0.019148021767524868
2023-01-27 13:47:44.342105,0.030243000015616407
2023-01-27 13:47:44.347105,0.043036025567227645
2023-01-27 13:47:44.352105,0.05733668804168697
2023-01-27 13:47:44.357105,0.07264913727021859
2023-01-27 13:47:44.362105,0.08834898471832262
2023-01-27 13:47:44.367105,0.10379004443452977
2023-01-27 13:47:44.372105,0.11806309223175039
2023-01-27 13:47:44.377105,0.12999083681301618
2023-01-27 13:47:44.382105,0.13866584002971638
2023-01-27 13:47:44.387105,0.14384181226132586
2023-01-27 13:47:44.392105,0.1456856727600097
2023-01-27 13:47:44.397105,0.14442992489978632
2023-01-27 13:47:44.402105,0.14039675891399378
2023-01-27 13:47:44.407105,0.1339751872757117
2023-01-27 13:47:44.412105,0.12527525424957267
2023-01-27 13:47:44.417105,0.11403956920928436
2023-01-27 13:47:44.422105,0.10012885183095932
2023-01-27 13:47:44.427105,0.08390923528545546
2023-01-27 13:47:44.432105,0.06606340408325193
2023-01-27 13:47:44.437105,0.04735416693556559
2023-01-27 13:47:44.442105,0.02875248715281476
2023-01-27 13:47:44.447105,0.011432010670780018
2023-01-27 13:47:44.452105,-0.0036782026290892856
2023-01-27 13:47:44.457105,-0.01616999806990434
2023-01-27 13:47:44.462105,-0.025891661643981913
2023-01-27 13:47:44.467105,-0.032757683680327145
2023-01-27 13:47:44.472105,-0.03702243417501438
2023-01-27 13:47:44.477105,-0.03940259251494742
2023-01-27 13:47:44.482105,-0.04065255448222164
2023-01-27 13:47:44.487105,-0.04122440335940584
2023-01-27 13:47:44.492105,-0.041445892304182004
2023-01-27 13:47:44.497105,-0.04163422310832497
2023-01-27 13:47:44.502105,-0.041782461106777094
2023-01-27 13:47:44.507105,-0.041478850235254244
2023-01-27 13:47:44.512105,-0.04043618962168692
2023-01-27 13:47:44.517105,-0.03886217243354806
2023-01-27 13:47:44.522105,-0.03711859509348862
2023-01-27 13:47:44.527105,-0.03533667836980412
2023-01-27 13:47:44.532105,-0.0335846357047557
2023-01-27 13:47:44.537105,-0.03204950992856263
2023-01-27 13:47:44.542105,-0.03074785135686391
2023-01-27 13:47:44.547105,-0.029350683845880098
2023-01-27 13:47:44.552105,-0.027598541229963254
2023-01-27 13:47:44.557105,-0.025661262803418367
2023-01-27 13:47:44.562105,-0.023872256278991567
2023-01-27 13:47:44.567105,-0.02240393825912253
2023-01-27 13:47:44.572105,-0.021444162353873194
2023-01-27 13:47:44.577105,-0.02136281519854057
2023-01-27 13:47:44.582105,-0.02238174341619005
2023-01-27 13:47:44.587105,-0.02430733343483362
2023-01-27 13:47:44.592105,-0.026829242706298762
2023-01-27 13:47:44.597105,-0.02981923402274365
2023-01-27 13:47:44.602105,-0.0331038236618041
2023-01-27 13:47:44.607105,-0.036247385385516126
2023-01-27 13:47:44.612105,-0.03884951397776599
2023-01-27 13:47:44.617105,-0.0408139856770716
2023-01-27 13:47:44.622105,-0.042094986885786
2023-01-27 13:47:44.627105,-0.042476417385255795
2023-01-27 13:47:44.632105,-0.041878622025251264
2023-01-27 13:47:44.637105,-0.040616683215028045
2023-01-27 13:47:44.642105,-0.03908991813659653
2023-01-27 13:47:44.647105,-0.03746926725327149
2023-01-27 13:47:44.652105,-0.03591656684875475
2023-01-27 13:47:44.657105,-0.03479140138368821
2023-01-27 13:47:44.662105,-0.03432989120483389
2023-01-27 13:47:44.667105,-0.03435453535507698
2023-01-27 13:47:44.672105,-0.03454625606536857
2023-01-27 13:47:44.677105,-0.03473515127214945
2023-01-27 13:47:44.682105,-0.03469049930572498
2023-01-27 13:47:44.687105,-0.033951745597552825
2023-01-27 13:47:44.692105,-0.0321902856230735
2023-01-27 13:47:44.697105,-0.029502092207984786
2023-01-27 13:47:44.702105,-0.026083987206220606
2023-01-27 13:47:44.707105,-0.021878506003235532
2023-01-27 13:47:44.712105,-0.016780298203229845
2023-01-27 13:47:44.717105,-0.010909091626389976
2023-01-27 13:47:44.722105,-0.004447500221431198
2023-01-27 13:47:44.727105,0.0024317810723821936
2023-01-27 13:47:44.732105,0.009135405533015747
2023-01-27 13:47:44.737105,0.014429645420133216
2023-01-27 13:47:44.742105,0.017020702362060512
2023-01-27 13:47:44.747105,0.016242389985564158
2023-01-27 13:47:44.752105,0.012092391960322791
2023-01-27 13:47:44.757105,0.0050445181561183505
2023-01-27 13:47:44.762105,-0.003822445869445772
2023-01-27 13:47:44.767105,-0.012881619543366469
2023-01-27 13:47:44.772105,-0.02065082453191278
2023-01-27 13:47:44.777105,-0.026406466178307025
2023-01-27 13:47:44.782105,-0.030026635155081634
2023-01-27 13:47:44.787105,-0.031613364049381205
2023-01-27 13:47:44.792105,-0.03156523033976547
2023-01-27 13:47:44.797105,-0.030673114894710536
2023-01-27 13:47:44.802105,-0.029762189835309844
2023-01-27 13:47:44.807105,-0.02944430991008767
2023-01-27 13:47:44.812105,-0.030411284416913823
2023-01-27 13:47:44.817105,-0.03346193848423589
2023-01-27 13:47:44.822105,-0.03856102749705306
2023-01-27 13:47:44.827105,-0.04371369049962317
2023-01-27 13:47:44.832105,-0.0447875261306762
2023-01-27 13:47:44.837105,-0.03634069066587387
2023-01-27 13:47:44.842105,-0.013198256492614703
2023-01-27 13:47:44.847105,0.02701027567596308
2023-01-27 13:47:44.852105,0.0809685438871383
2023-01-27 13:47:44.857105,0.138635332109601
2023-01-27 13:47:44.862105,0.18566510081291188
2023-01-27 13:47:44.867105,0.20829637136517706
2023-01-27 13:47:44.872105,0.19831041991710663
2023-01-27 13:47:44.877105,0.15631492870234595
2023-01-27 13:47:44.882105,0.09219547361135479
2023-01-27 13:47:44.887105,0.021862861247975027
2023-01-27 13:47:44.892105,-0.03877739235758777
2023-01-27 13:47:44.897105,-0.07937473744993988
2023-01-27 13:47:44.902105,-0.09734015166759487
2023-01-27 13:47:44.907105,-0.09671007891295037
2023-01-27 13:47:44.912105,-0.08529584109783168
2023-01-27 13:47:44.917105,-0.07122781389216179
2023-01-27 13:47:44.922105,-0.05988498777151101
2023-01-27 13:47:44.927105,-0.05278386330533758
2023-01-27 13:47:44.932105,-0.048898458480834905
2023-01-27 13:47:44.937105,-0.046638770193442515
2023-01-27 13:47:44.942105,-0.04471540451049796
2023-01-27 13:47:44.947105,-0.04225838737181937
2023-01-27 13:47:44.952105,-0.03913800045847887
2023-01-27 13:47:44.957105,-0.03599673486356286
2023-01-27 13:47:44.962105,-0.033416353166103314
2023-01-27 13:47:44.967105,-0.03125864653700585
2023-01-27 13:47:44.972105,-0.02913713455200192
2023-01-27 13:47:44.977105,-0.02702344054079761
2023-01-27 13:47:44.982105,-0.024881958961486816
2023-01-27 13:47:44.987105,-0.02223145472570666
2023-01-27 13:47:44.992105,-0.01870354078710072
2023-01-27 13:47:44.997105,-0.014603244753258566
2023-01-27 13:47:45.002105,-0.0103133916854858
2023-01-27 13:47:45.007105,-0.005613611685335134
2023-01-27 13:47:45.012105,-0.00021636486053460164
2023-01-27 13:47:45.017105,0.0055617348164844335
2023-01-27 13:47:45.022105,0.011395215988159072
2023-01-27 13:47:45.027105,0.017682943280814257
2023-01-27 13:47:45.032105,0.024906000122427864
2023-01-27 13:47:45.037105,0.03283284012365791
2023-01-27 13:47:45.042105,0.04125356674194329
2023-01-27 13:47:45.047105,0.05088438376661417
2023-01-27 13:47:45.052105,0.062457323074340744
2023-01-27 13:47:45.057105,0.07543042261361045
2023-01-27 13:47:45.062105,0.08870959281921378
2023-01-27 13:47:45.067105,0.10201078160469391
2023-01-27 13:47:45.072105,0.11513014882802959
2023-01-27 13:47:45.077105,0.12652517146952572
2023-01-27 13:47:45.082105,0.13445875048637385
2023-01-27 13:47:45.087105,0.13924260103791483
2023-01-27 13:47:45.092105,0.14232000708580006
2023-01-27 13:47:45.097105,0.1431805583393381
2023-01-27 13:47:45.102105,0.13955533504486076
2023-01-27 13:47:45.107105,0.13121202440058388
2023-01-27 13:47:45.112105,0.12111624330282203
2023-01-27 13:47:45.117105,0.1115731432868701
2023-01-27 13:47:45.122105,0.10133087635040272
2023-01-27 13:47:45.127105,0.08825385816337382
2023-01-27 13:47:45.132105,0.07317940890789028
2023-01-27 13:47:45.137105,0.058989685547106395
2023-01-27 13:47:45.142105,0.046927135437726905
2023-01-27 13:47:45.147105,0.036040596074074414
2023-01-27 13:47:45.152105,0.02574741840362543
2023-01-27 13:47:45.157105,0.01675235438577056
2023-01-27 13:47:45.162105,0.009375810623168869
2023-01-27 13:47:45.167105,0.0028557320598147176
2023-01-27 13:47:45.172105,-0.003245472908019991
2023-01-27 13:47:45.177105,-0.008339687052574641
2023-01-27 13:47:45.182105,-0.011972188949584898
2023-01-27 13:47:45.187105,-0.014547338900552728
2023-01-27 13:47:45.192105,-0.01646777056157578
2023-01-27 13:47:45.197105,-0.017539135458129032
2023-01-27 13:47:45.202105,-0.017693838104605574
2023-01-27 13:47:45.207105,-0.017484101222014957
2023-01-27 13:47:45.212105,-0.01740535162389264
2023-01-27 13:47:45.217105,-0.017404532166817137
2023-01-27 13:47:45.222105,-0.017429392784833873
2023-01-27 13:47:45.227105,-0.017809674167788545
2023-01-27 13:47:45.232105,-0.01867949962615958
2023-01-27 13:47:45.237105,-0.01955475632109469
2023-01-27 13:47:45.242105,-0.019857486709952264
2023-01-27 13:47:45.247105,-0.01942433547601162
2023-01-27 13:47:45.252105,-0.0182467699050903
2023-01-27 13:47:45.257105,-0.01623684751682421
2023-01-27 13:47:45.262105,-0.013606945984065475
2023-01-27 13:47:45.267105,-0.011057569905195895
2023-01-27 13:47:45.272105,-0.009231567382812462
2023-01-27 13:47:45.277105,-0.008271736237352357
2023-01-27 13:47:45.282105,-0.008101662620901999
2023-01-27 13:47:45.287105,-0.008718441336901814
2023-01-27 13:47:45.292105,-0.009928743354976073
2023-01-27 13:47:45.297105,-0.011177957424270024
2023-01-27 13:47:45.302105,-0.011972188949584918
2023-01-27 13:47:45.307105,-0.012227299790527932
2023-01-27 13:47:45.312105,-0.012020270340144553
2023-01-27 13:47:45.317105,-0.011342622423916798
2023-01-27 13:47:45.322105,-0.010337432846426874
2023-01-27 13:47:45.327105,-0.009440626946095553
2023-01-27 13:47:45.332105,-0.008991162292659173
2023-01-27 13:47:45.337105,-0.008934384214992543
2023-01-27 13:47:45.342105,-0.009111365303397132
2023-01-27 13:47:45.347105,-0.009556737723804729
2023-01-27 13:47:45.352105,-0.010289351455867176
2023-01-27 13:47:45.357105,-0.0110857581269233
2023-01-27 13:47:45.362105,-0.011683702468872013
2023-01-27 13:47:45.367105,-0.01193815801642563
2023-01-27 13:47:45.372105,-0.011563500389456683
2023-01-27 13:47:45.377105,-0.010038042682824481
2023-01-27 13:47:45.382105,-0.007091959472745595
2023-01-27 13:47:45.387105,-0.003146862381677844
2023-01-27 13:47:45.392105,0.000889500021003163
2023-01-27 13:47:45.397105,0.00403895676119411
2023-01-27 13:47:45.402105,0.005361040588468304
2023-01-27 13:47:45.407105,0.004087149310928256
2023-01-27 13:47:45.412105,7.212162017818949e-05
2023-01-27 13:47:45.417105,-0.006009710276587285
2023-01-27 13:47:45.422105,-0.013150176033377576
2023-01-27 13:47:45.427105,-0.020559809130780708
2023-01-27 13:47:45.432105,-0.027670662850141428
2023-01-27 13:47:45.437105,-0.03398549509607253
2023-01-27 13:47:45.442105,-0.0392582044005393
2023-01-27 13:47:45.447105,-0.04360038291835866
2023-01-27 13:47:45.452105,-0.047119460999965536
2023-01-27 13:47:45.457105,-0.04963786062063348
2023-01-27 13:47:45.462105,-0.05101402848958956
2023-01-27 13:47:45.467105,-0.05154680311072847
2023-01-27 13:47:45.472105,-0.051855444908141986
2023-01-27 13:47:45.477105,-0.05258697174396773
2023-01-27 13:47:45.482105,-0.05435566231608388
2023-01-27 13:47:45.487105,-0.05739121017158738
2023-01-27 13:47:45.492105,-0.06051003932952882
2023-01-27 13:47:45.497105,-0.060332786098164316
2023-01-27 13:47:45.502105,-0.05190352723002426
2023-01-27 13:47:45.507105,-0.03058036274293968
2023-01-27 13:47:45.512105,0.005697607994079546
2023-01-27 13:47:45.517105,0.0543487642415576
2023-01-27 13:47:45.522105,0.10707657039165486
2023-01-27 13:47:45.527105,0.1512059994454191
2023-01-27 13:47:45.532105,0.1738611906766891
2023-01-27 13:47:45.537105,0.16704543909473446
2023-01-27 13:47:45.542105,0.13085266947746266
2023-01-27 13:47:45.547105,0.07357170821534402
2023-01-27 13:47:45.552105,0.008991162292659225
2023-01-27 13:47:45.557105,-0.04829835689117613
2023-01-27 13:47:45.562105,-0.08798837661743159
2023-01-27 13:47:45.567105,-0.10693903433014544
2023-01-27 13:47:45.572105,-0.10839879512786854
2023-01-27 13:47:45.577105,-0.09888965891310991
2023-01-27 13:47:45.582105,-0.08517563343048079
2023-01-27 13:47:45.587105,-0.0722794405094277
2023-01-27 13:47:45.592105,-0.0624573230743408
2023-01-27 13:47:45.597105,-0.055489734301781404
2023-01-27 13:47:45.602105,-0.05029281228780734
2023-01-27 13:47:45.607105,-0.04634099131253483
2023-01-27 13:47:45.612105,-0.04358550161123271
2023-01-27 13:47:45.617105,-0.04173230184395068
2023-01-27 13:47:45.622105,-0.04031598567962642
2023-01-27 13:47:45.627105,-0.039127312080288995
2023-01-27 13:47:45.632105,-0.037911932915449066
2023-01-27 13:47:45.637105,-0.036004642552106746
2023-01-27 13:47:45.642105,-0.03298362344503401
2023-01-27 13:47:45.647105,-0.029372094573336057
2023-01-27 13:47:45.652105,-0.02596378326416009
2023-01-27 13:47:45.657105,-0.0228042282208091
2023-01-27 13:47:45.662105,-0.019593041390180522
2023-01-27 13:47:45.667105,-0.01656414843715822
2023-01-27 13:47:45.672105,-0.013895432464778394
2023-01-27 13:47:45.677105,-0.010674800510275072
2023-01-27 13:47:45.682105,-0.005721648689359389
2023-01-27 13:47:45.687105,0.000870070000402548
2023-01-27 13:47:45.692105,0.00839014910161494
2023-01-27 13:47:45.697105,0.017331983304491587
2023-01-27 13:47:45.702105,0.028656324371695522
2023-01-27 13:47:45.707105,0.04123582410622176
2023-01-27 13:47:45.712105,0.05236029624938952
2023-01-27 13:47:45.717105,0.06160131885141624
2023-01-27 13:47:45.722105,0.0719533413648605
2023-01-27 13:47:45.727105,0.08560021377007061
2023-01-27 13:47:45.732105,0.100297138094902
2023-01-27 13:47:45.737105,0.11187442088970694
2023-01-27 13:47:45.742105,0.1190727949142456
2023-01-27 13:47:45.747105,0.1237498644815065
2023-01-27 13:47:45.752105,0.12707829475402826
2023-01-27 13:47:45.757105,0.1279288737069171
2023-01-27 13:47:45.762105,0.12503485381603235
2023-01-27 13:47:45.767105,0.11865980680854031
2023-01-27 13:47:45.772105,0.10957678407430639
2023-01-27 13:47:45.777105,0.09800099646221602
2023-01-27 13:47:45.782105,0.08428613841533653
2023-01-27 13:47:45.787105,0.06954035422799777
2023-01-27 13:47:45.792105,0.05481243133544919
2023-01-27 13:47:45.797105,0.04041599240072225
2023-01-27 13:47:45.802105,0.0265407562255859
2023-01-27 13:47:45.807105,0.013795836785485297
2023-01-27 13:47:45.812105,0.0026684999465941767
2023-01-27 13:47:45.817105,-0.0069288978696768685
2023-01-27 13:47:45.822105,-0.015145540237426728
2023-01-27 13:47:45.827105,-0.02178634219436778
2023-01-27 13:47:45.832105,-0.02680520340800278
2023-01-27 13:47:45.837105,-0.03068323912925958
2023-01-27 13:47:45.842105,-0.033921204507350894
2023-01-27 13:47:45.847105,-0.036575358391521796
2023-01-27 13:47:45.852105,-0.038609109818935325
2023-01-27 13:47:45.857105,-0.04026974090900912
2023-01-27 13:47:45.862105,-0.041782461106777094
2023-01-27 13:47:45.867105,-0.043050027958089467
2023-01-27 13:47:45.872105,-0.043970149010419776
2023-01-27 13:47:45.877105,-0.04471199288764629
2023-01-27 13:47:45.882105,-0.04538854211568831
2023-01-27 13:47:45.887105,-0.04576737504734591
2023-01-27 13:47:45.892105,-0.04558086395263669
2023-01-27 13:47:45.897105,-0.04484766153172311
2023-01-27 13:47:45.902105,-0.04365762323141094
2023-01-27 13:47:45.907105,-0.041934284129153516
2023-01-27 13:47:45.912105,-0.039666891098022364
2023-01-27 13:47:45.917105,-0.037130188398663944
2023-01-27 13:47:45.922105,-0.034642420709133065
2023-01-27 13:47:45.927105,-0.03232568987468858
2023-01-27 13:47:45.932105,-0.030291080474853477
2023-01-27 13:47:45.937105,-0.028800693828382875
2023-01-27 13:47:45.942105,-0.02800722979009152
2023-01-27 13:47:45.947105,-0.027720577761564048
2023-01-27 13:47:45.952105,-0.027622580528259177
2023-01-27 13:47:45.957105,-0.027531937339096126
2023-01-27 13:47:45.962105,-0.027310054749250388
2023-01-27 13:47:45.967105,-0.026747217801481506
2023-01-27 13:47:45.972105,-0.02577145956456655
2023-01-27 13:47:45.977105,-0.02461226189025054
2023-01-27 13:47:45.982105,-0.023559730499982785
2023-01-27 13:47:45.987105,-0.022677204843409328
2023-01-27 13:47:45.992105,-0.021876892074942485
2023-01-27 13:47:45.997105,-0.02110576199974406
2023-01-27 13:47:46.002105,-0.020290216431021604
2023-01-27 13:47:46.007105,-0.019245158713900132
2023-01-27 13:47:46.012105,-0.017814040184020895
2023-01-27 13:47:46.017105,-0.015990790398969355
2023-01-27 13:47:46.022105,-0.013751189224421926
2023-01-27 13:47:46.027105,-0.010860019139314971
2023-01-27 13:47:46.032105,-0.0069957971572874676
2023-01-27 13:47:46.037105,-0.0020282671309744165
2023-01-27 13:47:46.042105,0.003870527027174776
2023-01-27 13:47:46.047105,0.010234247626014005
2023-01-27 13:47:46.052105,0.016275446861982304
2023-01-27 13:47:46.057105,0.02095611820856674
2023-01-27 13:47:46.062105,0.023295283317565814
2023-01-27 13:47:46.067105,0.02271353695490212
2023-01-27 13:47:46.072105,0.019160311669111176
2023-01-27 13:47:46.077105,0.013070308428789956
2023-01-27 13:47:46.082105,0.00528891896829
2023-01-27 13:47:46.087105,-0.0030804190715275344
2023-01-27 13:47:46.092105,-0.010962486267089781
2023-01-27 13:47:46.097105,-0.017586770599683783
2023-01-27 13:47:46.102105,-0.022598108276724788
2023-01-27 13:47:46.107105,-0.02602205601494124
2023-01-27 13:47:46.112105,-0.028151473030447842
2023-01-27 13:47:46.117105,-0.029366637612952724
2023-01-27 13:47:46.122105,-0.02997855469584459
2023-01-27 13:47:46.127105,-0.030260343391531108
2023-01-27 13:47:46.132105,-0.030651688575744563
2023-01-27 13:47:46.137105,-0.03185193440542905
2023-01-27 13:47:46.142105,-0.03449817746877668
2023-01-27 13:47:46.147105,-0.03837882519610161
2023-01-27 13:47:46.152105,-0.04149397462606426
2023-01-27 13:47:46.157105,-0.03961784161399848
2023-01-27 13:47:46.162105,-0.027093689888715706
2023-01-27 13:47:46.167105,0.0009120679068646176
2023-01-27 13:47:46.172105,0.04541258141398421
2023-01-27 13:47:46.177105,0.10132592323002772
2023-01-27 13:47:46.182105,0.15741746127605427
2023-01-27 13:47:46.187105,0.19914829675086138
2023-01-27 13:47:46.192105,0.21369636058807367
2023-01-27 13:47:46.197105,0.1950388213282301
2023-01-27 13:47:46.202105,0.14664730429649345
2023-01-27 13:47:46.207105,0.08046262432737761
2023-01-27 13:47:46.212105,0.01262128353118894
2023-01-27 13:47:46.217105,-0.04219722248392403
2023-01-27 13:47:46.222105,-0.07541517913341517
2023-01-27 13:47:46.227105,-0.08627864375191042
2023-01-27 13:47:46.232105,-0.08024732768535604
2023-01-27 13:47:46.237105,-0.06544962137045965
2023-01-27 13:47:46.242105,-0.04928310960531227
2023-01-27 13:47:46.247105,-0.036412709567280994
2023-01-27 13:47:46.252105,-0.02831975743174547
2023-01-27 13:47:46.257105,-0.024115465282898384
2023-01-27 13:47:46.262105,-0.022045176476240092
2023-01-27 13:47:46.267105,-0.02070007990062706
2023-01-27 13:47:46.272105,-0.019280513748526473
2023-01-27 13:47:46.277105,-0.01735240176396155
2023-01-27 13:47:46.282105,-0.014857053756713838
2023-01-27 13:47:46.287105,-0.012219606913835179
2023-01-27 13:47:46.292105,-0.010000864975154277
2023-01-27 13:47:46.297105,-0.008416461167595968
2023-01-27 13:47:46.302105,-0.007404486648738289
2023-01-27 13:47:46.307105,-0.0068997161445107525
2023-01-27 13:47:46.312105,-0.006587108131498041
2023-01-27 13:47:46.317105,-0.005616390294769885
2023-01-27 13:47:46.322105,-0.0031733512878417067
2023-01-27 13:47:46.327105,0.0007514621200168486
2023-01-27 13:47:46.332105,0.005697607994079486
2023-01-27 13:47:46.337105,0.011595143383579021
2023-01-27 13:47:46.342105,0.018559297546744305
2023-01-27 13:47:46.347105,0.02613584469899275
2023-01-27 13:47:46.352105,0.03387312218546858
2023-01-27 13:47:46.357105,0.04258064245630456
2023-01-27 13:47:46.362105,0.05363444611430161
2023-01-27 13:47:46.367105,0.06670671295215519
2023-01-27 13:47:46.372105,0.07964631170034406
2023-01-27 13:47:46.377105,0.09133184852337725
2023-01-27 13:47:46.382105,0.10320603847503658
2023-01-27 13:47:46.387105,0.11681323731390246
2023-01-27 13:47:46.392105,0.1310209482908248
2023-01-27 13:47:46.397105,0.1432056331239548
2023-01-27 13:47:46.402105,0.15236894786357863
2023-01-27 13:47:46.407105,0.15937917112647446
2023-01-27 13:47:46.412105,0.16455750167369831
2023-01-27 13:47:46.417105,0.1668246977564954
2023-01-27 13:47:46.422105,0.16532680392265303
2023-01-27 13:47:46.427105,0.16034242030937912
2023-01-27 13:47:46.432105,0.15222470462322224
2023-01-27 13:47:46.437105,0.14077908046567558
2023-01-27 13:47:46.442105,0.12623688578605644
2023-01-27 13:47:46.447105,0.10980873123236393
2023-01-27 13:47:46.452105,0.09270032495260228
2023-01-27 13:47:46.457105,0.07536443727518498
2023-01-27 13:47:46.462105,0.05815406888723368
2023-01-27 13:47:46.467105,0.041910126301248206
2023-01-27 13:47:46.472105,0.027382176369428562
2023-01-27 13:47:46.477105,0.014714244953833683
2023-01-27 13:47:46.482105,0.003966689109802185
2023-01-27 13:47:46.487105,-0.0044606762818741215
2023-01-27 13:47:46.492105,-0.010409554466605112
2023-01-27 13:47:46.497105,-0.014463344360579758
2023-01-27 13:47:46.502105,-0.01742939278483388
2023-01-27 13:47:46.507105,-0.019744223756122527
2023-01-27 13:47:46.512105,-0.02170860767364496
2023-01-27 13:47:46.517105,-0.023771237804240085
2023-01-27 13:47:46.522105,-0.026108026504516574
2023-01-27 13:47:46.527105,-0.028299149617312246
2023-01-27 13:47:46.532105,-0.02983431145548814
2023-01-27 13:47:46.537105,-0.03063837395340648
2023-01-27 13:47:46.542105,-0.030819972977042108
2023-01-27 13:47:46.547105,-0.030315918621497472
2023-01-27 13:47:46.552105,-0.029161175712942973
2023-01-27 13:47:46.557105,-0.027769222025986185
2023-01-27 13:47:46.562105,-0.02656479738652699
2023-01-27 13:47:46.567105,-0.02559176828881856
2023-01-27 13:47:46.572105,-0.02476175688207141
2023-01-27 13:47:46.577105,-0.024176920825421933
2023-01-27 13:47:46.582105,-0.023896297439932764
2023-01-27 13:47:46.587105,-0.023673888485300186
2023-01-27 13:47:46.592105,-0.023247202858328774
2023-01-27 13:47:46.597105,-0.022642133456472927
2023-01-27 13:47:46.602105,-0.02192497253417959
2023-01-27 13:47:46.607105,-0.020927778199955244
2023-01-27 13:47:46.612105,-0.0195209197700023
2023-01-27 13:47:46.617105,-0.017933492455091665
2023-01-27 13:47:46.622105,-0.0165398921817541
2023-01-27 13:47:46.627105,-0.015545321170008211
2023-01-27 13:47:46.632105,-0.015097459778189602
2023-01-27 13:47:46.637105,-0.015418249864055353
2023-01-27 13:47:46.642105,-0.016515851020812895
2023-01-27 13:47:46.647105,-0.017969680368877305
2023-01-27 13:47:46.652105,-0.01928051374852647
2023-01-27 13:47:46.657105,-0.02028564696811564
2023-01-27 13:47:46.662105,-0.021059513092040964
2023-01-27 13:47:46.667105,-0.021666901405270653
2023-01-27 13:47:46.672105,-0.022261541336774788
2023-01-27 13:47:46.677105,-0.02317588390050001
2023-01-27 13:47:46.682105,-0.024593472480773926
2023-01-27 13:47:46.687105,-0.02626396027443827
2023-01-27 13:47:46.692105,-0.0277668237686157
2023-01-27 13:47:46.697105,-0.02890631056777917
2023-01-27 13:47:46.702105,-0.029666027054190615
2023-01-27 13:47:46.707105,-0.0299921094467733
2023-01-27 13:47:46.712105,-0.029858350753784083
2023-01-27 13:47:46.717105,-0.02934116776672633
2023-01-27 13:47:46.722105,-0.028343796730041507
2023-01-27 13:47:46.727105,-0.026368290710258317
2023-01-27 13:47:46.732105,-0.022814473137259383
2023-01-27 13:47:46.737105,-0.017467435551692834
2023-01-27 13:47:46.742105,-0.010625919327139806
2023-01-27 13:47:46.747105,-0.003008941968870436
2023-01-27 13:47:46.752105,0.004231135360896564
2023-01-27 13:47:46.757105,0.009625513194151789
2023-01-27 13:47:46.762105,0.01190006732940672
2023-01-27 13:47:46.767105,0.010471064348125773
2023-01-27 13:47:46.772105,0.0054572029039263205
2023-01-27 13:47:46.777105,-0.0025436818341457437
2023-01-27 13:47:46.782105,-0.0125010814517736
2023-01-27 13:47:46.787105,-0.02301118329783323
2023-01-27 13:47:46.792105,-0.03267109394073479
2023-01-27 13:47:46.797105,-0.040486392892226296
2023-01-27 13:47:46.802105,-0.04594147205352781
2023-01-27 13:47:46.807105,-0.04893437108167929
2023-01-27 13:47:46.812105,-0.04986008256673807
2023-01-27 13:47:46.817105,-0.049601031744424755
2023-01-27 13:47:46.822105,-0.049186944961547775
2023-01-27 13:47:46.827105,-0.049472251410898116
2023-01-27 13:47:46.832105,-0.051158271729946116
2023-01-27 13:47:46.837105,-0.05480273158348952
2023-01-27 13:47:46.842105,-0.060365796089172336
2023-01-27 13:47:46.847105,-0.0665243460194412
2023-01-27 13:47:46.852105,-0.07029454410076139
2023-01-27 13:47:46.857105,-0.06719780908246968
2023-01-27 13:47:46.862105,-0.05216797441244116
2023-01-27 13:47:46.867105,-0.021524957167498113
2023-01-27 13:47:46.872105,0.024377107620239258
2023-01-27 13:47:46.877105,0.07938360656033007
2023-01-27 13:47:46.882105,0.1321748942136764
2023-01-27 13:47:46.887105,0.16939247521561743
2023-01-27 13:47:46.892105,0.18006365001201613
2023-01-27 13:47:46.897105,0.159740674223662
2023-01-27 13:47:46.902105,0.11267801374196998
2023-01-27 13:47:46.907105,0.050682913888207955
2023-01-27 13:47:46.912105,-0.011202892288565571
2023-01-27 13:47:46.917105,-0.060043632037086785
2023-01-27 13:47:46.922105,-0.08878171443939199
2023-01-27 13:47:46.927105,-0.09725546181933564
2023-01-27 13:47:46.932105,-0.09075304120779029
2023-01-27 13:47:46.937105,-0.07698307601458457
2023-01-27 13:47:46.942105,-0.06274580955505366
2023-01-27 13:47:46.947105,-0.051881927450308334
2023-01-27 13:47:46.952105,-0.04526833817362773
2023-01-27 13:47:46.957105,-0.04205410290055113
2023-01-27 13:47:46.962105,-0.040820837020873996
2023-01-27 13:47:46.967105,-0.040278571748678854
2023-01-27 13:47:46.972105,-0.03973901271820055
2023-01-27 13:47:46.977105,-0.03920585425280156
2023-01-27 13:47:46.982105,-0.03884951397776597
2023-01-27 13:47:46.987105,-0.03844961019153784
2023-01-27 13:47:46.992105,-0.03757536411285399
2023-01-27 13:47:46.997105,-0.03617083004065102
2023-01-27 13:47:47.002105,-0.03457029908895487
2023-01-27 13:47:47.007105,-0.03293295242813663
2023-01-27 13:47:47.012105,-0.03103633783757678
2023-01-27 13:47:47.017105,-0.02870855046954901
2023-01-27 13:47:47.022105,-0.02610802650451661
2023-01-27 13:47:47.027105,-0.023395346002664894
2023-01-27 13:47:47.032105,-0.020386379212141054
2023-01-27 13:47:47.037105,-0.016723085959340998
2023-01-27 13:47:47.042105,-0.012188553810119572
2023-01-27 13:47:47.047105,-0.006649825605453751
2023-01-27 13:47:47.052105,0.00016828379011712968
2023-01-27 13:47:47.057105,0.008634339452615842
2023-01-27 13:47:47.062105,0.018967986106872513
2023-01-27 13:47:47.067105,0.03114339058074995
2023-01-27 13:47:47.072105,0.044931769371032645
2023-01-27 13:47:47.077105,0.05989741721303429
2023-01-27 13:47:47.082105,0.07541517913341514
2023-01-27 13:47:47.087105,0.09084181338235756
2023-01-27 13:47:47.092105,0.10568221658468237
2023-01-27 13:47:47.097105,0.11953829302335013
2023-01-27 13:47:47.102105,0.1319585293531417
2023-01-27 13:47:47.107105,0.14243175058122812
2023-01-27 13:47:47.112105,0.150493785738945
2023-01-27 13:47:47.117105,0.1557613235717027
2023-01-27 13:47:47.122105,0.15789827704429618
2023-01-27 13:47:47.127105,0.15663577930442296
2023-01-27 13:47:47.132105,0.15181601047515858
2023-01-27 13:47:47.137105,0.14337309414575494
2023-01-27 13:47:47.142105,0.13133347034454337
2023-01-27 13:47:47.147105,0.11594764830006994
2023-01-27 13:47:47.152105,0.09784500300884238
2023-01-27 13:47:47.157105,0.07802687101982107
2023-01-27 13:47:47.162105,0.0577213391661643
2023-01-27 13:47:47.167105,0.03823302129728253
2023-01-27 13:47:47.172105,0.020771026611328097
2023-01-27 13:47:47.177105,0.006187482497621464
2023-01-27 13:47:47.182105,-0.00524083804339169
2023-01-27 13:47:47.187105,-0.013784529390981674
2023-01-27 13:47:47.192105,-0.020025771111249875
2023-01-27 13:47:47.197105,-0.024621104183003173
2023-01-27 13:47:47.202105,-0.028127431869506798
2023-01-27 13:47:47.207105,-0.030844706909281434
2023-01-27 13:47:47.212105,-0.032767258584499276
2023-01-27 13:47:47.217105,-0.03377444727317643
2023-01-27 13:47:47.222105,-0.033921204507350894
2023-01-27 13:47:47.227105,-0.033531562635489655
2023-01-27 13:47:47.232105,-0.03305574506521221
2023-01-27 13:47:47.237105,-0.03291038173640826
2023-01-27 13:47:47.242105,-0.033392310142517014
2023-01-27 13:47:47.247105,-0.03457413961120587
2023-01-27 13:47:47.252105,-0.036229096353053984
2023-01-27 13:47:47.257105,-0.037961851599037345
2023-01-27 13:47:47.262105,-0.03947456926107396
2023-01-27 13:47:47.267105,-0.040667707657728265
2023-01-27 13:47:47.272105,-0.04151801392436013
2023-01-27 13:47:47.277105,-0.041997623690033556
2023-01-27 13:47:47.282105,-0.04214306920766829
2023-01-27 13:47:47.287105,-0.04207362935751991
2023-01-27 13:47:47.292105,-0.04187862202525126
2023-01-27 13:47:47.297105,-0.04157264369780422
2023-01-27 13:47:47.302105,-0.04118144512176506
2023-01-27 13:47:47.307105,-0.04074227471842171
2023-01-27 13:47:47.312105,-0.040171742439269936
2023-01-27 13:47:47.317105,-0.039272137256824186
2023-01-27 13:47:47.322105,-0.03796001523733129
2023-01-27 13:47:47.327105,-0.036406054296528885
2023-01-27 13:47:47.332105,-0.03490686416625966
2023-01-27 13:47:47.337105,-0.03372612479486122
2023-01-27 13:47:47.342105,-0.03307978436350814
2023-01-27 13:47:47.347105,-0.03308949893030944
2023-01-27 13:47:47.352105,-0.03363271802663795
2023-01-27 13:47:47.357105,-0.03435881120295923
2023-01-27 13:47:47.362105,-0.034954946488141965
2023-01-27 13:47:47.367105,-0.0353062994014529
2023-01-27 13:47:47.372105,-0.035363636910915264
2023-01-27 13:47:47.377105,-0.0350404092259842
2023-01-27 13:47:47.382105,-0.0343539342284202
2023-01-27 13:47:47.387105,-0.03351347589103244
2023-01-27 13:47:47.392105,-0.03274321556091299
2023-01-27 13:47:47.397105,-0.03213489232563329
2023-01-27 13:47:47.402105,-0.031733512878417865
2023-01-27 13:47:47.407105,-0.03155430587023345
2023-01-27 13:47:47.412105,-0.03137290477752677
2023-01-27 13:47:47.417105,-0.030701461253892535
2023-01-27 13:47:47.422105,-0.029185216873884205
2023-01-27 13:47:47.427105,-0.02693612415138696
2023-01-27 13:47:47.432105,-0.02437710762023917
2023-01-27 13:47:47.437105,-0.021908579335534948
2023-01-27 13:47:47.442105,-0.01978536508977409
2023-01-27 13:47:47.447105,-0.01801712450661497
2023-01-27 13:47:47.452105,-0.01615524291992175
2023-01-27 13:47:47.457105,-0.01340450500715498
2023-01-27 13:47:47.462105,-0.009255608543753586
2023-01-27 13:47:47.467105,-0.003982325675804214
2023-01-27 13:47:47.472105,0.001538594602607129
2023-01-27 13:47:47.477105,0.006264015397590318
2023-01-27 13:47:47.482105,0.009159445762634163
2023-01-27 13:47:47.487105,0.009385704531899389
2023-01-27 13:47:47.492105,0.006755392067134323
2023-01-27 13:47:47.497105,0.0019052065701837789
2023-01-27 13:47:47.502105,-0.004207094665616647
2023-01-27 13:47:47.507105,-0.01081669380114701
2023-01-27 13:47:47.512105,-0.017261108383536273
2023-01-27 13:47:47.517105,-0.02281028049642808
2023-01-27 13:47:47.522105,-0.026997527107596272
2023-01-27 13:47:47.527105,-0.02989703351590804
2023-01-27 13:47:47.532105,-0.031757555902004186
2023-01-27 13:47:47.537105,-0.032628040071466725
2023-01-27 13:47:47.542105,-0.032671093940734745
2023-01-27 13:47:47.547105,-0.032534777475360745
2023-01-27 13:47:47.552105,-0.033031702041625866
2023-01-27 13:47:47.557105,-0.03472632442246477
2023-01-27 13:47:47.562105,-0.03808021545410149
2023-01-27 13:47:47.567105,-0.0432920277006172
2023-01-27 13:47:47.572105,-0.049042701721191385
2023-01-27 13:47:47.577105,-0.05141670527996769
2023-01-27 13:47:47.582105,-0.04469136521220198
2023-01-27 13:47:47.587105,-0.023555816742469107
2023-01-27 13:47:47.592105,0.014688770286738827
2023-01-27 13:47:47.597105,0.06810195636726778
2023-01-27 13:47:47.602105,0.12837648391723624
2023-01-27 13:47:47.607105,0.18153366143187463
2023-01-27 13:47:47.612105,0.2126385867595671
2023-01-27 13:47:47.617105,0.21201351393850973
2023-01-27 13:47:47.622105,0.1786452531814574
2023-01-27 13:47:47.627105,0.11990299290335633
2023-01-27 13:47:47.632105,0.04952351376414289
2023-01-27 13:47:47.637105,-0.015963249824614934
2023-01-27 13:47:47.642105,-0.06329874694347377
2023-01-27 13:47:47.647105,-0.08812712796880688
2023-01-27 13:47:47.652105,-0.09483993053436264
2023-01-27 13:47:47.657105,-0.09067358873131903
2023-01-27 13:47:47.662105,-0.08070409297943101
2023-01-27 13:47:47.667105,-0.06805912188870786
2023-01-27 13:47:47.672105,-0.05596637725830066
2023-01-27 13:47:47.677105,-0.047060495473729966
2023-01-27 13:47:47.682105,-0.04139780998229976
2023-01-27 13:47:47.687105,-0.037126467738842116
2023-01-27 13:47:47.692105,-0.033127866685390375
2023-01-27 13:47:47.697105,-0.02978673024019822
2023-01-27 13:47:47.702105,-0.027430256828665674
2023-01-27 13:47:47.707105,-0.025491519237582635
2023-01-27 13:47:47.712105,-0.02346356771886342
2023-01-27 13:47:47.717105,-0.021553397288940904
2023-01-27 13:47:47.722105,-0.02000172995030867
2023-01-27 13:47:47.727105,-0.01856601109176518
2023-01-27 13:47:47.732105,-0.0170207023620605
2023-01-27 13:47:47.737105,-0.01550279828692364
2023-01-27 13:47:47.742105,-0.014015635475516243
2023-01-27 13:47:47.747105,-0.01210800651562622
2023-01-27 13:47:47.752105,-0.009351770393550259
2023-01-27 13:47:47.757105,-0.005731336415256687
2023-01-27 13:47:47.762105,-0.0013222297420725083
2023-01-27 13:47:47.767105,0.00404522881792288
2023-01-27 13:47:47.772105,0.010577837936580124
2023-01-27 13:47:47.777105,0.018297267875701247
2023-01-27 13:47:47.782105,0.027237933129072092
2023-01-27 13:47:47.787105,0.037594172721411426
2023-01-27 13:47:47.792105,0.04945139214396467
2023-01-27 13:47:47.797105,0.06254255817029106
2023-01-27 13:47:47.802105,0.07640083879232397
2023-01-27 13:47:47.807105,0.09056761698638326
2023-01-27 13:47:47.812105,0.1045282706618309
2023-01-27 13:47:47.817105,0.11762811143690653
2023-01-27 13:47:47.822105,0.12921790778636924
2023-01-27 13:47:47.827105,0.13880004976325463
2023-01-27 13:47:47.832105,0.1459501236677168
2023-01-27 13:47:47.837105,0.1502049590507186
2023-01-27 13:47:47.842105,0.15114288032054896
2023-01-27 13:47:47.847105,0.14854762143117034
2023-01-27 13:47:47.852105,0.14246425032615653
2023-01-27 13:47:47.857105,0.13316443130847114
2023-01-27 13:47:47.862105,0.121116243302822
2023-01-27 13:47:47.867105,0.10695024763648824
2023-01-27 13:47:47.872105,0.09137809276580806
2023-01-27 13:47:47.877105,0.07508747883050192
2023-01-27 13:47:47.882105,0.05868295952677719
2023-01-27 13:47:47.887105,0.04271504814212074
2023-01-27 13:47:47.892105,0.027742784470319696
2023-01-27 13:47:47.897105,0.0143023460837519
2023-01-27 13:47:47.902105,0.0027646622620522026
2023-01-27 13:47:47.907105,-0.006755517624192076
2023-01-27 13:47:47.912105,-0.014352202415466298
2023-01-27 13:47:47.917105,-0.020284262441826552
2023-01-27 13:47:47.922105,-0.025002162903547186
2023-01-27 13:47:47.927105,-0.029045100208011647
2023-01-27 13:47:47.932105,-0.03274321556091298
2023-01-27 13:47:47.937105,-0.036058125100957246
2023-01-27 13:47:47.942105,-0.038777392357587745
2023-01-27 13:47:47.947105,-0.04075715824749672
2023-01-27 13:47:47.952105,-0.04192670434713355
2023-01-27 13:47:47.957105,-0.04227774814583037
2023-01-27 13:47:47.962105,-0.04202286526560778
2023-01-27 13:47:47.967105,-0.04158273796845729
2023-01-27 13:47:47.972105,-0.04120548814535144
2023-01-27 13:47:47.977105,-0.04071967563602804
2023-01-27 13:47:47.982105,-0.039811134338378844
2023-01-27 13:47:47.987105,-0.03837400193865196
2023-01-27 13:47:47.992105,-0.036469500511884544
2023-01-27 13:47:47.997105,-0.03423396047800088
2023-01-27 13:47:48.002105,-0.032070081681013045
2023-01-27 13:47:48.007105,-0.03064443676474062
2023-01-27 13:47:48.012105,-0.030363202095031624
2023-01-27 13:47:48.017105,-0.031015539999475032
2023-01-27 13:47:48.022105,-0.032142203301191254
2023-01-27 13:47:48.027105,-0.03347848801128067
2023-01-27 13:47:48.032105,-0.034810703247785436
2023-01-27 13:47:48.037105,-0.03580400809620327
2023-01-27 13:47:48.042105,-0.036373339593410416
2023-01-27 13:47:48.047105,-0.036912232375953924
2023-01-27 13:47:48.052105,-0.03776768967509256
2023-01-27 13:47:48.057105,-0.03879353187395476
2023-01-27 13:47:48.062105,-0.039763055741786874
2023-01-27 13:47:48.067105,-0.04080233872578287
2023-01-27 13:47:48.072105,-0.04197478294372545
2023-01-27 13:47:48.077105,-0.04286886360785517
2023-01-27 13:47:48.082105,-0.04310468956828108
2023-01-27 13:47:48.087105,-0.04283767281314265
2023-01-27 13:47:48.092105,-0.042263269424438366
2023-01-27 13:47:48.097105,-0.041114628534743236
2023-01-27 13:47:48.102105,-0.03923416137695312
2023-01-27 13:47:48.107105,-0.03712860481516444
2023-01-27 13:47:48.112105,-0.03529151529073708
2023-01-27 13:47:48.117105,-0.03345907486992752
2023-01-27 13:47:48.122105,-0.03118058107793334
2023-01-27 13:47:48.127105,-0.028538254430205124
2023-01-27 13:47:48.132105,-0.02557913586497297
2023-01-27 13:47:48.137105,-0.021735207132339833
2023-01-27 13:47:48.142105,-0.016756257042288742
2023-01-27 13:47:48.147105,-0.011649798300272494
2023-01-27 13:47:48.152105,-0.007789134979248026
2023-01-27 13:47:48.157105,-0.005717150387601742
2023-01-27 13:47:48.162105,-0.005697607994079486
2023-01-27 13:47:48.167105,-0.008489238592082329
2023-01-27 13:47:48.172105,-0.014256040565669469
2023-01-27 13:47:48.177105,-0.0214673049499225
2023-01-27 13:47:48.182105,-0.028247635811567286
2023-01-27 13:47:48.187105,-0.03411965790754844
2023-01-27 13:47:48.192105,-0.03916203975677491
2023-01-27 13:47:48.197105,-0.04257421920711025
2023-01-27 13:47:48.202105,-0.04384994506835929
2023-01-27 13:47:48.207105,-0.044327852721232325
2023-01-27 13:47:48.212105,-0.0455087423324584
2023-01-27 13:47:48.217105,-0.04678715157091857
2023-01-27 13:47:48.222105,-0.04707137867808337
2023-01-27 13:47:48.227105,-0.04751371400240822
2023-01-27 13:47:48.232105,-0.04990816116332996
2023-01-27 13:47:48.237105,-0.0534724012201616
2023-01-27 13:47:48.242105,-0.05632698535919184
2023-01-27 13:47:48.247105,-0.058673995546172295
2023-01-27 13:47:48.252105,-0.05995710939168928
2023-01-27 13:47:48.257105,-0.05370816516628353
2023-01-27 13:47:48.262105,-0.03134886547923078
2023-01-27 13:47:48.267105,0.0073120435709472615
2023-01-27 13:47:48.272105,0.052528582513332325
2023-01-27 13:47:48.277105,0.09518676312532523
2023-01-27 13:47:48.282105,0.13279995322227467
2023-01-27 13:47:48.287105,0.16164395279347182
2023-01-27 13:47:48.292105,0.16982237994670857
2023-01-27 13:47:48.297105,0.14597705803380456
2023-01-27 13:47:48.302105,0.09306093305349339
2023-01-27 13:47:48.307105,0.027716215397092042
2023-01-27 13:47:48.312105,-0.03286341950297348
2023-01-27 13:47:48.317105,-0.0789004672508458
2023-01-27 13:47:48.322105,-0.10577838122844682
2023-01-27 13:47:48.327105,-0.11214503170332575
2023-01-27 13:47:48.332105,-0.1024848222732543
2023-01-27 13:47:48.337105,-0.08629278145584819
2023-01-27 13:47:48.342105,-0.0714244470000267
2023-01-27 13:47:48.347105,-0.06016818112358625
2023-01-27 13:47:48.352105,-0.05219201371073718
2023-01-27 13:47:48.357105,-0.04765010374654077
2023-01-27 13:47:48.362105,-0.04591743275523176
2023-01-27 13:47:48.367105,-0.04459733364656748
2023-01-27 13:47:48.372105,-0.042070947587489964
2023-01-27 13:47:48.377105,-0.03914590798109023
2023-01-27 13:47:48.382105,-0.03683010861277576
2023-01-27 13:47:48.387105,-0.03449410553788323
2023-01-27 13:47:48.392105,-0.03151714801788327
2023-01-27 13:47:48.397105,-0.028734322308481396
2023-01-27 13:47:48.402105,-0.026805203408002777
2023-01-27 13:47:48.407105,-0.024832773175932767
2023-01-27 13:47:48.412105,-0.021924972534179587
2023-01-27 13:47:48.417105,-0.018613144463001594
2023-01-27 13:47:48.422105,-0.01553018949925884
2023-01-27 13:47:48.427105,-0.012146128220971792
2023-01-27 13:47:48.432105,-0.0079814596101641
2023-01-27 13:47:48.437105,-0.0036784961192769714
2023-01-27 13:47:48.442105,0.0003365675802342167
2023-01-27 13:47:48.447105,0.0050474123495017195
2023-01-27 13:47:48.452105,0.011611580848693796
2023-01-27 13:47:48.457105,0.02004189861478201
2023-01-27 13:47:48.462105,0.030050676316022793
2023-01-27 13:47:48.467105,0.04197857742418988
2023-01-27 13:47:48.472105,0.055798094719648264
2023-01-27 13:47:48.477105,0.07024207205558233
2023-01-27 13:47:48.482105,0.08397360891103739
2023-01-27 13:47:48.487105,0.09673953187848626
2023-01-27 13:47:48.492105,0.10851900279521937
2023-01-27 13:47:48.497105,0.11853523839386745
2023-01-27 13:47:48.502105,0.1260445564985274
2023-01-27 13:47:48.507105,0.1311822388515207
2023-01-27 13:47:48.512105,0.13409814238548262
2023-01-27 13:47:48.517105,0.13409034824023447
2023-01-27 13:47:48.522105,0.1304680109024046
2023-01-27 13:47:48.527105,0.12348880147876964
2023-01-27 13:47:48.532105,0.11366367340087885
2023-01-27 13:47:48.537105,0.10099233973923402
2023-01-27 13:47:48.542105,0.08575260639190663
2023-01-27 13:47:48.547105,0.06928654638543834
2023-01-27 13:47:48.552105,0.05315363407134994
2023-01-27 13:47:48.557105,0.038135171637847604
2023-01-27 13:47:48.562105,0.024713676422834254
2023-01-27 13:47:48.567105,0.01368120432235363
2023-01-27 13:47:48.572105,0.005409121513366586
2023-01-27 13:47:48.577105,-0.0008207490746493846
2023-01-27 13:47:48.582105,-0.005962054245173841
2023-01-27 13:47:48.587105,-0.010246725414507067
2023-01-27 13:47:48.592105,-0.013679067604243674
2023-01-27 13:47:48.597105,-0.01672774491601984
2023-01-27 13:47:48.602105,-0.019761323928832956
2023-01-27 13:47:48.607105,-0.022431245021485052
2023-01-27 13:47:48.612105,-0.02435306832194318
2023-01-27 13:47:48.617105,-0.02582936899845651
2023-01-27 13:47:48.622105,-0.027237933129072075
2023-01-27 13:47:48.627105,-0.028309097596588704
2023-01-27 13:47:48.632105,-0.028680365532636545
2023-01-27 13:47:48.637105,-0.028581942373839514
2023-01-27 13:47:48.642105,-0.028319757431745467
2023-01-27 13:47:48.647105,-0.02766873700743158
2023-01-27 13:47:48.652105,-0.026444595307111643
2023-01-27 13:47:48.657105,-0.025115398807415194
2023-01-27 13:47:48.662105,-0.02418478392064567
2023-01-27 13:47:48.667105,-0.023489701283269968
2023-01-27 13:47:48.672105,-0.022718310356140036
2023-01-27 13:47:48.677105,-0.022073982014437662
2023-01-27 13:47:48.682105,-0.021804770454764293
2023-01-27 13:47:48.687105,-0.021616216497809527
2023-01-27 13:47:48.692105,-0.021179717034101375
2023-01-27 13:47:48.697105,-0.020712509842884898
2023-01-27 13:47:48.702105,-0.020458500832319183
2023-01-27 13:47:48.707105,-0.020128226302309905
2023-01-27 13:47:48.712105,-0.019472837448120076
2023-01-27 13:47:48.717105,-0.018903460362563008
2023-01-27 13:47:48.722105,-0.018919905647635366
2023-01-27 13:47:48.727105,-0.019390886702002445
2023-01-27 13:47:48.732105,-0.019953649491071652
2023-01-27 13:47:48.737105,-0.020596293491122155
2023-01-27 13:47:48.742105,-0.021251838654279674
2023-01-27 13:47:48.747105,-0.021360434361349247
2023-01-27 13:47:48.752105,-0.020506581291556265
2023-01-27 13:47:48.757105,-0.01905433067304809
2023-01-27 13:47:48.762105,-0.01754959486424917
2023-01-27 13:47:48.767105,-0.015926641481923836
2023-01-27 13:47:48.772105,-0.013847351074218719
2023-01-27 13:47:48.777105,-0.011309685682904663
2023-01-27 13:47:48.782105,-0.008318027481436705
2023-01-27 13:47:48.787105,-0.0044800057508539185
2023-01-27 13:47:48.792105,0.0003606081008910837
2023-01-27 13:47:48.797105,0.005465499847938652
2023-01-27 13:47:48.802105,0.009760459885001094
2023-01-27 13:47:48.807105,0.012646279158729725
2023-01-27 13:47:48.812105,0.013751189224421902
2023-01-27 13:47:48.817105,0.01246836481609063
2023-01-27 13:47:48.822105,0.008486310951411674
2023-01-27 13:47:48.827105,0.0023972746510281953
2023-01-27 13:47:48.832105,-0.0048561892472207095
2023-01-27 13:47:48.837105,-0.012740522826660668
2023-01-27 13:47:48.842105,-0.020771026611328104
2023-01-27 13:47:48.847105,-0.02795608330124223
2023-01-27 13:47:48.852105,-0.03339231014251699
2023-01-27 13:47:48.857105,-0.03703897383738148
2023-01-27 13:47:48.862105,-0.03921012207865707
2023-01-27 13:47:48.867105,-0.03977065991638867
2023-01-27 13:47:48.872105,-0.03868123143911352
2023-01-27 13:47:48.877105,-0.03695755699410098
2023-01-27 13:47:48.882105,-0.03613293170928948
2023-01-27 13:47:48.887105,-0.036899390322257135
2023-01-27 13:47:48.892105,-0.03896971791982646
2023-01-27 13:47:48.897105,-0.041782481506087245
2023-01-27 13:47:48.902105,-0.04399418830871578
2023-01-27 13:47:48.907105,-0.042017030468527006
2023-01-27 13:47:48.912105,-0.03019491955637926
2023-01-27 13:47:48.917105,-0.0035643238823648317
2023-01-27 13:47:48.922105,0.03877739235758776
2023-01-27 13:47:48.927105,0.09181557279159022
2023-01-27 13:47:48.932105,0.14486829936504358
2023-01-27 13:47:48.937105,0.1840814331555529
2023-01-27 13:47:48.942105,0.197060316801071
2023-01-27 13:47:48.947105,0.17795018313736038
2023-01-27 13:47:48.952105,0.13015548884868613
2023-01-27 13:47:48.957105,0.06523172647423446
2023-01-27 13:47:48.962105,-0.001226067543029688
2023-01-27 13:47:48.967105,-0.054879008624064224
2023-01-27 13:47:48.972105,-0.08721908181905735
2023-01-27 13:47:48.977105,-0.09752372079064324
2023-01-27 13:47:48.982105,-0.09133001416921604
2023-01-27 13:47:48.987105,-0.0767469672211119
2023-01-27 13:47:48.992105,-0.06101489067077629
2023-01-27 13:47:48.997105,-0.04861814826315609
2023-01-27 13:47:49.002105,-0.04086891934275613
2023-01-27 13:47:49.007105,-0.036680453503267235
2023-01-27 13:47:49.012105,-0.034161608666181516
2023-01-27 13:47:49.017105,-0.032011014986673934
2023-01-27 13:47:49.022105,-0.029810270294547005
2023-01-27 13:47:49.027105,-0.0275758860945562
2023-01-27 13:47:49.032105,-0.025482973083853697
2023-01-27 13:47:49.037105,-0.02382084497100532
2023-01-27 13:47:49.042105,-0.022742351517081188
2023-01-27 13:47:49.047105,-0.022021356757675865
2023-01-27 13:47:49.052105,-0.02127587795257557
2023-01-27 13:47:49.057105,-0.020325100405594595
2023-01-27 13:47:49.062105,-0.019112229347228952
2023-01-27 13:47:49.067105,-0.017469460757829843
2023-01-27 13:47:49.072105,-0.015265743248164577
2023-01-27 13:47:49.077105,-0.012641426254484294
2023-01-27 13:47:49.082105,-0.00978450011461972
2023-01-27 13:47:49.087105,-0.006562432046605967
2023-01-27 13:47:49.092105,-0.0025963783264159822
2023-01-27 13:47:49.097105,0.002472242117215766
2023-01-27 13:47:49.102105,0.009039243683218927
2023-01-27 13:47:49.107105,0.0176323474481374
2023-01-27 13:47:49.112105,0.028560161590576096
2023-01-27 13:47:49.117105,0.04150579542749403
2023-01-27 13:47:49.122105,0.05567789077758777
2023-01-27 13:47:49.127105,0.07022185028710468
2023-01-27 13:47:49.132105,0.08428613841533654
2023-01-27 13:47:49.137105,0.09695956376354044
2023-01-27 13:47:49.142105,0.10755737870931614
2023-01-27 13:47:49.147105,0.1159229610746548
2023-01-27 13:47:49.152105,0.12219806760549536
2023-01-27 13:47:49.157105,0.12639349074576078
2023-01-27 13:47:49.162105,0.12837648391723622
2023-01-27 13:47:49.167105,0.12805572584727606
2023-01-27 13:47:49.172105,0.12525121867656697
2023-01-27 13:47:49.177105,0.11952528100019837
2023-01-27 13:47:49.182105,0.11049032211303703
2023-01-27 13:47:49.187105,0.09826409738505994
2023-01-27 13:47:49.192105,0.08344471454620356
2023-01-27 13:47:49.197105,0.0668014355593392
2023-01-27 13:47:49.202105,0.04923502728342995
2023-01-27 13:47:49.207105,0.031844552774649114
2023-01-27 13:47:49.212105,0.015650391578674303
2023-01-27 13:47:49.217105,0.0012415927206800177
2023-01-27 13:47:49.222105,-0.011130770668387401
2023-01-27 13:47:49.227105,-0.021255980571009282
2023-01-27 13:47:49.232105,-0.029016932472586594
2023-01-27 13:47:49.237105,-0.03462923656457475
2023-01-27 13:47:49.242105,-0.03856102749705309
2023-01-27 13:47:49.247105,-0.04127062827593632
2023-01-27 13:47:49.252105,-0.0432008504867553
2023-01-27 13:47:49.257105,-0.04486949090448707
2023-01-27 13:47:49.262105,-0.04666268825530998
2023-01-27 13:47:49.267105,-0.048568987264114336
2023-01-27 13:47:49.272105,-0.05031685158610336
2023-01-27 13:47:49.277105,-0.05171096445826034
2023-01-27 13:47:49.282105,-0.052672825753688736
2023-01-27 13:47:49.287105,-0.053098181116143395
2023-01-27 13:47:49.292105,-0.052937269210815374
2023-01-27 13:47:49.297105,-0.05236153444769925
2023-01-27 13:47:49.302105,-0.05163908004760737
2023-01-27 13:47:49.307105,-0.05088647822895735
2023-01-27 13:47:49.312105,-0.05010048672556865
2023-01-27 13:47:49.317105,-0.04933942412590331
2023-01-27 13:47:49.322105,-0.0486820936203002
2023-01-27 13:47:49.327105,-0.048088625700984586
2023-01-27 13:47:49.332105,-0.0475041083991527
2023-01-27 13:47:49.337105,-0.047055272816260506
2023-01-27 13:47:49.342105,-0.04697521775960922
2023-01-27 13:47:49.347105,-0.04737232763417202
2023-01-27 13:47:49.352105,-0.04820128530263899
2023-01-27 13:47:49.357105,-0.04937367233878866
2023-01-27 13:47:49.362105,-0.05072554200887677
2023-01-27 13:47:49.367105,-0.051936771588135484
2023-01-27 13:47:49.372105,-0.05267282575368879
2023-01-27 13:47:49.377105,-0.05282876261216955
2023-01-27 13:47:49.382105,-0.052552621811628286
2023-01-27 13:47:49.387105,-0.052076459532308536
2023-01-27 13:47:49.392105,-0.05161504074931139
2023-01-27 13:47:49.397105,-0.05134923703517656
2023-01-27 13:47:49.402105,-0.05135059356689449
2023-01-27 13:47:49.407105,-0.05151148122285591
2023-01-27 13:47:49.412105,-0.051639080047607366
2023-01-27 13:47:49.417105,-0.05163105592362125
2023-01-27 13:47:49.422105,-0.05151887983083715
2023-01-27 13:47:49.427105,-0.05135721002565526
2023-01-27 13:47:49.432105,-0.05111018940806377
2023-01-27 13:47:49.437105,-0.05062975408158125
2023-01-27 13:47:49.442105,-0.04971583932638163
2023-01-27 13:47:49.447105,-0.04821221131056143
2023-01-27 13:47:49.452105,-0.04608571529388416
2023-01-27 13:47:49.457105,-0.0434671514295735
2023-01-27 13:47:49.462105,-0.040652554482221624
2023-01-27 13:47:49.467105,-0.03799918326909471
2023-01-27 13:47:49.472105,-0.03567616268992417
2023-01-27 13:47:49.477105,-0.033472088631820864
2023-01-27 13:47:49.482105,-0.030916135758161517
2023-01-27 13:47:49.487105,-0.027563251171107455
2023-01-27 13:47:49.492105,-0.023078918457031222
2023-01-27 13:47:49.497105,-0.017230556264845886
2023-01-27 13:47:49.502105,-0.010169148445129353
2023-01-27 13:47:49.507105,-0.002728876017389711
2023-01-27 13:47:49.512105,0.003918608184903748
2023-01-27 13:47:49.517105,0.008944475043886454
2023-01-27 13:47:49.522105,0.011827945709228509
2023-01-27 13:47:49.527105,0.011789737350772753
2023-01-27 13:47:49.532105,0.008125702850520578
2023-01-27 13:47:49.537105,0.0014231389321401763
2023-01-27 13:47:49.542105,-0.006418824195861811
2023-01-27 13:47:49.547105,-0.014037798313448794
2023-01-27 13:47:49.552105,-0.021780729293823204
2023-01-27 13:47:49.557105,-0.030253848730375062
2023-01-27 13:47:49.562105,-0.03841678425669667
2023-01-27 13:47:49.567105,-0.04429473022372572
2023-01-27 13:47:49.572105,-0.04726370424032209
2023-01-27 13:47:49.577105,-0.04843863091213131
2023-01-27 13:47:49.582105,-0.04892250150442118
2023-01-27 13:47:49.587105,-0.04895517020969013
2023-01-27 13:47:49.592105,-0.04897058010101311
2023-01-27 13:47:49.597105,-0.05018508023773073
2023-01-27 13:47:49.602105,-0.05339404195547099
2023-01-27 13:47:49.607105,-0.05772969443378185
2023-01-27 13:47:49.612105,-0.060750447213649694
2023-01-27 13:47:49.617105,-0.0588208620655627
2023-01-27 13:47:49.622105,-0.04716753959655762
2023-01-27 13:47:49.627105,-0.02111807186033136
2023-01-27 13:47:49.632105,0.020819108933210276
2023-01-27 13:47:49.637105,0.0742937359011843
2023-01-27 13:47:49.642105,0.12926599383354176
2023-01-27 13:47:49.647105,0.17271525089393436
2023-01-27 13:47:49.652105,0.19244453310966486
2023-01-27 13:47:49.657105,0.1812608053508196
2023-01-27 13:47:49.662105,0.14039675891399375
2023-01-27 13:47:49.667105,0.07982852313843085
2023-01-27 13:47:49.672105,0.01449644565582276
2023-01-27 13:47:49.677105,-0.04130253943827481
2023-01-27 13:47:49.682105,-0.07817983627319328
2023-01-27 13:47:49.687105,-0.09344576255458935
2023-01-27 13:47:49.692105,-0.09072899818420407
2023-01-27 13:47:49.697105,-0.0775648946220408
2023-01-27 13:47:49.702105,-0.061712067574262564
2023-01-27 13:47:49.707105,-0.048327981279549424
2023-01-27 13:47:49.712105,-0.039498608559369944
2023-01-27 13:47:49.717105,-0.035242320669258004
2023-01-27 13:47:49.722105,-0.03440201282501218
2023-01-27 13:47:49.727105,-0.03528501840485944
2023-01-27 13:47:49.732105,-0.036493539810180615
2023-01-27 13:47:49.737105,-0.03742241516430716
2023-01-27 13:47:49.742105,-0.03788789361715311
2023-01-27 13:47:49.747105,-0.03763906257799754
2023-01-27 13:47:49.752105,-0.03656566143035881
2023-01-27 13:47:49.757105,-0.03501475853634592
2023-01-27 13:47:49.762105,-0.03341635316610328
2023-01-27 13:47:49.767105,-0.03175842894428521
2023-01-27 13:47:49.772105,-0.02973814867436883
2023-01-27 13:47:49.777105,-0.0271705732343729
2023-01-27 13:47:49.782105,-0.02392033860087388
2023-01-27 13:47:49.787105,-0.01972591420852789
2023-01-27 13:47:49.792105,-0.014496445655822705
2023-01-27 13:47:49.797105,-0.008573207494410724
2023-01-27 13:47:49.802105,-0.0023319325409828953
2023-01-27 13:47:49.807105,0.0043097395410185676
2023-01-27 13:47:49.812105,0.011731783859431667
2023-01-27 13:47:49.817105,0.020230518217233897
2023-01-27 13:47:49.822105,0.030098756775259944
2023-01-27 13:47:49.827105,0.041769030274432156
2023-01-27 13:47:49.832105,0.05543748661875715
2023-01-27 13:47:49.837105,0.07067777573054344
2023-01-27 13:47:49.842105,0.08671423047780988
2023-01-27 13:47:49.847105,0.1028794575446005
2023-01-27 13:47:49.852105,0.11854390799999223
2023-01-27 13:47:49.857105,0.13288861328392762
2023-01-27 13:47:49.862105,0.1451327502727508
2023-01-27 13:47:49.867105,0.1547978885534006
2023-01-27 13:47:49.872105,0.16140818595886225
2023-01-27 13:47:49.877105,0.16410543573463876
2023-01-27 13:47:49.882105,0.1618890017271041
2023-01-27 13:47:49.887105,0.154122110930455
2023-01-27 13:47:49.892105,0.14063715934753404
2023-01-27 13:47:49.897105,0.12169815320271717
2023-01-27 13:47:49.902105,0.09827773272991172
2023-01-27 13:47:49.907105,0.07218357960563114
2023-01-27 13:47:49.912105,0.045484703034162466
2023-01-27 13:47:49.917105,0.019782635137409074
2023-01-27 13:47:49.922105,-0.0038945674896239853
2023-01-27 13:47:49.927105,-0.024853144956571434
2023-01-27 13:47:49.932105,-0.04276812076568602
2023-01-27 13:47:49.937105,-0.05774657818505248
2023-01-27 13:47:49.942105,-0.0699820145964622
2023-01-27 13:47:49.947105,-0.0794462008905522
2023-01-27 13:47:49.952105,-0.08616130053997029
2023-01-27 13:47:49.957105,-0.09057223631021598
2023-01-27 13:47:49.962105,-0.09334941953420628
2023-01-27 13:47:49.967105,-0.09498393596872969
2023-01-27 13:47:49.972105,-0.09582559764385218
2023-01-27 13:47:49.977105,-0.09628566541986604
2023-01-27 13:47:49.982105,-0.09666701406240463
2023-01-27 13:47:49.987105,-0.09696573547163172
2023-01-27 13:47:49.992105,-0.09717186540365208
2023-01-27 13:47:49.997105,-0.0976466075843616
2023-01-27 13:47:50.002105,-0.09892682731151581
2023-01-27 13:47:50.007105,-0.10127834784869141
2023-01-27 13:47:50.012105,-0.10464847087860098
2023-01-27 13:47:50.017105,-0.10882186267145855
2023-01-27 13:47:50.022105,-0.11330306529998765
2023-01-27 13:47:50.027105,-0.11723385558117108
2023-01-27 13:47:50.032105,-0.1198180541396141
2023-01-27 13:47:50.037105,-0.12083429775704742
2023-01-27 13:47:50.042105,-0.12058734893798817
2023-01-27 13:47:50.047105,-0.11954465531359308
2023-01-27 13:47:50.052105,-0.1182313784956932
2023-01-27 13:47:50.057105,-0.1172139289404156
2023-01-27 13:47:50.062105,-0.11678894609212864
2023-01-27 13:47:50.067105,-0.1167404593165313
2023-01-27 13:47:50.072105,-0.11664470285177227
2023-01-27 13:47:50.077105,-0.11632369950402034
2023-01-27 13:47:50.082105,-0.11582732200622547
2023-01-27 13:47:50.087105,-0.11517784176014181
2023-01-27 13:47:50.092105,-0.1144089326262474
2023-01-27 13:47:50.097105,-0.11370262147441133
2023-01-27 13:47:50.102105,-0.11320690810680376
2023-01-27 13:47:50.107105,-0.11282498617809271
2023-01-27 13:47:50.112105,-0.1124135702848434
2023-01-27 13:47:50.117105,-0.11205935726702398
2023-01-27 13:47:50.122105,-0.11193275451660148
2023-01-27 13:47:50.127105,-0.1119977405656734
2023-01-27 13:47:50.132105,-0.11207699775695797
2023-01-27 13:47:50.137105,-0.11205956413570224
2023-01-27 13:47:50.142105,-0.11183659732341762
2023-01-27 13:47:50.147105,-0.11119729240637138
2023-01-27 13:47:50.152105,-0.11003355681896199
2023-01-27 13:47:50.157105,-0.10854025553751427
2023-01-27 13:47:50.162105,-0.10702848434448242
2023-01-27 13:47:50.167105,-0.10566273747182928
2023-01-27 13:47:50.172105,-0.10450422763824457
2023-01-27 13:47:50.177105,-0.1035861414991834
2023-01-27 13:47:50.182105,-0.10274927318096161
2023-01-27 13:47:50.187105,-0.10162392671856488
2023-01-27 13:47:50.192105,-0.10000865161418912
2023-01-27 13:47:50.197105,-0.09809507445395481
2023-01-27 13:47:50.202105,-0.09613811969757083
2023-01-27 13:47:50.207105,-0.09412794024807693
2023-01-27 13:47:50.212105,-0.09197910875082008
2023-01-27 13:47:50.217105,-0.08975621175989719
2023-01-27 13:47:50.222105,-0.08741140365600578
2023-01-27 13:47:50.227105,-0.08450853567611169
2023-01-27 13:47:50.232105,-0.0805117711424827
2023-01-27 13:47:50.237105,-0.0752155232990284
2023-01-27 13:47:50.242105,-0.06870786845684049
2023-01-27 13:47:50.247105,-0.06119243533922308
2023-01-27 13:47:50.252105,-0.053177677094936295
2023-01-27 13:47:50.257105,-0.0456424604753455
2023-01-27 13:47:50.262105,-0.03964285179972636
2023-01-27 13:47:50.267105,-0.035793000495887684
2023-01-27 13:47:50.272105,-0.034281812608241966
2023-01-27 13:47:50.277105,-0.035144226870434364
2023-01-27 13:47:50.282105,-0.038200419396162005
2023-01-27 13:47:50.287105,-0.0429039944662443
2023-01-27 13:47:50.292105,-0.04858593270182602
2023-01-27 13:47:50.297105,-0.05476980727812321
2023-01-27 13:47:50.302105,-0.0610389336943626
2023-01-27 13:47:50.307105,-0.0667955929764874
2023-01-27 13:47:50.312105,-0.07147252559661856
2023-01-27 13:47:50.317105,-0.07488182492301979
2023-01-27 13:47:50.322105,-0.07712205499410618
2023-01-27 13:47:50.327105,-0.07832030924591882
2023-01-27 13:47:50.332105,-0.07878085225820536
2023-01-27 13:47:50.337105,-0.079273187555677
2023-01-27 13:47:50.342105,-0.08082430064678188
2023-01-27 13:47:50.347105,-0.0840977208193589
2023-01-27 13:47:50.352105,-0.08880575746297825
2023-01-27 13:47:50.357105,-0.09312553723501639
2023-01-27 13:47:50.362105,-0.0931570976972579
2023-01-27 13:47:50.367105,-0.08329826606231444
2023-01-27 13:47:50.372105,-0.05829831212759014
2023-01-27 13:47:50.377105,-0.016269400019277208
2023-01-27 13:47:50.382105,0.03904183954000469
2023-01-27 13:47:50.387105,0.09791150201655408
2023-01-27 13:47:50.392105,0.14659921824932082
2023-01-27 13:47:50.397105,0.17148462639714596
2023-01-27 13:47:50.402105,0.16419689357280723
2023-01-27 13:47:50.407105,0.12525522881210302
2023-01-27 13:47:50.412105,0.06409208476543417
2023-01-27 13:47:50.417105,-0.0044490288452638865
2023-01-27 13:47:50.422105,-0.06522198766469949
2023-01-27 13:47:50.427105,-0.1074481548336496
2023-01-27 13:47:50.432105,-0.12743890285491943
2023-01-27 13:47:50.437105,-0.12838337815662987
2023-01-27 13:47:50.442105,-0.11746208369731898
2023-01-27 13:47:50.447105,-0.10217359700684263
2023-01-27 13:47:50.452105,-0.08791625499725346
2023-01-27 13:47:50.457105,-0.07732146712105208
2023-01-27 13:47:50.462105,-0.07065515220165249
2023-01-27 13:47:50.467105,-0.06677016569956762
2023-01-27 13:47:50.472105,-0.06430844962596888
2023-01-27 13:47:50.477105,-0.06248786056245437
2023-01-27 13:47:50.482105,-0.06101489067077631
2023-01-27 13:47:50.487105,-0.0596450704287857
2023-01-27 13:47:50.492105,-0.05813002586364742
2023-01-27 13:47:50.497105,-0.05639506425525797
2023-01-27 13:47:50.502105,-0.054427783936262075
2023-01-27 13:47:50.507105,-0.05207472557101378
2023-01-27 13:47:50.512105,-0.0492109879851341
2023-01-27 13:47:50.517105,-0.046008597862169424
2023-01-27 13:47:50.522105,-0.042768120765686035
2023-01-27 13:47:50.527105,-0.039551181303153035
2023-01-27 13:47:50.532105,-0.036181014031171695
2023-01-27 13:47:50.537105,-0.032466747960449564
2023-01-27 13:47:50.542105,-0.028175514191389008
2023-01-27 13:47:50.547105,-0.022918914143231158
2023-01-27 13:47:50.552105,-0.016371607780456505
2023-01-27 13:47:50.557105,-0.008558398880113458
2023-01-27 13:47:50.562105,0.00028848648071278286
2023-01-27 13:47:50.567105,0.010060590424593856
2023-01-27 13:47:50.572105,0.020746987313032098
2023-01-27 13:47:50.577105,0.03220542806926151
2023-01-27 13:47:50.582105,0.04421055316925036
2023-01-27 13:47:50.587105,0.05662078658677448
2023-01-27 13:47:50.592105,0.06923675537109367
2023-01-27 13:47:50.597105,0.08157680424106953
2023-01-27 13:47:50.602105,0.09303689002990723
2023-01-27 13:47:50.607105,0.10320140185809898
2023-01-27 13:47:50.612105,0.11178851127624509
2023-01-27 13:47:50.617105,0.11840600808283837
2023-01-27 13:47:50.622105,0.12260675430297853
2023-01-27 13:47:50.627105,0.12408608624398144
2023-01-27 13:47:50.632105,0.12258271872997276
2023-01-27 13:47:50.637105,0.1177016494199014
2023-01-27 13:47:50.642105,0.1091440543532371
2023-01-27 13:47:50.647105,0.0971218890394036
2023-01-27 13:47:50.652105,0.0823869332671165
2023-01-27 13:47:50.657105,0.06595080455803594
2023-01-27 13:47:50.662105,0.048946540802717264
2023-01-27 13:47:50.667105,0.032553567893102535
2023-01-27 13:47:50.672105,0.01766979694366452
2023-01-27 13:47:50.677105,0.004606129013954491
2023-01-27 13:47:50.682105,-0.006731351371854492
2023-01-27 13:47:50.687105,-0.016422925742272984
2023-01-27 13:47:50.692105,-0.024449229240417366
2023-01-27 13:47:50.697105,-0.030848598686597617
2023-01-27 13:47:50.702105,-0.035676162689924164
2023-01-27 13:47:50.707105,-0.03888247220075971
2023-01-27 13:47:50.712105,-0.04048427194356906
2023-01-27 13:47:50.717105,-0.04079897757597015
2023-01-27 13:47:50.722105,-0.04029194638133037
2023-01-27 13:47:50.727105,-0.03926359887719007
2023-01-27 13:47:50.732105,-0.037887893617153064
2023-01-27 13:47:50.737105,-0.0364393942697641
2023-01-27 13:47:50.742105,-0.03521939367055889
2023-01-27 13:47:50.747105,-0.0343258710215813
2023-01-27 13:47:50.752105,-0.03372887894511222
2023-01-27 13:47:50.757105,-0.033488962610137764
2023-01-27 13:47:50.762105,-0.033656757324934033
2023-01-27 13:47:50.767105,-0.03403671802383865
2023-01-27 13:47:50.772105,-0.03430585190653796
2023-01-27 13:47:50.777105,-0.034312300427633814
2023-01-27 13:47:50.782105,-0.03404140472412101
2023-01-27 13:47:50.787105,-0.03340438373725983
2023-01-27 13:47:50.792105,-0.03235856816172589
2023-01-27 13:47:50.797105,-0.031179840569979234
2023-01-27 13:47:50.802105,-0.0303151216357946
2023-01-27 13:47:50.807105,-0.029965005410918132
2023-01-27 13:47:50.812105,-0.03005067631602277
2023-01-27 13:47:50.817105,-0.030545165979140865
2023-01-27 13:47:50.822105,-0.031541191041469505
2023-01-27 13:47:50.827105,-0.032973528441040255
2023-01-27 13:47:50.832105,-0.034546256065368604
2023-01-27 13:47:50.837105,-0.036001274903437804
2023-01-27 13:47:50.842105,-0.03726283833384507
2023-01-27 13:47:50.847105,-0.0382874811917267
2023-01-27 13:47:50.852105,-0.03896971791982649
2023-01-27 13:47:50.857105,-0.03924784800551397
2023-01-27 13:47:50.862105,-0.039162039756774854
2023-01-27 13:47:50.867105,-0.0388031814148567
2023-01-27 13:47:50.872105,-0.03834466263651837
2023-01-27 13:47:50.877105,-0.03809349002325685
2023-01-27 13:47:50.882105,-0.03832062333822244
2023-01-27 13:47:50.887105,-0.039006207235063296
2023-01-27 13:47:50.892105,-0.03985921666026104
2023-01-27 13:47:50.897105,-0.04055945200858296
2023-01-27 13:47:50.902105,-0.04086891934275618
2023-01-27 13:47:50.907105,-0.04058627423803735
2023-01-27 13:47:50.912105,-0.03957073017954819
2023-01-27 13:47:50.917105,-0.03777577391672354
2023-01-27 13:47:50.922105,-0.035099189728498396
2023-01-27 13:47:50.927105,-0.031246473237163806
2023-01-27 13:47:50.932105,-0.025939743965864095
2023-01-27 13:47:50.937105,-0.01930836535032722
2023-01-27 13:47:50.942105,-0.012020270340144629
2023-01-27 13:47:50.947105,-0.005113929298982583
2023-01-27 13:47:50.952105,0.00021636486053463954
2023-01-27 13:47:50.957105,0.0028889896098739693
2023-01-27 13:47:50.962105,0.0023559730034321074
2023-01-27 13:47:50.967105,-0.0011167029562363477
2023-01-27 13:47:50.972105,-0.006659229751676271
2023-01-27 13:47:50.977105,-0.013274743032528517
2023-01-27 13:47:50.982105,-0.020097892731428077
2023-01-27 13:47:50.987105,-0.026421919058508048
2023-01-27 13:47:50.992105,-0.03178159520030019
2023-01-27 13:47:50.997105,-0.036034961414933515
2023-01-27 13:47:51.002105,-0.03921012207865708
2023-01-27 13:47:51.007105,-0.04128596102898416
2023-01-27 13:47:51.012105,-0.042239230126142537
2023-01-27 13:47:51.017105,-0.04223957300396418
2023-01-27 13:47:51.022105,-0.04166225716471667
2023-01-27 13:47:51.027105,-0.04099505093170568
2023-01-27 13:47:51.032105,-0.04086891934275617
2023-01-27 13:47:51.037105,-0.04196924211427875
2023-01-27 13:47:51.042105,-0.0444269180297851
2023-01-27 13:47:51.047105,-0.046921374330501864
2023-01-27 13:47:51.052105,-0.0462299585342407
2023-01-27 13:47:51.057105,-0.037694943659038686
2023-01-27 13:47:51.062105,-0.016660094261169437
2023-01-27 13:47:51.067105,0.019266333686875928
2023-01-27 13:47:51.072105,0.06779432296752919
2023-01-27 13:47:51.077105,0.12084416876956966
2023-01-27 13:47:51.082105,0.16604802012443537
2023-01-27 13:47:51.087105,0.1906627042475294
2023-01-27 13:47:51.092105,0.1862180233001708
2023-01-27 13:47:51.097105,0.15192510700818218
2023-01-27 13:47:51.102105,0.09541690349578849
2023-01-27 13:47:51.107105,0.03027815483415866
2023-01-27 13:47:51.112105,-0.028800567612051912
2023-01-27 13:47:51.117105,-0.07099354039265941
2023-01-27 13:47:51.122105,-0.09209930896759028
2023-01-27 13:47:51.127105,-0.09430669290804902
2023-01-27 13:47:51.132105,-0.0838534086942672
2023-01-27 13:47:51.137105,-0.06798902876426775
2023-01-27 13:47:51.142105,-0.05243241786956774
2023-01-27 13:47:51.147105,-0.04018066758210095
2023-01-27 13:47:51.152105,-0.0318537168204784
2023-01-27 13:47:51.157105,-0.026816020169173903
2023-01-27 13:47:51.162105,-0.024064581841230306
2023-01-27 13:47:51.167105,-0.02259680915446235
2023-01-27 13:47:51.172105,-0.021588405594229594
2023-01-27 13:47:51.177105,-0.02052579957006395
2023-01-27 13:47:51.182105,-0.0191603116691112
2023-01-27 13:47:51.187105,-0.01737099102353222
2023-01-27 13:47:51.192105,-0.015169581398367786
2023-01-27 13:47:51.197105,-0.01275413369864977
2023-01-27 13:47:51.202105,-0.010361473076045532
2023-01-27 13:47:51.207105,-0.008042247363297832
2023-01-27 13:47:51.212105,-0.005673567764460998
2023-01-27 13:47:51.217105,-0.0031387231660507855
2023-01-27 13:47:51.222105,-0.0003606081008910943
2023-01-27 13:47:51.227105,0.0027908972228892046
2023-01-27 13:47:51.232105,0.006466905586421419
2023-01-27 13:47:51.237105,0.010735689343161447
2023-01-27 13:47:51.242105,0.01565039157867428
2023-01-27 13:47:51.247105,0.02140472690518475
2023-01-27 13:47:51.252105,0.02829571627080439
2023-01-27 13:47:51.257105,0.036545422534475534
2023-01-27 13:47:51.262105,0.046254001557826926
2023-01-27 13:47:51.267105,0.057453980555287464
2023-01-27 13:47:51.272105,0.07003009319305405
2023-01-27 13:47:51.277105,0.08356691678017956
2023-01-27 13:47:51.282105,0.09738823026418678
2023-01-27 13:47:51.287105,0.11075242401213455
2023-01-27 13:47:51.292105,0.12294332683086384
2023-01-27 13:47:51.297105,0.13325170873576583
2023-01-27 13:47:51.302105,0.14104585349559776
2023-01-27 13:47:51.307105,0.1458971832016062
2023-01-27 13:47:51.312105,0.14756083488464344
2023-01-27 13:47:51.317105,0.145859059562934
2023-01-27 13:47:51.322105,0.14068524539470664
2023-01-27 13:47:51.327105,0.13210905589355476
2023-01-27 13:47:51.332105,0.1203950271010398
2023-01-27 13:47:51.337105,0.10595990171973424
2023-01-27 13:47:51.342105,0.08943080902099594
2023-01-27 13:47:51.347105,0.07173683591099166
2023-01-27 13:47:51.352105,0.05401909351348865
2023-01-27 13:47:51.357105,0.03737208559864887
2023-01-27 13:47:51.362105,0.02262214943766599
2023-01-27 13:47:51.367105,0.01021648226642084
2023-01-27 13:47:51.372105,0.00016828379011712494
2023-01-27 13:47:51.377105,-0.007899936708000916
2023-01-27 13:47:51.382105,-0.01454452704638239
2023-01-27 13:47:51.387105,-0.02023054623293251
2023-01-27 13:47:51.392105,-0.02519448660314082
2023-01-27 13:47:51.397105,-0.02947719431178522
2023-01-27 13:47:51.402105,-0.033031702041625886
2023-01-27 13:47:51.407105,-0.0358171975251472
2023-01-27 13:47:51.412105,-0.03781577199697484
2023-01-27 13:47:51.417105,-0.03897750818488132
2023-01-27 13:47:51.422105,-0.039234161376953076
2023-01-27 13:47:51.427105,-0.03865825922238457
2023-01-27 13:47:51.432105,-0.037551324814558
2023-01-27 13:47:51.437105,-0.036251268001099596
2023-01-27 13:47:51.442105,-0.03490686416625969
2023-01-27 13:47:51.447105,-0.03359839446799605
2023-01-27 13:47:51.452105,-0.03259897232055658
2023-01-27 13:47:51.457105,-0.03223045248859768
2023-01-27 13:47:51.462105,-0.03240665048360819
2023-01-27 13:47:51.467105,-0.03257584961839634
2023-01-27 13:47:51.472105,-0.03223836421966547
2023-01-27 13:47:51.477105,-0.0313476032279882
2023-01-27 13:47:51.482105,-0.030146837234496997
2023-01-27 13:47:51.487105,-0.028870443878180642
2023-01-27 13:47:51.492105,-0.027742784470319658
2023-01-27 13:47:51.497105,-0.027010899299828275
2023-01-27 13:47:51.502105,-0.026733081787824572
2023-01-27 13:47:51.507105,-0.026664416592896485
2023-01-27 13:47:51.512105,-0.026540756225585924
2023-01-27 13:47:51.517105,-0.0263791249493081
2023-01-27 13:47:51.522105,-0.026372473686933497
2023-01-27 13:47:51.527105,-0.02663393805773857
2023-01-27 13:47:51.532105,-0.027189850807189896
2023-01-27 13:47:51.537105,-0.02806195729839022
2023-01-27 13:47:51.542105,-0.029161175712943018
2023-01-27 13:47:51.547105,-0.030211725524968258
2023-01-27 13:47:51.552105,-0.03096421621739854
2023-01-27 13:47:51.557105,-0.03141040207150642
2023-01-27 13:47:51.562105,-0.03166139125823966
2023-01-27 13:47:51.567105,-0.03172910850083082
2023-01-27 13:47:51.572105,-0.03156523033976549
2023-01-27 13:47:51.577105,-0.0311841660925492
2023-01-27 13:47:51.582105,-0.030579566955566424
2023-01-27 13:47:51.587105,-0.029623092349651787
2023-01-27 13:47:51.592105,-0.028199553489684993
2023-01-27 13:47:51.597105,-0.026335535562913317
2023-01-27 13:47:51.602105,-0.024040540680289192
2023-01-27 13:47:51.607105,-0.021130677150024302
2023-01-27 13:47:51.612105,-0.017381310462951608
2023-01-27 13:47:51.617105,-0.012790330647354416
2023-01-27 13:47:51.622105,-0.0075968108139931895
2023-01-27 13:47:51.627105,-0.0022003399825690053
2023-01-27 13:47:51.632105,0.0027646622620522074
2023-01-27 13:47:51.637105,0.006422603113100962
2023-01-27 13:47:51.642105,0.007981459610164119
2023-01-27 13:47:51.647105,0.007088124626725459
2023-01-27 13:47:51.652105,0.0038224458694458194
2023-01-27 13:47:51.657105,-0.001476710176334573
2023-01-27 13:47:51.662105,-0.008197824470698797
2023-01-27 13:47:51.667105,-0.015426825594964208
2023-01-27 13:47:51.672105,-0.022213459014892512
2023-01-27 13:47:51.677105,-0.027908889154411247
2023-01-27 13:47:51.682105,-0.03219028562307346
2023-01-27 13:47:51.687105,-0.03492550703651099
2023-01-27 13:47:51.692105,-0.036229096353054005
2023-01-27 13:47:51.697105,-0.03657799629032751
2023-01-27 13:47:51.702105,-0.03668586537241929
2023-01-27 13:47:51.707105,-0.03729752619252312
2023-01-27 13:47:51.712105,-0.03916203975677488
2023-01-27 13:47:51.717105,-0.042883103996218974
2023-01-27 13:47:51.722105,-0.048225324600934906
2023-01-27 13:47:51.727105,-0.05319786180618119
2023-01-27 13:47:51.732105,-0.053754650056362076
2023-01-27 13:47:51.737105,-0.044582990069255195
2023-01-27 13:47:51.742105,-0.020915269851684504
2023-01-27 13:47:51.747105,0.018964632062886774
2023-01-27 13:47:51.752105,0.07137636840343467
2023-01-27 13:47:51.757105,0.12659137833001965
2023-01-27 13:47:51.762105,0.1710244119167327
2023-01-27 13:47:51.767105,0.19174172721165578
2023-01-27 13:47:51.772105,0.18128971755504592
2023-01-27 13:47:51.777105,0.14074368520575362
2023-01-27 13:47:51.782105,0.07969439029693598
2023-01-27 13:47:51.787105,0.012986567080416771
2023-01-27 13:47:51.792105,-0.04457116127014156
2023-01-27 13:47:51.797105,-0.08309048985759451
2023-01-27 13:47:51.802105,-0.09986440837383266
2023-01-27 13:47:51.807105,-0.09851950191241535
2023-01-27 13:47:51.812105,-0.08620937913656226
2023-01-27 13:47:51.817105,-0.07038745852540439
2023-01-27 13:47:51.822105,-0.05635102838277804
2023-01-27 13:47:51.827105,-0.046321377487169094
2023-01-27 13:47:51.832105,-0.04009962081909167
2023-01-27 13:47:51.837105,-0.03642747321574041
2023-01-27 13:47:51.842105,-0.0340173654258251
2023-01-27 13:47:51.847105,-0.031976299601348075
2023-01-27 13:47:51.852105,-0.029930472373962343
2023-01-27 13:47:51.857105,-0.02797393235104736
2023-01-27 13:47:51.862105,-0.02637247368693346
2023-01-27 13:47:51.867105,-0.025238995242940935
2023-01-27 13:47:51.872105,-0.024497311562299652
2023-01-27 13:47:51.877105,-0.024024782162048702
2023-01-27 13:47:51.882105,-0.02365589141845697
2023-01-27 13:47:51.887105,-0.023104961435954724
2023-01-27 13:47:51.892105,-0.02206921577453616
2023-01-27 13:47:51.897105,-0.02040853201088061
2023-01-27 13:47:51.902105,-0.01810252666473381
2023-01-27 13:47:51.907105,-0.015065135306172664
2023-01-27 13:47:51.912105,-0.011130770668387418
2023-01-27 13:47:51.917105,-0.006184621372902972
2023-01-27 13:47:51.922105,-0.00016828379011707756
2023-01-27 13:47:51.927105,0.007017105912908035
2023-01-27 13:47:51.932105,0.015482108108699278
2023-01-27 13:47:51.937105,0.02524003956556262
2023-01-27 13:47:51.942105,0.03622909635305399
2023-01-27 13:47:51.947105,0.04838888300034244
2023-01-27 13:47:51.952105,0.061567824333906056
2023-01-27 13:47:51.957105,0.07535658090503027
2023-01-27 13:47:51.962105,0.08911828696727747
2023-01-27 13:47:51.967105,0.1021809013331649
2023-01-27 13:47:51.972105,0.11395215988159164
2023-01-27 13:47:51.977105,0.12394822709276326
2023-01-27 13:47:51.982105,0.1318623721599578
2023-01-27 13:47:51.987105,0.13757108434620674
2023-01-27 13:47:51.992105,0.14092564582824696
2023-01-27 13:47:51.997105,0.14152448017410396
2023-01-27 13:47:52.002105,0.1387860476970672
2023-01-27 13:47:52.007105,0.1322669195687641
2023-01-27 13:47:52.012105,0.12190958112478253
2023-01-27 13:47:52.017105,0.10811626934215947
2023-01-27 13:47:52.022105,0.09173870086669916
2023-01-27 13:47:52.027105,0.0739474924475842
2023-01-27 13:47:52.032105,0.05591829866170879
2023-01-27 13:47:52.037105,0.038529617812026316
2023-01-27 13:47:52.042105,0.022333662956953035
2023-01-27 13:47:52.047105,0.007746551133111718
2023-01-27 13:47:52.052105,-0.004808108322322274
2023-01-27 13:47:52.057105,-0.014921038689632323
2023-01-27 13:47:52.062105,-0.02233366295695296
2023-01-27 13:47:52.067105,-0.027120148368581388
2023-01-27 13:47:52.072105,-0.02978622913360589
2023-01-27 13:47:52.077105,-0.031124894555774697
2023-01-27 13:47:52.082105,-0.03190179914236057
2023-01-27 13:47:52.087105,-0.03265275167609073
2023-01-27 13:47:52.092105,-0.03365675732493401
2023-01-27 13:47:52.097105,-0.034874349385462085
2023-01-27 13:47:52.102105,-0.035868488252162906
2023-01-27 13:47:52.107105,-0.03602789486561334
2023-01-27 13:47:52.112105,-0.0350751504302024
2023-01-27 13:47:52.117105,-0.03332590382240579
2023-01-27 13:47:52.122105,-0.03142098709940909
2023-01-27 13:47:52.127105,-0.02993472846723483
2023-01-27 13:47:52.132105,-0.029257338494062358
2023-01-27 13:47:52.137105,-0.029578672245362557
2023-01-27 13:47:52.142105,-0.0307478513568639
2023-01-27 13:47:52.147105,-0.032246705036052335
2023-01-27 13:47:52.152105,-0.0334884747862815
2023-01-27 13:47:52.157105,-0.03412931595532988
2023-01-27 13:47:52.162105,-0.034065447747707325
2023-01-27 13:47:52.167105,-0.03332278839790727
2023-01-27 13:47:52.172105,-0.0321181640028953
2023-01-27 13:47:52.177105,-0.030892976426142745
2023-01-27 13:47:52.182105,-0.030074715614318796
2023-01-27 13:47:52.187105,-0.0298160960144953
2023-01-27 13:47:52.192105,-0.0300266351550817
2023-01-27 13:47:52.197105,-0.030520932378886152
2023-01-27 13:47:52.202105,-0.031012296676635704
2023-01-27 13:47:52.207105,-0.031116981879951877
2023-01-27 13:47:52.212105,-0.030579566955566385
2023-01-27 13:47:52.217105,-0.02946833023407068
2023-01-27 13:47:52.222105,-0.028055310249328606
2023-01-27 13:47:52.227105,-0.02659981916862094
2023-01-27 13:47:52.232105,-0.025338729843497217
2023-01-27 13:47:52.237105,-0.024518157535364748
2023-01-27 13:47:52.242105,-0.02423286437988276
2023-01-27 13:47:52.247105,-0.024307892390457126
2023-01-27 13:47:52.252105,-0.024497311562299694
2023-01-27 13:47:52.257105,-0.02474510569904223
2023-01-27 13:47:52.262105,-0.025146406143903708
2023-01-27 13:47:52.267105,-0.025757858309380304
2023-01-27 13:47:52.272105,-0.02656479738652701
2023-01-27 13:47:52.277105,-0.02749626098420232
2023-01-27 13:47:52.282105,-0.028295716270804377
2023-01-27 13:47:52.287105,-0.028479220783978083
2023-01-27 13:47:52.292105,-0.027622580528259163
2023-01-27 13:47:52.297105,-0.025679353661989913
2023-01-27 13:47:52.302105,-0.022934675216674784
2023-01-27 13:47:52.307105,-0.01974063622988664
2023-01-27 13:47:52.312105,-0.01637160778045645
2023-01-27 13:47:52.317105,-0.012939849176727903
2023-01-27 13:47:52.322105,-0.009231567382812462
2023-01-27 13:47:52.327105,-0.004729013775165517
2023-01-27 13:47:52.332105,0.0009616216411814282
2023-01-27 13:47:52.337105,0.007660114972787994
2023-01-27 13:47:52.342105,0.014616648666560598
2023-01-27 13:47:52.347105,0.020824549842022234
2023-01-27 13:47:52.352105,0.025242567062377902
2023-01-27 13:47:52.357105,0.026965424153077008
2023-01-27 13:47:52.362105,0.02553105354309082
2023-01-27 13:47:52.367105,0.02113176601383863
2023-01-27 13:47:52.372105,0.014448365196585617
2023-01-27 13:47:52.377105,0.006359953613328163
2023-01-27 13:47:52.382105,-0.002115567680448194
2023-01-27 13:47:52.387105,-0.009844952980132455
2023-01-27 13:47:52.392105,-0.015890797600150018
2023-01-27 13:47:52.397105,-0.01986453887942915
2023-01-27 13:47:52.402105,-0.021900933235883692
2023-01-27 13:47:52.407105,-0.0224076980651386
2023-01-27 13:47:52.412105,-0.02199709415435791
2023-01-27 13:47:52.417105,-0.021519481447414494
2023-01-27 13:47:52.422105,-0.021876892074942474
2023-01-27 13:47:52.427105,-0.02369861490419567
2023-01-27 13:47:52.432105,-0.027093689888715657
2023-01-27 13:47:52.437105,-0.03127485246002726
2023-01-27 13:47:52.442105,-0.0338971614837646
2023-01-27 13:47:52.447105,-0.030737820376338452
2023-01-27 13:47:52.452105,-0.016612013801932377
2023-01-27 13:47:52.457105,0.012449014026632616
2023-01-27 13:47:52.462105,0.05668759346008298
2023-01-27 13:47:52.467105,0.11090046580379921
2023-01-27 13:47:52.472105,0.16448538005352015
2023-01-27 13:47:52.477105,0.20393484600853629
2023-01-27 13:47:52.482105,0.21739861369132987
2023-01-27 13:47:52.487105,0.19938345207279895
2023-01-27 13:47:52.492105,0.15318632125854484
2023-01-27 13:47:52.497105,0.0899054091852936
2023-01-27 13:47:52.502105,0.024593472480773888
2023-01-27 13:47:52.507105,-0.02885830057602333
2023-01-27 13:47:52.512105,-0.062096714973449686
2023-01-27 13:47:52.517105,-0.07409143150463333
2023-01-27 13:47:52.522105,-0.06974160671234132
2023-01-27 13:47:52.527105,-0.05657155185214513
2023-01-27 13:47:52.532105,-0.041542053222656215
2023-01-27 13:47:52.537105,-0.02916755563469592
2023-01-27 13:47:52.542105,-0.021059513092040988
2023-01-27 13:47:52.547105,-0.01663818716001587
