2023-01-30 10:17:10.088919,-0.0928686112165451
2023-01-30 10:17:10.093919,-0.10188372550221073
2023-01-30 10:17:10.098919,-0.08455058187246318
2023-01-30 10:17:10.103919,-0.07370405025451113
2023-01-30 10:17:10.108919,-0.07837216556072225
2023-01-30 10:17:10.113919,-0.08120485827658205
2023-01-30 10:17:10.118919,-0.07387658208608623
2023-01-30 10:17:10.123919,-0.06726033530921843
2023-01-30 10:17:10.128919,-0.06740967929363258
2023-01-30 10:17:10.133919,-0.06550744327616081
2023-01-30 10:17:10.138919,-0.05594233796000475
2023-01-30 10:17:10.143919,-0.045572484511554816
2023-01-30 10:17:10.148919,-0.03935436531901352
2023-01-30 10:17:10.153919,-0.03185978399261203
2023-01-30 10:17:10.158919,-0.018967986106872538
2023-01-30 10:17:10.163919,-0.005423716555775864
2023-01-30 10:17:10.168919,0.005048513412475519
2023-01-30 10:17:10.173919,0.016483312217746376
2023-01-30 10:17:10.178919,0.03199796006083484
2023-01-30 10:17:10.183919,0.047597578758349725
2023-01-30 10:17:10.188919,0.05983690544962871
2023-01-30 10:17:10.193919,0.07152500353983267
2023-01-30 10:17:10.198919,0.08486311137676228
2023-01-30 10:17:10.203919,0.09614513093254175
2023-01-30 10:17:10.208919,0.10195593535900117
2023-01-30 10:17:10.213919,0.10415014509047185
2023-01-30 10:17:10.218919,0.10433594882488242
2023-01-30 10:17:10.223919,0.0994582524248419
2023-01-30 10:17:10.228919,0.08717100322246547
2023-01-30 10:17:10.233919,0.07027660220685533
2023-01-30 10:17:10.238919,0.05192756652832024
2023-01-30 10:17:10.243919,0.031412719325104047
2023-01-30 10:17:10.248919,0.008366107940673799
2023-01-30 10:17:10.253919,-0.013674188464383253
2023-01-30 10:17:10.258919,-0.031685434281825936
2023-01-30 10:17:10.263919,-0.04694796044732322
2023-01-30 10:17:10.268919,-0.06111105531454074
2023-01-30 10:17:10.273919,-0.07257549534698608
2023-01-30 10:17:10.278919,-0.08000691980123509
2023-01-30 10:17:10.283919,-0.08549999422162563
2023-01-30 10:17:10.288919,-0.09096940606832496
2023-01-30 10:17:10.293919,-0.09493615683223743
2023-01-30 10:17:10.298919,-0.09594579786062238
2023-01-30 10:17:10.303919,-0.09578721340222375
2023-01-30 10:17:10.308919,-0.09635448455810537
2023-01-30 10:17:10.313919,-0.09651042297655064
2023-01-30 10:17:10.318919,-0.09493609517812726
2023-01-30 10:17:10.323919,-0.09307938837164365
2023-01-30 10:17:10.328919,-0.09248396009206768
2023-01-30 10:17:10.333919,-0.09199599696316299
2023-01-30 10:17:10.338919,-0.09027223289012905
2023-01-30 10:17:10.343919,-0.08839958245847852
2023-01-30 10:17:10.348919,-0.08750756829977024
2023-01-30 10:17:10.353919,-0.08635889092524371
2023-01-30 10:17:10.358919,-0.08378128707408897
2023-01-30 10:17:10.363919,-0.08107371408979759
2023-01-30 10:17:10.368919,-0.079646311700344
2023-01-30 10:17:10.373919,-0.07857614215239256
2023-01-30 10:17:10.378919,-0.07671336829662319
2023-01-30 10:17:10.383919,-0.07491220947759718
2023-01-30 10:17:10.388919,-0.0739727467298507
2023-01-30 10:17:10.393919,-0.07258384581147713
2023-01-30 10:17:10.398919,-0.06950120627880088
2023-01-30 10:17:10.403919,-0.06571735070496432
2023-01-30 10:17:10.408919,-0.06240924447774883
2023-01-30 10:17:10.413919,-0.05873775822938622
2023-01-30 10:17:10.418919,-0.05368252843618391
2023-01-30 10:17:10.423919,-0.04811233002350986
2023-01-30 10:17:10.428919,-0.04310468956828104
2023-01-30 10:17:10.433919,-0.03816143989118854
2023-01-30 10:17:10.438919,-0.033079784363508204
2023-01-30 10:17:10.443919,-0.029789608823977572
2023-01-30 10:17:10.448919,-0.03036320209503169
2023-01-30 10:17:10.453919,-0.03475194513020803
2023-01-30 10:17:10.458919,-0.04209498688578603
2023-01-30 10:17:10.463919,-0.05241932854274773
2023-01-30 10:17:10.468919,-0.06522198766469951
2023-01-30 10:17:10.473919,-0.07810386379203929
2023-01-30 10:17:10.478919,-0.08878171443939209
2023-01-30 10:17:10.483919,-0.09718656539633444
2023-01-30 10:17:10.488919,-0.10416766256093975
2023-01-30 10:17:10.493919,-0.10982591208078256
2023-01-30 10:17:10.498919,-0.11476954072713844
2023-01-30 10:17:10.503919,-0.12124546648068776
2023-01-30 10:17:10.508919,-0.13078054785728452
2023-01-30 10:17:10.513919,-0.14124443000104253
2023-01-30 10:17:10.518919,-0.14698386192321766
2023-01-30 10:17:10.523919,-0.14019365848854473
2023-01-30 10:17:10.528919,-0.11137982457876194
2023-01-30 10:17:10.533919,-0.05177785904068532
2023-01-30 10:17:10.538919,0.04043618962168688
2023-01-30 10:17:10.543919,0.15508102072056082
2023-01-30 10:17:10.548919,0.27136963605880726
2023-01-30 10:17:10.553919,0.3642068285093022
2023-01-30 10:17:10.558919,0.4111894071102141
2023-01-30 10:17:10.563919,0.39948914449359607
2023-01-30 10:17:10.568919,0.3316873311996458
2023-01-30 10:17:10.573919,0.22592978058188465
2023-01-30 10:17:10.578919,0.10820647329092017
2023-01-30 10:17:10.583919,0.00215102970631249
2023-01-30 10:17:10.588919,-0.07707397639751425
2023-01-30 10:17:10.593919,-0.12438445924417506
2023-01-30 10:17:10.598919,-0.1441230475902557
2023-01-30 10:17:10.603919,-0.14667397707724053
2023-01-30 10:17:10.608919,-0.14244019985198964
2023-01-30 10:17:10.613919,-0.13745990389229878
2023-01-30 10:17:10.618919,-0.1338096559047698
2023-01-30 10:17:10.623919,-0.13194133962457666
2023-01-30 10:17:10.628919,-0.13126134872436523
2023-01-30 10:17:10.633919,-0.13012986784210673
2023-01-30 10:17:10.638919,-0.12739083170890797
2023-01-30 10:17:10.643919,-0.12352891170696072
2023-01-30 10:17:10.648919,-0.11940936744213101
2023-01-30 10:17:10.653919,-0.11489343115350055
2023-01-30 10:17:10.658919,-0.1097450703382492
2023-01-30 10:17:10.663919,-0.10475737121743232
2023-01-30 10:17:10.668919,-0.1007058247923851
2023-01-30 10:17:10.673919,-0.09710473562132775
2023-01-30 10:17:10.678919,-0.09313305467367164
2023-01-30 10:17:10.683919,-0.0888540203060778
2023-01-30 10:17:10.688919,-0.08443038165569301
2023-01-30 10:17:10.693919,-0.07912977876476873
2023-01-30 10:17:10.698919,-0.07228990644216532
2023-01-30 10:17:10.703919,-0.06439804374626758
2023-01-30 10:17:10.708919,-0.056110620498657234
2023-01-30 10:17:10.713919,-0.04704856503198392
2023-01-30 10:17:10.718919,-0.03658970445394513
2023-01-30 10:17:10.723919,-0.02495587283230719
2023-01-30 10:17:10.728919,-0.0124770402908325
2023-01-30 10:17:10.733919,0.0012897631098301285
2023-01-30 10:17:10.738919,0.01656393334269517
2023-01-30 10:17:10.743919,0.032228523419798906
2023-01-30 10:17:10.748919,0.046710770577192216
2023-01-30 10:17:10.753919,0.059180740552551556
2023-01-30 10:17:10.758919,0.06894826889038083
2023-01-30 10:17:10.763919,0.0745988226678542
2023-01-30 10:17:10.768919,0.0748622417449951
2023-01-30 10:17:10.773919,0.06966859179314797
2023-01-30 10:17:10.778919,0.05945225805044172
2023-01-30 10:17:10.783919,0.044257891936562675
2023-01-30 10:17:10.788919,0.02454539202153682
2023-01-30 10:17:10.793919,0.00209148262832637
2023-01-30 10:17:10.798919,-0.020963352173566818
2023-01-30 10:17:10.803919,-0.04335492065920844
2023-01-30 10:17:10.808919,-0.06421228498220438
2023-01-30 10:17:10.813919,-0.08226529481914689
2023-01-30 10:17:10.818919,-0.09661893546581259
2023-01-30 10:17:10.823919,-0.1076507382390542
2023-01-30 10:17:10.828919,-0.11618793010711655
2023-01-30 10:17:10.833919,-0.12244351661045424
2023-01-30 10:17:10.838919,-0.12659749388694763
2023-01-30 10:17:10.843919,-0.1295994713204918
2023-01-30 10:17:10.848919,-0.13234317302703846
2023-01-30 10:17:10.853919,-0.13465847704456047
2023-01-30 10:17:10.858919,-0.13602137565612782
2023-01-30 10:17:10.863919,-0.13660064405908284
2023-01-30 10:17:10.868919,-0.13674259185791007
2023-01-30 10:17:10.873919,-0.13618843885077947
2023-01-30 10:17:10.878919,-0.1347953081130981
2023-01-30 10:17:10.883919,-0.13334942724958432
2023-01-30 10:17:10.888919,-0.13265570998191828
2023-01-30 10:17:10.893919,-0.13242043514253027
2023-01-30 10:17:10.898919,-0.13195852935314167
2023-01-30 10:17:10.903919,-0.13132660000579713
2023-01-30 10:17:10.908919,-0.1307564973831175
2023-01-30 10:17:10.913919,-0.12966428809448977
2023-01-30 10:17:10.918919,-0.1273908317089079
2023-01-30 10:17:10.923919,-0.12442665671449614
2023-01-30 10:17:10.928919,-0.12176533788442608
2023-01-30 10:17:10.933919,-0.1194197369586836
2023-01-30 10:17:10.938919,-0.1166447028517722
2023-01-30 10:17:10.943919,-0.11330029714388536
2023-01-30 10:17:10.948919,-0.10993739217519767
2023-01-30 10:17:10.953919,-0.10674220769081197
2023-01-30 10:17:10.958919,-0.10335028171539302
2023-01-30 10:17:10.963919,-0.09954893342936752
2023-01-30 10:17:10.968919,-0.09532074630260463
2023-01-30 10:17:10.973919,-0.09037094603080803
2023-01-30 10:17:10.978919,-0.08445441722869865
2023-01-30 10:17:10.983919,-0.0781281918867113
2023-01-30 10:17:10.988919,-0.07257839292287813
2023-01-30 10:17:10.993919,-0.06887734250383423
2023-01-30 10:17:10.998919,-0.06791453063488001
2023-01-30 10:17:11.003919,-0.07061616733033113
2023-01-30 10:17:11.008919,-0.07738649845123291
2023-01-30 10:17:11.013919,-0.08742222073129613
2023-01-30 10:17:11.018919,-0.09914319217205045
2023-01-30 10:17:11.023919,-0.11112301232282804
2023-01-30 10:17:11.028919,-0.12219806760549545
2023-01-30 10:17:11.033919,-0.13121922508023534
2023-01-30 10:17:11.038919,-0.13760805130004883
2023-01-30 10:17:11.043919,-0.14213303823874293
2023-01-30 10:17:11.048919,-0.1465992182493209
2023-01-30 10:17:11.053919,-0.1527692329180973
2023-01-30 10:17:11.058919,-0.16150435805320726
2023-01-30 10:17:11.063919,-0.17172988047876905
2023-01-30 10:17:11.068919,-0.1787414252758026
2023-01-30 10:17:11.073919,-0.173466578944278
2023-01-30 10:17:11.078919,-0.14477214217185963
2023-01-30 10:17:11.083919,-0.08432608340490938
2023-01-30 10:17:11.088919,0.008510351181030183
2023-01-30 10:17:11.093919,0.12374738880336555
2023-01-30 10:17:11.098919,0.24103045463562003
2023-01-30 10:17:11.103919,0.33433316057158463
2023-01-30 10:17:11.108919,0.3805617690086365
2023-01-30 10:17:11.113919,0.36818857686626194
2023-01-30 10:17:11.118919,0.3012520074844359
2023-01-30 10:17:11.123919,0.1972506414482129
2023-01-30 10:17:11.128919,0.08075217902660359
2023-01-30 10:17:11.133919,-0.024659940273506473
2023-01-30 10:17:11.138919,-0.10342240333557123
2023-01-30 10:17:11.143919,-0.15112160692562884
2023-01-30 10:17:11.148919,-0.1725149154663085
2023-01-30 10:17:11.153919,-0.17662108548967637
2023-01-30 10:17:11.158919,-0.1723466366529464
2023-01-30 10:17:11.163919,-0.1661062382374267
2023-01-30 10:17:11.168919,-0.16099950671195976
2023-01-30 10:17:11.173919,-0.15729185143643132
2023-01-30 10:17:11.178919,-0.1540517807006835
2023-01-30 10:17:11.183919,-0.15071366590901872
2023-01-30 10:17:11.188919,-0.14732043445110315
2023-01-30 10:17:11.193919,-0.14395380897562532
2023-01-30 10:17:11.198919,-0.14061312377452842
2023-01-30 10:17:11.203919,-0.1374744833577762
2023-01-30 10:17:11.208919,-0.13469915091991413
2023-01-30 10:17:11.213919,-0.13203879484508255
2023-01-30 10:17:11.218919,-0.12904962897300715
2023-01-30 10:17:11.223919,-0.1255996016468824
2023-01-30 10:17:11.228919,-0.1217893809080123
2023-01-30 10:17:11.233919,-0.11753120644279319
2023-01-30 10:17:11.238919,-0.11262993514537811
2023-01-30 10:17:11.243919,-0.10715302575793413
2023-01-30 10:17:11.248919,-0.10128279775381079
2023-01-30 10:17:11.253919,-0.09485759968757042
2023-01-30 10:17:11.258919,-0.08741140365600583
2023-01-30 10:17:11.263919,-0.07857509349924637
2023-01-30 10:17:11.268919,-0.0681068524718285
2023-01-30 10:17:11.273919,-0.05568252633878405
2023-01-30 10:17:11.278919,-0.04110932350158698
2023-01-30 10:17:11.283919,-0.024771902253617476
2023-01-30 10:17:11.288919,-0.007596810813993253
2023-01-30 10:17:11.293919,0.009344788700285638
2023-01-30 10:17:11.298919,0.024930041283368988
2023-01-30 10:17:11.303919,0.037857399215337595
2023-01-30 10:17:11.308919,0.04687905311584465
2023-01-30 10:17:11.313919,0.051243312533685505
2023-01-30 10:17:11.318919,0.0507255420088768
2023-01-30 10:17:11.323919,0.04534591904892893
2023-01-30 10:17:11.328919,0.03536363691091536
2023-01-30 10:17:11.333919,0.02147926170603717
2023-01-30 10:17:11.338919,0.004711946006864354
2023-01-30 10:17:11.343919,-0.013956541308319486
2023-01-30 10:17:11.348919,-0.03363271802663794
2023-01-30 10:17:11.353919,-0.05332373659061206
2023-01-30 10:17:11.358919,-0.07202546298503873
2023-01-30 10:17:11.363919,-0.08902785747445294
2023-01-30 10:17:11.368919,-0.10392725467681876
2023-01-30 10:17:11.373919,-0.11637272487131654
2023-01-30 10:17:11.378919,-0.12604455649852744
2023-01-30 10:17:11.383919,-0.1328904704775477
2023-01-30 10:17:11.388919,-0.13717532157897938
2023-01-30 10:17:11.393919,-0.13929405057180208
2023-01-30 10:17:11.398919,-0.1397236287593841
2023-01-30 10:17:11.403919,-0.1391304114850447
2023-01-30 10:17:11.408919,-0.13825714588165283
2023-01-30 10:17:11.413919,-0.13758117476877366
2023-01-30 10:17:11.418919,-0.13717532157897938
2023-01-30 10:17:11.423919,-0.1368996364662126
2023-01-30 10:17:11.428919,-0.13657431304454795
2023-01-30 10:17:11.433919,-0.13596044529281684
2023-01-30 10:17:11.438919,-0.1347953081130981
2023-01-30 10:17:11.443919,-0.1330004104858656
2023-01-30 10:17:11.448919,-0.13078054785728443
2023-01-30 10:17:11.453919,-0.1284248489443428
2023-01-30 10:17:11.458919,-0.12606859207153323
2023-01-30 10:17:11.463919,-0.12371701376071834
2023-01-30 10:17:11.468919,-0.12140472978353496
2023-01-30 10:17:11.473919,-0.11917749035011573
2023-01-30 10:17:11.478919,-0.11693318933248509
2023-01-30 10:17:11.483919,-0.11444758712937612
2023-01-30 10:17:11.488919,-0.11162023246288284
2023-01-30 10:17:11.493919,-0.10856374258167473
2023-01-30 10:17:11.498919,-0.10536968708038333
2023-01-30 10:17:11.503919,-0.10194236720256802
2023-01-30 10:17:11.508919,-0.09820561110973353
2023-01-30 10:17:11.513919,-0.09428420368138463
2023-01-30 10:17:11.518919,-0.09020011126995078
2023-01-30 10:17:11.523919,-0.0855310937960031
2023-01-30 10:17:11.528919,-0.07981459796428676
2023-01-30 10:17:11.533919,-0.07335450001305951
2023-01-30 10:17:11.538919,-0.06721735000610345
2023-01-30 10:17:11.543919,-0.062297508121298285
2023-01-30 10:17:11.548919,-0.0588512420654296
2023-01-30 10:17:11.553919,-0.05723053043094185
2023-01-30 10:17:11.558919,-0.05853871628642078
2023-01-30 10:17:11.563919,-0.06387337919281555
2023-01-30 10:17:11.568919,-0.0729870796203613
2023-01-30 10:17:11.573919,-0.08417255437021487
2023-01-30 10:17:11.578919,-0.09544094651937485
2023-01-30 10:17:11.583919,-0.10542686934504754
2023-01-30 10:17:11.588919,-0.11332710832357396
2023-01-30 10:17:11.593919,-0.11878373049306071
2023-01-30 10:17:11.598919,-0.12234231084585179
2023-01-30 10:17:11.603919,-0.12576328179764448
2023-01-30 10:17:11.608919,-0.13138155639171595
2023-01-30 10:17:11.613919,-0.14074008459130447
2023-01-30 10:17:11.618919,-0.15306612849235518
2023-01-30 10:17:11.623919,-0.16381525228882743
2023-01-30 10:17:11.628919,-0.16388437151908863
2023-01-30 10:17:11.633919,-0.1409279254820025
2023-01-30 10:17:11.638919,-0.08368512243032442
2023-01-30 10:17:11.643919,0.011921624451393777
2023-01-30 10:17:11.648919,0.13794462382793415
2023-01-30 10:17:11.653919,0.2736972650380584
2023-01-30 10:17:11.658919,0.390322208404541
2023-01-30 10:17:11.663919,0.4595808671760384
2023-01-30 10:17:11.668919,0.4637179970741271
2023-01-30 10:17:11.673919,0.40210980204770114
2023-01-30 10:17:11.678919,0.29139539599418646
2023-01-30 10:17:11.683919,0.1589804343917879
2023-01-30 10:17:11.688919,0.03319998830556854
2023-01-30 10:17:11.693919,-0.06533985552445276
2023-01-30 10:17:11.698919,-0.12808799743652338
2023-01-30 10:17:11.703919,-0.15784543920760033
2023-01-30 10:17:11.708919,-0.16438922286033625
2023-01-30 10:17:11.713919,-0.1589405149709628
2023-01-30 10:17:11.718919,-0.15006105601787556
2023-01-30 10:17:11.723919,-0.14230041259786516
2023-01-30 10:17:11.728919,-0.13700704276561726
2023-01-30 10:17:11.733919,-0.13375570861509625
2023-01-30 10:17:11.738919,-0.13145367801189417
2023-01-30 10:17:11.743919,-0.12910874870782565
2023-01-30 10:17:11.748919,-0.12628495693206768
2023-01-30 10:17:11.753919,-0.12303595820814747
2023-01-30 10:17:11.758919,-0.11950552463531489
2023-01-30 10:17:11.763919,-0.11577260205329622
2023-01-30 10:17:11.768919,-0.11200487613677974
2023-01-30 10:17:11.773919,-0.10839836753755563
2023-01-30 10:17:11.778919,-0.10484080016612998
2023-01-30 10:17:11.783919,-0.10089344449131409
2023-01-30 10:17:11.788919,-0.09621024131774904
2023-01-30 10:17:11.793919,-0.09073025555601559
2023-01-30 10:17:11.798919,-0.08440633863210667
2023-01-30 10:17:11.803919,-0.07708921104195604
2023-01-30 10:17:11.808919,-0.06880402565002436
2023-01-30 10:17:11.813919,-0.059781192759380715
2023-01-30 10:17:11.818919,-0.05002836510539055
2023-01-30 10:17:11.823919,-0.0391968246166289
2023-01-30 10:17:11.828919,-0.027045607566833475
2023-01-30 10:17:11.833919,-0.013711234297227301
2023-01-30 10:17:11.838919,0.0006010135402901823
2023-01-30 10:17:11.843919,0.01572933074633704
2023-01-30 10:17:11.848919,0.031108459457755012
2023-01-30 10:17:11.853919,0.04563350095949905
2023-01-30 10:17:11.858919,0.058250229805707855
2023-01-30 10:17:11.863919,0.06830926057052744
2023-01-30 10:17:11.868919,0.07515072822570795
2023-01-30 10:17:11.873919,0.07788428180470926
2023-01-30 10:17:11.878919,0.07594406604766844
2023-01-30 10:17:11.883919,0.06942703672268384
2023-01-30 10:17:11.888919,0.0586108379065991
2023-01-30 10:17:11.893919,0.043707629354793415
2023-01-30 10:17:11.898919,0.025482973083853767
2023-01-30 10:17:11.903919,0.005550545720908948
2023-01-30 10:17:11.908919,-0.014424324035644502
2023-01-30 10:17:11.913919,-0.033376368575101165
2023-01-30 10:17:11.918919,-0.05043705552816392
2023-01-30 10:17:11.923919,-0.06464198758311678
2023-01-30 10:17:11.928919,-0.07560750097036356
2023-01-30 10:17:11.933919,-0.08388477164124471
2023-01-30 10:17:11.938919,-0.09007990360260001
2023-01-30 10:17:11.943919,-0.0941952797319706
2023-01-30 10:17:11.948919,-0.09630640596151349
2023-01-30 10:17:11.953919,-0.0971282273512204
2023-01-30 10:17:11.958919,-0.09726803004741653
2023-01-30 10:17:11.963919,-0.09662243349800151
2023-01-30 10:17:11.968919,-0.09515246003866186
2023-01-30 10:17:11.973919,-0.09348675173049821
2023-01-30 10:17:11.978919,-0.0920512303709983
2023-01-30 10:17:11.983919,-0.0904008120567172
2023-01-30 10:17:11.988919,-0.0881807059049606
2023-01-30 10:17:11.993919,-0.08593397754833586
2023-01-30 10:17:11.998919,-0.08416593074798576
2023-01-30 10:17:12.003919,-0.08250034235248974
2023-01-30 10:17:12.008919,-0.08063197135925285
2023-01-30 10:17:12.013919,-0.07916282140911923
2023-01-30 10:17:12.018919,-0.0785164088010787
2023-01-30 10:17:12.023919,-0.07798067850270993
2023-01-30 10:17:12.028919,-0.07685761153697959
2023-01-30 10:17:12.033919,-0.07556163712490994
2023-01-30 10:17:12.038919,-0.07450163364410398
2023-01-30 10:17:12.043919,-0.07297683441071123
2023-01-30 10:17:12.048919,-0.07039070129394533
2023-01-30 10:17:12.053919,-0.06742277581871743
2023-01-30 10:17:12.058919,-0.06469309329986564
2023-01-30 10:17:12.063919,-0.06145181900092655
2023-01-30 10:17:12.068919,-0.05697607994079577
2023-01-30 10:17:12.073919,-0.0519668498909661
2023-01-30 10:17:12.078919,-0.047023296356201054
2023-01-30 10:17:12.083919,-0.041119211036825115
2023-01-30 10:17:12.088919,-0.03334423154592512
2023-01-30 10:17:12.093919,-0.024821948191600864
2023-01-30 10:17:12.098919,-0.017164945602416926
2023-01-30 10:17:12.103919,-0.010609600644117157
2023-01-30 10:17:12.108919,-0.005649527069181223
2023-01-30 10:17:12.113919,-0.00468888595553324
2023-01-30 10:17:12.118919,-0.009544095024466527
2023-01-30 10:17:12.123919,-0.01878078735279314
2023-01-30 10:17:12.128919,-0.029882391914725238
2023-01-30 10:17:12.133919,-0.0422181801982706
2023-01-30 10:17:12.138919,-0.05524516105651851
2023-01-30 10:17:12.143919,-0.06608447120527404
2023-01-30 10:17:12.148919,-0.07243414968252179
2023-01-30 10:17:12.153919,-0.07607967935984784
2023-01-30 10:17:12.158919,-0.08007904142141338
2023-01-30 10:17:12.163919,-0.08471422916672895
2023-01-30 10:17:12.168919,-0.09003182500600806
2023-01-30 10:17:12.173919,-0.09908899204416187
2023-01-30 10:17:12.178919,-0.11253377050161356
2023-01-30 10:17:12.183919,-0.1214978320385589
2023-01-30 10:17:12.188919,-0.11162023246288286
2023-01-30 10:17:12.193919,-0.07269096369518824
2023-01-30 10:17:12.198919,0.0004086892004124678
2023-01-30 10:17:12.203919,0.11046550326975978
2023-01-30 10:17:12.208919,0.24932444095611572
2023-01-30 10:17:12.213919,0.3870801283422253
2023-01-30 10:17:12.218919,0.4838639497756957
2023-01-30 10:17:12.223919,0.5185321275033121
2023-01-30 10:17:12.228919,0.49768728017806985
2023-01-30 10:17:12.233919,0.43457666705482256
2023-01-30 10:17:12.238919,0.33315381407737726
2023-01-30 10:17:12.243919,0.20147247943572794
2023-01-30 10:17:12.248919,0.06748180091381069
2023-01-30 10:17:12.253919,-0.035064380246588096
2023-01-30 10:17:12.258919,-0.09378214925527563
2023-01-30 10:17:12.263919,-0.12010212697819296
2023-01-30 10:17:12.268919,-0.12844860553741444
2023-01-30 10:17:12.273919,-0.12494654334509095
2023-01-30 10:17:12.278919,-0.11464934051036825
2023-01-30 10:17:12.283919,-0.1057005777010726
2023-01-30 10:17:12.288919,-0.10176360607147202
2023-01-30 10:17:12.293919,-0.09888010152258218
2023-01-30 10:17:12.298919,-0.09368598461151105
2023-01-30 10:17:12.303919,-0.08839286975244598
2023-01-30 10:17:12.308919,-0.08507947623729697
2023-01-30 10:17:12.313919,-0.08152990508325986
2023-01-30 10:17:12.318919,-0.07599215209484103
2023-01-30 10:17:12.323919,-0.07070821512066991
2023-01-30 10:17:12.328919,-0.06752987951040257
2023-01-30 10:17:12.333919,-0.06454301857327778
2023-01-30 10:17:12.338919,-0.05993306636810304
2023-01-30 10:17:12.343919,-0.055143532298913875
2023-01-30 10:17:12.348919,-0.051470797508955
2023-01-30 10:17:12.353919,-0.047215517083528905
2023-01-30 10:17:12.358919,-0.040844880044460165
2023-01-30 10:17:12.363919,-0.03365461938074749
2023-01-30 10:17:12.368919,-0.02680520340800271
2023-01-30 10:17:12.373919,-0.018776396719411594
2023-01-30 10:17:12.378919,-0.008149743080139056
2023-01-30 10:17:12.383919,0.0038821728617926205
2023-01-30 10:17:12.388919,0.016010999679565447
2023-01-30 10:17:12.393919,0.029155284119522736
2023-01-30 10:17:12.398919,0.04413843154907219
2023-01-30 10:17:12.403919,0.05948164584112938
2023-01-30 10:17:12.408919,0.07358809560537322
2023-01-30 10:17:12.413919,0.08682758888236511
2023-01-30 10:17:12.418919,0.099455714225769
2023-01-30 10:17:12.423919,0.1096479557512352
2023-01-30 10:17:12.428919,0.11558692157268519
2023-01-30 10:17:12.433919,0.11754451612410563
2023-01-30 10:17:12.438919,0.11611580848693837
2023-01-30 10:17:12.443919,0.1103865466282123
2023-01-30 10:17:12.448919,0.09969612210988994
2023-01-30 10:17:12.453919,0.08540148783170351
2023-01-30 10:17:12.458919,0.06914059817790982
2023-01-30 10:17:12.463919,0.05105325262879339
2023-01-30 10:17:12.468919,0.031348865479230825
2023-01-30 10:17:12.473919,0.011902566720117193
2023-01-30 10:17:12.478919,-0.005409121513366623
2023-01-30 10:17:12.483919,-0.02044660912308638
2023-01-30 10:17:12.488919,-0.03341635316610327
2023-01-30 10:17:12.493919,-0.04338271730588403
2023-01-30 10:17:12.498919,-0.04973987862467756
2023-01-30 10:17:12.503919,-0.05366379334143699
2023-01-30 10:17:12.508919,-0.05654335021972659
2023-01-30 10:17:12.513919,-0.05830329537256278
2023-01-30 10:17:12.518919,-0.05863487720489495
2023-01-30 10:17:12.523919,-0.05842036268026381
2023-01-30 10:17:12.528919,-0.05846659466624245
2023-01-30 10:17:12.533919,-0.05816416504376861
2023-01-30 10:17:12.538919,-0.056831836700439356
2023-01-30 10:17:12.543919,-0.05514151375414377
2023-01-30 10:17:12.548919,-0.053874850273132255
2023-01-30 10:17:12.553919,-0.0525251382935025
2023-01-30 10:17:12.558919,-0.05046109482645981
2023-01-30 10:17:12.563919,-0.04825517798902236
2023-01-30 10:17:12.568919,-0.04654248803853977
2023-01-30 10:17:12.573919,-0.044739179049340355
2023-01-30 10:17:12.578919,-0.04219114780426011
2023-01-30 10:17:12.583919,-0.039478466681940556
2023-01-30 10:17:12.588919,-0.0373349599540233
2023-01-30 10:17:12.593919,-0.03536472865156266
2023-01-30 10:17:12.598919,-0.03303170204162583
2023-01-30 10:17:12.603919,-0.03082283120170599
2023-01-30 10:17:12.608919,-0.02920925617218008
2023-01-30 10:17:12.613919,-0.027494229061305824
2023-01-30 10:17:12.618919,-0.024881958961486823
2023-01-30 10:17:12.623919,-0.021690971388057742
2023-01-30 10:17:12.628919,-0.018366973847150816
2023-01-30 10:17:12.633919,-0.014298712120519785
2023-01-30 10:17:12.638919,-0.008774797432124637
2023-01-30 10:17:12.643919,-0.002195653156882817
2023-01-30 10:17:12.648919,0.004711946006864371
2023-01-30 10:17:12.653919,0.011865633559228908
2023-01-30 10:17:12.658919,0.018871825188398337
2023-01-30 10:17:12.663919,0.024045205404040045
2023-01-30 10:17:12.668919,0.02557913586497297
2023-01-30 10:17:12.673919,0.023013636274096267
2023-01-30 10:17:12.678919,0.016732215881347556
2023-01-30 10:17:12.683919,0.007060266819315841
2023-01-30 10:17:12.688919,-0.005048513412475567
2023-01-30 10:17:12.693919,-0.017391783260374626
2023-01-30 10:17:12.698919,-0.02783894538879383
2023-01-30 10:17:12.703919,-0.0357461771432316
2023-01-30 10:17:12.708919,-0.04137377068400376
2023-01-30 10:17:12.713919,-0.04495749055639594
2023-01-30 10:17:12.718919,-0.04743198677897449
2023-01-30 10:17:12.723919,-0.05111275140819825
2023-01-30 10:17:12.728919,-0.05817810818552968
2023-01-30 10:17:12.733919,-0.0683919371285475
2023-01-30 10:17:12.738919,-0.07827600091695777
2023-01-30 10:17:12.743919,-0.08106505715654733
2023-01-30 10:17:12.748919,-0.06668846309185013
2023-01-30 10:17:12.753919,-0.023946689899742166
2023-01-30 10:17:12.758919,0.053778689354658085
2023-01-30 10:17:12.763919,0.1626609169427253
2023-01-30 10:17:12.768919,0.2868998050689697
2023-01-30 10:17:12.773919,0.40210930876339074
2023-01-30 10:17:12.778919,0.48174840211868275
2023-01-30 10:17:12.783919,0.5054126513916738
2023-01-30 10:17:12.788919,0.4667951762676239
2023-01-30 10:17:12.793919,0.3766681942651515
2023-01-30 10:17:12.798919,0.25821945071220387
2023-01-30 10:17:12.803919,0.13791803127641916
2023-01-30 10:17:12.808919,0.03731092065572728
2023-01-30 10:17:12.813919,-0.03182460221773302
2023-01-30 10:17:12.818919,-0.06880402565002433
2023-01-30 10:17:12.823919,-0.08141327472989121
2023-01-30 10:17:12.828919,-0.0802713632583618
2023-01-30 10:17:12.833919,-0.07385510291165322
2023-01-30 10:17:12.838919,-0.06700098514556879
2023-01-30 10:17:12.843919,-0.0617385694572846
2023-01-30 10:17:12.848919,-0.058154068887233686
2023-01-30 10:17:12.853919,-0.0552007848404988
2023-01-30 10:17:12.858919,-0.05195160955190643
2023-01-30 10:17:12.863919,-0.048251099882887644
2023-01-30 10:17:12.868919,-0.04418651387095454
2023-01-30 10:17:12.873919,-0.039738817943759004
2023-01-30 10:17:12.878919,-0.03526747226715084
2023-01-30 10:17:12.883919,-0.031420818128614754
2023-01-30 10:17:12.888919,-0.028103392571210802
2023-01-30 10:17:12.893919,-0.02440460395908762
2023-01-30 10:17:12.898919,-0.01995364949107168
2023-01-30 10:17:12.903919,-0.015338412056353641
2023-01-30 10:17:12.908919,-0.010722081176936588
2023-01-30 10:17:12.913919,-0.005190393389800903
2023-01-30 10:17:12.918919,0.0018751621246337227
2023-01-30 10:17:12.923919,0.009889726913046687
2023-01-30 10:17:12.928919,0.01829485222697257
2023-01-30 10:17:12.933919,0.027657052917901742
2023-01-30 10:17:12.938919,0.0387293100357056
2023-01-30 10:17:12.943919,0.051396365068570087
2023-01-30 10:17:12.948919,0.06536623090505586
2023-01-30 10:17:12.953919,0.08089730364726856
2023-01-30 10:17:12.958919,0.09786903858184816
2023-01-30 10:17:12.963919,0.11495979486521571
2023-01-30 10:17:12.968919,0.13066034018993367
2023-01-30 10:17:12.973919,0.14436428505192497
2023-01-30 10:17:12.978919,0.15568654239177698
2023-01-30 10:17:12.983919,0.16359193591806914
2023-01-30 10:17:12.988919,0.16712984442710868
2023-01-30 10:17:12.993919,0.1662874582811919
2023-01-30 10:17:12.998919,0.1612639427185057
2023-01-30 10:17:13.003919,0.15167614619605588
2023-01-30 10:17:13.008919,0.13739168643951408
2023-01-30 10:17:13.013919,0.1194685427786683
2023-01-30 10:17:13.018919,0.09943167865276331
2023-01-30 10:17:13.023919,0.07829045908116558
2023-01-30 10:17:13.028919,0.05702416226267808
2023-01-30 10:17:13.033919,0.03721208226346205
2023-01-30 10:17:13.038919,0.020194053649902337
2023-01-30 10:17:13.043919,0.006148188955514314
2023-01-30 10:17:13.048919,-0.005264878273010131
2023-01-30 10:17:13.053919,-0.014032407304103305
2023-01-30 10:17:13.058919,-0.02031425759196287
2023-01-30 10:17:13.063919,-0.025044936748835102
2023-01-30 10:17:13.068919,-0.02906501293182367
2023-01-30 10:17:13.073919,-0.032201708231965824
2023-01-30 10:17:13.078919,-0.03396928310394279
2023-01-30 10:17:13.083919,-0.03455468057845021
2023-01-30 10:17:13.088919,-0.03437797352671626
2023-01-30 10:17:13.093919,-0.033390902589160186
2023-01-30 10:17:13.098919,-0.031637351959943626
2023-01-30 10:17:13.103919,-0.029839637763666254
2023-01-30 10:17:13.108919,-0.028560161590576113
2023-01-30 10:17:13.113919,-0.027339750880548387
2023-01-30 10:17:13.118919,-0.02543489262461652
2023-01-30 10:17:13.123919,-0.022837147956285136
2023-01-30 10:17:13.128919,-0.019881527870893374
2023-01-30 10:17:13.133919,-0.016557405955867473
2023-01-30 10:17:13.138919,-0.01300593279302124
2023-01-30 10:17:13.143919,-0.010013759698663572
2023-01-30 10:17:13.148919,-0.008125702850520567
2023-01-30 10:17:13.153919,-0.006793041003226586
2023-01-30 10:17:13.158919,-0.005144675727933655
2023-01-30 10:17:13.163919,-0.003024298519785404
2023-01-30 10:17:13.168919,-0.0005769729614256059
2023-01-30 10:17:13.173919,0.002482737991551772
2023-01-30 10:17:13.178919,0.006370743270963539
2023-01-30 10:17:13.183919,0.010648211023160962
2023-01-30 10:17:13.188919,0.014977256767451815
2023-01-30 10:17:13.193919,0.019885329223116286
2023-01-30 10:17:13.198919,0.02596378326416012
2023-01-30 10:17:13.203919,0.0328129518137329
2023-01-30 10:17:13.208919,0.03945052623748769
2023-01-30 10:17:13.213919,0.04510592550283612
2023-01-30 10:17:13.218919,0.048874419182538965
2023-01-30 10:17:13.223919,0.04934649550183546
2023-01-30 10:17:13.228919,0.045604906976222964
2023-01-30 10:17:13.233919,0.03822591219402966
2023-01-30 10:17:13.238919,0.028632283210754242
2023-01-30 10:17:13.243919,0.018004541153866956
2023-01-30 10:17:13.248919,0.007428526878356838
2023-01-30 10:17:13.253919,-0.0017264048107365681
2023-01-30 10:17:13.258919,-0.008606513962149658
2023-01-30 10:17:13.263919,-0.013653723734695934
2023-01-30 10:17:13.268919,-0.01793424412608139
2023-01-30 10:17:13.273919,-0.02228779519224607
2023-01-30 10:17:13.278919,-0.027718743309378548
2023-01-30 10:17:13.283919,-0.035545652287284256
2023-01-30 10:17:13.288919,-0.045628946274518835
2023-01-30 10:17:13.293919,-0.05423734090961268
2023-01-30 10:17:13.298919,-0.053971014916896716
2023-01-30 10:17:13.303919,-0.035513316465707635
2023-01-30 10:17:13.308919,0.009880661964416466
2023-01-30 10:17:13.313919,0.08657599705014199
2023-01-30 10:17:13.318919,0.18975198268890375
2023-01-30 10:17:13.323919,0.30327934349106683
2023-01-30 10:17:13.328919,0.40344834327697743
2023-01-30 10:17:13.333919,0.4667750823451246
2023-01-30 10:17:13.338919,0.4775893688201902
2023-01-30 10:17:13.343919,0.4330853300009421
2023-01-30 10:17:13.348919,0.3448134660720824
2023-01-30 10:17:13.353919,0.23496172827086417
2023-01-30 10:17:13.358919,0.1278716325759886
2023-01-30 10:17:13.363919,0.041585570804807036
2023-01-30 10:17:13.368919,-0.01581867597997176
2023-01-30 10:17:13.373919,-0.045284952228679835
2023-01-30 10:17:13.378919,-0.05399505421519268
2023-01-30 10:17:13.383919,-0.051656251988891275
2023-01-30 10:17:13.388919,-0.046205919235944616
2023-01-30 10:17:13.393919,-0.041375824569476645
2023-01-30 10:17:13.398919,-0.037791728973388554
2023-01-30 10:17:13.403919,-0.03526266634566905
2023-01-30 10:17:13.408919,-0.033344231545925064
2023-01-30 10:17:13.413919,-0.031069368197613665
2023-01-30 10:17:13.418919,-0.02783894538879384
2023-01-30 10:17:13.423919,-0.024272975102032465
2023-01-30 10:17:13.428919,-0.02117971703410139
2023-01-30 10:17:13.433919,-0.01827688715760012
2023-01-30 10:17:13.438919,-0.014929175376891967
2023-01-30 10:17:13.443919,-0.011370333928906044
2023-01-30 10:17:13.448919,-0.008005499839782677
2023-01-30 10:17:13.453919,-0.004278873920533499
2023-01-30 10:17:13.458919,0.00043272972106927907
2023-01-30 10:17:13.463919,0.005525920427782978
2023-01-30 10:17:13.468919,0.010193189606070433
2023-01-30 10:17:13.473919,0.01503786390649951
2023-01-30 10:17:13.478919,0.021155675873160282
2023-01-30 10:17:13.483919,0.028369291665503556
2023-01-30 10:17:13.488919,0.0361810140311717
2023-01-30 10:17:13.493919,0.0457824102180625
2023-01-30 10:17:13.498919,0.05882720276713371
2023-01-30 10:17:13.503919,0.07435400743376892
2023-01-30 10:17:13.508919,0.08928656578063966
2023-01-30 10:17:13.513919,0.10235695303544523
2023-01-30 10:17:13.518919,0.11532247066497803
2023-01-30 10:17:13.523919,0.12953868192414353
2023-01-30 10:17:13.528919,0.1433537453413009
2023-01-30 10:17:13.533919,0.1540761986547398
2023-01-30 10:17:13.538919,0.16090333461761466
2023-01-30 10:17:13.543919,0.16448225829077018
2023-01-30 10:17:13.548919,0.16472578048706046
2023-01-30 10:17:13.553919,0.16060685124982937
2023-01-30 10:17:13.558919,0.15159964561462397
2023-01-30 10:17:13.563919,0.13812308740574478
2023-01-30 10:17:13.568919,0.12085179984569534
2023-01-30 10:17:13.573919,0.10058078940220802
2023-01-30 10:17:13.578919,0.07868468761444102
2023-01-30 10:17:13.583919,0.05696535573296441
2023-01-30 10:17:13.588919,0.03695031255483635
2023-01-30 10:17:13.593919,0.0196136661809763
2023-01-30 10:17:13.598919,0.005529324524104501
2023-01-30 10:17:13.603919,-0.005153511325576138
2023-01-30 10:17:13.608919,-0.01281360816210498
2023-01-30 10:17:13.613919,-0.01813945501227445
2023-01-30 10:17:13.618919,-0.0218047704547643
2023-01-30 10:17:13.623919,-0.024368572924319893
2023-01-30 10:17:13.628919,-0.026228230446576958
2023-01-30 10:17:13.633919,-0.02750311616759857
2023-01-30 10:17:13.638919,-0.02810339257121084
2023-01-30 10:17:13.643919,-0.02797316002316223
2023-01-30 10:17:13.648919,-0.027141770347952784
2023-01-30 10:17:13.653919,-0.025617703503365088
2023-01-30 10:17:13.658919,-0.02348760887980452
2023-01-30 10:17:13.663919,-0.02107940177079004
2023-01-30 10:17:13.668919,-0.01877566240727895
2023-01-30 10:17:13.673919,-0.016709822069286995
2023-01-30 10:17:13.678919,-0.014857053756713744
2023-01-30 10:17:13.683919,-0.013286898062262973
2023-01-30 10:17:13.688919,-0.012044310569763088
2023-01-30 10:17:13.693919,-0.01091849585105245
2023-01-30 10:17:13.698919,-0.009640256874263224
2023-01-30 10:17:13.703919,-0.00819337113769147
2023-01-30 10:17:13.708919,-0.006659229751676373
2023-01-30 10:17:13.713919,-0.004932831968494289
2023-01-30 10:17:13.718919,-0.0029089055024087806
2023-01-30 10:17:13.723919,-0.0007660403056527987
2023-01-30 10:17:13.728919,0.0012741487007588148
2023-01-30 10:17:13.733919,0.0033114718319339144
2023-01-30 10:17:13.738919,0.005601446144282789
2023-01-30 10:17:13.743919,0.00825985129516601
2023-01-30 10:17:13.748919,0.011467337608337467
2023-01-30 10:17:13.753919,0.015709353601157345
2023-01-30 10:17:13.758919,0.02139608189463614
2023-01-30 10:17:13.763919,0.02838465565612711
2023-01-30 10:17:13.768919,0.03613293170928961
2023-01-30 10:17:13.773919,0.044000124192971835
2023-01-30 10:17:13.778919,0.05101402848958956
2023-01-30 10:17:13.783919,0.05568281383425191
2023-01-30 10:17:13.788919,0.05659143254160882
2023-01-30 10:17:13.793919,0.053147166799034154
2023-01-30 10:17:13.798919,0.04558086395263672
2023-01-30 10:17:13.803919,0.03465401230306348
2023-01-30 10:17:13.808919,0.021780729293823253
2023-01-30 10:17:13.813919,0.008993870341281828
2023-01-30 10:17:13.818919,-0.0018992027034983132
2023-01-30 10:17:13.823919,-0.010157052269786044
2023-01-30 10:17:13.828919,-0.01601099967956541
2023-01-30 10:17:13.833919,-0.02028759942607056
2023-01-30 10:17:13.838919,-0.024569433182477864
2023-01-30 10:17:13.843919,-0.031061656552053913
2023-01-30 10:17:13.848919,-0.04110932350158686
2023-01-30 10:17:13.853919,-0.05315462136431578
2023-01-30 10:17:13.858919,-0.061639945954084396
2023-01-30 10:17:13.863919,-0.057196490672333004
2023-01-30 10:17:13.868919,-0.028223594650626085
2023-01-30 10:17:13.873919,0.03518860895869421
2023-01-30 10:17:13.878919,0.13530015945434562
2023-01-30 10:17:13.883919,0.2620713981213987
2023-01-30 10:17:13.888919,0.3934955596923827
2023-01-30 10:17:13.893919,0.5012704575085496
2023-01-30 10:17:13.898919,0.5593993663787838
2023-01-30 10:17:13.903919,0.5529687249677121
2023-01-30 10:17:13.908919,0.48403224349021917
2023-01-30 10:17:13.913919,0.3711843845458909
2023-01-30 10:17:13.918919,0.24216036498546592
2023-01-30 10:17:13.923919,0.12359879164021247
2023-01-30 10:17:13.928919,0.03339231014251705
2023-01-30 10:17:13.933919,-0.022234415753482607
2023-01-30 10:17:13.938919,-0.047600269317626835
2023-01-30 10:17:13.943919,-0.053260914075962146
2023-01-30 10:17:13.948919,-0.050100486725568695
2023-01-30 10:17:13.953919,-0.04512320929390989
2023-01-30 10:17:13.958919,-0.041085284203290814
2023-01-30 10:17:13.963919,-0.0382926515350784
2023-01-30 10:17:13.968919,-0.035868488252162926
2023-01-30 10:17:13.973919,-0.032484580918296584
2023-01-30 10:17:13.978919,-0.027574500069022075
2023-01-30 10:17:13.983919,-0.02199291590718686
2023-01-30 10:17:13.988919,-0.016924541443586388
2023-01-30 10:17:13.993919,-0.01261293406570195
2023-01-30 10:17:13.998919,-0.008798837661743126
2023-01-30 10:17:14.003919,-0.005624042763727014
2023-01-30 10:17:14.008919,-0.003101229667663522
2023-01-30 10:17:14.013919,-0.0003854283426046502
2023-01-30 10:17:14.018919,0.0032695136032997786
2023-01-30 10:17:14.023919,0.007370558456562131
2023-01-30 10:17:14.028919,0.011082689277827655
2023-01-30 10:17:14.033919,0.014631337647655868
2023-01-30 10:17:14.038919,0.018679499626159574
2023-01-30 10:17:14.043919,0.02313186862739019
2023-01-30 10:17:14.048919,0.028007229790091476
2023-01-30 10:17:14.053919,0.03471172730130278
2023-01-30 10:17:14.058919,0.04469136521220192
2023-01-30 10:17:14.063919,0.05738458573923958
2023-01-30 10:17:14.068919,0.0712802037596702
2023-01-30 10:17:14.073919,0.08628096996988922
2023-01-30 10:17:14.078919,0.10277330875396717
2023-01-30 10:17:14.083919,0.11892852228347493
2023-01-30 10:17:14.088919,0.13179025053977958
2023-01-30 10:17:14.093919,0.14116471450728246
2023-01-30 10:17:14.098919,0.1494600474834442
2023-01-30 10:17:14.103919,0.1569827513300885
2023-01-30 10:17:14.108919,0.1604465693235396
2023-01-30 10:17:14.113919,0.15754647041611575
2023-01-30 10:17:14.118919,0.15015721321105946
2023-01-30 10:17:14.123919,0.14091749420164443
2023-01-30 10:17:14.128919,0.1290736645460127
2023-01-30 10:17:14.133919,0.11242433786008363
2023-01-30 10:17:14.138919,0.09176274389028535
2023-01-30 10:17:14.143919,0.07048111867472492
2023-01-30 10:17:14.148919,0.0505812987685203
2023-01-30 10:17:14.153919,0.03179043978482823
2023-01-30 10:17:14.158919,0.014304121956229114
2023-01-30 10:17:14.163919,-0.000231730013210561
2023-01-30 10:17:14.168919,-0.010842284187674512
2023-01-30 10:17:14.173919,-0.01828897049029424
2023-01-30 10:17:14.178919,-0.023487608879804667
2023-01-30 10:17:14.183919,-0.02647352657844737
2023-01-30 10:17:14.188919,-0.027454297989606864
2023-01-30 10:17:14.193919,-0.02745522918987962
2023-01-30 10:17:14.198919,-0.027237933129071957
2023-01-30 10:17:14.203919,-0.026621063884586713
2023-01-30 10:17:14.208919,-0.025410851463675343
2023-01-30 10:17:14.213919,-0.02408744995146273
2023-01-30 10:17:14.218919,-0.02307891845703119
2023-01-30 10:17:14.223919,-0.02217913749928861
2023-01-30 10:17:14.228919,-0.021179717034101417
2023-01-30 10:17:14.233919,-0.02039137571670481
2023-01-30 10:17:14.238919,-0.020097892731428126
2023-01-30 10:17:14.243919,-0.02009901970166276
2023-01-30 10:17:14.248919,-0.020194053649902306
2023-01-30 10:17:14.253919,-0.02056625982130281
2023-01-30 10:17:14.258919,-0.02129991911351675
2023-01-30 10:17:14.263919,-0.021997219452519905
2023-01-30 10:17:14.268919,-0.02223750017583368
2023-01-30 10:17:14.273919,-0.02200972139719539
2023-01-30 10:17:14.278919,-0.02139608189463612
2023-01-30 10:17:14.283919,-0.020246792174929657
2023-01-30 10:17:14.288919,-0.01848717592656606
2023-01-30 10:17:14.293919,-0.016380339372182272
2023-01-30 10:17:14.298919,-0.014159878715872697
2023-01-30 10:17:14.303919,-0.011677283940189553
2023-01-30 10:17:14.308919,-0.008654594421386759
2023-01-30 10:17:14.313919,-0.004990622380424357
2023-01-30 10:17:14.318919,-0.0005769729614256675
2023-01-30 10:17:14.323919,0.004879386925802019
2023-01-30 10:17:14.328919,0.011515418998897032
2023-01-30 10:17:14.333919,0.018912527408388762
2023-01-30 10:17:14.338919,0.02618014812469483
2023-01-30 10:17:14.343919,0.03222605223522772
2023-01-30 10:17:14.348919,0.03582040593028061
2023-01-30 10:17:14.353919,0.035747550412809026
2023-01-30 10:17:14.358919,0.031324826180934885
2023-01-30 10:17:14.363919,0.02284244852844614
2023-01-30 10:17:14.368919,0.011443297378718752
2023-01-30 10:17:14.373919,-0.0013230563851134984
2023-01-30 10:17:14.378919,-0.013847351074218636
2023-01-30 10:17:14.383919,-0.024753924139223102
2023-01-30 10:17:14.388919,-0.0332721099257469
2023-01-30 10:17:14.393919,-0.039458149666021215
2023-01-30 10:17:14.398919,-0.04411439225077612
2023-01-30 10:17:14.403919,-0.048649518211750904
2023-01-30 10:17:14.408919,-0.05493263527750959
2023-01-30 10:17:14.413919,-0.06461635155838875
2023-01-30 10:17:14.418919,-0.07755478471517564
2023-01-30 10:17:14.423919,-0.08989234541692362
2023-01-30 10:17:14.428919,-0.09308497607707972
2023-01-30 10:17:14.433919,-0.07501102589130165
2023-01-30 10:17:14.438919,-0.023703973740339265
2023-01-30 10:17:14.443919,0.06689691803478331
2023-01-30 10:17:14.448919,0.19141077995300285
2023-01-30 10:17:14.453919,0.33093698691868856
2023-01-30 10:17:14.458919,0.4566500782966612
2023-01-30 10:17:14.463919,0.5384510562790176
2023-01-30 10:17:14.468919,0.5553124547004697
2023-01-30 10:17:14.473919,0.502919826117538
2023-01-30 10:17:14.478919,0.39522647857666
2023-01-30 10:17:14.483919,0.25914131547140895
2023-01-30 10:17:14.488919,0.12474636733531949
2023-01-30 10:17:14.493919,0.01551644161077711
2023-01-30 10:17:14.498919,-0.05738477036356917
2023-01-30 10:17:14.503919,-0.09518591218074292
2023-01-30 10:17:14.508919,-0.10724484920501705
2023-01-30 10:17:14.513919,-0.10524686863469992
2023-01-30 10:17:14.518919,-0.09856621921062454
2023-01-30 10:17:14.523919,-0.0922671399772325
2023-01-30 10:17:14.528919,-0.08762776851654042
2023-01-30 10:17:14.533919,-0.08393599745290876
2023-01-30 10:17:14.538919,-0.08017520606517796
2023-01-30 10:17:14.543919,-0.07589100175976633
2023-01-30 10:17:14.548919,-0.07128020375967027
2023-01-30 10:17:14.553919,-0.06687403075740742
2023-01-30 10:17:14.558919,-0.06315450370311738
2023-01-30 10:17:14.563919,-0.06030344325438297
2023-01-30 10:17:14.568919,-0.05815406888723366
2023-01-30 10:17:14.573919,-0.0563042000526599
2023-01-30 10:17:14.578919,-0.054283540695905644
2023-01-30 10:17:14.583919,-0.051682592481421354
2023-01-30 10:17:14.588919,-0.048225324600934906
2023-01-30 10:17:14.593919,-0.04381146647854966
2023-01-30 10:17:14.598919,-0.03851294517517078
2023-01-30 10:17:14.603919,-0.032471144592726923
2023-01-30 10:17:14.608919,-0.025723379105329437
2023-01-30 10:17:14.613919,-0.018099956525573873
2023-01-30 10:17:14.618919,-0.009279648773372059
2023-01-30 10:17:14.623919,0.0010748677188183724
2023-01-30 10:17:14.628919,0.01319825649261467
2023-01-30 10:17:14.633919,0.02709329750049721
2023-01-30 10:17:14.638919,0.04238347336649892
2023-01-30 10:17:14.643919,0.058294732353649424
2023-01-30 10:17:14.648919,0.0738525390625
2023-01-30 10:17:14.653919,0.08810656615235217
2023-01-30 10:17:14.658919,0.10017693042755116
2023-01-30 10:17:14.663919,0.10922585673308856
2023-01-30 10:17:14.668919,0.11455317586660377
2023-01-30 10:17:14.673919,0.11572627975164239
2023-01-30 10:17:14.678919,0.11255781352519974
2023-01-30 10:17:14.683919,0.1050514027608732
2023-01-30 10:17:14.688919,0.09351770579814908
2023-01-30 10:17:14.693919,0.0786754183734084
2023-01-30 10:17:14.698919,0.061447620391845585
2023-01-30 10:17:14.703919,0.042672208238086304
2023-01-30 10:17:14.708919,0.023151040077209264
2023-01-30 10:17:14.713919,0.003859763474268476
2023-01-30 10:17:14.718919,-0.014207959175109901
2023-01-30 10:17:14.723919,-0.030414141324379997
2023-01-30 10:17:14.728919,-0.04440287873148911
2023-01-30 10:17:14.733919,-0.05567829815718057
2023-01-30 10:17:14.738919,-0.06373147666454317
2023-01-30 10:17:14.743919,-0.06880373812906575
2023-01-30 10:17:14.748919,-0.07209758460521688
2023-01-30 10:17:14.753919,-0.07481960935918222
2023-01-30 10:17:14.758919,-0.07721821963787064
2023-01-30 10:17:14.763919,-0.07888083458468763
2023-01-30 10:17:14.768919,-0.07969439029693598
2023-01-30 10:17:14.773919,-0.08001190550284709
2023-01-30 10:17:14.778919,-0.08000691980123509
2023-01-30 10:17:14.783919,-0.07945505952662138
2023-01-30 10:17:14.788919,-0.07827600091695779
2023-01-30 10:17:14.793919,-0.07684322513910627
2023-01-30 10:17:14.798919,-0.07555942237377167
2023-01-30 10:17:14.803919,-0.07445499810660947
2023-01-30 10:17:14.808919,-0.07339577376842488
2023-01-30 10:17:14.813919,-0.07238788076936434
2023-01-30 10:17:14.818919,-0.07144849002361292
2023-01-30 10:17:14.823919,-0.07042414661136326
2023-01-30 10:17:14.828919,-0.06921271979808796
2023-01-30 10:17:14.833919,-0.06802442193487743
2023-01-30 10:17:14.838919,-0.06719331443309778
2023-01-30 10:17:14.843919,-0.06682672813339927
2023-01-30 10:17:14.848919,-0.06680866330862041
2023-01-30 10:17:14.853919,-0.06700841057773604
2023-01-30 10:17:14.858919,-0.06726543605327608
2023-01-30 10:17:14.863919,-0.06726137923181778
2023-01-30 10:17:14.868919,-0.0666403770446778
2023-01-30 10:17:14.873919,-0.06524151574746884
2023-01-30 10:17:14.878919,-0.06305833905935278
2023-01-30 10:17:14.883919,-0.060017918699267536
2023-01-30 10:17:14.888919,-0.05596637725830062
2023-01-30 10:17:14.893919,-0.05084906057235665
2023-01-30 10:17:14.898919,-0.04478752613067615
2023-01-30 10:17:14.903919,-0.038082107776177196
2023-01-30 10:17:14.908919,-0.03137290477752679
2023-01-30 10:17:14.913919,-0.02580578846476797
2023-01-30 10:17:14.918919,-0.022814473137259407
2023-01-30 10:17:14.923919,-0.023565237338698048
2023-01-30 10:17:14.928919,-0.028512081131339052
2023-01-30 10:17:14.933919,-0.03726739108594988
2023-01-30 10:17:14.938919,-0.048658054322004304
2023-01-30 10:17:14.943919,-0.060961998339451685
2023-01-30 10:17:14.948919,-0.07243414968252182
2023-01-30 10:17:14.953919,-0.08190814447665777
2023-01-30 10:17:14.958919,-0.08907020092010488
2023-01-30 10:17:14.963919,-0.09440121151229729
2023-01-30 10:17:14.968919,-0.09911914914846418
2023-01-30 10:17:14.973919,-0.10509794488759093
2023-01-30 10:17:14.978919,-0.11426468938589093
2023-01-30 10:17:14.983919,-0.1271908852996796
2023-01-30 10:17:14.988919,-0.1412622183561325
2023-01-30 10:17:14.993919,-0.14929598774676933
2023-01-30 10:17:14.998919,-0.13972362875938407
2023-01-30 10:17:15.003919,-0.0994069622589614
2023-01-30 10:17:15.008919,-0.019160311669111123
2023-01-30 10:17:15.013919,0.09994260388892219
2023-01-30 10:17:15.018919,0.24288158118724823
2023-01-30 10:17:15.023919,0.38241091749584105
2023-01-30 10:17:15.028919,0.4864843785762785
2023-01-30 10:17:15.033919,0.528882628217951
2023-01-30 10:17:15.038919,0.4987450540065764
2023-01-30 10:17:15.043919,0.40467822695218325
2023-01-30 10:17:15.048919,0.2713215351104735
2023-01-30 10:17:15.053919,0.12998489571852367
2023-01-30 10:17:15.058919,0.007909337989985913
2023-01-30 10:17:15.063919,-0.07918298671815756
2023-01-30 10:17:15.068919,-0.12892942130565643
2023-01-30 10:17:15.073919,-0.14907056956970974
2023-01-30 10:17:15.078919,-0.1515275239944457
2023-01-30 10:17:15.083919,-0.14687126070952256
2023-01-30 10:17:15.088919,-0.14143049716949452
2023-01-30 10:17:15.093919,-0.1373624504446484
2023-01-30 10:17:15.098919,-0.1343385428190231
2023-01-30 10:17:15.103919,-0.1312880461203399
2023-01-30 10:17:15.108919,-0.1274869889020919
2023-01-30 10:17:15.113919,-0.1229345384007809
2023-01-30 10:17:15.118919,-0.11813521385192872
2023-01-30 10:17:15.123919,-0.11360222280952424
2023-01-30 10:17:15.128919,-0.10955274105072012
2023-01-30 10:17:15.133919,-0.10595549059972911
2023-01-30 10:17:15.138919,-0.10265310853719711
2023-01-30 10:17:15.143919,-0.09937388863993396
2023-01-30 10:17:15.148919,-0.09580155462026596
2023-01-30 10:17:15.153919,-0.09177640726824043
2023-01-30 10:17:15.158919,-0.08736332505941392
2023-01-30 10:17:15.163919,-0.08265120877038576
2023-01-30 10:17:15.168919,-0.07755478471517566
2023-01-30 10:17:15.173919,-0.07183752059416092
2023-01-30 10:17:15.178919,-0.06519794464111324
2023-01-30 10:17:15.183919,-0.057274250475391454
2023-01-30 10:17:15.188919,-0.04772047325968729
2023-01-30 10:17:15.193919,-0.036426749414637354
2023-01-30 10:17:15.198919,-0.02363185212016098
2023-01-30 10:17:15.203919,-0.009782923871527373
2023-01-30 10:17:15.208919,0.004615783691406183
2023-01-30 10:17:15.213919,0.018969905607772886
2023-01-30 10:17:15.218919,0.03255089372396463
2023-01-30 10:17:15.223919,0.044597953075835806
2023-01-30 10:17:15.228919,0.05440374463796619
2023-01-30 10:17:15.233919,0.06126640030731218
2023-01-30 10:17:15.238919,0.06450077146291723
2023-01-30 10:17:15.243919,0.06362394152216007
2023-01-30 10:17:15.248919,0.05849063396453842
2023-01-30 10:17:15.253919,0.04922594773133037
2023-01-30 10:17:15.258919,0.03615697473287569
2023-01-30 10:17:15.263919,0.01989395243407007
2023-01-30 10:17:15.268919,0.0013703107833861925
2023-01-30 10:17:15.273919,-0.01830219141548211
2023-01-30 10:17:15.278919,-0.037984054535627296
2023-01-30 10:17:15.283919,-0.056543767956972864
2023-01-30 10:17:15.288919,-0.07296304404735551
2023-01-30 10:17:15.293919,-0.08659471620747831
2023-01-30 10:17:15.298919,-0.09731610864400864
2023-01-30 10:17:15.303919,-0.10541262017253242
2023-01-30 10:17:15.308919,-0.11137982457876187
2023-01-30 10:17:15.313919,-0.11578536080691644
2023-01-30 10:17:15.318919,-0.11907279491424556
2023-01-30 10:17:15.323919,-0.12133978617093778
2023-01-30 10:17:15.328919,-0.12239038944244379
2023-01-30 10:17:15.333919,-0.12208278918244177
2023-01-30 10:17:15.338919,-0.12056331336498267
2023-01-30 10:17:15.343919,-0.11819255276167072
2023-01-30 10:17:15.348919,-0.1154426783323287
2023-01-30 10:17:15.353919,-0.11289571057058362
2023-01-30 10:17:15.358919,-0.11106729507446286
2023-01-30 10:17:15.363919,-0.11003876001502973
2023-01-30 10:17:15.368919,-0.10938446223735795
2023-01-30 10:17:15.373919,-0.10857886434487277
2023-01-30 10:17:15.378919,-0.10736505687236772
2023-01-30 10:17:15.383919,-0.10570021116119804
2023-01-30 10:17:15.388919,-0.10361473262310013
2023-01-30 10:17:15.393919,-0.101326279954786
2023-01-30 10:17:15.398919,-0.0993114709854124
2023-01-30 10:17:15.403919,-0.09802108697433927
2023-01-30 10:17:15.408919,-0.09755651652812942
2023-01-30 10:17:15.413919,-0.09769494673864718
2023-01-30 10:17:15.418919,-0.09806136786937703
2023-01-30 10:17:15.423919,-0.09813734538194646
2023-01-30 10:17:15.428919,-0.09729206562042225
2023-01-30 10:17:15.433919,-0.0950517109094445
2023-01-30 10:17:15.438919,-0.09130597114562969
2023-01-30 10:17:15.443919,-0.08615529795953848
2023-01-30 10:17:15.448919,-0.079694390296936
2023-01-30 10:17:15.453919,-0.07209730788156478
2023-01-30 10:17:15.458919,-0.06380359828472132
2023-01-30 10:17:15.463919,-0.05549208250376974
2023-01-30 10:17:15.468919,-0.04800895974040027
2023-01-30 10:17:15.473919,-0.04245046238949813
2023-01-30 10:17:15.478919,-0.04009962081909172
2023-01-30 10:17:15.483919,-0.041954092828459244
2023-01-30 10:17:15.488919,-0.04822532460093493
2023-01-30 10:17:15.493919,-0.05828218753801549
2023-01-30 10:17:15.498919,-0.07089555263519282
2023-01-30 10:17:15.503919,-0.08444791067735086
2023-01-30 10:17:15.508919,-0.09721994400024403
2023-01-30 10:17:15.513919,-0.10790770515994803
2023-01-30 10:17:15.518919,-0.11601965129375448
2023-01-30 10:17:15.523919,-0.12182658106607538
2023-01-30 10:17:15.528919,-0.1261647641658782
2023-01-30 10:17:15.533919,-0.1304068442232501
2023-01-30 10:17:15.538919,-0.13616561889648418
2023-01-30 10:17:15.543919,-0.14414157937788308
2023-01-30 10:17:15.548919,-0.15241703391075126
2023-01-30 10:17:15.553919,-0.15524191931659764
2023-01-30 10:17:15.558919,-0.143257588148117
2023-01-30 10:17:15.563919,-0.10575625772230385
2023-01-30 10:17:15.568919,-0.03507515043020239
2023-01-30 10:17:15.573919,0.06810504045938097
2023-01-30 10:17:15.578919,0.1913627088069914
2023-01-30 10:17:15.583919,0.31173978962633303
2023-01-30 10:17:15.588919,0.4019578397274014
2023-01-30 10:17:15.593919,0.43938763758567945
2023-01-30 10:17:15.598919,0.4141704440116879
2023-01-30 10:17:15.603919,0.33302974808527924
2023-01-30 10:17:15.608919,0.21682164072990412
2023-01-30 10:17:15.613919,0.09273631194316709
2023-01-30 10:17:15.618919,-0.015097459778189588
2023-01-30 10:17:15.623919,-0.09231956603155364
2023-01-30 10:17:15.628919,-0.13618966937065113
2023-01-30 10:17:15.633919,-0.15306705959329409
2023-01-30 10:17:15.638919,-0.15347480773925767
2023-01-30 10:17:15.643919,-0.14713251313402237
2023-01-30 10:17:15.648919,-0.14003615081310264
2023-01-30 10:17:15.653919,-0.13430700334954937
2023-01-30 10:17:15.658919,-0.12974679470062248
2023-01-30 10:17:15.663919,-0.1254561558191039
2023-01-30 10:17:15.668919,-0.12077967822551725
2023-01-30 10:17:15.673919,-0.11569164398240239
2023-01-30 10:17:15.678919,-0.11070668697357174
2023-01-30 10:17:15.683919,-0.10636390053813374
2023-01-30 10:17:15.688919,-0.1027492731809617
2023-01-30 10:17:15.693919,-0.09952388358389123
2023-01-30 10:17:15.698919,-0.09625832736492151
2023-01-30 10:17:15.703919,-0.09260112424984798
2023-01-30 10:17:15.708919,-0.0883009061217308
2023-01-30 10:17:15.713919,-0.08333334620877145
2023-01-30 10:17:15.718919,-0.07796347141265855
2023-01-30 10:17:15.723919,-0.0724688559039148
2023-01-30 10:17:15.728919,-0.06678462028503404
2023-01-30 10:17:15.733919,-0.06049843295522023
2023-01-30 10:17:15.738919,-0.053081512451171854
2023-01-30 10:17:15.743919,-0.044001201912787904
2023-01-30 10:17:15.748919,-0.03279129788279516
2023-01-30 10:17:15.753919,-0.019304145882892528
2023-01-30 10:17:15.758919,-0.0039186081849038506
2023-01-30 10:17:15.763919,0.012611869714589071
2023-01-30 10:17:15.768919,0.02944966219365593
2023-01-30 10:17:15.773919,0.045725047473202586
2023-01-30 10:17:15.778919,0.06048600003123273
2023-01-30 10:17:15.783919,0.0728506470021664
2023-01-30 10:17:15.788919,0.08219461143016812
2023-01-30 10:17:15.793919,0.08807800635220946
2023-01-30 10:17:15.798919,0.09010394662618627
2023-01-30 10:17:15.803919,0.08801701489593639
2023-01-30 10:17:15.808919,0.0818580389022827
2023-01-30 10:17:15.813919,0.07188599330566464
2023-01-30 10:17:15.818919,0.05846659466624244
2023-01-30 10:17:15.823919,0.042197275307904666
2023-01-30 10:17:15.828919,0.024016499519348047
2023-01-30 10:17:15.833919,0.004986650295281445
2023-01-30 10:17:15.838919,-0.013991594314575067
2023-01-30 10:17:15.843919,-0.0321745659644143
2023-01-30 10:17:15.848919,-0.04887441918253887
2023-01-30 10:17:15.853919,-0.06356853398725487
2023-01-30 10:17:15.858919,-0.0760161876678466
2023-01-30 10:17:15.863919,-0.08611840483567565
2023-01-30 10:17:15.868919,-0.09378214925527568
2023-01-30 10:17:15.873919,-0.09906983201129355
2023-01-30 10:17:15.878919,-0.10234057903289791
2023-01-30 10:17:15.883919,-0.1040626723673339
2023-01-30 10:17:15.888919,-0.10457634925842281
2023-01-30 10:17:15.893919,-0.10414152267300017
2023-01-30 10:17:15.898919,-0.1030377596616744
2023-01-30 10:17:15.903919,-0.10145322022886985
2023-01-30 10:17:15.908919,-0.09943167865276326
2023-01-30 10:17:15.913919,-0.09708456945532457
2023-01-30 10:17:15.918919,-0.09469568729400625
2023-01-30 10:17:15.923919,-0.0924729798249319
2023-01-30 10:17:15.928919,-0.09036839008331289
2023-01-30 10:17:15.933919,-0.08826526555857495
2023-01-30 10:17:15.938919,-0.08613725751638414
2023-01-30 10:17:15.943919,-0.08391806358250335
2023-01-30 10:17:15.948919,-0.08149743080139159
2023-01-30 10:17:15.953919,-0.07899439047940257
2023-01-30 10:17:15.958919,-0.07671336829662317
2023-01-30 10:17:15.963919,-0.07464328891300585
2023-01-30 10:17:15.968919,-0.07236202806234333
2023-01-30 10:17:15.973919,-0.06967110482953273
2023-01-30 10:17:15.978919,-0.06690482795238492
2023-01-30 10:17:15.983919,-0.06426922727033063
2023-01-30 10:17:15.988919,-0.0613033771514892
2023-01-30 10:17:15.993919,-0.05746573106516101
2023-01-30 10:17:15.998919,-0.05288919061422338
2023-01-30 10:17:16.003919,-0.04800089334715231
2023-01-30 10:17:16.008919,-0.04269599914550783
2023-01-30 10:17:16.013919,-0.03657630262050369
2023-01-30 10:17:16.018919,-0.029954513534903412
2023-01-30 10:17:16.023919,-0.024081938331288532
2023-01-30 10:17:16.028919,-0.02041041851043704
2023-01-30 10:17:16.033919,-0.020050418502839475
2023-01-30 10:17:16.038919,-0.023728013038635216
2023-01-30 10:17:16.043919,-0.03149432449451077
2023-01-30 10:17:16.048919,-0.042239230126142537
2023-01-30 10:17:16.053919,-0.05394315268006763
2023-01-30 10:17:16.058919,-0.06466905772686009
2023-01-30 10:17:16.063919,-0.07322472795098717
2023-01-30 10:17:16.068919,-0.07914146035909639
2023-01-30 10:17:16.073919,-0.08266233235326698
2023-01-30 10:17:16.078919,-0.08493523299694059
2023-01-30 10:17:16.083919,-0.08777904004666832
2023-01-30 10:17:16.088919,-0.09289264678955063
2023-01-30 10:17:16.093919,-0.10106369217100424
2023-01-30 10:17:16.098919,-0.11140386760234819
2023-01-30 10:17:16.103919,-0.12021274386153954
2023-01-30 10:17:16.108919,-0.12013058364391313
2023-01-30 10:17:16.113919,-0.10118196954932676
2023-01-30 10:17:16.118919,-0.05425950139760964
2023-01-30 10:17:16.123919,0.024269124319582377
2023-01-30 10:17:16.128919,0.12880921363830558
2023-01-30 10:17:16.133919,0.2433764554294101
2023-01-30 10:17:16.138919,0.3444528579711914
2023-01-30 10:17:16.143919,0.4079862664653745
2023-01-30 10:17:16.148919,0.417968839406967
2023-01-30 10:17:16.153919,0.37235750525816863
2023-01-30 10:17:16.158919,0.28353413939475997
2023-01-30 10:17:16.163919,0.17355274089483533
2023-01-30 10:17:16.168919,0.06644805520772928
2023-01-30 10:17:16.173919,-0.019408815110648635
2023-01-30 10:17:16.178919,-0.07587194442749014
2023-01-30 10:17:16.183919,-0.10477282583753111
2023-01-30 10:17:16.188919,-0.11392812430858615
2023-01-30 10:17:16.193919,-0.1124055600960957
2023-01-30 10:17:16.198919,-0.10731697082519516
2023-01-30 10:17:16.203919,-0.10254340557017207
2023-01-30 10:17:16.208919,-0.09902298450469965
2023-01-30 10:17:16.213919,-0.09614937431816252
2023-01-30 10:17:16.218919,-0.0933013409376144
2023-01-30 10:17:16.223919,-0.09039885818214655
2023-01-30 10:17:16.228919,-0.08753161132335674
2023-01-30 10:17:16.233919,-0.08465861042430599
2023-01-30 10:17:16.238919,-0.08173783868551258
2023-01-30 10:17:16.243919,-0.07874273285451205
2023-01-30 10:17:16.248919,-0.07543921470642079
2023-01-30 10:17:16.253919,-0.07146359581580236
2023-01-30 10:17:16.258919,-0.06671249866485583
2023-01-30 10:17:16.263919,-0.06139425241812529
2023-01-30 10:17:16.268919,-0.055677890777587766
2023-01-30 10:17:16.273919,-0.04959013998256898
2023-01-30 10:17:16.278919,-0.0432489328086376
2023-01-30 10:17:16.283919,-0.03681848387265262
2023-01-30 10:17:16.288919,-0.030146837234496987
2023-01-30 10:17:16.293919,-0.022753714469162967
2023-01-30 10:17:16.298919,-0.014232000336050911
2023-01-30 10:17:16.303919,-0.004378048268020175
2023-01-30 10:17:16.308919,0.007043878547847318
2023-01-30 10:17:16.313919,0.020241911927286433
2023-01-30 10:17:16.318919,0.034978985786437856
2023-01-30 10:17:16.323919,0.05051154950062414
2023-01-30 10:17:16.328919,0.0659912824630737
2023-01-30 10:17:16.333919,0.0806190471884963
2023-01-30 10:17:16.338919,0.09342154115438443
2023-01-30 10:17:16.343919,0.10333449993252065
2023-01-30 10:17:16.348919,0.10967294871807089
2023-01-30 10:17:16.353919,0.11222155305965427
2023-01-30 10:17:16.358919,0.11080285161733619
2023-01-30 10:17:16.363919,0.10511826297476633
2023-01-30 10:17:16.368919,0.09510438144207001
2023-01-30 10:17:16.373919,0.08109759777716548
2023-01-30 10:17:16.378919,0.06358723342418662
2023-01-30 10:17:16.383919,0.04322333768856286
2023-01-30 10:17:16.388919,0.021203756332397416
2023-01-30 10:17:16.393919,-0.0007507689613490242
2023-01-30 10:17:16.398919,-0.021035473793745
2023-01-30 10:17:16.403919,-0.038576817118698446
2023-01-30 10:17:16.408919,-0.05267282575368876
2023-01-30 10:17:16.413919,-0.06294008714880267
2023-01-30 10:17:16.418919,-0.06962140649557105
2023-01-30 10:17:16.423919,-0.07354547183215414
2023-01-30 10:17:16.428919,-0.0755353793501853
2023-01-30 10:17:16.433919,-0.07609559359571273
2023-01-30 10:17:16.438919,-0.07570366561412813
2023-01-30 10:17:16.443919,-0.07493152061940316
2023-01-30 10:17:16.448919,-0.07406890392303463
2023-01-30 10:17:16.453919,-0.07301784231252251
2023-01-30 10:17:16.458919,-0.07176101207733149
2023-01-30 10:17:16.463919,-0.07056167489435398
2023-01-30 10:17:16.468919,-0.06952524185180653
2023-01-30 10:17:16.473919,-0.06838220389043316
2023-01-30 10:17:16.478919,-0.06692886352539056
2023-01-30 10:17:16.483919,-0.06528864116430898
2023-01-30 10:17:16.488919,-0.06353914737701404
2023-01-30 10:17:16.493919,-0.061538524219433656
2023-01-30 10:17:16.498919,-0.05938013643026348
2023-01-30 10:17:16.503919,-0.057544099788726384
2023-01-30 10:17:16.508919,-0.05625486373901354
2023-01-30 10:17:16.513919,-0.05509155337186393
2023-01-30 10:17:16.518919,-0.05353828519582735
2023-01-30 10:17:16.523919,-0.051479136957958055
2023-01-30 10:17:16.528919,-0.04885037988424291
2023-01-30 10:17:16.533919,-0.04537016308008581
2023-01-30 10:17:16.538919,-0.04108528420329087
2023-01-30 10:17:16.543919,-0.03666176552294682
2023-01-30 10:17:16.548919,-0.03255089372396457
2023-01-30 10:17:16.553919,-0.028294111927742352
2023-01-30 10:17:16.558919,-0.023223161697387563
2023-01-30 10:17:16.563919,-0.017384002884443833
2023-01-30 10:17:16.568919,-0.01115481089800584
2023-01-30 10:17:16.573919,-0.004597690848573298
2023-01-30 10:17:16.578919,0.0017790000420062975
2023-01-30 10:17:16.583919,0.006054451099891063
2023-01-30 10:17:16.588919,0.006058216094970732
2023-01-30 10:17:16.593919,0.0016252642358372403
2023-01-30 10:17:16.598919,-0.005433162208646427
2023-01-30 10:17:16.603919,-0.013793803392177522
2023-01-30 10:17:16.608919,-0.023800134658813362
2023-01-30 10:17:16.613919,-0.035625956913720426
2023-01-30 10:17:16.618919,-0.047480069100856705
2023-01-30 10:17:16.623919,-0.0567829619456713
2023-01-30 10:17:16.628919,-0.06262560933828343
2023-01-30 10:17:16.633919,-0.06620205005564693
2023-01-30 10:17:16.638919,-0.06933292001485813
2023-01-30 10:17:16.643919,-0.07358257651764079
2023-01-30 10:17:16.648919,-0.08031944930553435
2023-01-30 10:17:16.653919,-0.08974055332021917
2023-01-30 10:17:16.658919,-0.09849409759044629
2023-01-30 10:17:16.663919,-0.09831851228421103
2023-01-30 10:17:16.668919,-0.077747106552124
2023-01-30 10:17:16.673919,-0.026379834544077888
2023-01-30 10:17:16.678919,0.06002923101186748
2023-01-30 10:17:16.683919,0.17528940842042667
2023-01-30 10:17:16.688919,0.3013001084327696
2023-01-30 10:17:16.693919,0.41152264285050016
2023-01-30 10:17:16.698919,0.4792962670326231
2023-01-30 10:17:16.703919,0.4874304992580052
2023-01-30 10:17:16.708919,0.4343644976615904
2023-01-30 10:17:16.713919,0.3343341920533384
2023-01-30 10:17:16.718919,0.21198949217796317
2023-01-30 10:17:16.723919,0.0938293651021029
2023-01-30 10:17:16.728919,-0.00016828379011703495
2023-01-30 10:17:16.733919,-0.061303165637802595
2023-01-30 10:17:16.738919,-0.09169062227010706
2023-01-30 10:17:16.743919,-0.0999774824352103
2023-01-30 10:17:16.748919,-0.09630640596151359
2023-01-30 10:17:16.753919,-0.0887856957639356
2023-01-30 10:17:16.758919,-0.08202632516622531
2023-01-30 10:17:16.763919,-0.07742834797075557
2023-01-30 10:17:16.768919,-0.0745737552642822
2023-01-30 10:17:16.773919,-0.07269161319813164
2023-01-30 10:17:16.778919,-0.07128020375967022
2023-01-30 10:17:16.783919,-0.0699457483209516
2023-01-30 10:17:16.788919,-0.06822705268859863
2023-01-30 10:17:16.793919,-0.06574393778800551
2023-01-30 10:17:16.798919,-0.06233712285757066
2023-01-30 10:17:16.803919,-0.05802628235015111
2023-01-30 10:17:16.808919,-0.053033433854579905
2023-01-30 10:17:16.813919,-0.047885670819581075
2023-01-30 10:17:16.818919,-0.043248932808637654
2023-01-30 10:17:16.823919,-0.03949588621548212
2023-01-30 10:17:16.828919,-0.03649353981018053
2023-01-30 10:17:16.833919,-0.03378437798378952
2023-01-30 10:17:16.838919,-0.030771892517805002
2023-01-30 10:17:16.843919,-0.02671227298780104
2023-01-30 10:17:16.848919,-0.020819108933210245
2023-01-30 10:17:16.853919,-0.012600299536114643
2023-01-30 10:17:16.858919,-0.0020434460602700424
2023-01-30 10:17:16.863919,0.010546525785907382
2023-01-30 10:17:16.868919,0.024713676422834337
2023-01-30 10:17:16.873919,0.03980521063882409
2023-01-30 10:17:16.878919,0.05500475689768799
2023-01-30 10:17:16.883919,0.06960152142024494
2023-01-30 10:17:16.888919,0.08313219249248506
2023-01-30 10:17:16.893919,0.09516629016210891
2023-01-30 10:17:16.898919,0.10508120059967044
2023-01-30 10:17:16.903919,0.11213329092212586
2023-01-30 10:17:16.908919,0.11561095714569092
2023-01-30 10:17:16.913919,0.11486445628100708
2023-01-30 10:17:16.918919,0.10943254083395006
2023-01-30 10:17:16.923919,0.09936993028457919
2023-01-30 10:17:16.928919,0.0853919982910156
2023-01-30 10:17:16.933919,0.06859669942547161
2023-01-30 10:17:16.938919,0.05012452602386463
2023-01-30 10:17:16.943919,0.031096975687312314
2023-01-30 10:17:16.948919,0.012621283531188913
2023-01-30 10:17:16.953919,-0.004375523021493511
2023-01-30 10:17:16.958919,-0.01925647258758541
2023-01-30 10:17:16.963919,-0.03154994106867816
2023-01-30 10:17:16.968919,-0.04089295864105216
2023-01-30 10:17:16.973919,-0.04724790524933724
2023-01-30 10:17:16.978919,-0.051038067787885534
2023-01-30 10:17:16.983919,-0.052907701707241184
2023-01-30 10:17:16.988919,-0.05341808125376694
2023-01-30 10:17:16.993919,-0.05302263726303196
2023-01-30 10:17:16.998919,-0.05211989209055895
2023-01-30 10:17:17.003919,-0.0509403896443733
2023-01-30 10:17:17.008919,-0.04949947446584694
2023-01-30 10:17:17.013919,-0.04781052034854655
2023-01-30 10:17:17.018919,-0.046037636697292196
2023-01-30 10:17:17.023919,-0.044328716733942244
2023-01-30 10:17:17.028919,-0.04264792054891569
2023-01-30 10:17:17.033919,-0.040909752808899476
2023-01-30 10:17:17.038919,-0.039138000458478775
2023-01-30 10:17:17.043919,-0.03736147804986866
2023-01-30 10:17:17.048919,-0.035507880151271744
2023-01-30 10:17:17.053919,-0.0335498527527031
2023-01-30 10:17:17.058919,-0.03161331266164768
2023-01-30 10:17:17.063919,-0.02980013501700585
2023-01-30 10:17:17.068919,-0.02805531024932858
2023-01-30 10:17:17.073919,-0.026354522750117997
2023-01-30 10:17:17.078919,-0.024857919663190727
2023-01-30 10:17:17.083919,-0.023697094764565843
2023-01-30 10:17:17.088919,-0.02271831035614004
2023-01-30 10:17:17.093919,-0.021547031473739632
2023-01-30 10:17:17.098919,-0.019737284630536985
2023-01-30 10:17:17.103919,-0.016737021906071577
2023-01-30 10:17:17.108919,-0.011948148719966335
2023-01-30 10:17:17.113919,-0.005094257804110275
2023-01-30 10:17:17.118919,0.0035099189262836413
2023-01-30 10:17:17.123919,0.01311804973423052
2023-01-30 10:17:17.128919,0.022790431976318325
2023-01-30 10:17:17.133919,0.03138283500185959
2023-01-30 10:17:17.138919,0.03759940713644017
2023-01-30 10:17:17.143919,0.040359974972242196
2023-01-30 10:17:17.148919,0.03908991813659654
2023-01-30 10:17:17.153919,0.03366639297637825
2023-01-30 10:17:17.158919,0.02442518994212148
2023-01-30 10:17:17.163919,0.012417491402108072
2023-01-30 10:17:17.168919,-0.0006490945816040867
2023-01-30 10:17:17.173919,-0.013037667577230962
2023-01-30 10:17:17.178919,-0.023487608879804705
2023-01-30 10:17:17.183919,-0.031205722847458785
2023-01-30 10:17:17.188919,-0.03601273149251941
2023-01-30 10:17:17.193919,-0.03894772792821575
2023-01-30 10:17:17.198919,-0.04228731244802473
2023-01-30 10:17:17.203919,-0.04827212036705193
2023-01-30 10:17:17.208919,-0.0576251745223999
2023-01-30 10:17:17.213919,-0.06902130098122054
2023-01-30 10:17:17.218919,-0.07875680923461911
2023-01-30 10:17:17.223919,-0.07961380839464682
2023-01-30 10:17:17.228919,-0.060413878411054556
2023-01-30 10:17:17.233919,-0.009006590554314964
2023-01-30 10:17:17.238919,0.08130510896444318
2023-01-30 10:17:17.243919,0.20554379290687613
2023-01-30 10:17:17.248919,0.34505388140678395
2023-01-30 10:17:17.253919,0.47123503958743435
2023-01-30 10:17:17.258919,0.5539902448654173
2023-01-30 10:17:17.263919,0.5720376267475407
2023-01-30 10:17:17.268919,0.5208383202552793
2023-01-30 10:17:17.273919,0.41423871903792836
2023-01-30 10:17:17.278919,0.278990477323532
2023-01-30 10:17:17.283919,0.14504330858579478
2023-01-30 10:17:17.288919,0.036036770790815256
2023-01-30 10:17:17.293919,-0.03649330042107084
2023-01-30 10:17:17.298919,-0.07358809560537327
2023-01-30 10:17:17.303919,-0.08468148374934202
2023-01-30 10:17:17.308919,-0.08154551684856416
2023-01-30 10:17:17.313919,-0.0736225003997128
2023-01-30 10:17:17.318919,-0.06623169034719456
2023-01-30 10:17:17.323919,-0.061013832645263805
2023-01-30 10:17:17.328919,-0.05738477036356913
2023-01-30 10:17:17.333919,-0.054168502320859735
2023-01-30 10:17:17.338919,-0.050725542008876814
2023-01-30 10:17:17.343919,-0.04710173201235327
2023-01-30 10:17:17.348919,-0.04353741928935048
2023-01-30 10:17:17.353919,-0.04016052368732485
2023-01-30 10:17:17.358919,-0.03707051277160647
2023-01-30 10:17:17.363919,-0.03436017843257635
2023-01-30 10:17:17.368919,-0.03194987773895264
2023-01-30 10:17:17.373919,-0.029586266767656823
2023-01-30 10:17:17.378919,-0.02702156826853752
2023-01-30 10:17:17.383919,-0.024001683596193438
2023-01-30 10:17:17.388919,-0.02009789273142809
2023-01-30 10:17:17.393919,-0.014803622360757647
2023-01-30 10:17:17.398919,-0.007861256599426152
2023-01-30 10:17:17.403919,0.0006589997505274756
2023-01-30 10:17:17.408919,0.01057783793658013
2023-01-30 10:17:17.413919,0.021704938062483782
2023-01-30 10:17:17.418919,0.03375291824340815
2023-01-30 10:17:17.423919,0.04640059150044332
2023-01-30 10:17:17.428919,0.05947629734873775
2023-01-30 10:17:17.433919,0.07289350362080593
2023-01-30 10:17:17.438919,0.08640170097351076
2023-01-30 10:17:17.443919,0.09957797901651429
2023-01-30 10:17:17.448919,0.11202891916036606
2023-01-30 10:17:17.453919,0.12337040012641565
2023-01-30 10:17:17.458919,0.1329922676086424
2023-01-30 10:17:17.463919,0.14004155053224274
2023-01-30 10:17:17.468919,0.14366626739501945
2023-01-30 10:17:17.473919,0.1431565160740551
2023-01-30 10:17:17.478919,0.13796865940093994
2023-01-30 10:17:17.483919,0.12793757846671838
2023-01-30 10:17:17.488919,0.11356751620769498
2023-01-30 10:17:17.493919,0.09597383622111673
2023-01-30 10:17:17.498919,0.07652103900909416
2023-01-30 10:17:17.503919,0.056599255761705436
2023-01-30 10:17:17.508919,0.03757536411285401
2023-01-30 10:17:17.513919,0.020591208245084824
2023-01-30 10:17:17.518919,0.006274580955505238
2023-01-30 10:17:17.523919,-0.005254261744665086
2023-01-30 10:17:17.528919,-0.014135837554931517
2023-01-30 10:17:17.533919,-0.020678302193871862
2023-01-30 10:17:17.538919,-0.025386810302734285
2023-01-30 10:17:17.543919,-0.028773068516546478
2023-01-30 10:17:17.548919,-0.031060378998517834
2023-01-30 10:17:17.553919,-0.032215158797076315
2023-01-30 10:17:17.558919,-0.0322383642196655
2023-01-30 10:17:17.563919,-0.03126727909607312
2023-01-30 10:17:17.568919,-0.029473703354596995
2023-01-30 10:17:17.573919,-0.027100513715137543
2023-01-30 10:17:17.578919,-0.024569433182477892
2023-01-30 10:17:17.583919,-0.02231095909185527
2023-01-30 10:17:17.588919,-0.020458500832319176
2023-01-30 10:17:17.593919,-0.018868317424678163
2023-01-30 10:17:17.598919,-0.017405351623892663
2023-01-30 10:17:17.603919,-0.01603887802691236
2023-01-30 10:17:17.608919,-0.014736851677298464
2023-01-30 10:17:17.613919,-0.013508606797737617
2023-01-30 10:17:17.618919,-0.012525121681392078
2023-01-30 10:17:17.623919,-0.011958481106990196
2023-01-30 10:17:17.628919,-0.011683702468872032
2023-01-30 10:17:17.633919,-0.011313252011164688
2023-01-30 10:17:17.638919,-0.010505716316401893
2023-01-30 10:17:17.643919,-0.00908451182493485
2023-01-30 10:17:17.648919,-0.006947716232389154
2023-01-30 10:17:17.653919,-0.004115371159101542
2023-01-30 10:17:17.658919,-0.0008414189214818369
2023-01-30 10:17:17.663919,0.0025731142340680055
2023-01-30 10:17:17.668919,0.0061303377151490064
2023-01-30 10:17:17.673919,0.010173186082782573
2023-01-30 10:17:17.678919,0.015121500007808247
2023-01-30 10:17:17.683919,0.021287924870402708
2023-01-30 10:17:17.688919,0.028752487152814844
2023-01-30 10:17:17.693919,0.03703391069418632
2023-01-30 10:17:17.698919,0.0448115691542624
2023-01-30 10:17:17.703919,0.050206476830591006
2023-01-30 10:17:17.708919,0.05149483680725085
2023-01-30 10:17:17.713919,0.04766722852533566
2023-01-30 10:17:17.718919,0.03868123143911354
2023-01-30 10:17:17.723919,0.02561702546845458
2023-01-30 10:17:17.728919,0.010577837936580122
2023-01-30 10:17:17.733919,-0.003963085580825994
2023-01-30 10:17:17.738919,-0.016035040840506512
2023-01-30 10:17:17.743919,-0.024631917964871797
2023-01-30 10:17:17.748919,-0.02978622913360579
2023-01-30 10:17:17.753919,-0.03268745283057084
2023-01-30 10:17:17.758919,-0.035676162689924164
2023-01-30 10:17:17.763919,-0.04146108679545085
2023-01-30 10:17:17.768919,-0.051446758210658985
2023-01-30 10:17:17.773919,-0.06377997135615146
2023-01-30 10:17:17.778919,-0.0718812197446823
2023-01-30 10:17:17.783919,-0.06441882443892256
2023-01-30 10:17:17.788919,-0.027959149330854326
2023-01-30 10:17:17.793919,0.04742645621571602
2023-01-30 10:17:17.798919,0.16164860129356376
2023-01-30 10:17:17.803919,0.30076619756217915
2023-01-30 10:17:17.808919,0.43849945068359353
2023-01-30 10:17:17.813919,0.543293200904411
2023-01-30 10:17:17.818919,0.5887047648429867
2023-01-30 10:17:17.823919,0.5630591231859048
2023-01-30 10:17:17.828919,0.47386309504508956
2023-01-30 10:17:17.833919,0.34464572667799354
2023-01-30 10:17:17.838919,0.20593127608299244
2023-01-30 10:17:17.843919,0.08485840676466351
2023-01-30 10:17:17.848919,-0.0022838513832538466
2023-01-30 10:17:17.853919,-0.05237339265450843
2023-01-30 10:17:17.858919,-0.07260243594646433
2023-01-30 10:17:17.863919,-0.0745636490916696
2023-01-30 10:17:17.868919,-0.06873190402984608
2023-01-30 10:17:17.873919,-0.061819522444368204
2023-01-30 10:17:17.878919,-0.056783758103847504
2023-01-30 10:17:17.883919,-0.053837501847465205
2023-01-30 10:17:17.888919,-0.05168716236948958
2023-01-30 10:17:17.893919,-0.049012773990348354
2023-01-30 10:17:17.898919,-0.0455327853560448
2023-01-30 10:17:17.903919,-0.04177995386728998
2023-01-30 10:17:17.908919,-0.0381282977759838
2023-01-30 10:17:17.913919,-0.034471470771400316
2023-01-30 10:17:17.918919,-0.030699770897626804
2023-01-30 10:17:17.923919,-0.026887380698165354
2023-01-30 10:17:17.928919,-0.022910635918378757
2023-01-30 10:17:17.933919,-0.018377909824631864
2023-01-30 10:17:17.938919,-0.013126134872436553
2023-01-30 10:17:17.943919,-0.007440942168875322
2023-01-30 10:17:17.948919,-0.0016587972640990595
2023-01-30 10:17:17.953919,0.004138242288871535
2023-01-30 10:17:17.958919,0.009976824745535762
2023-01-30 10:17:17.963919,0.01593835540663977
2023-01-30 10:17:17.968919,0.022405784577131195
2023-01-30 10:17:17.973919,0.030034724916212497
2023-01-30 10:17:17.978919,0.03928224369883538
2023-01-30 10:17:17.983919,0.05014532548446605
2023-01-30 10:17:17.988919,0.062385201454162466
2023-01-30 10:17:17.993919,0.07569098372103343
2023-01-30 10:17:17.998919,0.0895269736647605
2023-01-30 10:17:18.003919,0.10312920027832692
2023-01-30 10:17:18.008919,0.11580328643321991
2023-01-30 10:17:18.013919,0.12700945810990197
2023-01-30 10:17:18.018919,0.13609349727630604
2023-01-30 10:17:18.023919,0.1422169517246707
2023-01-30 10:17:18.028919,0.14467597007751454
2023-01-30 10:17:18.033919,0.14309389234366374
2023-01-30 10:17:18.038919,0.13729552924633012
2023-01-30 10:17:18.043919,0.1273208327088833
2023-01-30 10:17:18.048919,0.11368771642446518
2023-01-30 10:17:18.053919,0.09738788786873662
2023-01-30 10:17:18.058919,0.07950206845998764
2023-01-30 10:17:18.063919,0.06099783576873075
2023-01-30 10:17:18.068919,0.04288832470774654
2023-01-30 10:17:18.073919,0.026229319567810012
2023-01-30 10:17:18.078919,0.011779865249991417
2023-01-30 10:17:18.083919,-0.0001571118036819712
2023-01-30 10:17:18.088919,-0.009520053863525333
2023-01-30 10:17:18.093919,-0.01637412464665562
2023-01-30 10:17:18.098919,-0.02105951309204107
2023-01-30 10:17:18.103919,-0.024136027631078177
2023-01-30 10:17:18.108919,-0.026011865586042432
2023-01-30 10:17:18.113919,-0.02680324878061776
2023-01-30 10:17:18.118919,-0.026612877845764178
2023-01-30 10:17:18.123919,-0.025704051888760186
2023-01-30 10:17:18.128919,-0.02432902716100212
2023-01-30 10:17:18.133919,-0.022638383188672572
2023-01-30 10:17:18.138919,-0.020843148231506244
2023-01-30 10:17:18.143919,-0.019204251619210064
2023-01-30 10:17:18.148919,-0.017741918563842673
2023-01-30 10:17:18.153919,-0.016177949200071328
2023-01-30 10:17:18.158919,-0.01428008079528801
2023-01-30 10:17:18.163919,-0.012087512576663755
2023-01-30 10:17:18.168919,-0.009760459885001106
2023-01-30 10:17:18.173919,-0.007457340527367175
2023-01-30 10:17:18.178919,-0.005433162208646517
2023-01-30 10:17:18.183919,-0.003988671360291562
2023-01-30 10:17:18.188919,-0.0031733512878416355
2023-01-30 10:17:18.193919,-0.002703744134729149
2023-01-30 10:17:18.198919,-0.002235770225524873
2023-01-30 10:17:18.203919,-0.0015206131732052814
2023-01-30 10:17:18.208919,-0.00026444596005587565
2023-01-30 10:17:18.213919,0.0018897604565819724
2023-01-30 10:17:18.218919,0.005120635032653809
2023-01-30 10:17:18.223919,0.009359965851810856
2023-01-30 10:17:18.228919,0.01452048681676381
2023-01-30 10:17:18.233919,0.020557309527717223
2023-01-30 10:17:18.238919,0.027213891968131072
2023-01-30 10:17:18.243919,0.03390567748188114
2023-01-30 10:17:18.248919,0.03990729898214338
2023-01-30 10:17:18.253919,0.04444006370142739
2023-01-30 10:17:18.258919,0.046566527336835764
2023-01-30 10:17:18.263919,0.045350940703858304
2023-01-30 10:17:18.268919,0.040364068001508664
2023-01-30 10:17:18.273919,0.03196462105488777
2023-01-30 10:17:18.278919,0.021107595413923118
2023-01-30 10:17:18.283919,0.009090438038860858
2023-01-30 10:17:18.288919,-0.0025723378639667706
2023-01-30 10:17:18.293919,-0.01247551158189402
2023-01-30 10:17:18.298919,-0.019857486709952292
2023-01-30 10:17:18.303919,-0.02483611485885065
2023-01-30 10:17:18.308919,-0.028247635811567282
2023-01-30 10:17:18.313919,-0.03153069962287272
2023-01-30 10:17:18.318919,-0.03656566143035877
2023-01-30 10:17:18.323919,-0.04469653467795885
2023-01-30 10:17:18.328919,-0.05483647435903531
2023-01-30 10:17:18.333919,-0.06183865741840736
2023-01-30 10:17:18.338919,-0.056471228599548284
2023-01-30 10:17:18.343919,-0.027534349183295954
2023-01-30 10:17:18.348919,0.03396928310394285
2023-01-30 10:17:18.353919,0.12949095382573655
2023-01-30 10:17:18.358919,0.24881958961486805
2023-01-30 10:17:18.363919,0.3702826808246082
2023-01-30 10:17:18.368919,0.4664345681667327
2023-01-30 10:17:18.373919,0.5131217218398948
2023-01-30 10:17:18.378919,0.49802383780479414
2023-01-30 10:17:18.383919,0.42519650959497446
2023-01-30 10:17:18.388919,0.31365692615509017
2023-01-30 10:17:18.393919,0.19030688677453111
2023-01-30 10:17:18.398919,0.08031944930553428
2023-01-30 10:17:18.403919,-0.0003981979271925221
2023-01-30 10:17:18.408919,-0.04769643396139143
2023-01-30 10:17:18.413919,-0.06695368157254321
2023-01-30 10:17:18.418919,-0.068371295928955
2023-01-30 10:17:18.423919,-0.062044801505261316
2023-01-30 10:17:18.428919,-0.05462010949850067
2023-01-30 10:17:18.433919,-0.04864504514283216
2023-01-30 10:17:18.438919,-0.044114392250776194
2023-01-30 10:17:18.443919,-0.040328233643352106
2023-01-30 10:17:18.448919,-0.03675798699259743
2023-01-30 10:17:18.453919,-0.0332030215674634
2023-01-30 10:17:18.458919,-0.029834311455488236
2023-01-30 10:17:18.463919,-0.026971235540535276
2023-01-30 10:17:18.468919,-0.024545392021536803
2023-01-30 10:17:18.473919,-0.021956455504625584
2023-01-30 10:17:18.478919,-0.018631419166922562
2023-01-30 10:17:18.483919,-0.014485023804375836
2023-01-30 10:17:18.488919,-0.009688338264822908
2023-01-30 10:17:18.493919,-0.004347222417164995
2023-01-30 10:17:18.498919,0.0013462703209370067
2023-01-30 10:17:18.503919,0.007037246517358776
2023-01-30 10:17:18.508919,0.012669364921748732
2023-01-30 10:17:18.513919,0.018764216175349426
2023-01-30 10:17:18.518919,0.02591570280492297
2023-01-30 10:17:18.523919,0.03428766476108444
2023-01-30 10:17:18.528919,0.043922066688537494
2023-01-30 10:17:18.533919,0.055133936834006345
2023-01-30 10:17:18.538919,0.06808280944824212
2023-01-30 10:17:18.543919,0.08225457352322077
2023-01-30 10:17:18.548919,0.09693145751953115
2023-01-30 10:17:18.553919,0.1118838577701462
2023-01-30 10:17:18.558919,0.12688598036766047
2023-01-30 10:17:18.563919,0.14074434513550946
2023-01-30 10:17:18.568919,0.15171985328197465
2023-01-30 10:17:18.573919,0.15905057407856252
2023-01-30 10:17:18.578919,0.16323527693748469
2023-01-30 10:17:18.583919,0.1645104098259118
2023-01-30 10:17:18.588919,0.1618409156799316
2023-01-30 10:17:18.593919,0.15399206464170603
2023-01-30 10:17:18.598919,0.1410698890686034
2023-01-30 10:17:18.603919,0.12440729141066983
2023-01-30 10:17:18.608919,0.10534565150737758
2023-01-30 10:17:18.613919,0.08481959078065401
2023-01-30 10:17:18.618919,0.06389975547790519
2023-01-30 10:17:18.623919,0.0439340651110368
2023-01-30 10:17:18.628919,0.025963783264160118
2023-01-30 10:17:18.633919,0.010425561687915063
2023-01-30 10:17:18.638919,-0.002500216243788581
2023-01-30 10:17:18.643919,-0.012675841451433769
2023-01-30 10:17:18.648919,-0.020266175270080514
2023-01-30 10:17:18.653919,-0.025817562678532278
2023-01-30 10:17:18.658919,-0.029834311455488177
2023-01-30 10:17:18.663919,-0.032466535585466506
2023-01-30 10:17:18.668919,-0.03372887894511217
2023-01-30 10:17:18.673919,-0.03380295470287039
2023-01-30 10:17:18.678919,-0.03300766274333005
2023-01-30 10:17:18.683919,-0.03170801555795761
2023-01-30 10:17:18.688919,-0.03041128441691396
2023-01-30 10:17:18.693919,-0.0297304611758672
2023-01-30 10:17:18.698919,-0.0300025939941407
2023-01-30 10:17:18.703919,-0.0309858710860708
2023-01-30 10:17:18.708919,-0.03202199935913082
2023-01-30 10:17:18.713919,-0.032396322296707636
2023-01-30 10:17:18.718919,-0.03151714801788338
2023-01-30 10:17:18.723919,-0.029027951664918682
2023-01-30 10:17:18.728919,-0.02502620220184313
2023-01-30 10:17:18.733919,-0.02012408762848052
2023-01-30 10:17:18.738919,-0.015121500007808236
2023-01-30 10:17:18.743919,-0.010608940298696346
2023-01-30 10:17:18.748919,-0.0068755946122108415
2023-01-30 10:17:18.753919,-0.003972039209749951
2023-01-30 10:17:18.758919,-0.0016587972640990547
2023-01-30 10:17:18.763919,0.0005908439953347842
2023-01-30 10:17:18.768919,0.0033175945281982136
2023-01-30 10:17:18.773919,0.006798219013858935
2023-01-30 10:17:18.778919,0.011082689277827785
2023-01-30 10:17:18.783919,0.016136826307072666
2023-01-30 10:17:18.788919,0.021756689995527153
2023-01-30 10:17:18.793919,0.027416939501933624
2023-01-30 10:17:18.798919,0.03235856816172593
2023-01-30 10:17:18.803919,0.035766620965409994
2023-01-30 10:17:18.808919,0.03678202629089345
2023-01-30 10:17:18.813919,0.03455797722744695
2023-01-30 10:17:18.818919,0.0286322832107542
2023-01-30 10:17:18.823919,0.01931857643136201
2023-01-30 10:17:18.828919,0.007668932434171401
2023-01-30 10:17:18.833919,-0.004869344568361176
2023-01-30 10:17:18.838919,-0.016732215881347674
2023-01-30 10:17:18.843919,-0.026517216769882418
2023-01-30 10:17:18.848919,-0.033464431762695215
2023-01-30 10:17:18.853919,-0.03786404126300022
2023-01-30 10:17:18.858919,-0.040989123284816645
2023-01-30 10:17:18.863919,-0.0446327786971852
2023-01-30 10:17:18.868919,-0.05041301250457758
2023-01-30 10:17:18.873919,-0.05858375393691212
2023-01-30 10:17:18.878919,-0.06637593358755106
2023-01-30 10:17:18.883919,-0.06699028056082706
2023-01-30 10:17:18.888919,-0.05065342038869845
2023-01-30 10:17:18.893919,-0.007971827605077269
2023-01-30 10:17:18.898919,0.06551047414541242
2023-01-30 10:17:18.903919,0.16523038929706613
2023-01-30 10:17:18.908919,0.27600944042205794
2023-01-30 10:17:18.913919,0.37478842174525695
2023-01-30 10:17:18.918919,0.4376820921897885
2023-01-30 10:17:18.923919,0.4484560970346882
2023-01-30 10:17:18.928919,0.40436190366744973
2023-01-30 10:17:18.933919,0.31689299814741106
2023-01-30 10:17:18.938919,0.20751795172691334
2023-01-30 10:17:18.943919,0.1001642948212744
2023-01-30 10:17:18.948919,0.013438662514090385
2023-01-30 10:17:18.953919,-0.044010227504161066
2023-01-30 10:17:18.958919,-0.0732996091246603
2023-01-30 10:17:18.963919,-0.0816946885018526
2023-01-30 10:17:18.968919,-0.07837216556072227
2023-01-30 10:17:18.973919,-0.071212006340185
2023-01-30 10:17:18.978919,-0.06498157978057861
2023-01-30 10:17:18.983919,-0.061180995463773
2023-01-30 10:17:18.988919,-0.0593801364302634
2023-01-30 10:17:18.993919,-0.05870935722707414
2023-01-30 10:17:18.998919,-0.058322351425886106
2023-01-30 10:17:19.003919,-0.05732952930823671
2023-01-30 10:17:19.008919,-0.055173039436340256
2023-01-30 10:17:19.013919,-0.05203315686366394
2023-01-30 10:17:19.018919,-0.04844168946146961
2023-01-30 10:17:19.023919,-0.04468326301208056
2023-01-30 10:17:19.028919,-0.04094104096293436
2023-01-30 10:17:19.033919,-0.03762714874924799
2023-01-30 10:17:19.038919,-0.034954946488142014
2023-01-30 10:17:19.043919,-0.032442799421249634
2023-01-30 10:17:19.048919,-0.029401581734418772
2023-01-30 10:17:19.053919,-0.02561241199515073
2023-01-30 10:17:19.058919,-0.02096335217356683
2023-01-30 10:17:19.063919,-0.014849927025250915
2023-01-30 10:17:19.068919,-0.006683270446956025
2023-01-30 10:17:19.073919,0.0033571215527817247
2023-01-30 10:17:19.078919,0.014808973297476678
2023-01-30 10:17:19.083919,0.02771852840345401
2023-01-30 10:17:19.088919,0.042094986885786015
2023-01-30 10:17:19.093919,0.05705691227327757
2023-01-30 10:17:19.098919,0.07152061164379114
2023-01-30 10:17:19.103919,0.0852827656540578
2023-01-30 10:17:19.108919,0.09834985435009004
2023-01-30 10:17:19.113919,0.10973462411624539
2023-01-30 10:17:19.118919,0.11818329989910122
2023-01-30 10:17:19.123919,0.12351956088663082
2023-01-30 10:17:19.128919,0.1257801055908203
2023-01-30 10:17:19.133919,0.12366837901468547
2023-01-30 10:17:19.138919,0.11577924340963355
2023-01-30 10:17:19.143919,0.10289687456943969
2023-01-30 10:17:19.148919,0.08693059533834453
2023-01-30 10:17:19.153919,0.06806902633600083
2023-01-30 10:17:19.158919,0.045797228813171255
2023-01-30 10:17:19.163919,0.022599897679029132
2023-01-30 10:17:19.168919,0.0030291080474853134
2023-01-30 10:17:19.173919,-0.011960110893951716
2023-01-30 10:17:19.178919,-0.026204189285635796
2023-01-30 10:17:19.183919,-0.04197449801547342
2023-01-30 10:17:19.188919,-0.055774055421352255
2023-01-30 10:17:19.193919,-0.06329316975199936
2023-01-30 10:17:19.198919,-0.06577491760253887
2023-01-30 10:17:19.203919,-0.06787346982433487
2023-01-30 10:17:19.208919,-0.0710638388991355
2023-01-30 10:17:19.213919,-0.07310323961485149
2023-01-30 10:17:19.218919,-0.07305920124053947
2023-01-30 10:17:19.223919,-0.07279489375561221
2023-01-30 10:17:19.228919,-0.07332365214824667
2023-01-30 10:17:19.233919,-0.07328050198686246
2023-01-30 10:17:19.238919,-0.071857176721096
2023-01-30 10:17:19.243919,-0.07037178894565685
2023-01-30 10:17:19.248919,-0.06986181437969198
2023-01-30 10:17:19.253919,-0.06946174793243035
2023-01-30 10:17:19.258919,-0.06825109571218492
2023-01-30 10:17:19.263919,-0.06672381215056035
2023-01-30 10:17:19.268919,-0.06536623090505592
2023-01-30 10:17:19.273919,-0.06353976967907976
2023-01-30 10:17:19.278919,-0.06087064743041998
2023-01-30 10:17:19.283919,-0.05825044965204692
2023-01-30 10:17:19.288919,-0.056399106979370076
2023-01-30 10:17:19.293919,-0.054699293553629263
2023-01-30 10:17:19.298919,-0.052384339272975804
2023-01-30 10:17:19.303919,-0.04970425487663482
2023-01-30 10:17:19.308919,-0.04704733937978735
2023-01-30 10:17:19.313919,-0.044035003872342694
2023-01-30 10:17:19.318919,-0.040364068001508685
2023-01-30 10:17:19.323919,-0.03651328549224519
2023-01-30 10:17:19.328919,-0.032743215560912975
2023-01-30 10:17:19.333919,-0.028324059783761412
2023-01-30 10:17:19.338919,-0.022622149437665863
2023-01-30 10:17:19.343919,-0.01621148290942836
2023-01-30 10:17:19.348919,-0.010265311226248604
2023-01-30 10:17:19.353919,-0.005699510800686018
2023-01-30 10:17:19.358919,-0.00355800008401269
2023-01-30 10:17:19.363919,-0.0052510176246218804
2023-01-30 10:17:19.368919,-0.011419257149100304
2023-01-30 10:17:19.373919,-0.02106688491451205
2023-01-30 10:17:19.378919,-0.03243068978190422
2023-01-30 10:17:19.383919,-0.04411313389744863
2023-01-30 10:17:19.388919,-0.05493263527750962
2023-01-30 10:17:19.393919,-0.06364125946794248
2023-01-30 10:17:19.398919,-0.06976564973592747
2023-01-30 10:17:19.403919,-0.07432499131992186
2023-01-30 10:17:19.408919,-0.07911741733551018
2023-01-30 10:17:19.413919,-0.08563015493083623
2023-01-30 10:17:19.418919,-0.09462356567382801
2023-01-30 10:17:19.423919,-0.10525955078985445
2023-01-30 10:17:19.428919,-0.1131107434630392
2023-01-30 10:17:19.433919,-0.10922994632562516
2023-01-30 10:17:19.438919,-0.08250713348388661
2023-01-30 10:17:19.443919,-0.024401154545230876
2023-01-30 10:17:19.448919,0.0663999766111373
2023-01-30 10:17:19.453919,0.18080568565761032
2023-01-30 10:17:19.458919,0.2989441156387328
2023-01-30 10:17:19.463919,0.3945371431772694
2023-01-30 10:17:19.468919,0.44374030828475935
2023-01-30 10:17:19.473919,0.43410463572152
2023-01-30 10:17:19.478919,0.36880594491958596
2023-01-30 10:17:19.483919,0.2648878171036216
2023-01-30 10:17:19.488919,0.14717619121074668
2023-01-30 10:17:19.493919,0.04002356733870827
2023-01-30 10:17:19.498919,-0.04029194638133031
2023-01-30 10:17:19.503919,-0.0889746468263612
2023-01-30 10:17:19.508919,-0.11061052978038777
2023-01-30 10:17:19.513919,-0.11420303393180536
2023-01-30 10:17:19.518919,-0.10890364646911617
2023-01-30 10:17:19.523919,-0.10152990615264446
2023-01-30 10:17:19.528919,-0.09546498954296104
2023-01-30 10:17:19.533919,-0.09111654587223163
2023-01-30 10:17:19.538919,-0.08774797618389114
2023-01-30 10:17:19.543919,-0.08498373331748393
2023-01-30 10:17:19.548919,-0.08277158439159388
2023-01-30 10:17:19.553919,-0.0808144836477828
2023-01-30 10:17:19.558919,-0.07875680923461914
2023-01-30 10:17:19.563919,-0.0765684517656758
2023-01-30 10:17:19.568919,-0.07423719018697733
2023-01-30 10:17:19.573919,-0.07143416632534252
2023-01-30 10:17:19.578919,-0.06793856620788573
2023-01-30 10:17:19.583919,-0.06403156517839496
2023-01-30 10:17:19.588919,-0.06002923101186745
2023-01-30 10:17:19.593919,-0.05577508516774935
2023-01-30 10:17:19.598919,-0.05098998546600343
2023-01-30 10:17:19.603919,-0.04572060360956498
2023-01-30 10:17:19.608919,-0.040003459900617495
2023-01-30 10:17:19.613919,-0.03346545407348899
2023-01-30 10:17:19.618919,-0.0256993379443883
2023-01-30 10:17:19.623919,-0.01668493521094418
2023-01-30 10:17:19.628919,-0.006442864891141544
2023-01-30 10:17:19.633919,0.005317855443196911
2023-01-30 10:17:19.638919,0.018727581948041853
2023-01-30 10:17:19.643919,0.03324129868130102
2023-01-30 10:17:19.648919,0.04798492044210431
2023-01-30 10:17:19.653919,0.062268560418067796
2023-01-30 10:17:19.658919,0.07539113610982892
2023-01-30 10:17:19.663919,0.08636578878554046
2023-01-30 10:17:19.668919,0.09433507919311515
2023-01-30 10:17:19.673919,0.09897372444542758
2023-01-30 10:17:19.678919,0.10010480880737307
2023-01-30 10:17:19.683919,0.0972836889819246
2023-01-30 10:17:19.688919,0.09020011126995083
2023-01-30 10:17:19.693919,0.07919378197522427
2023-01-30 10:17:19.698919,0.06500562280416484
2023-01-30 10:17:19.703919,0.048369271913581806
2023-01-30 10:17:19.708919,0.030218958854675217
2023-01-30 10:17:19.713919,0.01188453303457436
2023-01-30 10:17:19.718919,-0.005433162208646469
2023-01-30 10:17:19.723919,-0.021161610150918646
2023-01-30 10:17:19.728919,-0.03502706810832017
2023-01-30 10:17:19.733919,-0.04660490011841467
2023-01-30 10:17:19.738919,-0.05558172985911352
2023-01-30 10:17:19.743919,-0.062089197707018935
2023-01-30 10:17:19.748919,-0.06635189056396482
2023-01-30 10:17:19.753919,-0.06833682716611764
2023-01-30 10:17:19.758919,-0.06815493106842041
2023-01-30 10:17:19.763919,-0.06646618790914906
2023-01-30 10:17:19.768919,-0.06406804174184794
2023-01-30 10:17:19.773919,-0.06139174168534261
2023-01-30 10:17:19.778919,-0.05875508114695534
2023-01-30 10:17:19.783919,-0.05668653133633442
2023-01-30 10:17:19.788919,-0.05550960823893543
2023-01-30 10:17:19.793919,-0.05493037861043611
2023-01-30 10:17:19.798919,-0.05449990555644035
2023-01-30 10:17:19.803919,-0.05419550187484424
2023-01-30 10:17:19.808919,-0.05413929745554915
2023-01-30 10:17:19.813919,-0.05410307866709013
2023-01-30 10:17:19.818919,-0.05377868935465813
2023-01-30 10:17:19.823919,-0.05323559545327083
2023-01-30 10:17:19.828919,-0.052624743431806564
2023-01-30 10:17:19.833919,-0.051695841163968644
2023-01-30 10:17:19.838919,-0.05007644742727273
2023-01-30 10:17:19.843919,-0.047784896430226674
2023-01-30 10:17:19.848919,-0.04502793401479721
2023-01-30 10:17:19.853919,-0.04174238441004634
2023-01-30 10:17:19.858919,-0.03776768967509258
2023-01-30 10:17:19.863919,-0.03320550015559224
2023-01-30 10:17:19.868919,-0.028151473030447856
2023-01-30 10:17:19.873919,-0.02230944303576036
2023-01-30 10:17:19.878919,-0.015337864868342753
2023-01-30 10:17:19.883919,-0.007419599799214571
2023-01-30 10:17:19.888919,0.0008414189214818084
2023-01-30 10:17:19.893919,0.008781934751831385
2023-01-30 10:17:19.898919,0.015506148338317833
2023-01-30 10:17:19.903919,0.01966183095551864
2023-01-30 10:17:19.908919,0.01997768878936759
2023-01-30 10:17:19.913919,0.016025574960347892
2023-01-30 10:17:19.918919,0.008245905861258392
2023-01-30 10:17:19.923919,-0.0024463955208655647
2023-01-30 10:17:19.928919,-0.01468877028673875
2023-01-30 10:17:19.933919,-0.026667372956878675
2023-01-30 10:17:19.938919,-0.03673394769430163
2023-01-30 10:17:19.943919,-0.04412140981671463
2023-01-30 10:17:19.948919,-0.04897058010101304
2023-01-30 10:17:19.953919,-0.0521029435874478
2023-01-30 10:17:19.958919,-0.055197082459926584
2023-01-30 10:17:19.963919,-0.06066431278457288
2023-01-30 10:17:19.968919,-0.07019837945699689
2023-01-30 10:17:19.973919,-0.08252938254080916
2023-01-30 10:17:19.978919,-0.09188294410705551
2023-01-30 10:17:19.983919,-0.08800554328020181
2023-01-30 10:17:19.988919,-0.05820214748382559
2023-01-30 10:17:19.993919,0.008052295398205908
2023-01-30 10:17:19.998919,0.1127741783857345
2023-01-30 10:17:20.003919,0.24479242743094795
2023-01-30 10:17:20.008919,0.38032135367393477
2023-01-30 10:17:20.013919,0.4893230794311221
2023-01-30 10:17:20.018919,0.5450952053070066
2023-01-30 10:17:20.023919,0.5335048375056612
2023-01-30 10:17:20.028919,0.45830887556076033
2023-01-30 10:17:20.033919,0.33977322688740363
2023-01-30 10:17:20.038919,0.2067486494779585
2023-01-30 10:17:20.043919,0.08629387322060873
2023-01-30 10:17:20.048919,-0.0040388107299803265
2023-01-30 10:17:20.053919,-0.05885969486011924
2023-01-30 10:17:20.058919,-0.08310814946889866
2023-01-30 10:17:20.063919,-0.08734007160869582
2023-01-30 10:17:20.068919,-0.0822426900267601
2023-01-30 10:17:20.073919,-0.07496967798464285
2023-01-30 10:17:20.078919,-0.06865978240966797
2023-01-30 10:17:20.083919,-0.06392322131105416
2023-01-30 10:17:20.088919,-0.060245595872402115
2023-01-30 10:17:20.093919,-0.05679646573622672
2023-01-30 10:17:20.098919,-0.05310555547475803
2023-01-30 10:17:20.103919,-0.04934991813632244
2023-01-30 10:17:20.108919,-0.045845311135053635
2023-01-30 10:17:20.113919,-0.042475678378391044
2023-01-30 10:17:20.118919,-0.038921635597944176
2023-01-30 10:17:20.123919,-0.035151877216076634
2023-01-30 10:17:20.128919,-0.03127674385905254
2023-01-30 10:17:20.133919,-0.027170793226239328
2023-01-30 10:17:20.138919,-0.022670229896902972
2023-01-30 10:17:20.143919,-0.017914155244684437
2023-01-30 10:17:20.148919,-0.013054013252258283
2023-01-30 10:17:20.153919,-0.00782065601900292
2023-01-30 10:17:20.158919,-0.0017790000420063023
2023-01-30 10:17:20.163919,0.005202501824512928
2023-01-30 10:17:20.168919,0.01312613487243648
2023-01-30 10:17:20.173919,0.022255251485855283
2023-01-30 10:17:20.178919,0.03288745880126944
2023-01-30 10:17:20.183919,0.04493017951222677
2023-01-30 10:17:20.188919,0.058081947267055484
2023-01-30 10:17:20.193919,0.072177325087854
2023-01-30 10:17:20.198919,0.08690655231475825
2023-01-30 10:17:20.203919,0.1014048038725033
2023-01-30 10:17:20.208919,0.11455317586660377
2023-01-30 10:17:20.213919,0.12551152545652283
2023-01-30 10:17:20.218919,0.1336173266172409
2023-01-30 10:17:20.223919,0.13808707726411734
2023-01-30 10:17:20.228919,0.1383292675018311
2023-01-30 10:17:20.233919,0.13437464756113668
2023-01-30 10:17:20.238919,0.12659749388694758
2023-01-30 10:17:20.243919,0.11526595285743212
2023-01-30 10:17:20.248919,0.10080198943614951
2023-01-30 10:17:20.253919,0.08421182230362059
2023-01-30 10:17:20.258919,0.06676058471202845
2023-01-30 10:17:20.263919,0.04940328424906659
2023-01-30 10:17:20.268919,0.032911501824855825
2023-01-30 10:17:20.273919,0.01821177334560207
2023-01-30 10:17:20.278919,0.00603417586535204
2023-01-30 10:17:20.283919,-0.003586830393820757
2023-01-30 10:17:20.288919,-0.01101056765764955
2023-01-30 10:17:20.293919,-0.016432447420871008
2023-01-30 10:17:20.298919,-0.020049810409545756
2023-01-30 10:17:20.303919,-0.022423632324264843
2023-01-30 10:17:20.308919,-0.02408862113952629
2023-01-30 10:17:20.313919,-0.025023336986465663
2023-01-30 10:17:20.318919,-0.02500216290354719
2023-01-30 10:17:20.323919,-0.024194847723286384
2023-01-30 10:17:20.328919,-0.022910635918378792
2023-01-30 10:17:20.333919,-0.02108460040594813
2023-01-30 10:17:20.338919,-0.018607378005981386
2023-01-30 10:17:20.343919,-0.015860025285882744
2023-01-30 10:17:20.348919,-0.013318459503352566
2023-01-30 10:17:20.353919,-0.010930586307596262
2023-01-30 10:17:20.358919,-0.008486310951411738
2023-01-30 10:17:20.363919,-0.006232739881028147
2023-01-30 10:17:20.368919,-0.004423459526151461
2023-01-30 10:17:20.373919,-0.0026227170047676794
2023-01-30 10:17:20.378919,-0.0002404054102953547
2023-01-30 10:17:20.383919,0.0025560121357702764
2023-01-30 10:17:20.388919,0.0052408380433916595
2023-01-30 10:17:20.393919,0.007839967056912322
2023-01-30 10:17:20.398919,0.010529756546020527
2023-01-30 10:17:20.403919,0.012785745207694385
2023-01-30 10:17:20.408919,0.014159878715872688
2023-01-30 10:17:20.413919,0.015684109348432992
2023-01-30 10:17:20.418919,0.019136270508170017
2023-01-30 10:17:20.423919,0.02484865134593291
2023-01-30 10:17:20.428919,0.031565230339765445
2023-01-30 10:17:20.433919,0.03861738247208691
2023-01-30 10:17:20.438919,0.04668673127889635
2023-01-30 10:17:20.443919,0.05573814206302908
2023-01-30 10:17:20.448919,0.06351511180400841
2023-01-30 10:17:20.453919,0.06713345988596918
2023-01-30 10:17:20.458919,0.06543835252523417
2023-01-30 10:17:20.463919,0.05906034503005109
2023-01-30 10:17:20.468919,0.049042701721191385
2023-01-30 10:17:20.473919,0.036501185999806694
2023-01-30 10:17:20.478919,0.023127000778913328
2023-01-30 10:17:20.483919,0.010846505229174335
2023-01-30 10:17:20.488919,0.0008414189214817042
2023-01-30 10:17:20.493919,-0.006672095305353385
2023-01-30 10:17:20.498919,-0.012044310569763197
2023-01-30 10:17:20.503919,-0.016286865894599215
2023-01-30 10:17:20.508919,-0.021372040733695096
2023-01-30 10:17:20.513919,-0.029447892309470862
2023-01-30 10:17:20.518919,-0.040868919342756174
2023-01-30 10:17:20.523919,-0.05221763450243895
2023-01-30 10:17:20.528919,-0.055341325700283064
2023-01-30 10:17:20.533919,-0.038183533039480105
2023-01-30 10:17:20.538919,0.01165966223925351
2023-01-30 10:17:20.543919,0.10086420751534646
2023-01-30 10:17:20.548919,0.22444248199462882
2023-01-30 10:17:20.553919,0.3636594475958185
2023-01-30 10:17:20.558919,0.48975390195846547
2023-01-30 10:17:20.563919,0.5725450017855279
2023-01-30 10:17:20.568919,0.5908203124999998
2023-01-30 10:17:20.573919,0.5402308771840648
2023-01-30 10:17:20.578919,0.4348693490028379
2023-01-30 10:17:20.583919,0.3015953843282284
2023-01-30 10:17:20.588919,0.1700627803802489
2023-01-30 10:17:20.593919,0.063244062557801
2023-01-30 10:17:20.598919,-0.007933378219604463
2023-01-30 10:17:20.603919,-0.044673914957863
2023-01-30 10:17:20.608919,-0.05613466352224337
2023-01-30 10:17:20.613919,-0.0535989613185756
2023-01-30 10:17:20.618919,-0.04601359367370594
2023-01-30 10:17:20.623919,-0.0384076621304293
2023-01-30 10:17:20.628919,-0.03252685070037851
2023-01-30 10:17:20.633919,-0.028206301059682182
2023-01-30 10:17:20.638919,-0.024641554802656115
2023-01-30 10:17:20.643919,-0.021255250215452604
2023-01-30 10:17:20.648919,-0.017910202965140336
2023-01-30 10:17:20.653919,-0.014589492002946045
2023-01-30 10:17:20.658919,-0.011154810898005896
2023-01-30 10:17:20.663919,-0.007490336585913106
2023-01-30 10:17:20.668919,-0.0036541621666400974
2023-01-30 10:17:20.673919,0.00025147873772850813
2023-01-30 10:17:20.678919,0.004207094665616721
2023-01-30 10:17:20.683919,0.008191522597136383
2023-01-30 10:17:20.688919,0.01216451358050105
2023-01-30 10:17:20.693919,0.016257624731113317
2023-01-30 10:17:20.698919,0.020843148231506337
2023-01-30 10:17:20.703919,0.026334374693785804
2023-01-30 10:17:20.708919,0.033055745065212264
2023-01-30 10:17:20.713919,0.0413260307355188
2023-01-30 10:17:20.718919,0.051422715187072726
2023-01-30 10:17:20.723919,0.06332663219136263
2023-01-30 10:17:20.728919,0.07664124667644501
2023-01-30 10:17:20.733919,0.09083463253112317
2023-01-30 10:17:20.738919,0.10541777312755576
2023-01-30 10:17:20.743919,0.11987037288580431
2023-01-30 10:17:20.748919,0.13361732661724093
2023-01-30 10:17:20.753919,0.14615958157885905
2023-01-30 10:17:20.758919,0.15703281760215748
2023-01-30 10:17:20.763919,0.16555839093363678
2023-01-30 10:17:20.768919,0.17083208262920363
2023-01-30 10:17:20.773919,0.1720757149618186
2023-01-30 10:17:20.778919,0.16890883445739738
2023-01-30 10:17:20.783919,0.16132798427049355
2023-01-30 10:17:20.788919,0.14970044791698447
2023-01-30 10:17:20.793919,0.13486502597828207
2023-01-30 10:17:20.798919,0.11799097061157224
2023-01-30 10:17:20.803919,0.10016555150991777
2023-01-30 10:17:20.808919,0.08219461143016807
2023-01-30 10:17:20.813919,0.06477293019473104
2023-01-30 10:17:20.818919,0.048585932701826096
2023-01-30 10:17:20.823919,0.03414305798014075
2023-01-30 10:17:20.828919,0.021708607673645065
2023-01-30 10:17:20.833919,0.011488310842888731
2023-01-30 10:17:20.838919,0.0037022433243691826
2023-01-30 10:17:20.843919,-0.0016104445504613143
2023-01-30 10:17:20.848919,-0.004687905311584359
2023-01-30 10:17:20.853919,-0.00588182721645478
2023-01-30 10:17:20.858919,-0.005577405449002829
2023-01-30 10:17:20.863919,-0.004331203150869555
2023-01-30 10:17:20.868919,-0.0028608243446795996
2023-01-30 10:17:20.873919,-0.0017367071820719956
2023-01-30 10:17:20.878919,-0.0011539459228515246
2023-01-30 10:17:20.883919,-0.0010041040069401295
2023-01-30 10:17:20.888919,-0.0009856622200459146
2023-01-30 10:17:20.893919,-0.0006232986468111955
2023-01-30 10:17:20.898919,0.0005529324407688681
2023-01-30 10:17:20.903919,0.0026590288741764425
2023-01-30 10:17:20.908919,0.0053610405884682655
2023-01-30 10:17:20.913919,0.008173089138144548
2023-01-30 10:17:20.918919,0.01074612140655508
2023-01-30 10:17:20.923919,0.012897707774706049
2023-01-30 10:17:20.928919,0.014616648666560515
2023-01-30 10:17:20.933919,0.01615867790940724
2023-01-30 10:17:20.938919,0.017958283424377317
2023-01-30 10:17:20.943919,0.020293104578158822
2023-01-30 10:17:20.948919,0.023102959617972315
2023-01-30 10:17:20.953919,0.026181484075521837
2023-01-30 10:17:20.958919,0.029425621032714816
2023-01-30 10:17:20.963919,0.032867473538621295
2023-01-30 10:17:20.968919,0.03663778305053711
2023-01-30 10:17:20.973919,0.04098434663450417
2023-01-30 10:17:20.978919,0.04613379761576643
2023-01-30 10:17:20.983919,0.05190582799480533
2023-01-30 10:17:20.988919,0.057432852685451584
2023-01-30 10:17:20.993919,0.06132712330896944
2023-01-30 10:17:20.998919,0.06216883659362793
2023-01-30 10:17:21.003919,0.05896866823089992
2023-01-30 10:17:21.008919,0.051470797508955037
2023-01-30 10:17:21.013919,0.04033080270365753
2023-01-30 10:17:21.018919,0.027093689888715747
2023-01-30 10:17:21.023919,0.013800875075057078
2023-01-30 10:17:21.028919,0.0022598109208046917
2023-01-30 10:17:21.033919,-0.006603262705864684
2023-01-30 10:17:21.038919,-0.012813608162105031
2023-01-30 10:17:21.043919,-0.0169226660833498
2023-01-30 10:17:21.048919,-0.019809406250715218
2023-01-30 10:17:21.053919,-0.023038495212401266
2023-01-30 10:17:21.058919,-0.028872689232230186
2023-01-30 10:17:21.063919,-0.03880613366301376
2023-01-30 10:17:21.068919,-0.05108615010976797
2023-01-30 10:17:21.073919,-0.05919059569685115
2023-01-30 10:17:21.078919,-0.052648782730102484
2023-01-30 10:17:21.083919,-0.020006305695105423
2023-01-30 10:17:21.088919,0.0467828921973705
2023-01-30 10:17:21.093919,0.1473012438491176
2023-01-30 10:17:21.098919,0.268989622592926
2023-01-30 10:17:21.103919,0.3880506671397991
2023-01-30 10:17:21.108919,0.4762671589851378
2023-01-30 10:17:21.113919,0.5109611944835332
2023-01-30 10:17:21.118919,0.48316678404808044
2023-01-30 10:17:21.123919,0.4005769889980153
2023-01-30 10:17:21.128919,0.2845197916030883
2023-01-30 10:17:21.133919,0.16218916832020766
2023-01-30 10:17:21.138919,0.05716840550303452
2023-01-30 10:17:21.143919,-0.017433469027061266
2023-01-30 10:17:21.148919,-0.06026963517069815
2023-01-30 10:17:21.153919,-0.07821778524340908
2023-01-30 10:17:21.158919,-0.08123298734426487
2023-01-30 10:17:21.163919,-0.07814700703902465
2023-01-30 10:17:21.168919,-0.0743333548307418
2023-01-30 10:17:21.173919,-0.07149921115260369
2023-01-30 10:17:21.178919,-0.06926079839467998
2023-01-30 10:17:21.183919,-0.0670213380694771
2023-01-30 10:17:21.188919,-0.06466905772685991
2023-01-30 10:17:21.193919,-0.062255509222971954
2023-01-30 10:17:21.198919,-0.05978882312774648
2023-01-30 10:17:21.203919,-0.05736449554529764
2023-01-30 10:17:21.208919,-0.05505283921957007
2023-01-30 10:17:21.213919,-0.052641755794038174
2023-01-30 10:17:21.218919,-0.0498360395431518
2023-01-30 10:17:21.223919,-0.04667104581310997
2023-01-30 10:17:21.228919,-0.04339317604899394
2023-01-30 10:17:21.233919,-0.04000059515119771
2023-01-30 10:17:21.238919,-0.036253135651349924
2023-01-30 10:17:21.243919,-0.03205659042415447
2023-01-30 10:17:21.248919,-0.027454297989606778
2023-01-30 10:17:21.253919,-0.02228051662592879
2023-01-30 10:17:21.258919,-0.016179284080862808
2023-01-30 10:17:21.263919,-0.008920334844104292
2023-01-30 10:17:21.268919,-0.0003606081008910612
2023-01-30 10:17:21.273919,0.009806218037035679
2023-01-30 10:17:21.278919,0.02182881161570536
2023-01-30 10:17:21.283919,0.03539538268529498
2023-01-30 10:17:21.288919,0.049643717706203405
2023-01-30 10:17:21.293919,0.06361315452042732
2023-01-30 10:17:21.298919,0.0764008387923239
2023-01-30 10:17:21.303919,0.08704146367223337
2023-01-30 10:17:21.308919,0.09469568729400629
2023-01-30 10:17:21.313919,0.09895962943747527
2023-01-30 10:17:21.318919,0.09964804351329799
2023-01-30 10:17:21.323919,0.09633694092977782
2023-01-30 10:17:21.328919,0.08849322795867909
2023-01-30 10:17:21.333919,0.07602502573200458
2023-01-30 10:17:21.338919,0.05940417572855936
2023-01-30 10:17:21.343919,0.03939160897244316
2023-01-30 10:17:21.348919,0.01704474352300155
2023-01-30 10:17:21.353919,-0.006136223508222587
2023-01-30 10:17:21.358919,-0.02858420275151722
2023-01-30 10:17:21.363919,-0.049268083938980724
2023-01-30 10:17:21.368919,-0.0676741227507591
2023-01-30 10:17:21.373919,-0.08336456103362071
2023-01-30 10:17:21.378919,-0.0959938764572143
2023-01-30 10:17:21.383919,-0.10567904854959567
2023-01-30 10:17:21.388919,-0.11291842162609089
2023-01-30 10:17:21.393919,-0.11817545037364953
2023-01-30 10:17:21.398919,-0.1218855381011963
2023-01-30 10:17:21.403919,-0.12471151098507718
2023-01-30 10:17:21.408919,-0.12729465961456285
2023-01-30 10:17:21.413919,-0.12976472411601822
2023-01-30 10:17:21.418919,-0.13186237215995772
2023-01-30 10:17:21.423919,-0.13344592718810447
2023-01-30 10:17:21.428919,-0.13450682163238517
2023-01-30 10:17:21.433919,-0.13488355228767587
2023-01-30 10:17:21.438919,-0.1344827860593795
2023-01-30 10:17:21.443919,-0.1337088898176018
2023-01-30 10:17:21.448919,-0.13320863246917714
2023-01-30 10:17:21.453919,-0.13324571714119474
2023-01-30 10:17:21.458919,-0.13368944823741907
2023-01-30 10:17:21.463919,-0.1343980307461624
2023-01-30 10:17:21.468919,-0.13510784506797785
2023-01-30 10:17:21.473919,-0.1351507468592192
2023-01-30 10:17:21.478919,-0.1339058130979536
2023-01-30 10:17:21.483919,-0.13150555092420244
2023-01-30 10:17:21.488919,-0.1286409348249434
2023-01-30 10:17:21.493919,-0.12579709451944268
2023-01-30 10:17:21.498919,-0.12311160564422599
2023-01-30 10:17:21.503919,-0.12069292819706434
2023-01-30 10:17:21.508919,-0.11844774335622772
2023-01-30 10:17:21.513919,-0.1158069305122535
2023-01-30 10:17:21.518919,-0.11234144866466522
2023-01-30 10:17:21.523919,-0.10862743388658619
2023-01-30 10:17:21.528919,-0.10599474608898152
2023-01-30 10:17:21.533919,-0.10558954066919937
2023-01-30 10:17:21.538919,-0.10815839469432834
2023-01-30 10:17:21.543919,-0.11430885995256934
2023-01-30 10:17:21.548919,-0.1240972727537154
2023-01-30 10:17:21.553919,-0.13647151444370548
2023-01-30 10:17:21.558919,-0.14984469115734095
2023-01-30 10:17:21.563919,-0.163106053444739
2023-01-30 10:17:21.568919,-0.17551998794078827
2023-01-30 10:17:21.573919,-0.1861236850620705
2023-01-30 10:17:21.578919,-0.1942475736141202
2023-01-30 10:17:21.583919,-0.20051734088229492
2023-01-30 10:17:21.588919,-0.20653228461742393
2023-01-30 10:17:21.593919,-0.21366492416158506
2023-01-30 10:17:21.598919,-0.22254328429698936
2023-01-30 10:17:21.603919,-0.23250068693175785
2023-01-30 10:17:21.608919,-0.2396601438522338
2023-01-30 10:17:21.613919,-0.23562714828562495
2023-01-30 10:17:21.618919,-0.2099220007658004
2023-01-30 10:17:21.623919,-0.1551719086256006
2023-01-30 10:17:21.628919,-0.07125616073608387
2023-01-30 10:17:21.633919,0.03280598211064099
2023-01-30 10:17:21.638919,0.13856968283653254
2023-01-30 10:17:21.643919,0.22144675861465682
2023-01-30 10:17:21.648919,0.25944551825523365
2023-01-30 10:17:21.653919,0.2427821104958432
2023-01-30 10:17:21.658919,0.1767941415309906
2023-01-30 10:17:21.663919,0.07769334611111928
2023-01-30 10:17:21.668919,-0.03279129788279534
2023-01-30 10:17:21.673919,-0.13192792839166206
2023-01-30 10:17:21.678919,-0.20295023918151855
2023-01-30 10:17:21.683919,-0.24242638720525875
2023-01-30 10:17:21.688919,-0.2594935894012451
2023-01-30 10:17:21.693919,-0.2657304502610391
2023-01-30 10:17:21.698919,-0.26677787303924566
2023-01-30 10:17:21.703919,-0.2639730587208329
2023-01-30 10:17:21.708919,-0.259782075881958
2023-01-30 10:17:21.713919,-0.25747984634335536
2023-01-30 10:17:21.718919,-0.2571376264095306
2023-01-30 10:17:21.723919,-0.2560043971404477
2023-01-30 10:17:21.728919,-0.2528824508190155
2023-01-30 10:17:21.733919,-0.2493334765608723
2023-01-30 10:17:21.738919,-0.2466559410095214
2023-01-30 10:17:21.743919,-0.24441529949675173
2023-01-30 10:17:21.748919,-0.24230460822582237
2023-01-30 10:17:21.753919,-0.24102392412504206
2023-01-30 10:17:21.758919,-0.24059772491455061
2023-01-30 10:17:21.763919,-0.23971100267544632
2023-01-30 10:17:21.768919,-0.2374484241008757
2023-01-30 10:17:21.773919,-0.23422389136822383
2023-01-30 10:17:21.778919,-0.23047666251659393
2023-01-30 10:17:21.783919,-0.22586458620801417
2023-01-30 10:17:21.788919,-0.22025942802429177
2023-01-30 10:17:21.793919,-0.21419391611484329
2023-01-30 10:17:21.798919,-0.20771026611328114
2023-01-30 10:17:21.803919,-0.1998776151616778
2023-01-30 10:17:21.808919,-0.1899923980236053
2023-01-30 10:17:21.813919,-0.17830972923518493
2023-01-30 10:17:21.818919,-0.16523063182830805
2023-01-30 10:17:21.823919,-0.15081545350397296
2023-01-30 10:17:21.828919,-0.13556461036205286
2023-01-30 10:17:21.833919,-0.12074357350669451
2023-01-30 10:17:21.838919,-0.10746121406555167
2023-01-30 10:17:21.843919,-0.09621496910149621
2023-01-30 10:17:21.848919,-0.08767585456371307
2023-01-30 10:17:21.853919,-0.08305058518405367
2023-01-30 10:17:21.858919,-0.08322834968566892
2023-01-30 10:17:21.863919,-0.08826298567025177
2023-01-30 10:17:21.868919,-0.0979652032256126
2023-01-30 10:17:21.873919,-0.11219461101585576
2023-01-30 10:17:21.878919,-0.13020357489585865
2023-01-30 10:17:21.883919,-0.15044278766140068
2023-01-30 10:17:21.888919,-0.1714330911636352
2023-01-30 10:17:21.893919,-0.19226969530881263
2023-01-30 10:17:21.898919,-0.21208564937114704
2023-01-30 10:17:21.903919,-0.2297879758713201
2023-01-30 10:17:21.908919,-0.2446846216917037
2023-01-30 10:17:21.913919,-0.2567493633481978
2023-01-30 10:17:21.918919,-0.265984535217285
2023-01-30 10:17:21.923919,-0.272152396875764
2023-01-30 10:17:21.928919,-0.27540844678878784
2023-01-30 10:17:21.933919,-0.27656442150694877
2023-01-30 10:17:21.938919,-0.27641814947128285
2023-01-30 10:17:21.943919,-0.27537098427771917
2023-01-30 10:17:21.948919,-0.27389389276504494
2023-01-30 10:17:21.953919,-0.272687632462572
2023-01-30 10:17:21.958919,-0.27204275131225575
2023-01-30 10:17:21.963919,-0.2715835850919716
2023-01-30 10:17:21.968919,-0.27091285586357106
2023-01-30 10:17:21.973919,-0.26999094307336624
2023-01-30 10:17:21.978919,-0.26870113611221297
2023-01-30 10:17:21.983919,-0.26668376183830306
2023-01-30 10:17:21.988919,-0.26391705870628346
2023-01-30 10:17:21.993919,-0.2609326279912284
2023-01-30 10:17:21.998919,-0.25817137956619246
2023-01-30 10:17:22.003919,-0.25559043422463995
2023-01-30 10:17:22.008919,-0.25307476520538325
2023-01-30 10:17:22.013919,-0.25065949541251603
2023-01-30 10:17:22.018919,-0.24809837341308583
2023-01-30 10:17:22.023919,-0.24477228714720686
2023-01-30 10:17:22.028919,-0.24033328890800465
2023-01-30 10:17:22.033919,-0.23500106449511704
2023-01-30 10:17:22.038919,-0.22903423011302929
2023-01-30 10:17:22.043919,-0.22241522446022113
2023-01-30 10:17:22.048919,-0.21525900065898895
2023-01-30 10:17:22.053919,-0.2080082061365024
2023-01-30 10:17:22.058919,-0.20100295543670654
2023-01-30 10:17:22.063919,-0.1943864943877426
2023-01-30 10:17:22.068919,-0.18869420886039742
2023-01-30 10:17:22.073919,-0.18504459459415928
2023-01-30 10:17:22.078919,-0.1844630688428878
2023-01-30 10:17:22.083919,-0.18736555434082044
2023-01-30 10:17:22.088919,-0.19374272227287284
2023-01-30 10:17:22.093919,-0.20321310313546337
2023-01-30 10:17:22.098919,-0.21463394165039062
2023-01-30 10:17:22.103919,-0.22623468086064003
2023-01-30 10:17:22.108919,-0.23653487861156455
2023-01-30 10:17:22.113919,-0.24488161039714224
2023-01-30 10:17:22.118919,-0.25112748146057107
2023-01-30 10:17:22.123919,-0.25549500993699137
2023-01-30 10:17:22.128919,-0.25906085968017567
2023-01-30 10:17:22.133919,-0.26370912836069027
2023-01-30 10:17:22.138919,-0.2708888053894041
2023-01-30 10:17:22.143919,-0.28011594898076214
2023-01-30 10:17:22.148919,-0.2880297303199768
2023-01-30 10:17:22.153919,-0.2878652859316701
2023-01-30 10:17:22.158919,-0.2699512243270874
2023-01-30 10:17:22.163919,-0.2247636796174957
2023-01-30 10:17:22.168919,-0.14823397994041443
2023-01-30 10:17:22.173919,-0.046178010187025165
2023-01-30 10:17:22.178919,0.06512582302093503
2023-01-30 10:17:22.183919,0.1625762222231682
2023-01-30 10:17:22.188919,0.2228798568248748
2023-01-30 10:17:22.193919,0.23045914406078036
2023-01-30 10:17:22.198919,0.1835976094007492
2023-01-30 10:17:22.203919,0.09518118958982646
2023-01-30 10:17:22.208919,-0.012717446312308282
2023-01-30 10:17:22.213919,-0.11700817878808033
2023-01-30 10:17:22.218919,-0.20035386085510243
2023-01-30 10:17:22.223919,-0.25476060345073914
2023-01-30 10:17:22.228919,-0.28175514936447144
2023-01-30 10:17:22.233919,-0.2892050730953452
2023-01-30 10:17:22.238919,-0.28629881143569946
2023-01-30 10:17:22.243919,-0.27981813052374693
2023-01-30 10:17:22.248919,-0.2734130620956419
2023-01-30 10:17:22.253919,-0.268476371491099
2023-01-30 10:17:22.258919,-0.2648065686225891
2023-01-30 10:17:22.263919,-0.2613031234967672
2023-01-30 10:17:22.268919,-0.2572337985038756
2023-01-30 10:17:22.273919,-0.2529120057547995
2023-01-30 10:17:22.278919,-0.24884364008903503
2023-01-30 10:17:22.283919,-0.24475055311299826
2023-01-30 10:17:22.288919,-0.24009287357330317
2023-01-30 10:17:22.293919,-0.23510640255442442
2023-01-30 10:17:22.298919,-0.2304526269435882
2023-01-30 10:17:22.303919,-0.22598682588850344
2023-01-30 10:17:22.308919,-0.22069215774536122
2023-01-30 10:17:22.313919,-0.21392498286015665
2023-01-30 10:17:22.318919,-0.20609955489635456
2023-01-30 10:17:22.323919,-0.1979863880344311
2023-01-30 10:17:22.328919,-0.18982410430908192
2023-01-30 10:17:22.333919,-0.1813021939467051
2023-01-30 10:17:22.338919,-0.17201006412506087
2023-01-30 10:17:22.343919,-0.16163266839633156
2023-01-30 10:17:22.348919,-0.14991681277751914
2023-01-30 10:17:22.353919,-0.13670675467109078
2023-01-30 10:17:22.358919,-0.12205382436513897
2023-01-30 10:17:22.363919,-0.10629564346343924
2023-01-30 10:17:22.368919,-0.09005586802959434
2023-01-30 10:17:22.373919,-0.07410233685056761
2023-01-30 10:17:22.378919,-0.05913972854614258
2023-01-30 10:17:22.383919,-0.045780684041844016
2023-01-30 10:17:22.388919,-0.03469049930572503
2023-01-30 10:17:22.393919,-0.026582647144942503
2023-01-30 10:17:22.398919,-0.022021135315299048
2023-01-30 10:17:22.403919,-0.021389596699852798
2023-01-30 10:17:22.408919,-0.02507428452372542
2023-01-30 10:17:22.413919,-0.03342298820063319
2023-01-30 10:17:22.418919,-0.046374201774597126
2023-01-30 10:17:22.423919,-0.06323194878303809
2023-01-30 10:17:22.428919,-0.08279561996459961
2023-01-30 10:17:22.433919,-0.10349560213772115
2023-01-30 10:17:22.438919,-0.12344817817211147
2023-01-30 10:17:22.443919,-0.14082538141395137
2023-01-30 10:17:22.448919,-0.1545085608959197
2023-01-30 10:17:22.453919,-0.1643723487996455
2023-01-30 10:17:22.458919,-0.17097632586956016
2023-01-30 10:17:22.463919,-0.17519426745940708
2023-01-30 10:17:22.468919,-0.17804424464702598
2023-01-30 10:17:22.473919,-0.1803749388083266
2023-01-30 10:17:22.478919,-0.18241962790489188
2023-01-30 10:17:22.483919,-0.18380495554781298
2023-01-30 10:17:22.488919,-0.184078425168991
2023-01-30 10:17:22.493919,-0.1830536669803756
2023-01-30 10:17:22.498919,-0.18071274459362022
2023-01-30 10:17:22.503919,-0.17719737299790006
2023-01-30 10:17:22.508919,-0.17304381728172297
2023-01-30 10:17:22.513919,-0.16909348610460806
2023-01-30 10:17:22.518919,-0.16597589850425715
2023-01-30 10:17:22.523919,-0.1638563720403198
2023-01-30 10:17:22.528919,-0.16268233954906464
2023-01-30 10:17:22.533919,-0.16231638847923505
2023-01-30 10:17:22.538919,-0.162345767021179
2023-01-30 10:17:22.543919,-0.16215124335047088
2023-01-30 10:17:22.548919,-0.1613601148128509
2023-01-30 10:17:22.553919,-0.15999219539751441
2023-01-30 10:17:22.558919,-0.15811464190483082
2023-01-30 10:17:22.563919,-0.15571241267630126
2023-01-30 10:17:22.568919,-0.15299400687217707
2023-01-30 10:17:22.573919,-0.15042826368974277
2023-01-30 10:17:22.578919,-0.14828205108642567
2023-01-30 10:17:22.583919,-0.14638513426232086
2023-01-30 10:17:22.588919,-0.1444115340709686
2023-01-30 10:17:22.593919,-0.1420268120943047
2023-01-30 10:17:22.598919,-0.1386898756027221
2023-01-30 10:17:22.603919,-0.1338033101714383
2023-01-30 10:17:22.608919,-0.12736678123474113
2023-01-30 10:17:22.613919,-0.12026546112661729
2023-01-30 10:17:22.618919,-0.11383195966482157
2023-01-30 10:17:22.623919,-0.10942310420769051
2023-01-30 10:17:22.628919,-0.10837475955486293
