2023-01-28 10:48:50.067177,0.15602311491966236
2023-01-28 10:48:50.072177,0.17797462162748698
2023-01-28 10:48:50.077177,0.15770594775676722
2023-01-28 10:48:50.082177,0.14332271631152316
2023-01-28 10:48:50.087177,0.147801250219345
2023-01-28 10:48:50.092177,0.14570000336835667
2023-01-28 10:48:50.097177,0.12578010559082026
2023-01-28 10:48:50.102177,0.10585129732476743
2023-01-28 10:48:50.107177,0.09664297103881828
2023-01-28 10:48:50.112177,0.0863416671538594
2023-01-28 10:48:50.117177,0.06714522838592521
2023-01-28 10:48:50.122177,0.04912359917294904
2023-01-28 10:48:50.127177,0.0392101220786571
2023-01-28 10:48:50.132177,0.029017885635725178
2023-01-28 10:48:50.137177,0.012573203071951814
2023-01-28 10:48:50.142177,-0.002440474058248114
2023-01-28 10:48:50.147177,-0.0098085403442382
2023-01-28 10:48:50.152177,-0.015254889869424483
2023-01-28 10:48:50.157177,-0.02360781095921992
2023-01-28 10:48:50.162177,-0.029457645018536045
2023-01-28 10:48:50.167177,-0.028536122292280086
2023-01-28 10:48:50.172177,-0.0261467561738229
2023-01-28 10:48:50.177177,-0.026709040626883486
2023-01-28 10:48:50.182177,-0.02577974672867652
2023-01-28 10:48:50.187177,-0.01954495906829827
2023-01-28 10:48:50.192177,-0.012396104993034633
2023-01-28 10:48:50.197177,-0.008414189331233498
2023-01-28 10:48:50.202177,-0.004385901422700816
2023-01-28 10:48:50.207177,0.002380013465881324
2023-01-28 10:48:50.212177,0.007717379080742427
2023-01-28 10:48:50.217177,0.008221864700317336
2023-01-28 10:48:50.222177,0.007534290747227014
2023-01-28 10:48:50.227177,0.00927964877337216
2023-01-28 10:48:50.232177,0.010896086719076981
2023-01-28 10:48:50.237177,0.009880661964416513
2023-01-28 10:48:50.242177,0.009261073788340691
2023-01-28 10:48:50.247177,0.01146733760833745
2023-01-28 10:48:50.252177,0.013159205860760049
2023-01-28 10:48:50.257177,0.011347135528922024
2023-01-28 10:48:50.262177,0.008729735029837541
2023-01-28 10:48:50.267177,0.00810166262090201
2023-01-28 10:48:50.272177,0.007217431919621972
2023-01-28 10:48:50.277177,0.00394264888018363
2023-01-28 10:48:50.282177,0.000979350091440788
2023-01-28 10:48:50.287177,0.0008173784008249167
2023-01-28 10:48:50.292177,0.0012238599983448257
2023-01-28 10:48:50.297177,0.00024040541029528127
2023-01-28 10:48:50.302177,0.0006107812942371519
2023-01-28 10:48:50.307177,0.0048081083223222975
2023-01-28 10:48:50.312177,0.010422474800541167
2023-01-28 10:48:50.317177,0.014712810516357392
2023-01-28 10:48:50.322177,0.019096957736078526
2023-01-28 10:48:50.327177,0.025026202201843196
2023-01-28 10:48:50.332177,0.030016498226252953
2023-01-28 10:48:50.337177,0.03194987773895261
2023-01-28 10:48:50.342177,0.032949143967817215
2023-01-28 10:48:50.347177,0.034882824867963694
2023-01-28 10:48:50.352177,0.03518588148365161
2023-01-28 10:48:50.357177,0.031108459457754985
2023-01-28 10:48:50.362177,0.024097386167543578
2023-01-28 10:48:50.367177,0.016227364540099955
2023-01-28 10:48:50.372177,0.006466347620924561
2023-01-28 10:48:50.377177,-0.005625486373901281
2023-01-28 10:48:50.382177,-0.016605372780038378
2023-01-28 10:48:50.387177,-0.023655891418457017
2023-01-28 10:48:50.392177,-0.028695473795224535
2023-01-28 10:48:50.397177,-0.0341856479644775
2023-01-28 10:48:50.402177,-0.03847931647832997
2023-01-28 10:48:50.407177,-0.03887355327606197
2023-01-28 10:48:50.412177,-0.03526068319782871
2023-01-28 10:48:50.417177,-0.02692540548741807
2023-01-28 10:48:50.422177,-0.010024186008988014
2023-01-28 10:48:50.427177,0.016828378662466982
2023-01-28 10:48:50.432177,0.047256722730764186
2023-01-28 10:48:50.437177,0.07108788192272177
2023-01-28 10:48:50.442177,0.08045822890248987
2023-01-28 10:48:50.447177,0.06926079839467997
2023-01-28 10:48:50.452177,0.03230637495481227
2023-01-28 10:48:50.457177,-0.028488039970397835
2023-01-28 10:48:50.462177,-0.09966503345961682
2023-01-28 10:48:50.467177,-0.16328334808349598
2023-01-28 10:48:50.472177,-0.20692851589685896
2023-01-28 10:48:50.477177,-0.22437036037445057
2023-01-28 10:48:50.482177,-0.21235868895549445
2023-01-28 10:48:50.487177,-0.17436604201793665
2023-01-28 10:48:50.492177,-0.12474970434375876
2023-01-28 10:48:50.497177,-0.08087237924337377
2023-01-28 10:48:50.502177,-0.050041041558405316
2023-01-28 10:48:50.507177,-0.028656324371695484
2023-01-28 10:48:50.512177,-0.01277230430131738
2023-01-28 10:48:50.517177,-0.003125270362943392
2023-01-28 10:48:50.522177,0.0002505453522323554
2023-01-28 10:48:50.527177,0.0015385946026071243
2023-01-28 10:48:50.532177,0.004575543146644023
2023-01-28 10:48:50.537177,0.008870959281921302
2023-01-28 10:48:50.542177,0.01236956177525795
2023-01-28 10:48:50.547177,0.015073418617248492
2023-01-28 10:48:50.552177,0.018012031628687603
2023-01-28 10:48:50.557177,0.02105951309204099
2023-01-28 10:48:50.562177,0.023589526931289555
2023-01-28 10:48:50.567177,0.025747418403625377
2023-01-28 10:48:50.572177,0.02787774380905347
2023-01-28 10:48:50.577177,0.02985835075378407
2023-01-28 10:48:50.582177,0.03166672445107262
2023-01-28 10:48:50.587177,0.0335846357047557
2023-01-28 10:48:50.592177,0.03557526600882394
2023-01-28 10:48:50.597177,0.03745516389608376
2023-01-28 10:48:50.602177,0.039715824380511036
2023-01-28 10:48:50.607177,0.04324893280863759
2023-01-28 10:48:50.612177,0.04846122206425339
2023-01-28 10:48:50.617177,0.05553364753723139
2023-01-28 10:48:50.622177,0.06504314891624499
2023-01-28 10:48:50.627177,0.07724225521087641
2023-01-28 10:48:50.632177,0.09116875076028964
2023-01-28 10:48:50.637177,0.10544180870056155
2023-01-28 10:48:50.642177,0.11937839244573095
2023-01-28 10:48:50.647177,0.1324393451213836
2023-01-28 10:48:50.652177,0.14341305461286752
2023-01-28 10:48:50.657177,0.15128712356090535
2023-01-28 10:48:50.662177,0.15623801884829566
2023-01-28 10:48:50.667177,0.15873968601226796
2023-01-28 10:48:50.672177,0.15846957877853154
2023-01-28 10:48:50.677177,0.15508553385734547
2023-01-28 10:48:50.682177,0.14918763164555593
2023-01-28 10:48:50.687177,0.14143049716949457
2023-01-28 10:48:50.692177,0.13155773475607493
2023-01-28 10:48:50.697177,0.11938532441854473
2023-01-28 10:48:50.702177,0.1058458991606183
2023-01-28 10:48:50.707177,0.09197910875082006
2023-01-28 10:48:50.712177,0.07776657883478699
2023-01-28 10:48:50.717177,0.06298621743917462
2023-01-28 10:48:50.722177,0.04826113046431362
2023-01-28 10:48:50.727177,0.03420969098806385
2023-01-28 10:48:50.732177,0.020552360879162786
2023-01-28 10:48:50.737177,0.007188121788203735
2023-01-28 10:48:50.742177,-0.004759965321351307
2023-01-28 10:48:50.747177,-0.014039675705134773
2023-01-28 10:48:50.752177,-0.02050629688315418
2023-01-28 10:48:50.757177,-0.024329027161002086
2023-01-28 10:48:50.762177,-0.02506979728786787
2023-01-28 10:48:50.767177,-0.022694271057844082
2023-01-28 10:48:50.772177,-0.018522855052418418
2023-01-28 10:48:50.777177,-0.014039675705134794
2023-01-28 10:48:50.782177,-0.009605595682670665
2023-01-28 10:48:50.787177,-0.005264878273010216
2023-01-28 10:48:50.792177,-0.0017258173769098186
2023-01-28 10:48:50.797177,0.0005769729614256391
2023-01-28 10:48:50.802177,0.002395586564193839
2023-01-28 10:48:50.807177,0.004519621841609378
2023-01-28 10:48:50.812177,0.006603327758211501
2023-01-28 10:48:50.817177,0.008101662620901996
2023-01-28 10:48:50.822177,0.00934094956551372
2023-01-28 10:48:50.827177,0.01060187816619873
2023-01-28 10:48:50.832177,0.011149892409217339
2023-01-28 10:48:50.837177,0.010289351455867186
2023-01-28 10:48:50.842177,0.008486441662476892
2023-01-28 10:48:50.847177,0.006466905586421395
2023-01-28 10:48:50.852177,0.0041911673768826605
2023-01-28 10:48:50.857177,0.0017309188842772774
2023-01-28 10:48:50.862177,0.0001155423289867438
2023-01-28 10:48:50.867177,0.00016828379011706336
2023-01-28 10:48:50.872177,0.0013671872655240187
2023-01-28 10:48:50.877177,0.002836783882230525
2023-01-28 10:48:50.882177,0.004529478738649052
2023-01-28 10:48:50.887177,0.006490945816040017
2023-01-28 10:48:50.892177,0.008039314685079556
2023-01-28 10:48:50.897177,0.008798837661743069
2023-01-28 10:48:50.902177,0.009628549458405937
2023-01-28 10:48:50.907177,0.011467337608337402
2023-01-28 10:48:50.912177,0.014119064527199783
2023-01-28 10:48:50.917177,0.017092823982238693
2023-01-28 10:48:50.922177,0.020609942652181586
2023-01-28 10:48:50.927177,0.024713676422834265
2023-01-28 10:48:50.932177,0.028322554605234945
2023-01-28 10:48:50.937177,0.030218958854675217
2023-01-28 10:48:50.942177,0.03011161174602037
2023-01-28 10:48:50.947177,0.027814906090497905
2023-01-28 10:48:50.952177,0.02244254025761062
2023-01-28 10:48:50.957177,0.013558864593505802
2023-01-28 10:48:50.962177,0.0023017355907392744
2023-01-28 10:48:50.967177,-0.009616216644644671
2023-01-28 10:48:50.972177,-0.021179292527390443
2023-01-28 10:48:50.977177,-0.03154119104146946
2023-01-28 10:48:50.982177,-0.03939604961904627
2023-01-28 10:48:50.987177,-0.044042270630597985
2023-01-28 10:48:50.992177,-0.04615718827915075
2023-01-28 10:48:50.997177,-0.04635016247630106
2023-01-28 10:48:51.002177,-0.04361791034274762
2023-01-28 10:48:51.007177,-0.03608485311269756
2023-01-28 10:48:51.012177,-0.0225003421423165
2023-01-28 10:48:51.017177,-0.0025242567062376746
2023-01-28 10:48:51.022177,0.022768166202823265
2023-01-28 10:48:51.027177,0.04894654080271718
2023-01-28 10:48:51.032177,0.06751400351355531
2023-01-28 10:48:51.037177,0.06882806867361056
2023-01-28 10:48:51.042177,0.04642323618203469
2023-01-28 10:48:51.047177,-0.0005048513412475206
2023-01-28 10:48:51.052177,-0.06624498436720463
2023-01-28 10:48:51.057177,-0.13852159678935996
2023-01-28 10:48:51.062177,-0.20109325298536965
2023-01-28 10:48:51.067177,-0.23970822989940643
2023-01-28 10:48:51.072177,-0.247540536521847
2023-01-28 10:48:51.077177,-0.22626957297325126
2023-01-28 10:48:51.082177,-0.18392015308697482
2023-01-28 10:48:51.087177,-0.13219892978668205
2023-01-28 10:48:51.092177,-0.08319647118511103
2023-01-28 10:48:51.097177,-0.0451962165534496
2023-01-28 10:48:51.102177,-0.020452652543258173
2023-01-28 10:48:51.107177,-0.006947716232389193
2023-01-28 10:48:51.112177,-0.00141090388680819
2023-01-28 10:48:51.117177,-0.00040868920041239203
2023-01-28 10:48:51.122177,-0.0005712505617357521
2023-01-28 10:48:51.127177,0.00012020270514761459
2023-01-28 10:48:51.132177,0.0015697092318880976
2023-01-28 10:48:51.137177,0.003053148742765072
2023-01-28 10:48:51.142177,0.0047489077108851295
2023-01-28 10:48:51.147177,0.0069717569276689885
2023-01-28 10:48:51.152177,0.009068907333154146
2023-01-28 10:48:51.157177,0.010409554466605079
2023-01-28 10:48:51.162177,0.011601411737799706
2023-01-28 10:48:51.167177,0.013462702743708983
2023-01-28 10:48:51.172177,0.015664054481396423
2023-01-28 10:48:51.177177,0.017717879265546698
2023-01-28 10:48:51.182177,0.02042644431161613
2023-01-28 10:48:51.187177,0.024809837341308497
2023-01-28 10:48:51.192177,0.030271416247913976
2023-01-28 10:48:51.197177,0.03543575853109352
2023-01-28 10:48:51.202177,0.040408573427758006
2023-01-28 10:48:51.207177,0.046710770577192286
2023-01-28 10:48:51.212177,0.055215444449881294
2023-01-28 10:48:51.217177,0.06551047414541238
2023-01-28 10:48:51.222177,0.07711691691197907
2023-01-28 10:48:51.227177,0.08998374640941609
2023-01-28 10:48:51.232177,0.10370048967981968
2023-01-28 10:48:51.237177,0.11726975440978996
2023-01-28 10:48:51.242177,0.1297582924407966
2023-01-28 10:48:51.247177,0.1404448449611662
2023-01-28 10:48:51.252177,0.1484932456482542
2023-01-28 10:48:51.257177,0.15328249335288996
2023-01-28 10:48:51.262177,0.15495803242395642
2023-01-28 10:48:51.267177,0.15402774512767786
2023-01-28 10:48:51.272177,0.1506377951889232
2023-01-28 10:48:51.277177,0.14479617774486533
2023-01-28 10:48:51.282177,0.13689627145038316
2023-01-28 10:48:51.287177,0.12734274566173545
2023-01-28 10:48:51.292177,0.11603138799431907
2023-01-28 10:48:51.297177,0.10284543037414547
2023-01-28 10:48:51.302177,0.08828176851386028
2023-01-28 10:48:51.307177,0.07298707962036131
2023-01-28 10:48:51.312177,0.057134737406879764
2023-01-28 10:48:51.317177,0.04089295864105219
2023-01-28 10:48:51.322177,0.02503747203622008
2023-01-28 10:48:51.327177,0.010457634925842209
2023-01-28 10:48:51.332177,-0.002483366686821199
2023-01-28 10:48:51.337177,-0.013510784134268698
2023-01-28 10:48:51.342177,-0.021931040503163097
2023-01-28 10:48:51.347177,-0.02726197242736806
2023-01-28 10:48:51.352177,-0.02990568918872635
2023-01-28 10:48:51.357177,-0.030579566955566406
2023-01-28 10:48:51.362177,-0.02957856472716073
2023-01-28 10:48:51.367177,-0.027165811508893863
2023-01-28 10:48:51.372177,-0.02405493714378278
2023-01-28 10:48:51.377177,-0.020771026611328142
2023-01-28 10:48:51.382177,-0.0170417435272853
2023-01-28 10:48:51.387177,-0.012501081451773595
2023-01-28 10:48:51.392177,-0.007517524022897542
2023-01-28 10:48:51.397177,-0.002740621566772404
2023-01-28 10:48:51.402177,0.0015823112832483398
2023-01-28 10:48:51.407177,0.005192756652832026
2023-01-28 10:48:51.412177,0.007351293181440312
2023-01-28 10:48:51.417177,0.007548729889094801
2023-01-28 10:48:51.422177,0.0062383661372023246
2023-01-28 10:48:51.427177,0.004255175590515104
2023-01-28 10:48:51.432177,0.002032139212095482
2023-01-28 10:48:51.437177,-4.808108133136102e-05
2023-01-28 10:48:51.442177,-0.0012124356566182682
2023-01-28 10:48:51.447177,-0.0009856622200459146
2023-01-28 10:48:51.452177,0.00017386148903446733
2023-01-28 10:48:51.457177,0.0015866756439207846
2023-01-28 10:48:51.462177,0.00320495775248596
2023-01-28 10:48:51.467177,0.005192756652831979
2023-01-28 10:48:51.472177,0.007303333662869022
2023-01-28 10:48:51.477177,0.009375810623168888
2023-01-28 10:48:51.482177,0.011872437987651304
2023-01-28 10:48:51.487177,0.015193621627986431
2023-01-28 10:48:51.492177,0.018933906874764848
2023-01-28 10:48:51.497177,0.022405784577131195
2023-01-28 10:48:51.502177,0.02529337143350162
2023-01-28 10:48:51.507177,0.02711772918701171
2023-01-28 10:48:51.512177,0.026681395902054206
2023-01-28 10:48:51.517177,0.02286255359649652
2023-01-28 10:48:51.522177,0.015606823636837982
2023-01-28 10:48:51.527177,0.005649527069181171
2023-01-28 10:48:51.532177,-0.006097733865976617
2023-01-28 10:48:51.537177,-0.018270811066031394
2023-01-28 10:48:51.542177,-0.0289304979257986
2023-01-28 10:48:51.547177,-0.03668586537241934
2023-01-28 10:48:51.552177,-0.04166138716905206
2023-01-28 10:48:51.557177,-0.04478752613067622
2023-01-28 10:48:51.562177,-0.046545677018180756
2023-01-28 10:48:51.567177,-0.0467588528990745
2023-01-28 10:48:51.572177,-0.04474704419450283
2023-01-28 10:48:51.577177,-0.03892163559794416
2023-01-28 10:48:51.582177,-0.027061827112190646
2023-01-28 10:48:51.587177,-0.008318027481436703
2023-01-28 10:48:51.592177,0.014801321055020982
2023-01-28 10:48:51.597177,0.03651758283376688
2023-01-28 10:48:51.602177,0.049340426642729605
2023-01-28 10:48:51.607177,0.04577318951487536
2023-01-28 10:48:51.612177,0.02063406178370917
2023-01-28 10:48:51.617177,-0.025843581184744828
2023-01-28 10:48:51.622177,-0.08646201624280479
2023-01-28 10:48:51.627177,-0.1490273177623748
2023-01-28 10:48:51.632177,-0.20038254484611706
2023-01-28 10:48:51.637177,-0.22997181117534626
2023-01-28 10:48:51.642177,-0.23249400592824448
2023-01-28 10:48:51.647177,-0.2097056359052658
2023-01-28 10:48:51.652177,-0.16981633557906592
2023-01-28 10:48:51.657177,-0.12378474324941627
2023-01-28 10:48:51.662177,-0.08106078268196402
2023-01-28 10:48:51.667177,-0.047552190721035004
2023-01-28 10:48:51.672177,-0.02544482246224204
2023-01-28 10:48:51.677177,-0.013438662514090505
2023-01-28 10:48:51.682177,-0.007851145455402388
2023-01-28 10:48:51.687177,-0.0050244731828569845
2023-01-28 10:48:51.692177,-0.0031182061741802727
2023-01-28 10:48:51.697177,-0.001658797264099121
2023-01-28 10:48:51.702177,-0.00032757150917071934
2023-01-28 10:48:51.707177,0.0010818243026732971
2023-01-28 10:48:51.712177,0.002356868916176277
2023-01-28 10:48:51.717177,0.0035339593887329574
2023-01-28 10:48:51.722177,0.0054072742141198235
2023-01-28 10:48:51.727177,0.008606513962149625
2023-01-28 10:48:51.732177,0.012696038180842613
2023-01-28 10:48:51.737177,0.01690050028264521
2023-01-28 10:48:51.742177,0.02111271583671064
2023-01-28 10:48:51.747177,0.025458931922912487
2023-01-28 10:48:51.752177,0.029595193414862192
2023-01-28 10:48:51.757177,0.03334423154592512
2023-01-28 10:48:51.762177,0.0374260979010353
2023-01-28 10:48:51.767177,0.042671959847211824
2023-01-28 10:48:51.772177,0.04909131853643246
2023-01-28 10:48:51.777177,0.05654335021972651
2023-01-28 10:48:51.782177,0.06562180174378955
2023-01-28 10:48:51.787177,0.07688164710998524
2023-01-28 10:48:51.792177,0.08980428644883943
2023-01-28 10:48:51.797177,0.10349452495574946
2023-01-28 10:48:51.802177,0.11770813092013487
2023-01-28 10:48:51.807177,0.13210277259349815
2023-01-28 10:48:51.812177,0.14518948335701143
2023-01-28 10:48:51.817177,0.15532593429088584
2023-01-28 10:48:51.822177,0.16221260127527776
2023-01-28 10:48:51.827177,0.16614417731761924
2023-01-28 10:48:51.832177,0.16645064275931634
2023-01-28 10:48:51.837177,0.16234576702117903
2023-01-28 10:48:51.842177,0.1549828896564549
2023-01-28 10:48:51.847177,0.14681558310985554
2023-01-28 10:48:51.852177,0.13870351941017028
2023-01-28 10:48:51.857177,0.12919387221336356
2023-01-28 10:48:51.862177,0.11699886484117382
2023-01-28 10:48:51.867177,0.10272523015737534
2023-01-28 10:48:51.872177,0.08760334509589249
2023-01-28 10:48:51.877177,0.07183313369750971
2023-01-28 10:48:51.882177,0.055069682375604445
2023-01-28 10:48:51.887177,0.03769556805491443
2023-01-28 10:48:51.892177,0.020780820880140428
2023-01-28 10:48:51.897177,0.005288918968289988
2023-01-28 10:48:51.902177,-0.008063326734535126
2023-01-28 10:48:51.907177,-0.01858333870768538
2023-01-28 10:48:51.912177,-0.02584511240926737
2023-01-28 10:48:51.917177,-0.03002663515508175
2023-01-28 10:48:51.922177,-0.031736189941741814
2023-01-28 10:48:51.927177,-0.0316613912582397
2023-01-28 10:48:51.932177,-0.0304544537839652
2023-01-28 10:48:51.937177,-0.028608243912458448
2023-01-28 10:48:51.942177,-0.026234582993475013
2023-01-28 10:48:51.947177,-0.023151040077209424
2023-01-28 10:48:51.952177,-0.019269440415220572
2023-01-28 10:48:51.957177,-0.014760891906916991
2023-01-28 10:48:51.962177,-0.009939717193339768
2023-01-28 10:48:51.967177,-0.005264878273010197
2023-01-28 10:48:51.972177,-0.0013668967551872554
2023-01-28 10:48:51.977177,0.0012741487007588432
2023-01-28 10:48:51.982177,0.002694837505606188
2023-01-28 10:48:51.987177,0.003293554065749009
2023-01-28 10:48:51.992177,0.003421795389481299
2023-01-28 10:48:51.997177,0.003341635223478022
2023-01-28 10:48:52.002177,0.003362456763047518
2023-01-28 10:48:52.007177,0.003654162166640122
2023-01-28 10:48:52.012177,0.004042054683409878
2023-01-28 10:48:52.017177,0.0043032569810748005
2023-01-28 10:48:52.022177,0.004558068951182733
2023-01-28 10:48:52.027177,0.005120635032653777
2023-01-28 10:48:52.032177,0.006162636210524781
2023-01-28 10:48:52.037177,0.007813176140189098
2023-01-28 10:48:52.042177,0.010342368414746521
2023-01-28 10:48:52.047177,0.013847351074218674
2023-01-28 10:48:52.052177,0.017883839595670678
2023-01-28 10:48:52.057177,0.021708607673645
2023-01-28 10:48:52.062177,0.0247155789593556
2023-01-28 10:48:52.067177,0.02637247368693349
2023-01-28 10:48:52.072177,0.02602169747284453
2023-01-28 10:48:52.077177,0.0231750812381505
2023-01-28 10:48:52.082177,0.01788619775126626
2023-01-28 10:48:52.087177,0.010553797706961621
2023-01-28 10:48:52.092177,0.0015843454421311804
2023-01-28 10:48:52.097177,-0.008438229560852026
2023-01-28 10:48:52.102177,-0.01852908292953756
2023-01-28 10:48:52.107177,-0.027694702148437528
2023-01-28 10:48:52.112177,-0.03545682745372718
2023-01-28 10:48:52.117177,-0.04173437878489491
2023-01-28 10:48:52.122177,-0.04641160518536114
2023-01-28 10:48:52.127177,-0.04923502728343002
2023-01-28 10:48:52.132177,-0.04972248143537771
2023-01-28 10:48:52.137177,-0.046686731278896276
2023-01-28 10:48:52.142177,-0.038134798693076566
2023-01-28 10:48:52.147177,-0.02238174341619008
2023-01-28 10:48:52.152177,0.00025109577864128833
2023-01-28 10:48:52.157177,0.02642055414617054
2023-01-28 10:48:52.162177,0.049784729459514225
2023-01-28 10:48:52.167177,0.06197651475667949
2023-01-28 10:48:52.172177,0.0549155076901594
2023-01-28 10:48:52.177177,0.024280946701764932
2023-01-28 10:48:52.182177,-0.027668919097090107
2023-01-28 10:48:52.187177,-0.09188294410705558
2023-01-28 10:48:52.192177,-0.15498851389137677
2023-01-28 10:48:52.197177,-0.2031666040420531
2023-01-28 10:48:52.202177,-0.226295076660397
2023-01-28 10:48:52.207177,-0.22119700908660872
2023-01-28 10:48:52.212177,-0.1923701088852102
2023-01-28 10:48:52.217177,-0.14955620467662809
2023-01-28 10:48:52.222177,-0.10372083488881573
2023-01-28 10:48:52.227177,-0.06370743364095677
2023-01-28 10:48:52.232177,-0.034442217642309626
2023-01-28 10:48:52.237177,-0.01653989218175413
2023-01-28 10:48:52.242177,-0.007357880667363796
2023-01-28 10:48:52.247177,-0.003197391983121605
2023-01-28 10:48:52.252177,-0.0012479292331313918
2023-01-28 10:48:52.257177,-9.616216266294941e-05
2023-01-28 10:48:52.262177,0.0007440651128743809
2023-01-28 10:48:52.267177,0.0012501081218942148
2023-01-28 10:48:52.272177,0.0012258295838424827
2023-01-28 10:48:52.277177,0.0008654594421386055
2023-01-28 10:48:52.282177,0.0010166469062338212
2023-01-28 10:48:52.287177,0.0026204190216957955
2023-01-28 10:48:52.292177,0.00598184674911711
2023-01-28 10:48:52.297177,0.010722081176936616
2023-01-28 10:48:52.302177,0.01612034015510727
2023-01-28 10:48:52.307177,0.02122779749333848
2023-01-28 10:48:52.312177,0.025045833589375933
2023-01-28 10:48:52.317177,0.027165811508893953
2023-01-28 10:48:52.322177,0.028244195012395796
2023-01-28 10:48:52.327177,0.0296179465949535
2023-01-28 10:48:52.332177,0.03255950451018413
2023-01-28 10:48:52.337177,0.03798405453562731
2023-01-28 10:48:52.342177,0.04642606183654267
2023-01-28 10:48:52.347177,0.0578175000846385
2023-01-28 10:48:52.352177,0.0714350155806407
2023-01-28 10:48:52.357177,0.08642574399709699
2023-01-28 10:48:52.362177,0.1023025008631401
2023-01-28 10:48:52.367177,0.1187121868133543
2023-01-28 10:48:52.372177,0.13491913695574162
2023-01-28 10:48:52.377177,0.14977256953716261
2023-01-28 10:48:52.382177,0.16200828472314008
2023-01-28 10:48:52.387177,0.17042338848114005
2023-01-28 10:48:52.392177,0.17414927155182533
2023-01-28 10:48:52.397177,0.17323613166809074
2023-01-28 10:48:52.402177,0.1688838619294949
2023-01-28 10:48:52.407177,0.1627304255962371
2023-01-28 10:48:52.412177,0.15580264844015415
2023-01-28 10:48:52.417177,0.14808973670005784
2023-01-28 10:48:52.422177,0.13878387397894712
2023-01-28 10:48:52.427177,0.12674173712730397
2023-01-28 10:48:52.432177,0.11111770302030725
2023-01-28 10:48:52.437177,0.09207527339458457
2023-01-28 10:48:52.442177,0.07091841419677054
2023-01-28 10:48:52.447177,0.04930714890360832
2023-01-28 10:48:52.452177,0.02831679227884964
2023-01-28 10:48:52.457177,0.00826994609087699
2023-01-28 10:48:52.462177,-0.010685065262142678
2023-01-28 10:48:52.467177,-0.027862986549734972
2023-01-28 10:48:52.472177,-0.04162307699885405
2023-01-28 10:48:52.477177,-0.04957159608602522
2023-01-28 10:48:52.482177,-0.04964395460024137
2023-01-28 10:48:52.487177,-0.04161417484283437
2023-01-28 10:48:52.492177,-0.027901971101668813
2023-01-28 10:48:52.497177,-0.012981891632079993
2023-01-28 10:48:52.502177,-0.0016727469459657603
2023-01-28 10:48:52.507177,0.0029569864273071476
2023-01-28 10:48:52.512177,0.0010945487005892384
2023-01-28 10:48:52.517177,-0.004062851425260286
2023-01-28 10:48:52.522177,-0.008477053916778724
2023-01-28 10:48:52.527177,-0.009616216644644633
2023-01-28 10:48:52.532177,-0.007075620475445769
2023-01-28 10:48:52.537177,-0.0018511216621845013
2023-01-28 10:48:52.542177,0.004078863099390053
2023-01-28 10:48:52.547177,0.007909337989985905
2023-01-28 10:48:52.552177,0.007270198282222869
2023-01-28 10:48:52.557177,0.002091526985168419
2023-01-28 10:48:52.562177,-0.005251931530605044
2023-01-28 10:48:52.567177,-0.011924108490347777
2023-01-28 10:48:52.572177,-0.016323013180180795
2023-01-28 10:48:52.577177,-0.017958283424377365
2023-01-28 10:48:52.582177,-0.016801324867188803
2023-01-28 10:48:52.587177,-0.013366540893912317
2023-01-28 10:48:52.592177,-0.008668606166056997
2023-01-28 10:48:52.597177,-0.003317594528198195
2023-01-28 10:48:52.602177,0.0030567190290920316
2023-01-28 10:48:52.607177,0.011082689277827682
2023-01-28 10:48:52.612177,0.02071747752535316
2023-01-28 10:48:52.617177,0.03125270456075661
2023-01-28 10:48:52.622177,0.041566163762084496
2023-01-28 10:48:52.627177,0.04986008256673807
2023-01-28 10:48:52.632177,0.05375781453108394
2023-01-28 10:48:52.637177,0.05147079750895498
2023-01-28 10:48:52.642177,0.04288177237032691
2023-01-28 10:48:52.647177,0.029353499412536562
2023-01-28 10:48:52.652177,0.01294806549463592
2023-01-28 10:48:52.657177,-0.003918608184903793
2023-01-28 10:48:52.662177,-0.018826789424364575
2023-01-28 10:48:52.667177,-0.03024300001561639
2023-01-28 10:48:52.672177,-0.0380404220785572
2023-01-28 10:48:52.677177,-0.0428402423858642
2023-01-28 10:48:52.682177,-0.045076133912817805
2023-01-28 10:48:52.687177,-0.0448356084525585
2023-01-28 10:48:52.692177,-0.041965717440747494
2023-01-28 10:48:52.697177,-0.03577232360839837
2023-01-28 10:48:52.702177,-0.02509241525308505
2023-01-28 10:48:52.707177,-0.009496013633906803
2023-01-28 10:48:52.712177,0.009345109934711009
2023-01-28 10:48:52.717177,0.027406215667724547
2023-01-28 10:48:52.722177,0.03899628470001433
2023-01-28 10:48:52.727177,0.03781577199697486
2023-01-28 10:48:52.732177,0.018798212541119946
2023-01-28 10:48:52.737177,-0.019232433289289416
2023-01-28 10:48:52.742177,-0.07177022747069645
2023-01-28 10:48:52.747177,-0.12931406497955322
2023-01-28 10:48:52.752177,-0.180043937657777
2023-01-28 10:48:52.757177,-0.21302323043346388
2023-01-28 10:48:52.762177,-0.221295359225143
2023-01-28 10:48:52.767177,-0.20432054996490462
2023-01-28 10:48:52.772177,-0.16827994353113448
2023-01-28 10:48:52.777177,-0.1234962567687034
2023-01-28 10:48:52.782177,-0.08052302623477801
2023-01-28 10:48:52.787177,-0.04711946099996559
2023-01-28 10:48:52.792177,-0.026775623912376867
2023-01-28 10:48:52.797177,-0.018535256385803184
2023-01-28 10:48:52.802177,-0.01830488959875781
2023-01-28 10:48:52.807177,-0.021372040733694996
2023-01-28 10:48:52.812177,-0.024452135147299936
2023-01-28 10:48:52.817177,-0.02593974396586411
2023-01-28 10:48:52.822177,-0.02513447530490512
2023-01-28 10:48:52.827177,-0.02185285091400143
2023-01-28 10:48:52.832177,-0.016417950549476937
2023-01-28 10:48:52.837177,-0.009399851784109965
2023-01-28 10:48:52.842177,-0.0014292004279846775
2023-01-28 10:48:52.847177,0.006490945816040001
2023-01-28 10:48:52.852177,0.012903778690581656
2023-01-28 10:48:52.857177,0.01670817658305162
2023-01-28 10:48:52.862177,0.0180031023021689
2023-01-28 10:48:52.867177,0.017910202965140287
2023-01-28 10:48:52.872177,0.017860939026724774
2023-01-28 10:48:52.877177,0.019328594207763623
2023-01-28 10:48:52.882177,0.023751917720661837
2023-01-28 10:48:52.887177,0.03199796006083481
2023-01-28 10:48:52.892177,0.043834744321534364
2023-01-28 10:48:52.897177,0.05815406888723369
2023-01-28 10:48:52.902177,0.07352662355856722
2023-01-28 10:48:52.907177,0.0883970707654953
2023-01-28 10:48:52.912177,0.10129915368253438
2023-01-28 10:48:52.917177,0.11157214641571035
2023-01-28 10:48:52.922177,0.11983356032792414
2023-01-28 10:48:52.927177,0.12736678123474116
2023-01-28 10:48:52.932177,0.1350478767102987
2023-01-28 10:48:52.937177,0.14292101562023152
2023-01-28 10:48:52.942177,0.1503562649081744
2023-01-28 10:48:52.947177,0.15619139373302443
2023-01-28 10:48:52.952177,0.15905368690138574
2023-01-28 10:48:52.957177,0.15813867747783653
2023-01-28 10:48:52.962177,0.15370933948050156
2023-01-28 10:48:52.967177,0.1466232538223266
2023-01-28 10:48:52.972177,0.13755935579088557
2023-01-28 10:48:52.977177,0.12691001594066603
2023-01-28 10:48:52.982177,0.1150557948939993
2023-01-28 10:48:52.987177,0.1022925004363059
2023-01-28 10:48:52.992177,0.08866048383048866
2023-01-28 10:48:52.997177,0.07421314716339109
2023-01-28 10:48:53.002177,0.05931484905293078
2023-01-28 10:48:53.007177,0.044402878731489126
2023-01-28 10:48:53.012177,0.02968625726348012
2023-01-28 10:48:53.017177,0.015409986488521035
2023-01-28 10:48:53.022177,0.00221374302258522
2023-01-28 10:48:53.027177,-0.009111365303397087
2023-01-28 10:48:53.032177,-0.018082378886300272
2023-01-28 10:48:53.037177,-0.024521350860595734
2023-01-28 10:48:53.042177,-0.028383794203547703
2023-01-28 10:48:53.047177,-0.029954513534903505
2023-01-28 10:48:53.052177,-0.030019484068250807
2023-01-28 10:48:53.057177,-0.029473703354596988
2023-01-28 10:48:53.062177,-0.028828378941121995
2023-01-28 10:48:53.067177,-0.028271675109863222
2023-01-28 10:48:53.072177,-0.027932060442384568
2023-01-28 10:48:53.077177,-0.02774278447031967
2023-01-28 10:48:53.082177,-0.027232271258608866
2023-01-28 10:48:53.087177,-0.02579550072550766
2023-01-28 10:48:53.092177,-0.02311591704496156
2023-01-28 10:48:53.097177,-0.019184350967407216
2023-01-28 10:48:53.102177,-0.014173954741003305
2023-01-28 10:48:53.107177,-0.00858247280120833
2023-01-28 10:48:53.112177,-0.003263464856101848
2023-01-28 10:48:53.117177,0.0010818243026733067
2023-01-28 10:48:53.122177,0.0044612729319815775
2023-01-28 10:48:53.127177,0.007524689193814907
2023-01-28 10:48:53.132177,0.011062451528141821
2023-01-28 10:48:53.137177,0.015602311119437204
2023-01-28 10:48:53.142177,0.021130578634182943
2023-01-28 10:48:53.147177,0.026877325028180948
2023-01-28 10:48:53.152177,0.031507056648245504
2023-01-28 10:48:53.157177,0.03380100056529038
2023-01-28 10:48:53.162177,0.0332613050039103
2023-01-28 10:48:53.167177,0.030243000015616334
2023-01-28 10:48:53.172177,0.025831677402412403
2023-01-28 10:48:53.177177,0.021540325134992495
2023-01-28 10:48:53.182177,0.018601907260456463
2023-01-28 10:48:53.187177,0.01726110838353633
2023-01-28 10:48:53.192177,0.016898446398586845
2023-01-28 10:48:53.197177,0.016756257042288714
2023-01-28 10:48:53.202177,0.016109142501545423
2023-01-28 10:48:53.207177,0.013823310844600204
2023-01-28 10:48:53.212177,0.008577767164385956
2023-01-28 10:48:53.217177,1.4210854715202004e-17
2023-01-28 10:48:53.222177,-0.01077316842227959
2023-01-28 10:48:53.227177,-0.021900933235883636
2023-01-28 10:48:53.232177,-0.03180756962380825
2023-01-28 10:48:53.237177,-0.0392582044005393
2023-01-28 10:48:53.242177,-0.04320606868419116
2023-01-28 10:48:53.247177,-0.043080650269985074
2023-01-28 10:48:53.252177,-0.038762924955312424
2023-01-28 10:48:53.257177,-0.029762189835309896
2023-01-28 10:48:53.262177,-0.014801565414680628
2023-01-28 10:48:53.267177,0.007091959472745623
2023-01-28 10:48:53.272177,0.03481767558703936
2023-01-28 10:48:53.277177,0.06414016336202616
2023-01-28 10:48:53.282177,0.08758767399830424
2023-01-28 10:48:53.287177,0.09539286792278279
2023-01-28 10:48:53.292177,0.07836195324733847
2023-01-28 10:48:53.297177,0.03257493302226059
2023-01-28 10:48:53.302177,-0.0366538075204876
2023-01-28 10:48:53.307177,-0.11452913284301748
2023-01-28 10:48:53.312177,-0.18080762179193682
2023-01-28 10:48:53.317177,-0.21648506820201865
2023-01-28 10:48:53.322177,-0.21089831600584594
2023-01-28 10:48:53.327177,-0.16648074984550465
2023-01-28 10:48:53.332177,-0.09825804794478842
2023-01-28 10:48:53.337177,-0.027550458908081003
2023-01-28 10:48:53.342177,0.02675756594822626
2023-01-28 10:48:53.347177,0.054692231118679005
2023-01-28 10:48:53.352177,0.057004319848338335
2023-01-28 10:48:53.357177,0.042647920548915794
2023-01-28 10:48:53.362177,0.02351922198856142
2023-01-28 10:48:53.367177,0.008919040672480975
2023-01-28 10:48:53.372177,0.0026217885199827243
2023-01-28 10:48:53.377177,0.00370224332436905
2023-01-28 10:48:53.382177,0.00932571107251842
2023-01-28 10:48:53.387177,0.01692454144358627
2023-01-28 10:48:53.392177,0.02499720282751239
2023-01-28 10:48:53.397177,0.033103823661804116
2023-01-28 10:48:53.402177,0.04131182209656546
2023-01-28 10:48:53.407177,0.049307148903608274
2023-01-28 10:48:53.412177,0.056095331279083435
2023-01-28 10:48:53.417177,0.060774486511945724
2023-01-28 10:48:53.422177,0.06337283977390092
2023-01-28 10:48:53.427177,0.06469309329986571
2023-01-28 10:48:53.432177,0.06563477212006917
2023-01-28 10:48:53.437177,0.06692886352539054
2023-01-28 10:48:53.442177,0.06912085813822572
2023-01-28 10:48:53.447177,0.07233798503875724
2023-01-28 10:48:53.452177,0.07631222755023573
2023-01-28 10:48:53.457177,0.08108874410390841
2023-01-28 10:48:53.462177,0.08760823293039628
2023-01-28 10:48:53.467177,0.09729206562042227
2023-01-28 10:48:53.472177,0.1111548394098199
2023-01-28 10:48:53.477177,0.1293621510267257
2023-01-28 10:48:53.482177,0.1510899768068388
2023-01-28 10:48:53.487177,0.17429392039775832
2023-01-28 10:48:53.492177,0.19592154431608697
2023-01-28 10:48:53.497177,0.2129991948604582
2023-01-28 10:48:53.502177,0.22372877050084886
2023-01-28 10:48:53.507177,0.2276398837566375
2023-01-28 10:48:53.512177,0.22521177555667568
2023-01-28 10:48:53.517177,0.21773517131805398
2023-01-28 10:48:53.522177,0.2071110439420265
2023-01-28 10:48:53.527177,0.19511303305625907
2023-01-28 10:48:53.532177,0.1827415625613055
2023-01-28 10:48:53.537177,0.17037531733512862
2023-01-28 10:48:53.542177,0.15818450667385245
2023-01-28 10:48:53.547177,0.14607033133506767
2023-01-28 10:48:53.552177,0.13356213392705604
2023-01-28 10:48:53.557177,0.12027482688426967
2023-01-28 10:48:53.562177,0.10636575920436166
2023-01-28 10:48:53.567177,0.09229163825511932
2023-01-28 10:48:53.572177,0.07838862506174855
2023-01-28 10:48:53.577177,0.06500562280416483
2023-01-28 10:48:53.582177,0.052748026924107703
2023-01-28 10:48:53.587177,0.042191147804260226
2023-01-28 10:48:53.592177,0.0335565028007944
2023-01-28 10:48:53.597177,0.026973485946655208
2023-01-28 10:48:53.602177,0.02276264570345244
2023-01-28 10:48:53.607177,0.021059513092041057
2023-01-28 10:48:53.612177,0.021359901560426615
2023-01-28 10:48:53.617177,0.022766392678022298
2023-01-28 10:48:53.622177,0.02447867681786646
2023-01-28 10:48:53.627177,0.025819540023803718
2023-01-28 10:48:53.632177,0.026212902776131974
2023-01-28 10:48:53.637177,0.025651257485151253
2023-01-28 10:48:53.642177,0.02499455162221212
2023-01-28 10:48:53.647177,0.025386810302734354
2023-01-28 10:48:53.652177,0.02746346679548001
2023-01-28 10:48:53.657177,0.031276743859052616
2023-01-28 10:48:53.662177,0.036559350190305914
2023-01-28 10:48:53.667177,0.042623877525329486
2023-01-28 10:48:53.672177,0.04833991065614711
2023-01-28 10:48:53.677177,0.052768986672163044
2023-01-28 10:48:53.682177,0.05576323927625459
2023-01-28 10:48:53.687177,0.05769729614257811
2023-01-28 10:48:53.692177,0.058915973630386594
2023-01-28 10:48:53.697177,0.059788823127746527
2023-01-28 10:48:53.702177,0.0609385573673427
2023-01-28 10:48:53.707177,0.06289005279541007
2023-01-28 10:48:53.712177,0.06565461897022913
2023-01-28 10:48:53.717177,0.06902039051055897
2023-01-28 10:48:53.722177,0.0729885828763906
2023-01-28 10:48:53.727177,0.07750670611858354
2023-01-28 10:48:53.732177,0.0820069119397163
2023-01-28 10:48:53.737177,0.08560836315155018
2023-01-28 10:48:53.742177,0.08754079478912409
2023-01-28 10:48:53.747177,0.08702675998210899
2023-01-28 10:48:53.752177,0.08314729309741464
2023-01-28 10:48:53.757177,0.07543921470642077
2023-01-28 10:48:53.762177,0.06453801975314143
2023-01-28 10:48:53.767177,0.05187948793172827
2023-01-28 10:48:53.772177,0.038973601654273576
2023-01-28 10:48:53.777177,0.027213891968131027
2023-01-28 10:48:53.782177,0.017835057054879613
2023-01-28 10:48:53.787177,0.011323094367980914
2023-01-28 10:48:53.792177,0.007016408106309863
2023-01-28 10:48:53.797177,0.003846486564725524
2023-01-28 10:48:53.802177,0.0014523336359852882
2023-01-28 10:48:53.807177,0.00043272972106932407
2023-01-28 10:48:53.812177,0.002091479438780792
2023-01-28 10:48:53.817177,0.008414189331233524
2023-01-28 10:48:53.822177,0.02142940807551987
2023-01-28 10:48:53.827177,0.04118144512176512
2023-01-28 10:48:53.832177,0.06403652498042679
2023-01-28 10:48:53.837177,0.08349280059337605
2023-01-28 10:48:53.842177,0.092562920729303
2023-01-28 10:48:53.847177,0.08519967645406715
2023-01-28 10:48:53.852177,0.05695936553335723
2023-01-28 10:48:53.857177,0.0071640810929238016
2023-01-28 10:48:53.862177,-0.05799069413697256
2023-01-28 10:48:53.867177,-0.12525121867656697
2023-01-28 10:48:53.872177,-0.17886173009232023
2023-01-28 10:48:53.877177,-0.20679673552513114
2023-01-28 10:48:53.882177,-0.2045480157945852
2023-01-28 10:48:53.887177,-0.17547190189361567
2023-01-28 10:48:53.892177,-0.12892523068294387
2023-01-28 10:48:53.897177,-0.07702589035034169
2023-01-28 10:48:53.902177,-0.030681799312031077
2023-01-28 10:48:53.907177,0.0035099189262836742
2023-01-28 10:48:53.912177,0.024022535730197938
2023-01-28 10:48:53.917177,0.033103823661804095
2023-01-28 10:48:53.922177,0.034830668769714836
2023-01-28 10:48:53.927177,0.03341635316610327
2023-01-28 10:48:53.932177,0.03200485119159067
2023-01-28 10:48:53.937177,0.032166242599487284
2023-01-28 10:48:53.942177,0.03414248831393155
2023-01-28 10:48:53.947177,0.03740708157420149
2023-01-28 10:48:53.952177,0.04110684832834744
2023-01-28 10:48:53.957177,0.04440287873148909
2023-01-28 10:48:53.962177,0.04678744669213946
2023-01-28 10:48:53.967177,0.04820128530263898
2023-01-28 10:48:53.972177,0.048899671721434855
2023-01-28 10:48:53.977177,0.0493071489036083
2023-01-28 10:48:53.982177,0.04995057616466873
2023-01-28 10:48:53.987177,0.051302514970302485
2023-01-28 10:48:53.992177,0.05357139316632634
2023-01-28 10:48:53.997177,0.05671163648366924
2023-01-28 10:48:54.002177,0.0606478983071904
2023-01-28 10:48:54.007177,0.06541430950164791
2023-01-28 10:48:54.012177,0.07114630333324262
2023-01-28 10:48:54.017177,0.07810771465301508
2023-01-28 10:48:54.022177,0.08669957306297477
2023-01-28 10:48:54.027177,0.09724398702383039
2023-01-28 10:48:54.032177,0.10968837052082343
2023-01-28 10:48:54.037177,0.12356837838888157
2023-01-28 10:48:54.042177,0.13817680196601279
2023-01-28 10:48:54.047177,0.152633398771286
2023-01-28 10:48:54.052177,0.165887632011667
2023-01-28 10:48:54.057177,0.17689029872417433
2023-01-28 10:48:54.062177,0.18482127408509078
2023-01-28 10:48:54.067177,0.18910288810729972
2023-01-28 10:48:54.072177,0.18933280191867788
2023-01-28 10:48:54.077177,0.18542468547821034
2023-01-28 10:48:54.082177,0.1777863524891891
2023-01-28 10:48:54.087177,0.16717791557312003
2023-01-28 10:48:54.092177,0.15438308132237158
2023-01-28 10:48:54.097177,0.14008423686027516
2023-01-28 10:48:54.102177,0.12489878608950569
2023-01-28 10:48:54.107177,0.10928829759359349
2023-01-28 10:48:54.112177,0.09344716995270935
2023-01-28 10:48:54.117177,0.07745862007141109
2023-01-28 10:48:54.122177,0.06155682415888226
2023-01-28 10:48:54.127177,0.04613379761576651
2023-01-28 10:48:54.132177,0.0315889413401313
2023-01-28 10:48:54.137177,0.01834293268620955
2023-01-28 10:48:54.142177,0.006905784717696979
2023-01-28 10:48:54.147177,-0.0023078918457031133
2023-01-28 10:48:54.152177,-0.009265833252443555
2023-01-28 10:48:54.157177,-0.01432816218584773
2023-01-28 10:48:54.162177,-0.01802604957054517
2023-01-28 10:48:54.167177,-0.020891230553388537
2023-01-28 10:48:54.172177,-0.023288835685690068
2023-01-28 10:48:54.177177,-0.025122364982962626
2023-01-28 10:48:54.182177,-0.02570930351996055
2023-01-28 10:48:54.187177,-0.024160742759704514
2023-01-28 10:48:54.192177,-0.019985283326206704
2023-01-28 10:48:54.197177,-0.01339058112353077
2023-01-28 10:48:54.202177,-0.005241004587639954
2023-01-28 10:48:54.207177,0.0031012296676635174
2023-01-28 10:48:54.212177,0.010130937281273294
2023-01-28 10:48:54.217177,0.014833013527095318
2023-01-28 10:48:54.222177,0.017153562412019055
2023-01-28 10:48:54.227177,0.0178380813449621
2023-01-28 10:48:54.232177,0.017874823701417207
2023-01-28 10:48:54.237177,0.018102526664733772
2023-01-28 10:48:54.242177,0.01905359092262615
2023-01-28 10:48:54.247177,0.020819108933210297
2023-01-28 10:48:54.252177,0.023064806293376212
2023-01-28 10:48:54.257177,0.0253868103027343
2023-01-28 10:48:54.262177,0.02768074729039453
2023-01-28 10:48:54.267177,0.030098756775259885
2023-01-28 10:48:54.272177,0.03276840951185421
2023-01-28 10:48:54.277177,0.0356761626899242
2023-01-28 10:48:54.282177,0.038622561536215044
2023-01-28 10:48:54.287177,0.040989123284816666
2023-01-28 10:48:54.292177,0.041586438169335695
2023-01-28 10:48:54.297177,0.0390177965164184
2023-01-28 10:48:54.302177,0.03237844219497428
2023-01-28 10:48:54.307177,0.02175668999552723
2023-01-28 10:48:54.312177,0.008388339861614146
2023-01-28 10:48:54.317177,-0.005457202903926278
2023-01-28 10:48:54.322177,-0.017060013941059167
2023-01-28 10:48:54.327177,-0.0243771076202392
2023-01-28 10:48:54.332177,-0.0270597985190295
2023-01-28 10:48:54.337177,-0.026540756225585823
2023-01-28 10:48:54.342177,-0.025181000622988364
2023-01-28 10:48:54.347177,-0.02509832382202137
2023-01-28 10:48:54.352177,-0.02711125792556704
2023-01-28 10:48:54.357177,-0.030050676316022807
2023-01-28 10:48:54.362177,-0.03092609171732012
2023-01-28 10:48:54.367177,-0.02625226974487302
2023-01-28 10:48:54.372177,-0.013997785751878088
2023-01-28 10:48:54.377177,0.004832148551940889
2023-01-28 10:48:54.382177,0.025570418082287404
2023-01-28 10:48:54.387177,0.040460228919982924
2023-01-28 10:48:54.392177,0.040691517868719114
2023-01-28 10:48:54.397177,0.019689202308654737
2023-01-28 10:48:54.402177,-0.023661330261448652
2023-01-28 10:48:54.407177,-0.08356492221355429
2023-01-28 10:48:54.412177,-0.14842931399551873
2023-01-28 10:48:54.417177,-0.20412823557853682
2023-01-28 10:48:54.422177,-0.238372630185572
2023-01-28 10:48:54.427177,-0.2447086572647093
2023-01-28 10:48:54.432177,-0.2244032683185528
2023-01-28 10:48:54.437177,-0.185280442237854
2023-01-28 10:48:54.442177,-0.13830662552310868
2023-01-28 10:48:54.447177,-0.09378214925527568
2023-01-28 10:48:54.452177,-0.05858696194529638
2023-01-28 10:48:54.457177,-0.03507515043020244
2023-01-28 10:48:54.462177,-0.02172803697339231
2023-01-28 10:48:54.467177,-0.015097459778189565
2023-01-28 10:48:54.472177,-0.011834524196133041
2023-01-28 10:48:54.477177,-0.00971237849444149
2023-01-28 10:48:54.482177,-0.007650731003907952
2023-01-28 10:48:54.487177,-0.005433162208646491
2023-01-28 10:48:54.492177,-0.0033946943402866194
2023-01-28 10:48:54.497177,-0.0019472837448120258
2023-01-28 10:48:54.502177,-0.001151404939656937
2023-01-28 10:48:54.507177,-0.0007452567806466845
2023-01-28 10:48:54.512177,-0.00048555095954182546
2023-01-28 10:48:54.517177,-0.00026444596005598933
2023-01-28 10:48:54.522177,5.763487664863002e-05
2023-01-28 10:48:54.527177,0.0006971756811252399
2023-01-28 10:48:54.532177,0.0017906294271006402
2023-01-28 10:48:54.537177,0.0033656756859271487
2023-01-28 10:48:54.542177,0.005514086914561943
2023-01-28 10:48:54.547177,0.008486310951411695
2023-01-28 10:48:54.552177,0.012630894229356992
2023-01-28 10:48:54.557177,0.018366973847150782
2023-01-28 10:48:54.562177,0.026178400870643135
2023-01-28 10:48:54.567177,0.03644546121358869
2023-01-28 10:48:54.572177,0.049206455850182726
2023-01-28 10:48:54.577177,0.06411612033843986
2023-01-28 10:48:54.582177,0.08055336848974791
2023-01-28 10:48:54.587177,0.09762863814830776
2023-01-28 10:48:54.592177,0.1141500213229167
2023-01-28 10:48:54.597177,0.12880921363830558
2023-01-28 10:48:54.602177,0.14052289281383937
2023-01-28 10:48:54.607177,0.14861862361431116
2023-01-28 10:48:54.612177,0.15282532408977673
2023-01-28 10:48:54.617177,0.15325844287872306
2023-01-28 10:48:54.622177,0.15037257539031795
2023-01-28 10:48:54.627177,0.14472405612468708
2023-01-28 10:48:54.632177,0.13669070325625435
2023-01-28 10:48:54.637177,0.12645325064659108
2023-01-28 10:48:54.642177,0.11419236119152913
2023-01-28 10:48:54.647177,0.10020097345113746
2023-01-28 10:48:54.652177,0.08486802604453667
2023-01-28 10:48:54.657177,0.06870786845684046
2023-01-28 10:48:54.662177,0.0523909156444307
2023-01-28 10:48:54.667177,0.03658970445394507
2023-01-28 10:48:54.672177,0.021744277938176206
2023-01-28 10:48:54.677177,0.008029541000723802
2023-01-28 10:48:54.682177,-0.004493310622674431
2023-01-28 10:48:54.687177,-0.015794634819030647
2023-01-28 10:48:54.692177,-0.025885273105607634
2023-01-28 10:48:54.697177,-0.034738581627607325
2023-01-28 10:48:54.702177,-0.042169902799384054
2023-01-28 10:48:54.707177,-0.04788875579833979
2023-01-28 10:48:54.712177,-0.0516862000004499
2023-01-28 10:48:54.717177,-0.0535142421722412
2023-01-28 10:48:54.722177,-0.05343710184361201
2023-01-28 10:48:54.727177,-0.0516390800476074
2023-01-28 10:48:54.732177,-0.04848112607728719
2023-01-28 10:48:54.737177,-0.044426918029785115
2023-01-28 10:48:54.742177,-0.0398725394961077
2023-01-28 10:48:54.747177,-0.03509918972849838
2023-01-28 10:48:54.752177,-0.0303586372193406
2023-01-28 10:48:54.757177,-0.025891661643981802
2023-01-28 10:48:54.762177,-0.021848362895495292
2023-01-28 10:48:54.767177,-0.018270811066031362
2023-01-28 10:48:54.772177,-0.015151985933095517
2023-01-28 10:48:54.777177,-0.012428959831595345
2023-01-28 10:48:54.782177,-0.009934050963787399
2023-01-28 10:48:54.787177,-0.00747660826891654
2023-01-28 10:48:54.792177,-0.005023898880925619
2023-01-28 10:48:54.797177,-0.002740621566772404
2023-01-28 10:48:54.802177,-0.0008202702748469145
2023-01-28 10:48:54.807177,0.0006971756811252779
2023-01-28 10:48:54.812177,0.001988374737030677
2023-01-28 10:48:54.817177,0.0034377973061054754
2023-01-28 10:48:54.822177,0.005554644904520913
2023-01-28 10:48:54.827177,0.008726716041564879
2023-01-28 10:48:54.832177,0.012901358662024326
2023-01-28 10:48:54.837177,0.017477473244071035
2023-01-28 10:48:54.842177,0.021520814643685156
2023-01-28 10:48:54.847177,0.024088621139526308
2023-01-28 10:48:54.852177,0.024433502503949107
2023-01-28 10:48:54.857177,0.02209325693547718
2023-01-28 10:48:54.862177,0.01695328193473905
2023-01-28 10:48:54.867177,0.00925560854375364
2023-01-28 10:48:54.872177,-0.0004767452473887819
2023-01-28 10:48:54.877177,-0.011515418998897005
2023-01-28 10:48:54.882177,-0.022953046628642657
2023-01-28 10:48:54.887177,-0.03380100056529042
2023-01-28 10:48:54.892177,-0.04325257714329092
2023-01-28 10:48:54.897177,-0.05094190686941138
2023-01-28 10:48:54.902177,-0.05691167676145996
2023-01-28 10:48:54.907177,-0.061231255531310994
2023-01-28 10:48:54.912177,-0.06349325822261274
2023-01-28 10:48:54.917177,-0.06248136609792702
2023-01-28 10:48:54.922177,-0.056255217696711476
2023-01-28 10:48:54.927177,-0.04286428540945051
2023-01-28 10:48:54.932177,-0.021680693246074
2023-01-28 10:48:54.937177,0.005168716423213401
2023-01-28 10:48:54.942177,0.032160826363162524
2023-01-28 10:48:54.947177,0.05118231102824208
2023-01-28 10:48:54.952177,0.053773448865322156
2023-01-28 10:48:54.957177,0.03418564796447746
2023-01-28 10:48:54.962177,-0.007808496215376173
2023-01-28 10:48:54.967177,-0.06567876040935508
2023-01-28 10:48:54.972177,-0.12747072029610662
2023-01-28 10:48:54.977177,-0.17948667705059046
2023-01-28 10:48:54.982177,-0.2107358146847999
2023-01-28 10:48:54.987177,-0.2162446677684783
2023-01-28 10:48:54.992177,-0.19809084311371256
2023-01-28 10:48:54.997177,-0.16400456428527826
2023-01-28 10:48:55.002177,-0.12416037105547548
2023-01-28 10:48:55.007177,-0.08753161132335663
2023-01-28 10:48:55.012177,-0.05948620310219576
2023-01-28 10:48:55.017177,-0.04144589230418203
2023-01-28 10:48:55.022177,-0.031997893194873415
2023-01-28 10:48:55.027177,-0.02834379673004149
2023-01-28 10:48:55.032177,-0.027559674957436348
2023-01-28 10:48:55.037177,-0.02752641960978498
2023-01-28 10:48:55.042177,-0.027211777959286868
2023-01-28 10:48:55.047177,-0.02625226974487295
2023-01-28 10:48:55.052177,-0.024505441691159393
2023-01-28 10:48:55.057177,-0.02209325693547717
2023-01-28 10:48:55.062177,-0.01946952528500492
2023-01-28 10:48:55.067177,-0.016972621902823413
2023-01-28 10:48:55.072177,-0.01437946516454493
2023-01-28 10:48:55.077177,-0.0111548108980059
2023-01-28 10:48:55.082177,-0.006935748550551087
2023-01-28 10:48:55.087177,-0.001490513561293426
2023-01-28 10:48:55.092177,0.005414783796147068
2023-01-28 10:48:55.097177,0.01353482436388728
2023-01-28 10:48:55.102177,0.021778422745111072
2023-01-28 10:48:55.107177,0.028992891311645508
2023-01-28 10:48:55.112177,0.035026756541224925
2023-01-28 10:48:55.117177,0.0404842719435691
2023-01-28 10:48:55.122177,0.045792498044482516
2023-01-28 10:48:55.127177,0.05142271518707268
2023-01-28 10:48:55.132177,0.058710055860922955
2023-01-28 10:48:55.137177,0.0689963549375534
2023-01-28 10:48:55.142177,0.08163460152464315
2023-01-28 10:48:55.147177,0.09419083595275869
2023-01-28 10:48:55.152177,0.10528108909306855
2023-01-28 10:48:55.157177,0.11597156524658195
2023-01-28 10:48:55.162177,0.1274458279871392
2023-01-28 10:48:55.167177,0.13844947516918177
2023-01-28 10:48:55.172177,0.14638771321656616
2023-01-28 10:48:55.177177,0.15018126368522638
2023-01-28 10:48:55.182177,0.15055113835062012
2023-01-28 10:48:55.187177,0.14792144298553458
2023-01-28 10:48:55.192177,0.14166562631122734
2023-01-28 10:48:55.197177,0.13150176405906666
2023-01-28 10:48:55.202177,0.1182263494287297
2023-01-28 10:48:55.207177,0.10270118713378898
2023-01-28 10:48:55.212177,0.08523072400004646
2023-01-28 10:48:55.217177,0.06639997661113728
2023-01-28 10:48:55.222177,0.04761132757285248
2023-01-28 10:48:55.227177,0.030243000015616358
2023-01-28 10:48:55.232177,0.014884876696372036
2023-01-28 10:48:55.237177,0.001730918884277276
2023-01-28 10:48:55.242177,-0.008991492154229449
2023-01-28 10:48:55.247177,-0.017453432083129806
2023-01-28 10:48:55.252177,-0.024506749223576006
2023-01-28 10:48:55.257177,-0.031012296676635714
2023-01-28 10:48:55.262177,-0.037197303225122505
2023-01-28 10:48:55.267177,-0.04291236400604238
2023-01-28 10:48:55.272177,-0.0480132502864987
2023-01-28 10:48:55.277177,-0.05211989209055899
2023-01-28 10:48:55.282177,-0.05446433502815981
2023-01-28 10:48:55.287177,-0.05447586625814426
2023-01-28 10:48:55.292177,-0.05233192852850408
2023-01-28 10:48:55.297177,-0.0487061366438865
2023-01-28 10:48:55.302177,-0.044300533359122214
2023-01-28 10:48:55.307177,-0.0398592166602611
2023-01-28 10:48:55.312177,-0.03619953035988271
2023-01-28 10:48:55.317177,-0.033752918243408224
2023-01-28 10:48:55.322177,-0.03221568718273135
2023-01-28 10:48:55.327177,-0.030916135758161496
2023-01-28 10:48:55.332177,-0.029352182377534668
2023-01-28 10:48:55.337177,-0.027213891968131006
2023-01-28 10:48:55.342177,-0.024231012164836915
2023-01-28 10:48:55.347177,-0.02036233805119995
2023-01-28 10:48:55.352177,-0.01596556923621207
2023-01-28 10:48:55.357177,-0.011491378769278516
2023-01-28 10:48:55.362177,-0.007119001084257889
2023-01-28 10:48:55.367177,-0.0028608243446797276
2023-01-28 10:48:55.372177,0.0011801582625871087
2023-01-28 10:48:55.377177,0.004880229942500463
2023-01-28 10:48:55.382177,0.008242691622469834
2023-01-28 10:48:55.387177,0.011250972747802611
2023-01-28 10:48:55.392177,0.013724094286920523
2023-01-28 10:48:55.397177,0.015530189499258867
2023-01-28 10:48:55.402177,0.01682022381144345
2023-01-28 10:48:55.407177,0.017862122505903154
2023-01-28 10:48:55.412177,0.018737363547790594
2023-01-28 10:48:55.417177,0.019304554909467572
2023-01-28 10:48:55.422177,0.019261840218299155
2023-01-28 10:48:55.427177,0.018054446205496722
2023-01-28 10:48:55.432177,0.014912690046679652
2023-01-28 10:48:55.437177,0.00930368900299075
2023-01-28 10:48:55.442177,0.0014141747059731387
2023-01-28 10:48:55.447177,-0.00786125659942616
2023-01-28 10:48:55.452177,-0.017331796758253918
2023-01-28 10:48:55.457177,-0.025915702804923006
2023-01-28 10:48:55.462177,-0.03295033792259708
2023-01-28 10:48:55.467177,-0.03841678425669672
2023-01-28 10:48:55.472177,-0.042782379489480604
2023-01-28 10:48:55.477177,-0.04627804085612285
2023-01-28 10:48:55.482177,-0.04808296714370857
2023-01-28 10:48:55.487177,-0.04615783691406253
2023-01-28 10:48:55.492177,-0.037991822610021396
2023-01-28 10:48:55.497177,-0.0219970941543579
2023-01-28 10:48:55.502177,0.0009123675786286753
2023-01-28 10:48:55.507177,0.026228230446577013
2023-01-28 10:48:55.512177,0.046123753462217885
2023-01-28 10:48:55.517177,0.051591001451015375
2023-01-28 10:48:55.522177,0.03586534246743745
2023-01-28 10:48:55.527177,-0.0023559730034320692
2023-01-28 10:48:55.532177,-0.05745449188880789
2023-01-28 10:48:55.537177,-0.11801501363515846
2023-01-28 10:48:55.542177,-0.17027877170369363
2023-01-28 10:48:55.547177,-0.2026377171277998
2023-01-28 10:48:55.552177,-0.20933127370983418
2023-01-28 10:48:55.557177,-0.19181947410106637
2023-01-28 10:48:55.562177,-0.1574218283254721
2023-01-28 10:48:55.567177,-0.11611580848693837
2023-01-28 10:48:55.572177,-0.07709725846167888
2023-01-28 10:48:55.577177,-0.04644632339477527
2023-01-28 10:48:55.582177,-0.026388345640063333
2023-01-28 10:48:55.587177,-0.01591483876109121
2023-01-28 10:48:55.592177,-0.012213650638023599
2023-01-28 10:48:55.597177,-0.012212594971060687
2023-01-28 10:48:55.602177,-0.013560331361194914
2023-01-28 10:48:55.607177,-0.014833013527095288
2023-01-28 10:48:55.612177,-0.015362757936279503
2023-01-28 10:48:55.617177,-0.015073418617248494
2023-01-28 10:48:55.622177,-0.01421633793510251
2023-01-28 10:48:55.627177,-0.012909770011901803
2023-01-28 10:48:55.632177,-0.010906570106505427
2023-01-28 10:48:55.637177,-0.007909337989985884
2023-01-28 10:48:55.642177,-0.003965740759366359
2023-01-28 10:48:55.647177,0.0006010135402902345
2023-01-28 10:48:55.652177,0.00543751364998954
2023-01-28 10:48:55.657177,0.01012106798589223
2023-01-28 10:48:55.662177,0.014184490210715618
2023-01-28 10:48:55.667177,0.017597675323486307
2023-01-28 10:48:55.672177,0.021065186124387576
2023-01-28 10:48:55.677177,0.0254829730838537
2023-01-28 10:48:55.682177,0.03129294208698534
2023-01-28 10:48:55.687177,0.03870527073740945
2023-01-28 10:48:55.692177,0.04815397157011105
2023-01-28 10:48:55.697177,0.059909027069807
2023-01-28 10:48:55.702177,0.07350228167120311
2023-01-28 10:48:55.707177,0.08815666288137428
2023-01-28 10:48:55.712177,0.10342082664053426
2023-01-28 10:48:55.717177,0.11859198659658432
2023-01-28 10:48:55.722177,0.13195142001423782
2023-01-28 10:48:55.727177,0.14171898365020744
2023-01-28 10:48:55.732177,0.1475880376090911
2023-01-28 10:48:55.737177,0.15020529925823206
2023-01-28 10:48:55.742177,0.14951774906130533
2023-01-28 10:48:55.747177,0.14527699351310713
2023-01-28 10:48:55.752177,0.13901335479803476
2023-01-28 10:48:55.757177,0.13323268294334403
2023-01-28 10:48:55.762177,0.12789728378204207
2023-01-28 10:48:55.767177,0.11976997554302216
2023-01-28 10:48:55.772177,0.10651967849591046
2023-01-28 10:48:55.777177,0.08974333852529515
2023-01-28 10:48:55.782177,0.07247965812831665
2023-01-28 10:48:55.787177,0.055485568940639406
2023-01-28 10:48:55.792177,0.03799025564726142
2023-01-28 10:48:55.797177,0.020771026611328045
2023-01-28 10:48:55.802177,0.005983253589148461
2023-01-28 10:48:55.807177,-0.005553364753723094
2023-01-28 10:48:55.812177,-0.01471912529589078
2023-01-28 10:48:55.817177,-0.02204517647624008
2023-01-28 10:48:55.822177,-0.027395837845336755
2023-01-28 10:48:55.827177,-0.031589269638061496
2023-01-28 10:48:55.832177,-0.03616346025738438
2023-01-28 10:48:55.837177,-0.041133366525173055
2023-01-28 10:48:55.842177,-0.04475283558796857
2023-01-28 10:48:55.847177,-0.045941472053527777
2023-01-28 10:48:55.852177,-0.0453702192659359
2023-01-28 10:48:55.857177,-0.0437778234481811
2023-01-28 10:48:55.862177,-0.040921315507264994
2023-01-28 10:48:55.867177,-0.03687819093465797
2023-01-28 10:48:55.872177,-0.0328752542311134
2023-01-28 10:48:55.877177,-0.029930472373962458
2023-01-28 10:48:55.882177,-0.02778973026112168
2023-01-28 10:48:55.887177,-0.025915702804923
2023-01-28 10:48:55.892177,-0.02443407484379934
2023-01-28 10:48:55.897177,-0.023391446098685167
2023-01-28 10:48:55.902177,-0.022145664980282306
2023-01-28 10:48:55.907177,-0.020314257591962825
2023-01-28 10:48:55.912177,-0.018458759866449383
2023-01-28 10:48:55.917177,-0.017068784683942757
2023-01-28 10:48:55.922177,-0.01562850189965572
2023-01-28 10:48:55.927177,-0.013366540893912338
2023-01-28 10:48:55.932177,-0.01021227919455435
2023-01-28 10:48:55.937177,-0.006418824195861797
2023-01-28 10:48:55.942177,-0.002033331246936607
2023-01-28 10:48:55.947177,0.0025723378639667988
2023-01-28 10:48:55.952177,0.006369321912755929
2023-01-28 10:48:55.957177,0.008630554191768107
2023-01-28 10:48:55.962177,0.009729728968665585
2023-01-28 10:48:55.967177,0.010457634925842204
2023-01-28 10:48:55.972177,0.01114039075886131
2023-01-28 10:48:55.977177,0.011948148719966379
2023-01-28 10:48:55.982177,0.013369255596906753
2023-01-28 10:48:55.987177,0.015650391578674334
2023-01-28 10:48:55.992177,0.018207461378202002
2023-01-28 10:48:55.997177,0.020121932029724062
2023-01-28 10:48:56.002177,0.02073401987991017
2023-01-28 10:48:56.007177,0.019304554909467583
2023-01-28 10:48:56.012177,0.014781075796326013
2023-01-28 10:48:56.017177,0.006659229751676297
2023-01-28 10:48:56.022177,-0.004239511455888951
2023-01-28 10:48:56.027177,-0.01632352732121935
2023-01-28 10:48:56.032177,-0.028190814776587525
2023-01-28 10:48:56.037177,-0.038753353059291784
2023-01-28 10:48:56.042177,-0.047136993811526764
2023-01-28 10:48:56.047177,-0.05312959477305412
2023-01-28 10:48:56.052177,-0.05723260292422873
2023-01-28 10:48:56.057177,-0.059524379670619874
2023-01-28 10:48:56.062177,-0.05862865501107964
2023-01-28 10:48:56.067177,-0.052216053009033175
2023-01-28 10:48:56.072177,-0.03839140394531519
2023-01-28 10:48:56.077177,-0.016780298203229894
2023-01-28 10:48:56.082177,0.010488256775485979
2023-01-28 10:48:56.087177,0.037791728973388596
2023-01-28 10:48:56.092177,0.05649534976762966
2023-01-28 10:48:56.097177,0.05788962170481678
2023-01-28 10:48:56.102177,0.03698002228616176
2023-01-28 10:48:56.107177,-0.005216797348111768
2023-01-28 10:48:56.112177,-0.061447408035811335
2023-01-28 10:48:56.117177,-0.11972188949584955
2023-01-28 10:48:56.122177,-0.16672359855271174
2023-01-28 10:48:56.127177,-0.1924926042556761
2023-01-28 10:48:56.132177,-0.19382855241262897
2023-01-28 10:48:56.137177,-0.17434200644493095
2023-01-28 10:48:56.142177,-0.14193097224224632
2023-01-28 10:48:56.147177,-0.10573029518127436
2023-01-28 10:48:56.152177,-0.07339891360345828
2023-01-28 10:48:56.157177,-0.04906674474477759
2023-01-28 10:48:56.162177,-0.032981857258019324
2023-01-28 10:48:56.167177,-0.023199122399091682
2023-01-28 10:48:56.172177,-0.017635495616322567
2023-01-28 10:48:56.177177,-0.014784932136535577
2023-01-28 10:48:56.182177,-0.01349264896561227
2023-01-28 10:48:56.187177,-0.012933811172842915
2023-01-28 10:48:56.192177,-0.01264200246178076
2023-01-28 10:48:56.197177,-0.012092391960322788
2023-01-28 10:48:56.202177,-0.010519215956342205
2023-01-28 10:48:56.207177,-0.007572770118713315
2023-01-28 10:48:56.212177,-0.003876927031639146
2023-01-28 10:48:56.217177,-0.000504851341247549
2023-01-28 10:48:56.222177,0.001900703308054536
2023-01-28 10:48:56.227177,0.0032695136032997803
2023-01-28 10:48:56.232177,0.0038672417357338844
2023-01-28 10:48:56.237177,0.004399418830871489
2023-01-28 10:48:56.242177,0.00596340187775831
2023-01-28 10:48:56.247177,0.009303689002990652
2023-01-28 10:48:56.252177,0.0142275460971862
2023-01-28 10:48:56.257177,0.020073851570487015
2023-01-28 10:48:56.262177,0.026520158902825157
2023-01-28 10:48:56.267177,0.03368079662322991
2023-01-28 10:48:56.272177,0.041841154363114856
2023-01-28 10:48:56.277177,0.05151887983083717
2023-01-28 10:48:56.282177,0.06339033454935668
2023-01-28 10:48:56.287177,0.0775788277387619
2023-01-28 10:48:56.292177,0.0931316393405472
2023-01-28 10:48:56.297177,0.10851900279521937
2023-01-28 10:48:56.302177,0.12244427657789678
2023-01-28 10:48:56.307177,0.13397793471813194
2023-01-28 10:48:56.312177,0.14239525867308014
2023-01-28 10:48:56.317177,0.14739255607128138
2023-01-28 10:48:56.322177,0.14918318931340852
2023-01-28 10:48:56.327177,0.14792144298553458
2023-01-28 10:48:56.332177,0.1432247263000435
2023-01-28 10:48:56.337177,0.13460299372673024
2023-01-28 10:48:56.342177,0.12212233490828953
2023-01-28 10:48:56.347177,0.10637938976287842
2023-01-28 10:48:56.352177,0.08820487902728172
2023-01-28 10:48:56.357177,0.06877999007701871
2023-01-28 10:48:56.362177,0.049661856510764116
2023-01-28 10:48:56.367177,0.032142203301191316
2023-01-28 10:48:56.372177,0.016676810008027093
2023-01-28 10:48:56.377177,0.0031973919831216075
2023-01-28 10:48:56.382177,-0.008316845894439769
2023-01-28 10:48:56.387177,-0.017886161804199194
2023-01-28 10:48:56.392177,-0.025770802095183662
2023-01-28 10:48:56.397177,-0.03221432492136951
2023-01-28 10:48:56.402177,-0.03717005864586782
2023-01-28 10:48:56.407177,-0.04062851518392563
2023-01-28 10:48:56.412177,-0.04296605651899531
2023-01-28 10:48:56.417177,-0.044643282890319824
2023-01-28 10:48:56.422177,-0.04581140460264322
2023-01-28 10:48:56.427177,-0.04649440571665758
2023-01-28 10:48:56.432177,-0.046847906207681415
2023-01-28 10:48:56.437177,-0.04695117473602288
2023-01-28 10:48:56.442177,-0.04667890963943973
2023-01-28 10:48:56.447177,-0.0460376366972923
2023-01-28 10:48:56.452177,-0.04520455058392277
2023-01-28 10:48:56.457177,-0.043946109712123795
2023-01-28 10:48:56.462177,-0.041550980220549046
2023-01-28 10:48:56.467177,-0.037815771996974876
2023-01-28 10:48:56.472177,-0.03360207167487476
2023-01-28 10:48:56.477177,-0.02983431145548821
2023-01-28 10:48:56.482177,-0.026350228053307185
2023-01-28 10:48:56.487177,-0.022381743416190123
2023-01-28 10:48:56.492177,-0.01786825568081985
2023-01-28 10:48:56.497177,-0.013630986213684039
2023-01-28 10:48:56.502177,-0.010433960853076352
2023-01-28 10:48:56.507177,-0.008486310951411712
2023-01-28 10:48:56.512177,-0.007732716590904639
2023-01-28 10:48:56.517177,-0.008005499839782715
2023-01-28 10:48:56.522177,-0.008877027484861019
2023-01-28 10:48:56.527177,-0.009856621734797897
2023-01-28 10:48:56.532177,-0.01079870799902451
2023-01-28 10:48:56.537177,-0.011803905479609881
2023-01-28 10:48:56.542177,-0.01275700384398471
2023-01-28 10:48:56.547177,-0.013222297653555804
2023-01-28 10:48:56.552177,-0.012661896434511585
2023-01-28 10:48:56.557177,-0.01050571631640187
2023-01-28 10:48:56.562177,-0.006272012065772865
2023-01-28 10:48:56.567177,-7.212162017818476e-05
2023-01-28 10:48:56.572177,0.007058692281571453
2023-01-28 10:48:56.577177,0.013630986213683971
2023-01-28 10:48:56.582177,0.018442211113273165
2023-01-28 10:48:56.587177,0.02074698731303209
2023-01-28 10:48:56.592177,0.0200795576506282
2023-01-28 10:48:56.597177,0.016347568482160464
2023-01-28 10:48:56.602177,0.0099506173581875
2023-01-28 10:48:56.607177,0.00146647298242884
2023-01-28 10:48:56.612177,-0.008648468971556425
2023-01-28 10:48:56.617177,-0.019809406250715218
2023-01-28 10:48:56.622177,-0.031025743857561232
2023-01-28 10:48:56.627177,-0.04125356674194328
2023-01-28 10:48:56.632177,-0.04989500134560645
2023-01-28 10:48:56.637177,-0.056687593460082966
2023-01-28 10:48:56.642177,-0.06127934242123909
2023-01-28 10:48:56.647177,-0.06310641765594474
2023-01-28 10:48:56.652177,-0.061343229013267185
2023-01-28 10:48:56.657177,-0.05464414879679668
2023-01-28 10:48:56.662177,-0.041388548007856345
2023-01-28 10:48:56.667177,-0.021035473793745
2023-01-28 10:48:56.672177,0.004274410556971757
2023-01-28 10:48:56.677177,0.029233297333121147
2023-01-28 10:48:56.682177,0.04628324340218203
2023-01-28 10:48:56.687177,0.04755219072103498
2023-01-28 10:48:56.692177,0.0276634287370591
2023-01-28 10:48:56.697177,-0.01327037811279292
2023-01-28 10:48:56.702177,-0.06834165296178107
2023-01-28 10:48:56.707177,-0.12561182677745805
2023-01-28 10:48:56.712177,-0.17210021536984746
2023-01-28 10:48:56.717177,-0.19792577624320976
2023-01-28 10:48:56.722177,-0.19920164693667464
2023-01-28 10:48:56.727177,-0.17895779013633717
2023-01-28 10:48:56.732177,-0.14549475575008228
2023-01-28 10:48:56.737177,-0.10866324603557571
2023-01-28 10:48:56.742177,-0.07622862010504074
2023-01-28 10:48:56.747177,-0.052264135330915354
2023-01-28 10:48:56.752177,-0.037451668354633316
2023-01-28 10:48:56.757177,-0.030098756775259857
2023-01-28 10:48:56.762177,-0.02739235790871409
2023-01-28 10:48:56.767177,-0.026757121086120585
2023-01-28 10:48:56.772177,-0.026593621354203567
2023-01-28 10:48:56.777177,-0.025987824425101183
2023-01-28 10:48:56.782177,-0.024251478076254045
2023-01-28 10:48:56.787177,-0.021131634712219197
2023-01-28 10:48:56.792177,-0.017137205895359022
2023-01-28 10:48:56.797177,-0.013174216262996101
2023-01-28 10:48:56.802177,-0.009925333770094644
2023-01-28 10:48:56.807177,-0.0077410540543495845
2023-01-28 10:48:56.812177,-0.006743861068513368
2023-01-28 10:48:56.817177,-0.006611148826777849
2023-01-28 10:48:56.822177,-0.006489327912146971
2023-01-28 10:48:56.827177,-0.005529324524104491
2023-01-28 10:48:56.832177,-0.003385526679275813
2023-01-28 10:48:56.837177,2.4040540665689984e-05
2023-01-28 10:48:56.842177,0.0049225849389357085
2023-01-28 10:48:56.847177,0.011491378769278488
2023-01-28 10:48:56.852177,0.01957588649569899
2023-01-28 10:48:56.857177,0.028968852013349533
2023-01-28 10:48:56.862177,0.039766507275548625
2023-01-28 10:48:56.867177,0.05209585279226303
2023-01-28 10:48:56.872177,0.06570054333726162
2023-01-28 10:48:56.877177,0.0800790414214134
2023-01-28 10:48:56.882177,0.09471369789629246
2023-01-28 10:48:56.887177,0.10878344625234598
2023-01-28 10:48:56.892177,0.12095056055944746
2023-01-28 10:48:56.897177,0.12991508841514576
2023-01-28 10:48:56.902177,0.13509293659385632
2023-01-28 10:48:56.907177,0.1365262269973754
2023-01-28 10:48:56.912177,0.13444499609483587
2023-01-28 10:48:56.917177,0.1292659938335418
2023-01-28 10:48:56.922177,0.1216841959055463
2023-01-28 10:48:56.927177,0.11226932704448689
2023-01-28 10:48:56.932177,0.10110990059080519
2023-01-28 10:48:56.937177,0.0881807059049606
2023-01-28 10:48:56.942177,0.07383813301383797
2023-01-28 10:48:56.947177,0.05863487720489498
2023-01-28 10:48:56.952177,0.04293727797393162
2023-01-28 10:48:56.957177,0.027117729187011726
2023-01-28 10:48:56.962177,0.011865158309240996
2023-01-28 10:48:56.967177,-0.0021155676804481987
2023-01-28 10:48:56.972177,-0.014530571930897603
2023-01-28 10:48:56.977177,-0.02531468868255613
2023-01-28 10:48:56.982177,-0.03431876896702848
2023-01-28 10:48:56.987177,-0.04156609624624252
2023-01-28 10:48:56.992177,-0.04753635965726009
2023-01-28 10:48:56.997177,-0.05274494737386705
2023-01-28 10:48:57.002177,-0.05721008691701947
2023-01-28 10:48:57.007177,-0.0606542825698852
2023-01-28 10:48:57.012177,-0.0629492716824739
2023-01-28 10:48:57.017177,-0.06399592012166964
2023-01-28 10:48:57.022177,-0.06349899659691687
2023-01-28 10:48:57.027177,-0.06135145947337151
2023-01-28 10:48:57.032177,-0.058033436040965294
2023-01-28 10:48:57.037177,-0.05421141907572739
2023-01-28 10:48:57.042177,-0.05015211489821627
2023-01-28 10:48:57.047177,-0.045893393456935806
2023-01-28 10:48:57.052177,-0.04168696199141782
2023-01-28 10:48:57.057177,-0.03781577199697486
2023-01-28 10:48:57.062177,-0.03423654015932047
2023-01-28 10:48:57.067177,-0.030868053436279186
2023-01-28 10:48:57.072177,-0.02799494307671895
2023-01-28 10:48:57.077177,-0.025939743965864123
2023-01-28 10:48:57.082177,-0.0245962178148678
2023-01-28 10:48:57.087177,-0.02375205419957635
2023-01-28 10:48:57.092177,-0.02359129675668702
2023-01-28 10:48:57.097177,-0.024353068321943217
2023-01-28 10:48:57.102177,-0.025730067554017955
2023-01-28 10:48:57.107177,-0.027117729187011694
2023-01-28 10:48:57.112177,-0.028200879348825585
2023-01-28 10:48:57.117177,-0.02875248715281476
2023-01-28 10:48:57.122177,-0.028174272797675984
2023-01-28 10:48:57.127177,-0.025987824425101204
2023-01-28 10:48:57.132177,-0.02267920116964555
2023-01-28 10:48:57.137177,-0.01935263536870468
2023-01-28 10:48:57.142177,-0.01652581566639157
2023-01-28 10:48:57.147177,-0.013847351074218693
2023-01-28 10:48:57.152177,-0.010974809601277826
2023-01-28 10:48:57.157177,-0.00807762145996089
2023-01-28 10:48:57.162177,-0.005378400924919793
2023-01-28 10:48:57.167177,-0.0028367838822304964
2023-01-28 10:48:57.172177,-0.0005931505839920608
2023-01-28 10:48:57.177177,0.0006250540609471405
2023-01-28 10:48:57.182177,-0.0002543393194204858
2023-01-28 10:48:57.187177,-0.004183053970336914
2023-01-28 10:48:57.192177,-0.011681052524805835
2023-01-28 10:48:57.197177,-0.022501945495605382
2023-01-28 10:48:57.202177,-0.03538166136372112
2023-01-28 10:48:57.207177,-0.04834552854299538
2023-01-28 10:48:57.212177,-0.05948225520516792
2023-01-28 10:48:57.217177,-0.0675539225339889
2023-01-28 10:48:57.222177,-0.07221665975703119
2023-01-28 10:48:57.227177,-0.07399678230285642
2023-01-28 10:48:57.232177,-0.0738280440771317
2023-01-28 10:48:57.237177,-0.07202546298503872
2023-01-28 10:48:57.242177,-0.06747256728683838
2023-01-28 10:48:57.247177,-0.05800982564687721
2023-01-28 10:48:57.252177,-0.04191490293900172
2023-01-28 10:48:57.257177,-0.01954495906829826
2023-01-28 10:48:57.262177,0.005500068927686316
2023-01-28 10:48:57.267177,0.026156108826398784
2023-01-28 10:48:57.272177,0.03339258486738436
2023-01-28 10:48:57.277177,0.019569000229239387
2023-01-28 10:48:57.282177,-0.017887651320324414
2023-01-28 10:48:57.287177,-0.07459779828786836
2023-01-28 10:48:57.292177,-0.13995153609444708
2023-01-28 10:48:57.297177,-0.19994518160819996
2023-01-28 10:48:57.302177,-0.24134997047387324
2023-01-28 10:48:57.307177,-0.2560077309608458
2023-01-28 10:48:57.312177,-0.24331201259326296
2023-01-28 10:48:57.317177,-0.2095613926649092
2023-01-28 10:48:57.322177,-0.16492743785685576
2023-01-28 10:48:57.327177,-0.11991421878337855
2023-01-28 10:48:57.332177,-0.08251031111978542
2023-01-28 10:48:57.337177,-0.05651931092143051
2023-01-28 10:48:57.342177,-0.04159381262950764
2023-01-28 10:48:57.347177,-0.03493090718984602
2023-01-28 10:48:57.352177,-0.03332104716048372
2023-01-28 10:48:57.357177,-0.034209690988063826
2023-01-28 10:48:57.362177,-0.03585346439104086
2023-01-28 10:48:57.367177,-0.03731092065572729
2023-01-28 10:48:57.372177,-0.03826945045901913
2023-01-28 10:48:57.377177,-0.03848890587687488
2023-01-28 10:48:57.382177,-0.03744421955757655
2023-01-28 10:48:57.387177,-0.034714542329311295
2023-01-28 10:48:57.392177,-0.030501073282745626
2023-01-28 10:48:57.397177,-0.0254589319229125
2023-01-28 10:48:57.402177,-0.020199552722736807
2023-01-28 10:48:57.407177,-0.015193621627986398
2023-01-28 10:48:57.412177,-0.010840650221659804
2023-01-28 10:48:57.417177,-0.0072121620178222275
2023-01-28 10:48:57.422177,-0.0038915667447183893
2023-01-28 10:48:57.427177,-0.00040868920041240147
2023-01-28 10:48:57.432177,0.003333743947357651
2023-01-28 10:48:57.437177,0.007356405258178696
2023-01-28 10:48:57.442177,0.0121052259774723
2023-01-28 10:48:57.447177,0.018342932686209557
2023-01-28 10:48:57.452177,0.02673533719153738
2023-01-28 10:48:57.457177,0.03776768967509258
2023-01-28 10:48:57.462177,0.051675391033163216
2023-01-28 10:48:57.467177,0.06796260923147197
2023-01-28 10:48:57.472177,0.08514185799713614
2023-01-28 10:48:57.477177,0.1013308763504028
2023-01-28 10:48:57.482177,0.11503862522114051
2023-01-28 10:48:57.487177,0.12527525424957262
2023-01-28 10:48:57.492177,0.1313835573827426
2023-01-28 10:48:57.497177,0.1332567185163496
2023-01-28 10:48:57.502177,0.13146748762392207
2023-01-28 10:48:57.507177,0.12671768665313715
2023-01-28 10:48:57.512177,0.11927833258199858
2023-01-28 10:48:57.517177,0.10921617597341528
2023-01-28 10:48:57.522177,0.09684195120630033
2023-01-28 10:48:57.527177,0.08257925510406486
2023-01-28 10:48:57.532177,0.06674433903218245
2023-01-28 10:48:57.537177,0.04990816116332999
2023-01-28 10:48:57.542177,0.03318755773043639
2023-01-28 10:48:57.547177,0.017693838104605588
2023-01-28 10:48:57.552177,0.003850023444312948
2023-01-28 10:48:57.557177,-0.008462270721793022
2023-01-28 10:48:57.562177,-0.01944206443700102
2023-01-28 10:48:57.567177,-0.029449662193655864
2023-01-28 10:48:57.572177,-0.03912574981475226
2023-01-28 10:48:57.577177,-0.04882633686065668
2023-01-28 10:48:57.582177,-0.05808686928842071
2023-01-28 10:48:57.587177,-0.06601532548665995
2023-01-28 10:48:57.592177,-0.07195219762770216
2023-01-28 10:48:57.597177,-0.0754392147064208
2023-01-28 10:48:57.602177,-0.07604964486011997
2023-01-28 10:48:57.607177,-0.07387658208608619
2023-01-28 10:48:57.612177,-0.06991674617660011
2023-01-28 10:48:57.617177,-0.0654143095016479
2023-01-28 10:48:57.622177,-0.0609937745545933
2023-01-28 10:48:57.627177,-0.05675971508026119
2023-01-28 10:48:57.632177,-0.05278991226277129
2023-01-28 10:48:57.637177,-0.04899462312459939
2023-01-28 10:48:57.642177,-0.04491896276992606
2023-01-28 10:48:57.647177,-0.04034002870321268
2023-01-28 10:48:57.652177,-0.03577993820662813
2023-01-28 10:48:57.657177,-0.031877756118774386
2023-01-28 10:48:57.662177,-0.02858614986273613
2023-01-28 10:48:57.667177,-0.025531053543090786
2023-01-28 10:48:57.672177,-0.022763333286777647
2023-01-28 10:48:57.677177,-0.02055466175079339
2023-01-28 10:48:57.682177,-0.0188814853795043
2023-01-28 10:48:57.687177,-0.017765959724783828
2023-01-28 10:48:57.692177,-0.01764619977514058
2023-01-28 10:48:57.697177,-0.018607378005981424
2023-01-28 10:48:57.702177,-0.01962504126143121
2023-01-28 10:48:57.707177,-0.019376676529645906
2023-01-28 10:48:57.712177,-0.01748974686178375
2023-01-28 10:48:57.717177,-0.014328162185847747
2023-01-28 10:48:57.722177,-0.010163070631334224
2023-01-28 10:48:57.727177,-0.00555336475372312
2023-01-28 10:48:57.732177,-0.002002194057847684
2023-01-28 10:48:57.737177,-0.000985662220045879
2023-01-28 10:48:57.742177,-0.002582540021042588
2023-01-28 10:48:57.747177,-0.006154378410428715
2023-01-28 10:48:57.752177,-0.011894755719795005
2023-01-28 10:48:57.757177,-0.020194053649902333
2023-01-28 10:48:57.762177,-0.02974293612235841
2023-01-28 10:48:57.767177,-0.03815233707427966
2023-01-28 10:48:57.772177,-0.0448095445311312
2023-01-28 10:48:57.777177,-0.05142271518707268
2023-01-28 10:48:57.782177,-0.05908599628480072
2023-01-28 10:48:57.787177,-0.0663759335875511
2023-01-28 10:48:57.792177,-0.0713147670225195
2023-01-28 10:48:57.797177,-0.07382850348949424
2023-01-28 10:48:57.802177,-0.07487667267258065
2023-01-28 10:48:57.807177,-0.07394870370626436
2023-01-28 10:48:57.812177,-0.06879316311068927
2023-01-28 10:48:57.817177,-0.05740880966186518
2023-01-28 10:48:57.822177,-0.03958355346978061
2023-01-28 10:48:57.827177,-0.01726110838353626
2023-01-28 10:48:57.832177,0.005074321656366796
2023-01-28 10:48:57.837177,0.0202661752700805
2023-01-28 10:48:57.842177,0.020182386252989678
2023-01-28 10:48:57.847177,-0.0008895000210030967
2023-01-28 10:48:57.852177,-0.04325203876159943
2023-01-28 10:48:57.857177,-0.10080198943614944
2023-01-28 10:48:57.862177,-0.16218887540923382
2023-01-28 10:48:57.867177,-0.21386465430259688
2023-01-28 10:48:57.872177,-0.24438762220051743
2023-01-28 10:48:57.877177,-0.2482666671276091
2023-01-28 10:48:57.882177,-0.2274003531391902
2023-01-28 10:48:57.887177,-0.18963178992271418
2023-01-28 10:48:57.892177,-0.14551958251067273
2023-01-28 10:48:57.897177,-0.10479271411895746
2023-01-28 10:48:57.902177,-0.07368416516524745
2023-01-28 10:48:57.907177,-0.05399505421519266
2023-01-28 10:48:57.912177,-0.043974728852487106
2023-01-28 10:48:57.917177,-0.04014770314097402
2023-01-28 10:48:57.922177,-0.03902137516713388
2023-01-28 10:48:57.927177,-0.03815233707427967
2023-01-28 10:48:57.932177,-0.03646827199421453
2023-01-28 10:48:57.937177,-0.033921204507350915
2023-01-28 10:48:57.942177,-0.03087399537220902
2023-01-28 10:48:57.947177,-0.027742784470319738
2023-01-28 10:48:57.952177,-0.024941987314013193
2023-01-28 10:48:57.957177,-0.0227904319763183
2023-01-28 10:48:57.962177,-0.02133718492172799
2023-01-28 10:48:57.967177,-0.020362338051199913
2023-01-28 10:48:57.972177,-0.0195043225978246
2023-01-28 10:48:57.977177,-0.018270811066031397
2023-01-28 10:48:57.982177,-0.016078453040150795
2023-01-28 10:48:57.987177,-0.01257320307195179
2023-01-28 10:48:57.992177,-0.00790842018735653
2023-01-28 10:48:57.997177,-0.0025002162437885145
2023-01-28 10:48:58.002177,0.0034884804968414946
2023-01-28 10:48:58.007177,0.010313391685485757
2023-01-28 10:48:58.012177,0.018459827525699714
2023-01-28 10:48:58.017177,0.02848803997039793
2023-01-28 10:48:58.022177,0.040843043497717925
2023-01-28 10:48:58.027177,0.055413447320461176
2023-01-28 10:48:58.032177,0.0712529705158041
2023-01-28 10:48:58.037177,0.0869546383619308
2023-01-28 10:48:58.042177,0.10128360104082007
2023-01-28 10:48:58.047177,0.11337518692016596
2023-01-28 10:48:58.052177,0.12262507173884706
2023-01-28 10:48:58.057177,0.12876114249229426
2023-01-28 10:48:58.062177,0.13190533202567792
2023-01-28 10:48:58.067177,0.13224701583385456
2023-01-28 10:48:58.072177,0.12973523720308733
2023-01-28 10:48:58.077177,0.12431363761425003
2023-01-28 10:48:58.082177,0.116266559138951
2023-01-28 10:48:58.087177,0.10604282468557344
2023-01-28 10:48:58.092177,0.09392482610065273
2023-01-28 10:48:58.097177,0.08017520606517786
2023-01-28 10:48:58.102177,0.06530844317358019
2023-01-28 10:48:58.107177,0.0498841218650341
2023-01-28 10:48:58.112177,0.03421731499348206
2023-01-28 10:48:58.117177,0.018607378005981397
2023-01-28 10:48:58.122177,0.0036210159142580378
2023-01-28 10:48:58.127177,-0.010217229835688964
2023-01-28 10:48:58.132177,-0.02280932177289554
2023-01-28 10:48:58.137177,-0.03420969098806377
2023-01-28 10:48:58.142177,-0.04419766885923667
2023-01-28 10:48:58.147177,-0.0524805001914501
2023-01-28 10:48:58.152177,-0.05906516074608815
2023-01-28 10:48:58.157177,-0.06404399871826169
2023-01-28 10:48:58.162177,-0.06728734469502247
2023-01-28 10:48:58.167177,-0.06877999007701871
2023-01-28 10:48:58.172177,-0.06900522710957321
2023-01-28 10:48:58.177177,-0.06853958219289767
2023-01-28 10:48:58.182177,-0.06746748937998001
2023-01-28 10:48:58.187177,-0.06555855274200428
2023-01-28 10:48:58.192177,-0.06270748962178813
2023-01-28 10:48:58.197177,-0.05877912044525139
2023-01-28 10:48:58.202177,-0.05340484014702876
2023-01-28 10:48:58.207177,-0.04651844501495362
2023-01-28 10:48:58.212177,-0.03887781319429227
2023-01-28 10:48:58.217177,-0.03158926963806148
2023-01-28 10:48:58.222177,-0.025363497738239846
2023-01-28 10:48:58.227177,-0.020602744072675684
2023-01-28 10:48:58.232177,-0.01772796877653901
2023-01-28 10:48:58.237177,-0.016780298203229876
2023-01-28 10:48:58.242177,-0.017020908792992336
2023-01-28 10:48:58.247177,-0.017525553703308123
2023-01-28 10:48:58.252177,-0.017914281747424682
2023-01-28 10:48:58.257177,-0.0180544462054967
2023-01-28 10:48:58.262177,-0.01755199513121688
2023-01-28 10:48:58.267177,-0.016203325241804095
2023-01-28 10:48:58.272177,-0.014533654370427834
2023-01-28 10:48:58.277177,-0.013198256492614701
2023-01-28 10:48:58.282177,-0.0122063149854909
2023-01-28 10:48:58.287177,-0.011323094367980947
2023-01-28 10:48:58.292177,-0.010713465571392345
2023-01-28 10:48:58.297177,-0.010457634925842209
2023-01-28 10:48:58.302177,-0.009962131851786552
2023-01-28 10:48:58.307177,-0.00870267581194631
2023-01-28 10:48:58.312177,-0.007144804701478508
2023-01-28 10:48:58.317177,-0.006202459335327077
2023-01-28 10:48:58.322177,-0.006345332159927551
2023-01-28 10:48:58.327177,-0.008029541000723792
2023-01-28 10:48:58.332177,-0.012262264344944184
2023-01-28 10:48:58.337177,-0.0195930413901805
2023-01-28 10:48:58.342177,-0.02899814340317881
2023-01-28 10:48:58.347177,-0.03875335305929177
2023-01-28 10:48:58.352177,-0.04789844054890911
2023-01-28 10:48:58.357177,-0.05596637725830065
2023-01-28 10:48:58.362177,-0.06215863454947849
2023-01-28 10:48:58.367177,-0.0660634040832519
2023-01-28 10:48:58.372177,-0.06833349680731336
2023-01-28 10:48:58.377177,-0.06906847655773153
2023-01-28 10:48:58.382177,-0.06611431908631389
2023-01-28 10:48:58.387177,-0.056543350219726486
2023-01-28 10:48:58.392177,-0.03947277095673815
2023-01-28 10:48:58.397177,-0.016515851020812888
2023-01-28 10:48:58.402177,0.008925357402267875
2023-01-28 10:48:58.407177,0.030603608116507492
2023-01-28 10:48:58.412177,0.03914315810558734
2023-01-28 10:48:58.417177,0.02646863460540774
2023-01-28 10:48:58.422177,-0.00857132893689088
2023-01-28 10:48:58.427177,-0.06005327031016337
2023-01-28 10:48:58.432177,-0.11878644750953636
2023-01-28 10:48:58.437177,-0.1735246181488036
2023-01-28 10:48:58.442177,-0.21094459805058696
2023-01-28 10:48:58.447177,-0.22124509513378132
2023-01-28 10:48:58.452177,-0.20623325523252525
2023-01-28 10:48:58.457177,-0.17797212302684773
2023-01-28 10:48:58.462177,-0.14726992429384633
2023-01-28 10:48:58.467177,-0.11676490306854234
2023-01-28 10:48:58.472177,-0.08661388839913771
2023-01-28 10:48:58.477177,-0.06142358109354969
2023-01-28 10:48:58.482177,-0.04661790873835607
2023-01-28 10:48:58.487177,-0.040917001664638464
2023-01-28 10:48:58.492177,-0.03774438211966131
2023-01-28 10:48:58.497177,-0.03319998830556856
2023-01-28 10:48:58.502177,-0.028460191272564352
2023-01-28 10:48:58.507177,-0.0250502433627843
2023-01-28 10:48:58.512177,-0.022245535235746433
2023-01-28 10:48:58.517177,-0.019641121849417582
2023-01-28 10:48:58.522177,-0.018461138688520992
2023-01-28 10:48:58.527177,-0.019016068428754796
2023-01-28 10:48:58.532177,-0.01952648813078228
2023-01-28 10:48:58.537177,-0.01860737800598142
2023-01-28 10:48:58.542177,-0.016819719263945945
2023-01-28 10:48:58.547177,-0.014905135147273497
2023-01-28 10:48:58.552177,-0.012485187760775961
2023-01-28 10:48:58.557177,-0.0094238920137286
2023-01-28 10:48:58.562177,-0.006671808249356075
2023-01-28 10:48:58.567177,-0.004711946006864328
2023-01-28 10:48:58.572177,-0.002543959913248031
2023-01-28 10:48:58.577177,0.000985662220045891
2023-01-28 10:48:58.582177,0.00613812262288558
2023-01-28 10:48:58.587177,0.013246337883174428
2023-01-28 10:48:58.592177,0.02336434805949128
2023-01-28 10:48:58.597177,0.03704647347331042
2023-01-28 10:48:58.602177,0.053434588470393285
2023-01-28 10:48:58.607177,0.07118403911590566
2023-01-28 10:48:58.612177,0.08930419737220091
2023-01-28 10:48:58.617177,0.10652363300323478
2023-01-28 10:48:58.622177,0.12093730167640372
2023-01-28 10:48:58.627177,0.1311411559581756
2023-01-28 10:48:58.632177,0.13705476407493417
2023-01-28 10:48:58.637177,0.13912260532379148
2023-01-28 10:48:58.642177,0.13748532180200415
2023-01-28 10:48:58.647177,0.13241529464721669
2023-01-28 10:48:58.652177,0.12470621507589476
2023-01-28 10:48:58.657177,0.11498590558767308
2023-01-28 10:48:58.662177,0.10327200277172512
2023-01-28 10:48:58.667177,0.08969525992870327
2023-01-28 10:48:58.672177,0.07502195496761287
2023-01-28 10:48:58.677177,0.06000518798828125
2023-01-28 10:48:58.682177,0.04484993352340962
2023-01-28 10:48:58.687177,0.029762189835309885
2023-01-28 10:48:58.692177,0.01541318309820276
2023-01-28 10:48:58.697177,0.002404054161161099
2023-01-28 10:48:58.702177,-0.009197000630585856
2023-01-28 10:48:58.707177,-0.01942475698888298
2023-01-28 10:48:58.712177,-0.028110712837059505
2023-01-28 10:48:58.717177,-0.03538767620921125
2023-01-28 10:48:58.722177,-0.041910217013058845
2023-01-28 10:48:58.727177,-0.04810512065887446
2023-01-28 10:48:58.732177,-0.05362498281792039
2023-01-28 10:48:58.737177,-0.05786558240652079
2023-01-28 10:48:58.742177,-0.06055913714499822
2023-01-28 10:48:58.747177,-0.06159186363220205
2023-01-28 10:48:58.752177,-0.060820600010738794
2023-01-28 10:48:58.757177,-0.0584906339645385
2023-01-28 10:48:58.762177,-0.05538238620960633
2023-01-28 10:48:58.767177,-0.05214393138885485
2023-01-28 10:48:58.772177,-0.048815090031503326
2023-01-28 10:48:58.777177,-0.04524429887533179
2023-01-28 10:48:58.782177,-0.0415117128521827
2023-01-28 10:48:58.787177,-0.0376474857330322
2023-01-28 10:48:58.792177,-0.033406171371639384
2023-01-28 10:48:58.797177,-0.02870440483093257
2023-01-28 10:48:58.802177,-0.02395379718989852
2023-01-28 10:48:58.807177,-0.019689202308654764
2023-01-28 10:48:58.812177,-0.01620304268898682
2023-01-28 10:48:58.817177,-0.013727148994803392
2023-01-28 10:48:58.822177,-0.012495303858352623
2023-01-28 10:48:58.827177,-0.012284716591238904
2023-01-28 10:48:58.832177,-0.01225074336138522
2023-01-28 10:48:58.837177,-0.011539459228515599
2023-01-28 10:48:58.842177,-0.00983427402872727
2023-01-28 10:48:58.847177,-0.007188121788203656
2023-01-28 10:48:58.852177,-0.0037550334010344718
2023-01-28 10:48:58.857177,7.212162017818239e-05
2023-01-28 10:48:58.862177,0.0036838375708622604
2023-01-28 10:48:58.867177,0.006755392067134283
2023-01-28 10:48:58.872177,0.009461891383092403
2023-01-28 10:48:58.877177,0.011972188949584869
2023-01-28 10:48:58.882177,0.014003637690598258
2023-01-28 10:48:58.887177,0.015025338158011374
2023-01-28 10:48:58.892177,0.014540844098250157
2023-01-28 10:48:58.897177,0.011996230110525932
2023-01-28 10:48:58.902177,0.006851436149960098
2023-01-28 10:48:58.907177,-0.000889500021003073
2023-01-28 10:48:58.912177,-0.010420563184300307
2023-01-28 10:48:58.917177,-0.020602744072675705
2023-01-28 10:48:58.922177,-0.030494599167986792
2023-01-28 10:48:58.927177,-0.03940244764089583
2023-01-28 10:48:58.932177,-0.04687664926782418
2023-01-28 10:48:58.937177,-0.052913229912519365
2023-01-28 10:48:58.942177,-0.05775779851444716
2023-01-28 10:48:58.947177,-0.061087012290954465
2023-01-28 10:48:58.952177,-0.06145001123693895
2023-01-28 10:48:58.957177,-0.05666355416178698
2023-01-28 10:48:58.962177,-0.044751624843909
2023-01-28 10:48:58.967177,-0.024930041283368946
2023-01-28 10:48:58.972177,0.0012619878023193772
2023-01-28 10:48:58.977177,0.02899289131164552
2023-01-28 10:48:58.982177,0.050485381183740984
2023-01-28 10:48:58.987177,0.057216487824916784
2023-01-28 10:48:58.992177,0.042971536515410885
2023-01-28 10:48:58.997177,0.00637074327096338
2023-01-28 10:48:59.002177,-0.04783330867233273
2023-01-28 10:48:59.007177,-0.10921617597341524
2023-01-28 10:48:59.012177,-0.1644241181247058
2023-01-28 10:48:59.017177,-0.20153185725212075
2023-01-28 10:48:59.022177,-0.21389717107675438
2023-01-28 10:48:59.027177,-0.2017241716384886
2023-01-28 10:48:59.032177,-0.17119864911118413
2023-01-28 10:48:59.037177,-0.13195852935314167
2023-01-28 10:48:59.042177,-0.09368999401909511
2023-01-28 10:48:59.047177,-0.06303429603576655
2023-01-28 10:48:59.052177,-0.042277222692493746
2023-01-28 10:48:59.057177,-0.030194919556379308
2023-01-28 10:48:59.062177,-0.0238792057979621
2023-01-28 10:48:59.067177,-0.020290216431021586
2023-01-28 10:48:59.072177,-0.017270754524995737
2023-01-28 10:48:59.077177,-0.014039675705134773
2023-01-28 10:48:59.082177,-0.010916806507874152
2023-01-28 10:48:59.087177,-0.00848631095141168
2023-01-28 10:48:59.092177,-0.007033847663493787
2023-01-28 10:48:59.097177,-0.006587108131497985
2023-01-28 10:48:59.102177,-0.007014760439527597
2023-01-28 10:48:59.107177,-0.007909337989985924
2023-01-28 10:48:59.112177,-0.008686353624675935
2023-01-28 10:48:59.117177,-0.008967122063040667
2023-01-28 10:48:59.122177,-0.008635060441708257
2023-01-28 10:48:59.127177,-0.007476608268916602
2023-01-28 10:48:59.132177,-0.005136989206641422
2023-01-28 10:48:59.137177,-0.0015626351814717622
2023-01-28 10:48:59.142177,0.002886352331379333
2023-01-28 10:48:59.147177,0.007981459610164094
2023-01-28 10:48:59.152177,0.01401941715697587
2023-01-28 10:48:59.157177,0.021540325134992534
2023-01-28 10:48:59.162177,0.030958448808155296
2023-01-28 10:48:59.167177,0.04257579892873759
2023-01-28 10:48:59.172177,0.05651719943114171
2023-01-28 10:48:59.177177,0.07231394946575156
2023-01-28 10:48:59.182177,0.08877306563616409
2023-01-28 10:48:59.187177,0.10450422763824457
2023-01-28 10:48:59.192177,0.11843472197245214
2023-01-28 10:48:59.197177,0.12977084517478932
2023-01-28 10:48:59.202177,0.1378738091522847
2023-01-28 10:48:59.207177,0.14248828589916215
2023-01-28 10:48:59.212177,0.1438713319765181
2023-01-28 10:48:59.217177,0.14244019985198964
2023-01-28 10:48:59.222177,0.13843803980630587
2023-01-28 10:48:59.227177,0.13205468654632557
2023-01-28 10:48:59.232177,0.12357931313149983
2023-01-28 10:48:59.237177,0.11320690810680376
2023-01-28 10:48:59.242177,0.10093278159884918
2023-01-28 10:48:59.247177,0.08688251674175254
2023-01-28 10:48:59.252177,0.07158124043971632
2023-01-28 10:48:59.257177,0.055725973099470145
2023-01-28 10:48:59.262177,0.03988188340701747
2023-01-28 10:48:59.267177,0.024545392021536782
2023-01-28 10:48:59.272177,0.01025312887175006
2023-01-28 10:48:59.277177,-0.002596378326415987
2023-01-28 10:48:59.282177,-0.01386057708516075
2023-01-28 10:48:59.287177,-0.02343952655792229
2023-01-28 10:48:59.292177,-0.03115875640650296
2023-01-28 10:48:59.297177,-0.037046473473310366
2023-01-28 10:48:59.302177,-0.04153161270417881
2023-01-28 10:48:59.307177,-0.04517217725515358
2023-01-28 10:48:59.312177,-0.04831124093854663
2023-01-28 10:48:59.317177,-0.05106210708618157
2023-01-28 10:48:59.322177,-0.053347318647624584
2023-01-28 10:48:59.327177,-0.05476435273885719
2023-01-28 10:48:59.332177,-0.054671055712661835
2023-01-28 10:48:59.337177,-0.05269686505198468
2023-01-28 10:48:59.342177,-0.049122786463348604
2023-01-28 10:48:59.347177,-0.04469136521220198
2023-01-28 10:48:59.352177,-0.04021934954448907
2023-01-28 10:48:59.357177,-0.036421418190002386
2023-01-28 10:48:59.362177,-0.03372943524294085
2023-01-28 10:48:59.367177,-0.03197392076253894
2023-01-28 10:48:59.372177,-0.0303939240535471
2023-01-28 10:48:59.377177,-0.028199553489684993
2023-01-28 10:48:59.382177,-0.025100137855589726
2023-01-28 10:48:59.387177,-0.021299919113516808
2023-01-28 10:48:59.392177,-0.017261042394308784
2023-01-28 10:48:59.397177,-0.013582905754446893
2023-01-28 10:48:59.402177,-0.010772782183536748
2023-01-28 10:48:59.407177,-0.0088228788226842
2023-01-28 10:48:59.412177,-0.007125167455894065
2023-01-28 10:48:59.417177,-0.004976391792297299
2023-01-28 10:48:59.422177,-0.0020724434426587497
2023-01-28 10:48:59.427177,0.0015145540237426023
2023-01-28 10:48:59.432177,0.0055477368000065915
2023-01-28 10:48:59.437177,0.009640256874263195
2023-01-28 10:48:59.442177,0.013309378661741651
2023-01-28 10:48:59.447177,0.016227364540099994
2023-01-28 10:48:59.452177,0.018240860040592687
2023-01-28 10:48:59.457177,0.01899202726781354
2023-01-28 10:48:59.462177,0.017750936545314382
2023-01-28 10:48:59.467177,0.013847351074218655
2023-01-28 10:48:59.472177,0.007163500936722281
2023-01-28 10:48:59.477177,-0.0018511216621845106
2023-01-28 10:48:59.482177,-0.012376165375132786
2023-01-28 10:48:59.487177,-0.02329528331756589
2023-01-28 10:48:59.492177,-0.033420990851827856
2023-01-28 10:48:59.497177,-0.04199882596731173
2023-01-28 10:48:59.502177,-0.04892299691552256
2023-01-28 10:48:59.507177,-0.05430757999420156
2023-01-28 10:48:59.512177,-0.057937996713648895
2023-01-28 10:48:59.517177,-0.0591156892478466
2023-01-28 10:48:59.522177,-0.056674118096116735
2023-01-28 10:48:59.527177,-0.049018662422895376
2023-01-28 10:48:59.532177,-0.034719118353252816
2023-01-28 10:48:59.537177,-0.013871392235159779
2023-01-28 10:48:59.542177,0.010643691618730656
2023-01-28 10:48:59.547177,0.03300766274332995
2023-01-28 10:48:59.552177,0.0455479705609356
2023-01-28 10:48:59.557177,0.04079679772257793
2023-01-28 10:48:59.562177,0.014331018110931874
2023-01-28 10:48:59.567177,-0.03250281140208242
2023-01-28 10:48:59.572177,-0.09174747300610217
2023-01-28 10:48:59.577177,-0.15087842941284166
2023-01-28 10:48:59.582177,-0.19676598637477846
2023-01-28 10:48:59.587177,-0.21970650553703297
2023-01-28 10:48:59.592177,-0.21625183065973638
2023-01-28 10:48:59.597177,-0.19004046916961653
2023-01-28 10:48:59.602177,-0.15005582437343704
2023-01-28 10:48:59.607177,-0.1069082841277122
2023-01-28 10:48:59.612177,-0.06918945539427325
2023-01-28 10:48:59.617177,-0.04163821786642068
2023-01-28 10:48:59.622177,-0.02511373130719778
2023-01-28 10:48:59.627177,-0.01754959486424918
2023-01-28 10:48:59.632177,-0.015517416474780115
2023-01-28 10:48:59.637177,-0.015986960381269382
2023-01-28 10:48:59.642177,-0.017264476493604883
2023-01-28 10:48:59.647177,-0.018631419166922483
2023-01-28 10:48:59.652177,-0.019595171810512207
2023-01-28 10:48:59.657177,-0.01971324346959592
2023-01-28 10:48:59.662177,-0.018706437551311902
2023-01-28 10:48:59.667177,-0.016323527321219406
2023-01-28 10:48:59.672177,-0.01234514889464691
2023-01-28 10:48:59.677177,-0.007067918777465811
2023-01-28 10:48:59.682177,-0.0015146822741709135
2023-01-28 10:48:59.687177,0.0032454729080200004
2023-01-28 10:48:59.692177,0.006871104712463079
2023-01-28 10:48:59.697177,0.009688338264822875
2023-01-28 10:48:59.702177,0.012269624394887046
2023-01-28 10:48:59.707177,0.015409986488521014
2023-01-28 10:48:59.712177,0.020027777721081722
2023-01-28 10:48:59.717177,0.02644459530711173
2023-01-28 10:48:59.722177,0.033957647251311514
2023-01-28 10:48:59.727177,0.04163821786642064
2023-01-28 10:48:59.732177,0.04937598170854534
2023-01-28 10:48:59.737177,0.05774537846446025
2023-01-28 10:48:59.742177,0.06725963365662307
2023-01-28 10:48:59.747177,0.0783721655607223
2023-01-28 10:48:59.752177,0.09170235391300609
2023-01-28 10:48:59.757177,0.10714869201183308
2023-01-28 10:48:59.762177,0.1227825813391693
2023-01-28 10:48:59.767177,0.13566076755523676
2023-01-28 10:48:59.772177,0.144059189267179
2023-01-28 10:48:59.777177,0.1482099294662475
2023-01-28 10:48:59.782177,0.14874872784061546
2023-01-28 10:48:59.787177,0.1454933583736419
2023-01-28 10:48:59.792177,0.13831576810664778
2023-01-28 10:48:59.797177,0.1283284127712249
2023-01-28 10:48:59.802177,0.11725425276190823
2023-01-28 10:48:59.807177,0.10592262446880343
2023-01-28 10:48:59.812177,0.09405491113374082
2023-01-28 10:48:59.817177,0.08125703036785129
2023-01-28 10:48:59.822177,0.06752646091803981
2023-01-28 10:48:59.827177,0.05291322991251941
2023-01-28 10:48:59.832177,0.03741351288697571
2023-01-28 10:48:59.837177,0.021396081894636116
2023-01-28 10:48:59.842177,0.0057346719954945325
2023-01-28 10:48:59.847177,-0.008630554191768084
2023-01-28 10:48:59.852177,-0.02103553567767848
2023-01-28 10:48:59.857177,-0.031036337837576818
2023-01-28 10:48:59.862177,-0.0384015535883773
2023-01-28 10:48:59.867177,-0.043321054428815786
2023-01-28 10:48:59.872177,-0.04640133319611891
2023-01-28 10:48:59.877177,-0.04829744622111319
2023-01-28 10:48:59.882177,-0.04941703602341908
2023-01-28 10:48:59.887177,-0.049956243485212284
2023-01-28 10:48:59.892177,-0.050000357937874426
2023-01-28 10:48:59.897177,-0.049475431442260714
2023-01-28 10:48:59.902177,-0.048124151832926024
2023-01-28 10:48:59.907177,-0.0456529855728149
2023-01-28 10:48:59.912177,-0.041910750024915226
2023-01-28 10:48:59.917177,-0.03697435185313217
2023-01-28 10:48:59.922177,-0.031203906929922646
2023-01-28 10:48:59.927177,-0.025266608223319026
2023-01-28 10:48:59.932177,-0.019982740535853
2023-01-28 10:48:59.937177,-0.015986960381269455
2023-01-28 10:48:59.942177,-0.013446366374102273
2023-01-28 10:48:59.947177,-0.012044310569763088
2023-01-28 10:48:59.952177,-0.0111963407611635
2023-01-28 10:48:59.957177,-0.010337432846426924
2023-01-28 10:48:59.962177,-0.009150242755168618
2023-01-28 10:48:59.967177,-0.007644891738891648
2023-01-28 10:48:59.972177,-0.006050547560629226
2023-01-28 10:48:59.977177,-0.0045917434617877145
2023-01-28 10:48:59.982177,-0.0033069411434100715
2023-01-28 10:48:59.987177,-0.002019405364990218
2023-01-28 10:48:59.992177,-0.0004453352643485478
2023-01-28 10:48:59.997177,0.001658797264099102
2023-01-28 10:49:00.002177,0.00439961202704463
2023-01-28 10:49:00.007177,0.007717013359069815
2023-01-28 10:49:00.012177,0.01137316032969441
2023-01-28 10:49:00.017177,0.014929175376892033
2023-01-28 10:49:00.022177,0.017741457048799703
2023-01-28 10:49:00.027177,0.019016068428754796
2023-01-28 10:49:00.032177,0.017919527916783626
2023-01-28 10:49:00.037177,0.013751189224421855
2023-01-28 10:49:00.042177,0.0061979707229288675
2023-01-28 10:49:00.047177,-0.004399418830871497
2023-01-28 10:49:00.052177,-0.016956311863474034
2023-01-28 10:49:00.057177,-0.02985835075378403
2023-01-28 10:49:00.062177,-0.041411014172373126
2023-01-28 10:49:00.067177,-0.050340890884399365
2023-01-28 10:49:00.072177,-0.05615756949989683
2023-01-28 10:49:00.077177,-0.05916377156972878
2023-01-28 10:49:00.082177,-0.05997058164624884
2023-01-28 10:49:00.087177,-0.058706998825073214
2023-01-28 10:49:00.092177,-0.054477343489384274
2023-01-28 10:49:00.097177,-0.0455808639526366
2023-01-28 10:49:00.102177,-0.030568855573289377
2023-01-28 10:49:00.107177,-0.009760459885001068
2023-01-28 10:49:00.112177,0.013464829799285193
2023-01-28 10:49:00.117177,0.0324547290802001
2023-01-28 10:49:00.122177,0.03879567164295839
2023-01-28 10:49:00.127177,0.02533872984349721
2023-01-28 10:49:00.132177,-0.010501505205500004
2023-01-28 10:49:00.137177,-0.06476521492004392
2023-01-28 10:49:00.142177,-0.127313748057241
2023-01-28 10:49:00.147177,-0.18460731208324427
2023-01-28 10:49:00.152177,-0.2239933134211729
2023-01-28 10:49:00.157177,-0.23783306777477248
2023-01-28 10:49:00.162177,-0.22567569215432726
2023-01-28 10:49:00.167177,-0.19362251460552207
2023-01-28 10:49:00.172177,-0.15148958037780486
2023-01-28 10:49:00.177177,-0.10926425457000728
2023-01-28 10:49:00.182177,-0.07425964907899886
2023-01-28 10:49:00.187177,-0.049787960946559906
2023-01-28 10:49:00.192177,-0.0355075123218965
2023-01-28 10:49:00.197177,-0.028896730393171286
2023-01-28 10:49:00.202177,-0.02687341359504491
2023-01-28 10:49:00.207177,-0.02682924270629878
2023-01-28 10:49:00.212177,-0.027011108079239773
2023-01-28 10:49:00.217177,-0.026516716927289904
2023-01-28 10:49:00.222177,-0.025072214397061757
2023-01-28 10:49:00.227177,-0.0227183103561401
2023-01-28 10:49:00.232177,-0.019622259895448635
2023-01-28 10:49:00.237177,-0.01608312129974359
2023-01-28 10:49:00.242177,-0.012513407479147379
2023-01-28 10:49:00.247177,-0.009255608543753586
2023-01-28 10:49:00.252177,-0.006416304514211499
2023-01-28 10:49:00.257177,-0.003894567489624014
2023-01-28 10:49:00.262177,-0.0014879082632404846
2023-01-28 10:49:00.267177,0.0010577838402240994
2023-01-28 10:49:00.272177,0.003961757072017908
2023-01-28 10:49:00.277177,0.007260243408381905
2023-01-28 10:49:00.282177,0.01083436456002032
2023-01-28 10:49:00.287177,0.014712810516357411
2023-01-28 10:49:00.292177,0.019330107870422688
2023-01-28 10:49:00.297177,0.025434892624616578
2023-01-28 10:49:00.302177,0.03376548910923932
2023-01-28 10:49:00.307177,0.044739447534084244
2023-01-28 10:49:00.312177,0.058186491100330535
2023-01-28 10:49:00.317177,0.0731794089078903
2023-01-28 10:49:00.322177,0.08822645554860228
2023-01-28 10:49:00.327177,0.10185977071523655
2023-01-28 10:49:00.332177,0.11315942950525305
2023-01-28 10:49:00.337177,0.12181341648101798
2023-01-28 10:49:00.342177,0.12786964113283145
2023-01-28 10:49:00.347177,0.1315017640590667
2023-01-28 10:49:00.352177,0.13279489579649892
2023-01-28 10:49:00.357177,0.13152579963207237
2023-01-28 10:49:00.362177,0.1271974588814518
2023-01-28 10:49:00.367177,0.11943340301513668
2023-01-28 10:49:00.372177,0.10832307405841908
2023-01-28 10:49:00.377177,0.09435912221670151
2023-01-28 10:49:00.382177,0.07820336133963372
2023-01-28 10:49:00.387177,0.0606302432715892
2023-01-28 10:49:00.392177,0.04251016086273319
2023-01-28 10:49:00.397177,0.02461751364171495
2023-01-28 10:49:00.402177,0.00751837739767695
2023-01-28 10:49:00.407177,-0.008221864700317305
2023-01-28 10:49:00.412177,-0.021885869764425688
2023-01-28 10:49:00.417177,-0.03291150182485577
2023-01-28 10:49:00.422177,-0.04128712771002226
2023-01-28 10:49:00.427177,-0.047431986778974464
2023-01-28 10:49:00.432177,-0.05175881199234292
2023-01-28 10:49:00.437177,-0.05457202717661851
2023-01-28 10:49:00.442177,-0.056275130271207785
2023-01-28 10:49:00.447177,-0.05728860944509496
2023-01-28 10:49:00.452177,-0.05764752625567734
2023-01-28 10:49:00.457177,-0.05692800134420388
2023-01-28 10:49:00.462177,-0.05472935675069383
2023-01-28 10:49:00.467177,-0.05113422870635981
2023-01-28 10:49:00.472177,-0.04667459219552033
2023-01-28 10:49:00.477177,-0.042022865265607744
2023-01-28 10:49:00.482177,-0.03776998926535359
2023-01-28 10:49:00.487177,-0.03428181260824197
2023-01-28 10:49:00.492177,-0.03155609730438553
2023-01-28 10:49:00.497177,-0.029233297333121175
2023-01-28 10:49:00.502177,-0.026850913349866782
2023-01-28 10:49:00.507177,-0.024136703461408622
2023-01-28 10:49:00.512177,-0.021121929844336734
2023-01-28 10:49:00.517177,-0.018078487366437884
2023-01-28 10:49:00.522177,-0.01535711141050706
2023-01-28 10:49:00.527177,-0.013174216262996126
2023-01-28 10:49:00.532177,-0.011474160282390192
2023-01-28 10:49:00.537177,-0.010000864975154324
2023-01-28 10:49:00.542177,-0.008491769680617475
2023-01-28 10:49:00.547177,-0.006779432296752882
2023-01-28 10:49:00.552177,-0.004772724257455792
2023-01-28 10:49:00.557177,-0.0024521350860595135
2023-01-28 10:49:00.562177,0.00010106952677205072
2023-01-28 10:49:00.567177,0.002716581104323211
2023-01-28 10:49:00.572177,0.005139048150603562
2023-01-28 10:49:00.577177,0.006947716232389183
2023-01-28 10:49:00.582177,0.0075165416240318824
2023-01-28 10:49:00.587177,0.006178419105708476
2023-01-28 10:49:00.592177,0.0024924829863328265
2023-01-28 10:49:00.597177,-0.00360608100891109
2023-01-28 10:49:00.602177,-0.011781542718022755
2023-01-28 10:49:00.607177,-0.021299919113516797
2023-01-28 10:49:00.612177,-0.03114244383787349
2023-01-28 10:49:00.617177,-0.04034002870321268
2023-01-28 10:49:00.622177,-0.048338590280122044
2023-01-28 10:49:00.627177,-0.055076878517866114
2023-01-28 10:49:00.632177,-0.06073269996876679
2023-01-28 10:49:00.637177,-0.06531815230846401
2023-01-28 10:49:00.642177,-0.06824709320377476
2023-01-28 10:49:00.647177,-0.0680347308516502
2023-01-28 10:49:00.652177,-0.06251020466468243
2023-01-28 10:49:00.657177,-0.049812000244855756
2023-01-28 10:49:00.662177,-0.029855864255953993
2023-01-28 10:49:00.667177,-0.005529324524104505
2023-01-28 10:49:00.672177,0.01705321377230356
2023-01-28 10:49:00.677177,0.029617946594953485
2023-01-28 10:49:00.682177,0.02416626503126769
2023-01-28 10:49:00.687177,-0.0038464865647255663
2023-01-28 10:49:00.692177,-0.05297137686232103
2023-01-28 10:49:00.697177,-0.1152503490447998
2023-01-28 10:49:00.702177,-0.17813985160033097
2023-01-28 10:49:00.707177,-0.2281687706708908
2023-01-28 10:49:00.712177,-0.25502592954399894
2023-01-28 10:49:00.717177,-0.25461336970329274
2023-01-28 10:49:00.722177,-0.2298577872175275
2023-01-28 10:49:00.727177,-0.1890067309141159
2023-01-28 10:49:00.732177,-0.1423842426214008
2023-01-28 10:49:00.737177,-0.09914319217205037
2023-01-28 10:49:00.742177,-0.06512023902227788
2023-01-28 10:49:00.747177,-0.04219114780426017
2023-01-28 10:49:00.752177,-0.02903945367396277
2023-01-28 10:49:00.757177,-0.022790431976318273
2023-01-28 10:49:00.762177,-0.020581992091476913
2023-01-28 10:49:00.767177,-0.020362338051199923
2023-01-28 10:49:00.772177,-0.02092582500539976
2023-01-28 10:49:00.777177,-0.0216124467551708
2023-01-28 10:49:00.782177,-0.02195404280936265
2023-01-28 10:49:00.787177,-0.02142012119293208
2023-01-28 10:49:00.792177,-0.019473800379111315
2023-01-28 10:49:00.797177,-0.015938878059387172
2023-01-28 10:49:00.802177,-0.01126893297206701
2023-01-28 10:49:00.807177,-0.00637074327096343
2023-01-28 10:49:00.812177,-0.002152426017185107
2023-01-28 10:49:00.817177,0.000841418921481761
2023-01-28 10:49:00.822177,0.0026283779660923397
2023-01-28 10:49:00.827177,0.0038464865647256136
2023-01-28 10:49:00.832177,0.005532001177465995
2023-01-28 10:49:00.837177,0.008630554191768131
2023-01-28 10:49:00.842177,0.013645068797734083
2023-01-28 10:49:00.847177,0.020698904991149892
2023-01-28 10:49:00.852177,0.029747052812298662
2023-01-28 10:49:00.857177,0.04060447216033925
2023-01-28 10:49:00.862177,0.052911565657670044
2023-01-28 10:49:00.867177,0.06623169034719459
2023-01-28 10:49:00.872177,0.08010107637015904
2023-01-28 10:49:00.877177,0.09387831389904014
2023-01-28 10:49:00.882177,0.1066824294982653
2023-01-28 10:49:00.887177,0.11765440553426734
2023-01-28 10:49:00.892177,0.12623452604761162
2023-01-28 10:49:00.897177,0.1321268081665039
2023-01-28 10:49:00.902177,0.13516946160769494
2023-01-28 10:49:00.907177,0.13539633154869074
2023-01-28 10:49:00.912177,0.1330646415228878
2023-01-28 10:49:00.917177,0.12840053439140303
2023-01-28 10:49:00.922177,0.12137495003196057
2023-01-28 10:49:00.927177,0.11186063289642323
2023-01-28 10:49:00.932177,0.09990964945969834
2023-01-28 10:49:00.937177,0.08577664941549298
2023-01-28 10:49:00.942177,0.0698666203655839
2023-01-28 10:49:00.947177,0.052865147590637186
2023-01-28 10:49:00.952177,0.0357631610604816
2023-01-28 10:49:00.957177,0.01949687860906123
2023-01-28 10:49:00.962177,0.004598759436077557
2023-01-28 10:49:00.967177,-0.008702675811946297
2023-01-28 10:49:00.972177,-0.020241826449885734
2023-01-28 10:49:00.977177,-0.02997855469584463
2023-01-28 10:49:00.982177,-0.03810137861718266
2023-01-28 10:49:00.987177,-0.04478752613067615
2023-01-28 10:49:00.992177,-0.04996808316915108
2023-01-28 10:49:00.997177,-0.05353828519582739
2023-01-28 10:49:01.002177,-0.05562843121507958
2023-01-28 10:49:01.007177,-0.056423150002956245
2023-01-28 10:49:01.012177,-0.055911687890337874
2023-01-28 10:49:01.017177,-0.05411525815725317
2023-01-28 10:49:01.022177,-0.05136178429807875
2023-01-28 10:49:01.027177,-0.04798492044210426
2023-01-28 10:49:01.032177,-0.043942074146664525
2023-01-28 10:49:01.037177,-0.039138000458478844
2023-01-28 10:49:01.042177,-0.033954992544488895
2023-01-28 10:49:01.047177,-0.028992891311645494
2023-01-28 10:49:01.052177,-0.024427669408102908
2023-01-28 10:49:01.057177,-0.020170014351606334
2023-01-28 10:49:01.062177,-0.01652642750004563
2023-01-28 10:49:01.067177,-0.013943513855338045
2023-01-28 10:49:01.072177,-0.011946210733498844
2023-01-28 10:49:01.077177,-0.009087324142456017
2023-01-28 10:49:01.082177,-0.004436546808968586
2023-01-28 10:49:01.087177,0.0012981891632079569
2023-01-28 10:49:01.092177,0.006534225897572149
2023-01-28 10:49:01.097177,0.010337432846426882
2023-01-28 10:49:01.102177,0.012777818418523356
2023-01-28 10:49:01.107177,0.01413583755493163
2023-01-28 10:49:01.112177,0.014394285505918418
2023-01-28 10:49:01.117177,0.013510784134268703
2023-01-28 10:49:01.122177,0.011680472313024486
2023-01-28 10:49:01.127177,0.009087324142455989
2023-01-28 10:49:01.132177,0.005563618253004382
2023-01-28 10:49:01.137177,0.0006250540609470932
2023-01-28 10:49:01.142177,-0.0061892209824452975
2023-01-28 10:49:01.147177,-0.014953216537833216
2023-01-28 10:49:01.152177,-0.025155754230197946
2023-01-28 10:49:01.157177,-0.03579636663198467
2023-01-28 10:49:01.162177,-0.04576262325344137
2023-01-28 10:49:01.167177,-0.054235458374023396
2023-01-28 10:49:01.172177,-0.06085891331324477
2023-01-28 10:49:01.177177,-0.06563067436218258
2023-01-28 10:49:01.182177,-0.06857587577110766
2023-01-28 10:49:01.187177,-0.0692848414182662
2023-01-28 10:49:01.192177,-0.0665839178815027
2023-01-28 10:49:01.197177,-0.058755081146955435
2023-01-28 10:49:01.202177,-0.044446975906687676
2023-01-28 10:49:01.207177,-0.023944377899169922
2023-01-28 10:49:01.212177,-0.00024121019483198342
2023-01-28 10:49:01.217177,0.020650824531912842
2023-01-28 10:49:01.222177,0.030695657694087965
2023-01-28 10:49:01.227177,0.022285580635070766
2023-01-28 10:49:01.232177,-0.008575799915394984
2023-01-28 10:49:01.237177,-0.059812866151332786
2023-01-28 10:49:01.242177,-0.12283392138753343
2023-01-28 10:49:01.247177,-0.18453519046306605
2023-01-28 10:49:01.252177,-0.23120702484713002
2023-01-28 10:49:01.257177,-0.2529545724391936
2023-01-28 10:49:01.262177,-0.24679911896723675
2023-01-28 10:49:01.267177,-0.2171101272106169
2023-01-28 10:49:01.272177,-0.17338343045421675
2023-01-28 10:49:01.277177,-0.12662152945995322
2023-01-28 10:49:01.282177,-0.08588184677845476
2023-01-28 10:49:01.287177,-0.05615870282053937
2023-01-28 10:49:01.292177,-0.03812265084014774
2023-01-28 10:49:01.297177,-0.029425621032714806
2023-01-28 10:49:01.302177,-0.026566131114575
2023-01-28 10:49:01.307177,-0.02632439136505121
2023-01-28 10:49:01.312177,-0.026470446196216867
2023-01-28 10:49:01.317177,-0.025939743965864057
2023-01-28 10:49:01.322177,-0.024612642586231543
2023-01-28 10:49:01.327177,-0.02281447313725935
2023-01-28 10:49:01.332177,-0.020883015581127682
2023-01-28 10:49:01.337177,-0.019064148887991867
2023-01-28 10:49:01.342177,-0.01754336114831991
2023-01-28 10:49:01.347177,-0.016347568482160475
2023-01-28 10:49:01.352177,-0.01525764703274432
2023-01-28 10:49:01.357177,-0.013943513855337908
2023-01-28 10:49:01.362177,-0.012128952834786938
2023-01-28 10:49:01.367177,-0.009544095024466515
2023-01-28 10:49:01.372177,-0.005862172076425035
2023-01-28 10:49:01.377177,-0.0008654594421386055
2023-01-28 10:49:01.382177,0.005388535273297321
2023-01-28 10:49:01.387177,0.012693405151367064
2023-01-28 10:49:01.392177,0.020910262886940655
2023-01-28 10:49:01.397177,0.029978554695844612
2023-01-28 10:49:01.402177,0.03988323675690367
2023-01-28 10:49:01.407177,0.05077362060546871
2023-01-28 10:49:01.412177,0.06294513694966072
2023-01-28 10:49:01.417177,0.07644891738891597
2023-01-28 10:49:01.422177,0.09073806905070819
2023-01-28 10:49:01.427177,0.10479271411895748
2023-01-28 10:49:01.432177,0.11746588849668262
2023-01-28 10:49:01.437177,0.12763123214244837
2023-01-28 10:49:01.442177,0.13429744096848248
2023-01-28 10:49:01.447177,0.13693492114543906
2023-01-28 10:49:01.452177,0.1356614869781103
2023-01-28 10:49:01.457177,0.13094882667064658
2023-01-28 10:49:01.462177,0.12326509363963047
2023-01-28 10:49:01.467177,0.11313478648662562
2023-01-28 10:49:01.472177,0.10129967705395794
2023-01-28 10:49:01.477177,0.08851727098226539
2023-01-28 10:49:01.482177,0.07528974573261221
2023-01-28 10:49:01.487177,0.061952471733093185
2023-01-28 10:49:01.492177,0.048805267333527975
2023-01-28 10:49:01.497177,0.03589252755045889
2023-01-28 10:49:01.502177,0.02285203114919461
2023-01-28 10:49:01.507177,0.009303689002990698
2023-01-28 10:49:01.512177,-0.004684206592352785
2023-01-28 10:49:01.517177,-0.018655460327863617
2023-01-28 10:49:01.522177,-0.032018137170951644
2023-01-28 10:49:01.527177,-0.04397014901041982
2023-01-28 10:49:01.532177,-0.053476052912347624
2023-01-28 10:49:01.537177,-0.05976478382945061
2023-01-28 10:49:01.542177,-0.06280571331468494
2023-01-28 10:49:01.547177,-0.06310641765594477
2023-01-28 10:49:01.552177,-0.061284716624663074
2023-01-28 10:49:01.557177,-0.05808194726705551
2023-01-28 10:49:01.562177,-0.05442491637675671
2023-01-28 10:49:01.567177,-0.050989985466003376
2023-01-28 10:49:01.572177,-0.04783431952995922
2023-01-28 10:49:01.577177,-0.044739447534084244
2023-01-28 10:49:01.582177,-0.04163795751538556
2023-01-28 10:49:01.587177,-0.03836870193481437
2023-01-28 10:49:01.592177,-0.03438996469589863
2023-01-28 10:49:01.597177,-0.029257338494062427
2023-01-28 10:49:01.602177,-0.023188058240394296
2023-01-28 10:49:01.607177,-0.01678029820322992
2023-01-28 10:49:01.612177,-0.010495083496408888
2023-01-28 10:49:01.617177,-0.004808108322322336
2023-01-28 10:49:01.622177,-0.0003896224005992105
2023-01-28 10:49:01.627177,0.002524256706237691
2023-01-28 10:49:01.632177,0.004648415606789371
2023-01-28 10:49:01.637177,0.0069477162323892065
2023-01-28 10:49:01.642177,0.00968560859503556
2023-01-28 10:49:01.647177,0.012621283531188876
2023-01-28 10:49:01.652177,0.015604924524218423
2023-01-28 10:49:01.657177,0.018246769905090273
2023-01-28 10:49:01.662177,0.01948284274843462
2023-01-28 10:49:01.667177,0.018342932686209575
2023-01-28 10:49:01.672177,0.014819976466069269
2023-01-28 10:49:01.677177,0.009255608543753594
2023-01-28 10:49:01.682177,0.0014594543305301215
2023-01-28 10:49:01.687177,-0.008558432571589942
2023-01-28 10:49:01.692177,-0.019551706863557276
2023-01-28 10:49:01.697177,-0.029930472373962392
2023-01-28 10:49:01.702177,-0.03921535371878534
2023-01-28 10:49:01.707177,-0.0474079474806785
2023-01-28 10:49:01.712177,-0.05365315920385233
2023-01-28 10:49:01.717177,-0.05721648782491681
2023-01-28 10:49:01.722177,-0.059122167184860054
2023-01-28 10:49:01.727177,-0.06053408235311504
2023-01-28 10:49:01.732177,-0.0596849338399535
2023-01-28 10:49:01.737177,-0.05300939083099361
2023-01-28 10:49:01.742177,-0.03975197011932126
2023-01-28 10:49:01.747177,-0.022886594757437696
2023-01-28 10:49:01.752177,-0.004887362499145051
2023-01-28 10:49:01.757177,0.014039675705134778
2023-01-28 10:49:01.762177,0.03136030560900018
2023-01-28 10:49:01.767177,0.03863314911723135
2023-01-28 10:49:01.772177,0.026169906797386552
2023-01-28 10:49:01.777177,-0.008846919052302766
2023-01-28 10:49:01.782177,-0.06025758508175162
2023-01-28 10:49:01.787177,-0.11722167581319798
2023-01-28 10:49:01.792177,-0.1681610845231994
2023-01-28 10:49:01.797177,-0.20227710902690868
2023-01-28 10:49:01.802177,-0.2121661714419844
2023-01-28 10:49:01.807177,-0.19756516814231864
2023-01-28 10:49:01.812177,-0.16559135920049498
2023-01-28 10:49:01.817177,-0.12640516459941856
2023-01-28 10:49:01.822177,-0.08884477201095815
2023-01-28 10:49:01.827177,-0.05897144600749008
2023-01-28 10:49:01.832177,-0.039720508715712054
2023-01-28 10:49:01.837177,-0.030315121635794577
2023-01-28 10:49:01.842177,-0.027131000131943087
2023-01-28 10:49:01.847177,-0.026420554146170557
2023-01-28 10:49:01.852177,-0.02615213367564402
2023-01-28 10:49:01.857177,-0.0254829730838537
2023-01-28 10:49:01.862177,-0.023850739961473254
2023-01-28 10:49:01.867177,-0.021227797493338526
2023-01-28 10:49:01.872177,-0.01827598892500321
2023-01-28 10:49:01.877177,-0.015482108108699273
2023-01-28 10:49:01.882177,-0.012678371398537138
2023-01-28 10:49:01.887177,-0.009784500114619713
2023-01-28 10:49:01.892177,-0.007298221403345735
2023-01-28 10:49:01.897177,-0.005577405449002877
2023-01-28 10:49:01.902177,-0.004240900601728374
2023-01-28 10:49:01.907177,-0.002692540641873999
2023-01-28 10:49:01.912177,-0.0006775882098041752
2023-01-28 10:49:01.917177,0.0020194053649902344
2023-01-28 10:49:01.922177,0.005807404355235491
2023-01-28 10:49:01.927177,0.010794202797114792
2023-01-28 10:49:01.932177,0.016580105556418895
2023-01-28 10:49:01.937177,0.0229587163776159
2023-01-28 10:49:01.942177,0.030407350930430822
2023-01-28 10:49:01.947177,0.039570730179548146
2023-01-28 10:49:01.952177,0.05067110135975345
2023-01-28 10:49:01.957177,0.0636353120207786
2023-01-28 10:49:01.962177,0.07822794926356486
2023-01-28 10:49:01.967177,0.0936619490385054
2023-01-28 10:49:01.972177,0.10850798462106358
2023-01-28 10:49:01.977177,0.1213806867599487
2023-01-28 10:49:01.982177,0.13144637125259692
2023-01-28 10:49:01.987177,0.13811290264129628
2023-01-28 10:49:01.992177,0.14074382294893908
2023-01-28 10:49:01.997177,0.13905048370361317
2023-01-28 10:49:02.002177,0.13341886930909497
2023-01-28 10:49:02.007177,0.12455403804779053
2023-01-28 10:49:02.012177,0.11311160095685253
2023-01-28 10:49:02.017177,0.0998644083738327
2023-01-28 10:49:02.022177,0.08577311152706285
2023-01-28 10:49:02.027177,0.07152061164379109
2023-01-28 10:49:02.032177,0.05723720149298117
2023-01-28 10:49:02.037177,0.0429123640060424
2023-01-28 10:49:02.042177,0.02877382511919232
2023-01-28 10:49:02.047177,0.015073418617248511
2023-01-28 10:49:02.052177,0.0018881495854365356
2023-01-28 10:49:02.057177,-0.010577837936580091
2023-01-28 10:49:02.062177,-0.021799110780878615
2023-01-28 10:49:02.067177,-0.03130078315734855
2023-01-28 10:49:02.072177,-0.03897173581056036
2023-01-28 10:49:02.077177,-0.0448356084525585
2023-01-28 10:49:02.082177,-0.04885429882522112
2023-01-28 10:49:02.087177,-0.05120635032653799
2023-01-28 10:49:02.092177,-0.05245400740035296
2023-01-28 10:49:02.097177,-0.05315363407134995
2023-01-28 10:49:02.102177,-0.05349903524334772
2023-01-28 10:49:02.107177,-0.05349020287394517
2023-01-28 10:49:02.112177,-0.05313140451829747
2023-01-28 10:49:02.117177,-0.052240096032619456
2023-01-28 10:49:02.122177,-0.050363529592827604
2023-01-28 10:49:02.127177,-0.047167539596557576
2023-01-28 10:49:02.132177,-0.042733938335720055
2023-01-28 10:49:02.137177,-0.03733495995402328
2023-01-28 10:49:02.142177,-0.031189736106204305
2023-01-28 10:49:02.147177,-0.024617513641714987
2023-01-28 10:49:02.152177,-0.01812587396384547
2023-01-28 10:49:02.157177,-0.0120923919603228
2023-01-28 10:49:02.162177,-0.006560137675713837
2023-01-28 10:49:02.167177,-0.0015145540237426094
2023-01-28 10:49:02.172177,0.0028868066607302366
2023-01-28 10:49:02.177177,0.006539027206599696
2023-01-28 10:49:02.182177,0.009588568803136372
2023-01-28 10:49:02.187177,0.012212594971060723
2023-01-28 10:49:02.192177,0.01442217745446557
2023-01-28 10:49:02.197177,0.016227364540099997
2023-01-28 10:49:02.202177,0.017698968802074125
2023-01-28 10:49:02.207177,0.018631419166922476
2023-01-28 10:49:02.212177,0.018372571514955072
2023-01-28 10:49:02.217177,0.016227364540099973
2023-01-28 10:49:02.222177,0.011910549514200959
2023-01-28 10:49:02.227177,0.005553364753723061
2023-01-28 10:49:02.232177,-0.0024037800555745574
2023-01-28 10:49:02.237177,-0.011130770668387373
2023-01-28 10:49:02.242177,-0.01955420397460667
2023-01-28 10:49:02.247177,-0.026949446648359222
2023-01-28 10:49:02.252177,-0.03333638751817552
2023-01-28 10:49:02.257177,-0.03918608278036107
2023-01-28 10:49:02.262177,-0.04489628821681445
2023-01-28 10:49:02.267177,-0.05053321644663808
2023-01-28 10:49:02.272177,-0.05557656760108674
2023-01-28 10:49:02.277177,-0.05849063396453844
2023-01-28 10:49:02.282177,-0.05675550854210222
2023-01-28 10:49:02.287177,-0.04786471650004382
2023-01-28 10:49:02.292177,-0.03078294947215023
2023-01-28 10:49:02.297177,-0.007091959472745609
2023-01-28 10:49:02.302177,0.018414614757716642
2023-01-28 10:49:02.307177,0.03798405453562734
2023-01-28 10:49:02.312177,0.04272227939442873
2023-01-28 10:49:02.317177,0.025939743965864077
2023-01-28 10:49:02.322177,-0.013555826081968661
2023-01-28 10:49:02.327177,-0.07007817924022668
2023-01-28 10:49:02.332177,-0.13219521413393223
2023-01-28 10:49:02.337177,-0.18590550124645228
2023-01-28 10:49:02.342177,-0.21901987218052227
2023-01-28 10:49:02.347177,-0.22528390586376185
2023-01-28 10:49:02.352177,-0.20623695638572215
2023-01-28 10:49:02.357177,-0.16982237994670857
2023-01-28 10:49:02.362177,-0.12684881796559
2023-01-28 10:49:02.367177,-0.08729120343923558
2023-01-28 10:49:02.372177,-0.057635015251331176
2023-01-28 10:49:02.377177,-0.039714973419904695
2023-01-28 10:49:02.382177,-0.03136945528353317
2023-01-28 10:49:02.387177,-0.028584202751517206
2023-01-28 10:49:02.392177,-0.027712526419255274
2023-01-28 10:49:02.397177,-0.02649267576634881
2023-01-28 10:49:02.402177,-0.02400495302831328
2023-01-28 10:49:02.407177,-0.020410418510436987
2023-01-28 10:49:02.412177,-0.016612635290159054
2023-01-28 10:49:02.417177,-0.013558864593505804
2023-01-28 10:49:02.422177,-0.011561922732855083
2023-01-28 10:49:02.427177,-0.010337432846426898
2023-01-28 10:49:02.432177,-0.009580039252836537
2023-01-28 10:49:02.437177,-0.009231567382812509
2023-01-28 10:49:02.442177,-0.009201650383031586
2023-01-28 10:49:02.447177,-0.009111365303397094
2023-01-28 10:49:02.452177,-0.008430919190051383
2023-01-28 10:49:02.457177,-0.0067553920671342945
2023-01-28 10:49:02.462177,-0.00392067963148749
2023-01-28 10:49:02.467177,2.4040540665699457e-05
2023-01-28 10:49:02.472177,0.0049254001607585704
2023-01-28 10:49:02.477177,0.010722081176936626
2023-01-28 10:49:02.482177,0.017616190009535643
2023-01-28 10:49:02.487177,0.02605994604527954
2023-01-28 10:49:02.492177,0.03657405791334238
2023-01-28 10:49:02.497177,0.049499474465846974
2023-01-28 10:49:02.502177,0.0647113725512904
2023-01-28 10:49:02.507177,0.08140127360820767
2023-01-28 10:49:02.512177,0.09816482300843135
2023-01-28 10:49:02.517177,0.11342327296733848
2023-01-28 10:49:02.522177,0.12586551154926023
2023-01-28 10:49:02.527177,0.13467511534690846
2023-01-28 10:49:02.532177,0.1396254283446314
2023-01-28 10:49:02.537177,0.14109393954277027
2023-01-28 10:49:02.542177,0.13983149497233346
2023-01-28 10:49:02.547177,0.13650219142436976
2023-01-28 10:49:02.552177,0.13135434536963267
2023-01-28 10:49:02.557177,0.12424151599407185
2023-01-28 10:49:02.562177,0.11481111759586349
2023-01-28 10:49:02.567177,0.10270118713378898
2023-01-28 10:49:02.572177,0.08783604388593096
