2023-01-27 11:10:20.030708,-0.1117644757032394
2023-01-27 11:10:20.035708,-0.11706227346622415
2023-01-27 11:10:20.040708,-0.0939504355192184
2023-01-27 11:10:20.045708,-0.05940010706046177
2023-01-27 11:10:20.050708,-0.018318891525268513
2023-01-27 11:10:20.055708,0.035659130931903905
2023-01-27 11:10:20.060708,0.09693145751953121
2023-01-27 11:10:20.065708,0.14393570626280636
2023-01-27 11:10:20.070708,0.1599417179822921
2023-01-27 11:10:20.075708,0.14486286722278754
2023-01-27 11:10:20.080708,0.1058024168014526
2023-01-27 11:10:20.085708,0.04941358533256586
2023-01-27 11:10:20.090708,-0.013054013252258353
2023-01-27 11:10:20.095708,-0.06542568650920257
2023-01-27 11:10:20.100708,-0.09825368970632549
2023-01-27 11:10:20.105708,-0.11463072623156188
2023-01-27 11:10:20.110708,-0.1213326081633567
2023-01-27 11:10:20.115708,-0.1209870933766761
2023-01-27 11:10:20.120708,-0.11556287854909887
2023-01-27 11:10:20.125708,-0.10976053773582581
2023-01-27 11:10:20.130708,-0.10618706792592998
2023-01-27 11:10:20.135708,-0.10246977285157205
2023-01-27 11:10:20.140708,-0.09688337892293933
2023-01-27 11:10:20.145708,-0.09217474381922831
2023-01-27 11:10:20.150708,-0.0907770842313766
2023-01-27 11:10:20.155708,-0.09090475625934774
2023-01-27 11:10:20.160708,-0.09044051170349118
2023-01-27 11:10:20.165708,-0.09036759913552335
2023-01-27 11:10:20.170708,-0.0914021357893943
2023-01-27 11:10:20.175708,-0.09131471587182574
2023-01-27 11:10:20.180708,-0.0886374711990356
2023-01-27 11:10:20.185708,-0.08549372594303056
2023-01-27 11:10:20.190708,-0.0839976519346237
2023-01-27 11:10:20.195708,-0.0830848198649567
2023-01-27 11:10:20.200708,-0.08130510896444318
2023-01-27 11:10:20.205708,-0.07944894461572204
2023-01-27 11:10:20.210708,-0.07796347141265858
2023-01-27 11:10:20.215708,-0.07494299551890234
2023-01-27 11:10:20.220708,-0.06926079839467998
2023-01-27 11:10:20.225708,-0.06298331151316212
2023-01-27 11:10:20.230708,-0.05839447304606426
2023-01-27 11:10:20.235708,-0.055156415435020464
2023-01-27 11:10:20.240708,-0.05233625695109354
2023-01-27 11:10:20.245708,-0.05045033525756265
2023-01-27 11:10:20.250708,-0.0493552312254905
2023-01-27 11:10:20.255708,-0.04673694290144474
2023-01-27 11:10:20.260708,-0.0409891232848167
2023-01-27 11:10:20.265708,-0.03346878666784547
2023-01-27 11:10:20.270708,-0.02603590488433832
2023-01-27 11:10:20.275708,-0.018531396039147635
2023-01-27 11:10:20.280708,-0.0103614730760455
2023-01-27 11:10:20.285708,-0.0021754889744036725
2023-01-27 11:10:20.290708,0.005938013549893962
2023-01-27 11:10:20.295708,0.01568098154951612
2023-01-27 11:10:20.300708,0.027935108169913164
2023-01-27 11:10:20.305708,0.040721444895384575
2023-01-27 11:10:20.310708,0.05142271518707268
2023-01-27 11:10:20.315708,0.059243618662244965
2023-01-27 11:10:20.320708,0.06411612033843984
2023-01-27 11:10:20.325708,0.0653867080212524
2023-01-27 11:10:20.330708,0.06337086856365194
2023-01-27 11:10:20.335708,0.060246050817917764
2023-01-27 11:10:20.340708,0.05748093128204337
2023-01-27 11:10:20.345708,0.053827533314986374
2023-01-27 11:10:20.350708,0.04726370424032209
2023-01-27 11:10:20.355708,0.03729131401878307
2023-01-27 11:10:20.360708,0.02408862113952628
2023-01-27 11:10:20.365708,0.0074444387275466135
2023-01-27 11:10:20.370708,-0.01170774362981309
2023-01-27 11:10:20.375708,-0.03033296679369284
2023-01-27 11:10:20.380708,-0.045604906976222895
2023-01-27 11:10:20.385708,-0.05700644619943866
2023-01-27 11:10:20.390708,-0.0651017874479293
2023-01-27 11:10:20.395708,-0.0699982998468419
2023-01-27 11:10:20.400708,-0.07241010665893549
2023-01-27 11:10:20.405708,-0.0744666739424026
2023-01-27 11:10:20.410708,-0.07769902795553198
2023-01-27 11:10:20.415708,-0.08142300546154366
2023-01-27 11:10:20.420708,-0.08443038165569304
2023-01-27 11:10:20.425708,-0.08691664087878245
2023-01-27 11:10:20.430708,-0.08945485204458228
2023-01-27 11:10:20.435708,-0.09155719977904642
2023-01-27 11:10:20.440708,-0.09274840354919428
2023-01-27 11:10:20.445708,-0.09376747267316708
2023-01-27 11:10:20.450708,-0.09520053863525388
2023-01-27 11:10:20.455708,-0.09600590261088536
2023-01-27 11:10:20.460708,-0.09476780891418446
2023-01-27 11:10:20.465708,-0.091482182982876
2023-01-27 11:10:20.470708,-0.08702675998210903
2023-01-27 11:10:20.475708,-0.08199677760138908
2023-01-27 11:10:20.480708,-0.07719417661428449
2023-01-27 11:10:20.485708,-0.07408470563030707
2023-01-27 11:10:20.490708,-0.07344385236501688
2023-01-27 11:10:20.495708,-0.07437053982628508
2023-01-27 11:10:20.500708,-0.07560750097036356
2023-01-27 11:10:20.505708,-0.07688882059218459
2023-01-27 11:10:20.510708,-0.07815580070018759
2023-01-27 11:10:20.515708,-0.07866278396448391
2023-01-27 11:10:20.520708,-0.07796347141265857
2023-01-27 11:10:20.525708,-0.07677717057323741
2023-01-27 11:10:20.530708,-0.07587194442749018
2023-01-27 11:10:20.535708,-0.07504415003733754
2023-01-27 11:10:20.540708,-0.0740689039230346
2023-01-27 11:10:20.545708,-0.07355787648005993
2023-01-27 11:10:20.550708,-0.07387658208608619
2023-01-27 11:10:20.555708,-0.0741969204282159
2023-01-27 11:10:20.560708,-0.07356405258178708
2023-01-27 11:10:20.565708,-0.07196674597850766
2023-01-27 11:10:20.570708,-0.06954928487539291
2023-01-27 11:10:20.575708,-0.06588507971611583
2023-01-27 11:10:20.580708,-0.06103893369436264
2023-01-27 11:10:20.585708,-0.056401618896055744
2023-01-27 11:10:20.590708,-0.05351424217224119
2023-01-27 11:10:20.595708,-0.05288768760965528
2023-01-27 11:10:20.600708,-0.054692231118679005
2023-01-27 11:10:20.605708,-0.05950009367376585
2023-01-27 11:10:20.610708,-0.06736159324645988
2023-01-27 11:10:20.615708,-0.07706883519838796
2023-01-27 11:10:20.620708,-0.08729120343923559
2023-01-27 11:10:20.625708,-0.09765899305264736
2023-01-27 11:10:20.630708,-0.10794202983379358
2023-01-27 11:10:20.635708,-0.11697633911926109
2023-01-27 11:10:20.640708,-0.12301544845104212
2023-01-27 11:10:20.645708,-0.12401384421330618
2023-01-27 11:10:20.650708,-0.11671682447195048
2023-01-27 11:10:20.655708,-0.09678791793273296
2023-01-27 11:10:20.660708,-0.06161590665578842
2023-01-27 11:10:20.665708,-0.013354983682954577
2023-01-27 11:10:20.670708,0.04067659378051752
2023-01-27 11:10:20.675708,0.08967453834128639
2023-01-27 11:10:20.680708,0.12171725928783408
2023-01-27 11:10:20.685708,0.12740001365183726
2023-01-27 11:10:20.690708,0.10431190580129619
2023-01-27 11:10:20.695708,0.058861604370438025
2023-01-27 11:10:20.700708,0.0032695136032997994
2023-01-27 11:10:20.705708,-0.04965176415374852
2023-01-27 11:10:20.710708,-0.09029626846313465
2023-01-27 11:10:20.715708,-0.11420056027568432
2023-01-27 11:10:20.720708,-0.1227269619703291
2023-01-27 11:10:20.725708,-0.12150171347497757
2023-01-27 11:10:20.730708,-0.11664470285177225
2023-01-27 11:10:20.735708,-0.1118345172868346
2023-01-27 11:10:20.740708,-0.10837475955486287
2023-01-27 11:10:20.745708,-0.10649285095861857
2023-01-27 11:10:20.750708,-0.10565817356109608
2023-01-27 11:10:20.755708,-0.10471090329457276
2023-01-27 11:10:20.760708,-0.10291755199432367
2023-01-27 11:10:20.765708,-0.10056903244640916
2023-01-27 11:10:20.770708,-0.09801328182220448
2023-01-27 11:10:20.775708,-0.094838266892294
2023-01-27 11:10:20.780708,-0.0906568765640258
2023-01-27 11:10:20.785708,-0.0859485293018145
2023-01-27 11:10:20.790708,-0.08144935220479954
2023-01-27 11:10:20.795708,-0.07743227868250838
2023-01-27 11:10:20.800708,-0.07421314716339107
2023-01-27 11:10:20.805708,-0.07254073811508734
2023-01-27 11:10:20.810708,-0.07269859313964842
2023-01-27 11:10:20.815708,-0.07387676625013694
2023-01-27 11:10:20.820708,-0.07512669265270228
2023-01-27 11:10:20.825708,-0.07630927517416539
2023-01-27 11:10:20.830708,-0.0775067061185836
2023-01-27 11:10:20.835708,-0.07822909373128893
2023-01-27 11:10:20.840708,-0.07786731421947465
2023-01-27 11:10:20.845708,-0.07625060325570143
2023-01-27 11:10:20.850708,-0.07315536588430399
2023-01-27 11:10:20.855708,-0.06805335596524803
2023-01-27 11:10:20.860708,-0.06111105531454081
2023-01-27 11:10:20.865708,-0.05379166667311553
2023-01-27 11:10:20.870708,-0.04769643396139133
2023-01-27 11:10:20.875708,-0.04322242160935569
2023-01-27 11:10:20.880708,-0.039739012718200614
2023-01-27 11:10:20.885708,-0.03628803424744469
2023-01-27 11:10:20.890708,-0.0315411910414695
2023-01-27 11:10:20.895708,-0.023993282651476686
2023-01-27 11:10:20.900708,-0.013198256492614694
2023-01-27 11:10:20.905708,-0.0004476709813177138
2023-01-27 11:10:20.910708,0.012356838211417084
2023-01-27 11:10:20.915708,0.024063649677756704
2023-01-27 11:10:20.920708,0.03420969098806374
2023-01-27 11:10:20.925708,0.0425038738518532
2023-01-27 11:10:20.930708,0.04906674474477756
2023-01-27 11:10:20.935708,0.05444176696537513
2023-01-27 11:10:20.940708,0.05856275558471669
2023-01-27 11:10:20.945708,0.060220574367457
2023-01-27 11:10:20.950708,0.0582261905074119
2023-01-27 11:10:20.955708,0.05267730986308389
2023-01-27 11:10:20.960708,0.04464328289031981
2023-01-27 11:10:20.965708,0.03523377466671642
2023-01-27 11:10:20.970708,0.025410851463675423
2023-01-27 11:10:20.975708,0.0158190684493042
2023-01-27 11:10:20.980708,0.005962054245173874
2023-01-27 11:10:20.985708,-0.005843546922674055
2023-01-27 11:10:20.990708,-0.020819108933210297
2023-01-27 11:10:20.995708,-0.038242790875319524
2023-01-27 11:10:21.000708,-0.055942337960004807
2023-01-27 11:10:21.005708,-0.07167899796909134
2023-01-27 11:10:21.010708,-0.0837572440505027
2023-01-27 11:10:21.015708,-0.09133575556257034
2023-01-27 11:10:21.020708,-0.0951284170150756
2023-01-27 11:10:21.025708,-0.09727668587804739
2023-01-27 11:10:21.030708,-0.09964804351329799
2023-01-27 11:10:21.035708,-0.10243475450866485
2023-01-27 11:10:21.040708,-0.10472059249877919
2023-01-27 11:10:21.045708,-0.10571374536348199
2023-01-27 11:10:21.050708,-0.10488887876272197
2023-01-27 11:10:21.055708,-0.10178170979932565
2023-01-27 11:10:21.060708,-0.09659489244222638
2023-01-27 11:10:21.065708,-0.0905437932640701
2023-01-27 11:10:21.070708,-0.08483906835317606
2023-01-27 11:10:21.075708,-0.07976526804376781
2023-01-27 11:10:21.080708,-0.07539113610982885
2023-01-27 11:10:21.085708,-0.07252402375736064
2023-01-27 11:10:21.090708,-0.07202546298503867
2023-01-27 11:10:21.095708,-0.07359148175212255
2023-01-27 11:10:21.100708,-0.07608830928802489
2023-01-27 11:10:21.105708,-0.07876737782095687
2023-01-27 11:10:21.110708,-0.08130510896444319
2023-01-27 11:10:21.115708,-0.08296540693460326
2023-01-27 11:10:21.120708,-0.0827475413680076
2023-01-27 11:10:21.125708,-0.08046798144047089
2023-01-27 11:10:21.130708,-0.07707397639751432
2023-01-27 11:10:21.135708,-0.07386370585241979
2023-01-27 11:10:21.140708,-0.07180909812450403
2023-01-27 11:10:21.145708,-0.07138800161801001
2023-01-27 11:10:21.150708,-0.07238607108592976
2023-01-27 11:10:21.155708,-0.07379252068235255
2023-01-27 11:10:21.160708,-0.07430931180715558
2023-01-27 11:10:21.165708,-0.07304419749267939
2023-01-27 11:10:21.170708,-0.06966948509216296
2023-01-27 11:10:21.175708,-0.06438443349854475
2023-01-27 11:10:21.180708,-0.05822619050741193
2023-01-27 11:10:21.185708,-0.05314990316537584
2023-01-27 11:10:21.190708,-0.05120635032653801
2023-01-27 11:10:21.195708,-0.05349340380846064
2023-01-27 11:10:21.200708,-0.059860944747924805
2023-01-27 11:10:21.205708,-0.0691416962683029
2023-01-27 11:10:21.210708,-0.0793578252196311
2023-01-27 11:10:21.215708,-0.08828721661152147
2023-01-27 11:10:21.220708,-0.09464760869741434
2023-01-27 11:10:21.225708,-0.09885378192761883
2023-01-27 11:10:21.230708,-0.10236462205648418
2023-01-27 11:10:21.235708,-0.10624154113505248
2023-01-27 11:10:21.240708,-0.11005759239196768
2023-01-27 11:10:21.245708,-0.11133122540040281
2023-01-27 11:10:21.250708,-0.1055139303207397
2023-01-27 11:10:21.255708,-0.08734755368207173
2023-01-27 11:10:21.260708,-0.05377868935465811
2023-01-27 11:10:21.265708,-0.006734588965978353
2023-01-27 11:10:21.270708,0.04622995853424063
2023-01-27 11:10:21.275708,0.09372084942644547
2023-01-27 11:10:21.280708,0.12388090789318076
2023-01-27 11:10:21.285708,0.12849373302677192
2023-01-27 11:10:21.290708,0.1064034327864646
2023-01-27 11:10:21.295708,0.06415252185134727
2023-01-27 11:10:21.300708,0.013102094642817908
2023-01-27 11:10:21.305708,-0.03507317164626276
2023-01-27 11:10:21.310708,-0.0719533413648605
2023-01-27 11:10:21.315708,-0.09403645224215877
2023-01-27 11:10:21.320708,-0.10265310853719703
2023-01-27 11:10:21.325708,-0.10226638047728119
2023-01-27 11:10:21.330708,-0.0978690385818481
2023-01-27 11:10:21.335708,-0.0931157119566479
2023-01-27 11:10:21.340708,-0.0900558680295944
2023-01-27 11:10:21.345708,-0.0895330014050763
2023-01-27 11:10:21.350708,-0.09123384952545158
2023-01-27 11:10:21.355708,-0.09380202940564358
2023-01-27 11:10:21.360708,-0.09560923278331748
2023-01-27 11:10:21.365708,-0.09557821089181745
2023-01-27 11:10:21.370708,-0.09334941953420625
2023-01-27 11:10:21.375708,-0.08919098551466773
2023-01-27 11:10:21.380708,-0.08409380912780759
2023-01-27 11:10:21.385708,-0.07951756381276939
2023-01-27 11:10:21.390708,-0.07649700343608853
2023-01-27 11:10:21.395708,-0.07504240642150661
2023-01-27 11:10:21.400708,-0.07454971969127645
2023-01-27 11:10:21.405708,-0.07447541316257399
2023-01-27 11:10:21.410708,-0.07440547645092008
2023-01-27 11:10:21.415708,-0.07390398589148485
2023-01-27 11:10:21.420708,-0.07272263616323466
2023-01-27 11:10:21.425708,-0.07094396177572068
2023-01-27 11:10:21.430708,-0.06863574683666221
2023-01-27 11:10:21.435708,-0.06562518666860877
2023-01-27 11:10:21.440708,-0.06188035011291496
2023-01-27 11:10:21.445708,-0.0578186855457068
2023-01-27 11:10:21.450708,-0.05392293259501452
2023-01-27 11:10:21.455708,-0.050270833947833236
2023-01-27 11:10:21.460708,-0.04666268825531002
2023-01-27 11:10:21.465708,-0.04290366002000911
2023-01-27 11:10:21.470708,-0.03868123143911362
2023-01-27 11:10:21.475708,-0.03346644754687682
2023-01-27 11:10:21.480708,-0.026877325028181017
2023-01-27 11:10:21.485708,-0.018953915285878357
2023-01-27 11:10:21.490708,-0.009856621734797916
2023-01-27 11:10:21.495708,0.00042856969071256875
2023-01-27 11:10:21.500708,0.01180390547960989
2023-01-27 11:10:21.505708,0.023712010281182614
2023-01-27 11:10:21.510708,0.03533959388732908
2023-01-27 11:10:21.515708,0.0459882087032077
2023-01-27 11:10:21.520708,0.05510091781616209
2023-01-27 11:10:21.525708,0.06227542295861773
2023-01-27 11:10:21.530708,0.06757795810699457
2023-01-27 11:10:21.535708,0.07161110649765072
2023-01-27 11:10:21.540708,0.07491032779216757
2023-01-27 11:10:21.545708,0.0772925600329036
2023-01-27 11:10:21.550708,0.07786731421947471
2023-01-27 11:10:21.555708,0.07547061032453757
2023-01-27 11:10:21.560708,0.06904443353414527
2023-01-27 11:10:21.565708,0.05807562547379416
2023-01-27 11:10:21.570708,0.04312872886657707
2023-01-27 11:10:21.575708,0.02587215039259763
2023-01-27 11:10:21.580708,0.0083180274814367
2023-01-27 11:10:21.585708,-0.00800527866385309
2023-01-27 11:10:21.590708,-0.022261541336774767
2023-01-27 11:10:21.595708,-0.03414786646199094
2023-01-27 11:10:21.600708,-0.043801866471767384
2023-01-27 11:10:21.605708,-0.05161556364246329
2023-01-27 11:10:21.610708,-0.05784153938293448
2023-01-27 11:10:21.615708,-0.062441064861470615
2023-01-27 11:10:21.620708,-0.06539027392864222
2023-01-27 11:10:21.625708,-0.06692125790068751
2023-01-27 11:10:21.630708,-0.06733755767345417
2023-01-27 11:10:21.635708,-0.06682014842310581
2023-01-27 11:10:21.640708,-0.06558259576559058
2023-01-27 11:10:21.645708,-0.06403160657420717
2023-01-27 11:10:21.650708,-0.06260156631469718
2023-01-27 11:10:21.655708,-0.061533798090622004
2023-01-27 11:10:21.660708,-0.0608706474304199
2023-01-27 11:10:21.665708,-0.06047794787992268
2023-01-27 11:10:21.670708,-0.06000518798828118
2023-01-27 11:10:21.675708,-0.05906287896932292
2023-01-27 11:10:21.680708,-0.0576251745223999
2023-01-27 11:10:21.685708,-0.056178679053291325
2023-01-27 11:10:21.690708,-0.05538940429687498
2023-01-27 11:10:21.695708,-0.055640100263348244
2023-01-27 11:10:21.700708,-0.05678375810384752
2023-01-27 11:10:21.705708,-0.0581454174194166
2023-01-27 11:10:21.710708,-0.058803163468837724
2023-01-27 11:10:21.715708,-0.05813832753312443
2023-01-27 11:10:21.720708,-0.05627890676259992
2023-01-27 11:10:21.725708,-0.05403848905003475
2023-01-27 11:10:21.730708,-0.05248050019145008
2023-01-27 11:10:21.735708,-0.052446714464649276
2023-01-27 11:10:21.740708,-0.054115258157253224
2023-01-27 11:10:21.745708,-0.05675555686119329
2023-01-27 11:10:21.750708,-0.05911568924784658
2023-01-27 11:10:21.755708,-0.06023872062099064
2023-01-27 11:10:21.760708,-0.05971670150756826
2023-01-27 11:10:21.765708,-0.057206198980556525
2023-01-27 11:10:21.770708,-0.05238433927297587
2023-01-27 11:10:21.775708,-0.04573703239467148
2023-01-27 11:10:21.780708,-0.038681231439113575
2023-01-27 11:10:21.785708,-0.03225696575408199
2023-01-27 11:10:21.790708,-0.026300352066755208
2023-01-27 11:10:21.795708,-0.020729145560484493
2023-01-27 11:10:21.800708,-0.017068784683942694
2023-01-27 11:10:21.805708,-0.01750420040218433
2023-01-27 11:10:21.810708,-0.022501945495605354
2023-01-27 11:10:21.815708,-0.030350193045702682
2023-01-27 11:10:21.820708,-0.038969717919826466
2023-01-27 11:10:21.825708,-0.047168537097303724
2023-01-27 11:10:21.830708,-0.05421141907572741
2023-01-27 11:10:21.835708,-0.05953358763117825
2023-01-27 11:10:21.840708,-0.06339490413665767
2023-01-27 11:10:21.845708,-0.0667485414610917
2023-01-27 11:10:21.850708,-0.06959736347198478
2023-01-27 11:10:21.855708,-0.06977651804435415
2023-01-27 11:10:21.860708,-0.06358723342418676
2023-01-27 11:10:21.865708,-0.047236846963629175
2023-01-27 11:10:21.870708,-0.018054446205496767
2023-01-27 11:10:21.875708,0.02391776070680665
2023-01-27 11:10:21.880708,0.07404486835002888
2023-01-27 11:10:21.885708,0.12297550763784211
2023-01-27 11:10:21.890708,0.15946090221405013
2023-01-27 11:10:21.895708,0.17443356271792387
2023-01-27 11:10:21.900708,0.16402861475944502
2023-01-27 11:10:21.905708,0.13088200206185832
2023-01-27 11:10:21.910708,0.08361300081014628
2023-01-27 11:10:21.915708,0.03396791286518498
2023-01-27 11:10:21.920708,-0.007644891738891629
2023-01-27 11:10:21.925708,-0.035566753243132986
2023-01-27 11:10:21.930708,-0.04937927052378647
2023-01-27 11:10:21.935708,-0.05233804809144209
2023-01-27 11:10:21.940708,-0.04942735284566865
2023-01-27 11:10:21.945708,-0.045456535396891484
2023-01-27 11:10:21.950708,-0.04336913675069805
2023-01-27 11:10:21.955708,-0.043752734280019655
2023-01-27 11:10:21.960708,-0.04584531113505361
2023-01-27 11:10:21.965708,-0.04867017755988891
2023-01-27 11:10:21.970708,-0.05123039335012427
2023-01-27 11:10:21.975708,-0.052467795344435415
2023-01-27 11:10:21.980708,-0.0517833232879638
2023-01-27 11:10:21.985708,-0.049461130913040295
2023-01-27 11:10:21.990708,-0.046302080154418924
2023-01-27 11:10:21.995708,-0.04312516690882332
2023-01-27 11:10:22.000708,-0.04079679772257801
2023-01-27 11:10:22.005708,-0.04018699541694585
2023-01-27 11:10:22.010708,-0.04156609624624252
2023-01-27 11:10:22.015708,-0.04426002141604456
2023-01-27 11:10:22.020708,-0.04721562191843981
2023-01-27 11:10:22.025708,-0.04968027117695894
2023-01-27 11:10:22.030708,-0.05118231102824207
2023-01-27 11:10:22.035708,-0.05133952769540995
2023-01-27 11:10:22.040708,-0.05010048672556868
2023-01-27 11:10:22.045708,-0.047858424781733445
2023-01-27 11:10:22.050708,-0.04495581239461893
2023-01-27 11:10:22.055708,-0.04132041508830648
2023-01-27 11:10:22.060708,-0.03685414791107172
2023-01-27 11:10:22.065708,-0.03185742497940126
2023-01-27 11:10:22.070708,-0.026757121086120585
2023-01-27 11:10:22.075708,-0.02169494585775256
2023-01-27 11:10:22.080708,-0.016636054962873393
2023-01-27 11:10:22.085708,-0.01151756810049882
2023-01-27 11:10:22.090708,-0.005938013549893996
2023-01-27 11:10:22.095708,0.0009835069815939477
2023-01-27 11:10:22.100708,0.010000864975154258
2023-01-27 11:10:22.105708,0.021055816798803986
2023-01-27 11:10:22.110708,0.03329614922404282
2023-01-27 11:10:22.115708,0.04545074009415334
2023-01-27 11:10:22.120708,0.05603849887847896
2023-01-27 11:10:22.125708,0.06375548859453295
2023-01-27 11:10:22.130708,0.06825109571218488
2023-01-27 11:10:22.135708,0.07046724079340494
2023-01-27 11:10:22.140708,0.07192929834127418
2023-01-27 11:10:22.145708,0.07373303337074257
2023-01-27 11:10:22.150708,0.0761604309082031
2023-01-27 11:10:22.155708,0.07874146313241759
2023-01-27 11:10:22.160708,0.08029540628194799
2023-01-27 11:10:22.165708,0.07924127261437754
2023-01-27 11:10:22.170708,0.07438143342733376
2023-01-27 11:10:22.175708,0.06544661873645798
2023-01-27 11:10:22.180708,0.052865147590637165
2023-01-27 11:10:22.185708,0.0373697201443379
2023-01-27 11:10:22.190708,0.02009789273142808
2023-01-27 11:10:22.195708,0.002748082872349476
2023-01-27 11:10:22.200708,-0.012813608162105
2023-01-27 11:10:22.205708,-0.02515049358055451
2023-01-27 11:10:22.210708,-0.03351251408457754
2023-01-27 11:10:22.215708,-0.03794476498558384
2023-01-27 11:10:22.220708,-0.03945052623748769
2023-01-27 11:10:22.225708,-0.03972699542858845
2023-01-27 11:10:22.230708,-0.040267907083034515
2023-01-27 11:10:22.235708,-0.04164771501216682
2023-01-27 11:10:22.240708,-0.04368166252970688
2023-01-27 11:10:22.245708,-0.045992952451724474
2023-01-27 11:10:22.250708,-0.048273406922817244
2023-01-27 11:10:22.255708,-0.050346340727754714
2023-01-27 11:10:22.260708,-0.052312217652797574
2023-01-27 11:10:22.265708,-0.054462875049565485
2023-01-27 11:10:22.270708,-0.0568077974021434
2023-01-27 11:10:22.275708,-0.05883990183120011
2023-01-27 11:10:22.280708,-0.05995710939168929
2023-01-27 11:10:22.285708,-0.05994642178838698
2023-01-27 11:10:22.290708,-0.05892336368560789
2023-01-27 11:10:22.295708,-0.05707009462582961
2023-01-27 11:10:22.300708,-0.054668188095092676
2023-01-27 11:10:22.305708,-0.05216502770194563
2023-01-27 11:10:22.310708,-0.04993220418691628
2023-01-27 11:10:22.315708,-0.04806436597199384
2023-01-27 11:10:22.320708,-0.046566527336835764
2023-01-27 11:10:22.325708,-0.045570256572391776
2023-01-27 11:10:22.330708,-0.045220255851745585
2023-01-27 11:10:22.335708,-0.045552647247119854
2023-01-27 11:10:22.340708,-0.04666268825530997
2023-01-27 11:10:22.345708,-0.04879783182325127
2023-01-27 11:10:22.350708,-0.05207180976867671
2023-01-27 11:10:22.355708,-0.056194715301036494
2023-01-27 11:10:22.360708,-0.060606203973293304
2023-01-27 11:10:22.365708,-0.06473013960157682
2023-01-27 11:10:22.370708,-0.06801068782806391
2023-01-27 11:10:22.375708,-0.06992521161946602
2023-01-27 11:10:22.380708,-0.07017433643341062
2023-01-27 11:10:22.385708,-0.06879912558924373
2023-01-27 11:10:22.390708,-0.06606340408325191
2023-01-27 11:10:22.395708,-0.06237230819985881
2023-01-27 11:10:22.400708,-0.05834639072418209
2023-01-27 11:10:22.405708,-0.05473766000091071
2023-01-27 11:10:22.410708,-0.0520718097686767
2023-01-27 11:10:22.415708,-0.050376623122856116
2023-01-27 11:10:22.420708,-0.04923502728343003
2023-01-27 11:10:22.425708,-0.04800918767111096
2023-01-27 11:10:22.430708,-0.04610975831747046
2023-01-27 11:10:22.435708,-0.04326656277279644
2023-01-27 11:10:22.440708,-0.03954669088125217
2023-01-27 11:10:22.445708,-0.03503588659381122
2023-01-27 11:10:22.450708,-0.029714107513427686
2023-01-27 11:10:22.455708,-0.02388015126106893
2023-01-27 11:10:22.460708,-0.018463134765625
2023-01-27 11:10:22.465708,-0.014561930702948448
2023-01-27 11:10:22.470708,-0.012885729782283287
2023-01-27 11:10:22.475708,-0.014015436957422295
2023-01-27 11:10:22.480708,-0.018799703568220097
2023-01-27 11:10:22.485708,-0.027623395748383992
2023-01-27 11:10:22.490708,-0.039210122078657095
2023-01-27 11:10:22.495708,-0.05088426159362996
2023-01-27 11:10:22.500708,-0.06034175679087636
2023-01-27 11:10:22.505708,-0.06684251495447478
2023-01-27 11:10:22.510708,-0.07075130939483638
2023-01-27 11:10:22.515708,-0.07255922918997453
2023-01-27 11:10:22.520708,-0.07231394946575162
2023-01-27 11:10:22.525708,-0.06892273897041294
2023-01-27 11:10:22.530708,-0.059308014810085165
2023-01-27 11:10:22.535708,-0.03889034076259151
2023-01-27 11:10:22.540708,-0.004086892120540104
2023-01-27 11:10:22.545708,0.044788035152918966
2023-01-27 11:10:22.550708,0.10219633579254148
2023-01-27 11:10:22.555708,0.1580196349913461
2023-01-27 11:10:22.560708,0.19984900951385481
2023-01-27 11:10:22.565708,0.21681511167558415
2023-01-27 11:10:22.570708,0.20388782024383528
2023-01-27 11:10:22.575708,0.16416309763817016
2023-01-27 11:10:22.580708,0.10755737870931614
2023-01-27 11:10:22.585708,0.046994925642146565
2023-01-27 11:10:22.590708,-0.005697607994079495
2023-01-27 11:10:22.595708,-0.04292881264998451
2023-01-27 11:10:22.600708,-0.06291409581899633
2023-01-27 11:10:22.605708,-0.06901189340963633
2023-01-27 11:10:22.610708,-0.06707310676574701
2023-01-27 11:10:22.615708,-0.06256246765977407
2023-01-27 11:10:22.620708,-0.05901952832937242
2023-01-27 11:10:22.625708,-0.05776792744028732
2023-01-27 11:10:22.630708,-0.05817810818552972
2023-01-27 11:10:22.635708,-0.058497730219788116
2023-01-27 11:10:22.640708,-0.057216487824916784
2023-01-27 11:10:22.645708,-0.05403375099703174
2023-01-27 11:10:22.650708,-0.04971583932638163
2023-01-27 11:10:22.655708,-0.04539880416282935
2023-01-27 11:10:22.660708,-0.042119026184082003
2023-01-27 11:10:22.665708,-0.040459978859812486
2023-01-27 11:10:22.670708,-0.040123663842677994
2023-01-27 11:10:22.675708,-0.039982344589062344
2023-01-27 11:10:22.680708,-0.03889759629964817
2023-01-27 11:10:22.685708,-0.03648516458831584
2023-01-27 11:10:22.690708,-0.033079784363508245
2023-01-27 11:10:22.695708,-0.029328527105876363
2023-01-27 11:10:22.700708,-0.02603590488433833
2023-01-27 11:10:22.705708,-0.02400656592389772
2023-01-27 11:10:22.710708,-0.023583769798278798
2023-01-27 11:10:22.715708,-0.024407434641320624
2023-01-27 11:10:22.720708,-0.02579550072550769
2023-01-27 11:10:22.725708,-0.027163099461712765
2023-01-27 11:10:22.730708,-0.027935108169913188
2023-01-27 11:10:22.735708,-0.02741999436594909
2023-01-27 11:10:22.740708,-0.02514640614390371
2023-01-27 11:10:22.745708,-0.021191393625057005
2023-01-27 11:10:22.750708,-0.015962919220328282
2023-01-27 11:10:22.755708,-0.009829935310131706
2023-01-27 11:10:22.760708,-0.003101229667663496
2023-01-27 11:10:22.765708,0.00394995503379242
2023-01-27 11:10:22.770708,0.011323094367980886
2023-01-27 11:10:22.775708,0.019320290669546002
2023-01-27 11:10:22.780708,0.02805531024932856
2023-01-27 11:10:22.785708,0.03708848841379886
2023-01-27 11:10:22.790708,0.04574915021657938
2023-01-27 11:10:22.795708,0.05363945034491523
2023-01-27 11:10:22.800708,0.06067832559347145
2023-01-27 11:10:22.805708,0.06693645210689993
2023-01-27 11:10:22.810708,0.07265051454305632
2023-01-27 11:10:22.815708,0.07809704844704618
2023-01-27 11:10:22.820708,0.08310814946889866
2023-01-27 11:10:22.825708,0.08684876544367474
2023-01-27 11:10:22.830708,0.08830090612173072
2023-01-27 11:10:22.835708,0.08683664097854728
2023-01-27 11:10:22.840708,0.08221864700317377
2023-01-27 11:10:22.845708,0.07437749402595638
2023-01-27 11:10:22.850708,0.06349106878042214
2023-01-27 11:10:22.855708,0.050078809059353344
2023-01-27 11:10:22.860708,0.034762620925903306
2023-01-27 11:10:22.865708,0.018132251808573356
2023-01-27 11:10:22.870708,0.0010818243026733043
2023-01-27 11:10:22.875708,-0.014951656409631859
2023-01-27 11:10:22.880708,-0.02841591835021969
2023-01-27 11:10:22.885708,-0.038293228127771826
2023-01-27 11:10:22.890708,-0.0443307571113109
2023-01-27 11:10:22.895708,-0.04702014070498872
2023-01-27 11:10:22.900708,-0.0476243123412132
2023-01-27 11:10:22.905708,-0.04786619006104728
2023-01-27 11:10:22.910708,-0.04904270172119144
2023-01-27 11:10:22.915708,-0.05130959842789699
2023-01-27 11:10:22.920708,-0.05387485027313231
2023-01-27 11:10:22.925708,-0.05571517877953885
2023-01-27 11:10:22.930708,-0.05606254190206517
2023-01-27 11:10:22.935708,-0.05465155337170122
2023-01-27 11:10:22.940708,-0.051951609551906495
2023-01-27 11:10:22.945708,-0.049046126819507777
2023-01-27 11:10:22.950708,-0.04695117473602291
2023-01-27 11:10:22.955708,-0.046038588081694205
2023-01-27 11:10:22.960708,-0.046181879937648655
2023-01-27 11:10:22.965708,-0.0471965170695497
2023-01-27 11:10:22.970708,-0.04889845848083492
2023-01-27 11:10:22.975708,-0.050952738420811224
2023-01-27 11:10:22.980708,-0.05296131223440166
2023-01-27 11:10:22.985708,-0.0545927159746228
2023-01-27 11:10:22.990708,-0.05546152591705317
2023-01-27 11:10:22.995708,-0.055123407370254215
2023-01-27 11:10:23.000708,-0.05349020287394518
2023-01-27 11:10:23.005708,-0.05113214776848844
2023-01-27 11:10:23.010708,-0.04894654080271715
2023-01-27 11:10:23.015708,-0.04762819159348154
2023-01-27 11:10:23.020708,-0.04755219072103496
2023-01-27 11:10:23.025708,-0.04884645032250559
2023-01-27 11:10:23.030708,-0.051254432648420264
2023-01-27 11:10:23.035708,-0.05411529277677665
2023-01-27 11:10:23.040708,-0.05680779740214335
2023-01-27 11:10:23.045708,-0.059146023475708916
2023-01-27 11:10:23.050708,-0.06118317693471901
2023-01-27 11:10:23.055708,-0.06286128764950848
2023-01-27 11:10:23.060708,-0.06411612033843994
2023-01-27 11:10:23.065708,-0.06509433410134463
2023-01-27 11:10:23.070708,-0.06591916084289552
2023-01-27 11:10:23.075708,-0.0663877535595814
2023-01-27 11:10:23.080708,-0.06623169034719464
2023-01-27 11:10:23.085708,-0.06555752910965328
2023-01-27 11:10:23.090708,-0.0646930932998657
2023-01-27 11:10:23.095708,-0.06367552191194002
2023-01-27 11:10:23.100708,-0.06221691891551008
2023-01-27 11:10:23.105708,-0.06014200135658069
2023-01-27 11:10:23.110708,-0.05757709592580786
2023-01-27 11:10:23.115708,-0.05475471956182269
2023-01-27 11:10:23.120708,-0.051951609551906454
2023-01-27 11:10:23.125708,-0.04966412586466955
2023-01-27 11:10:23.130708,-0.04858593270182594
2023-01-27 11:10:23.135708,-0.04927626567457104
2023-01-27 11:10:23.140708,-0.051855444908141986
2023-01-27 11:10:23.145708,-0.05586171837164846
2023-01-27 11:10:23.150708,-0.06017347425222387
2023-01-27 11:10:23.155708,-0.06315383635490551
2023-01-27 11:10:23.160708,-0.06322662532329548
2023-01-27 11:10:23.165708,-0.05959343046878822
2023-01-27 11:10:23.170708,-0.052576661109924296
2023-01-27 11:10:23.175708,-0.04351025477885563
2023-01-27 11:10:23.180708,-0.034402012825012214
2023-01-27 11:10:23.185708,-0.02739545466248471
2023-01-27 11:10:23.190708,-0.024064581841230278
2023-01-27 11:10:23.195708,-0.024946619909007622
2023-01-27 11:10:23.200708,-0.029641985893249543
2023-01-27 11:10:23.205708,-0.03720683980345475
2023-01-27 11:10:23.210708,-0.046422284096479374
2023-01-27 11:10:23.215708,-0.05602457634211006
2023-01-27 11:10:23.220708,-0.06510178744792929
2023-01-27 11:10:23.225708,-0.07334642343568738
2023-01-27 11:10:23.230708,-0.08070409297943107
2023-01-27 11:10:23.235708,-0.08652689901024901
2023-01-27 11:10:23.240708,-0.08875767886638637
2023-01-27 11:10:23.245708,-0.08358449445730853
2023-01-27 11:10:23.250708,-0.06601532548665998
2023-01-27 11:10:23.255708,-0.0318511428035118
2023-01-27 11:10:23.260708,0.01928051374852651
2023-01-27 11:10:23.265708,0.08150945253740972
2023-01-27 11:10:23.270708,0.14284889400005335
2023-01-27 11:10:23.275708,0.18840591348703709
2023-01-27 11:10:23.280708,0.20549854636192305
2023-01-27 11:10:23.285708,0.18857663050572507
2023-01-27 11:10:23.290708,0.1417189836502074
2023-01-27 11:10:23.295708,0.07723310480935036
2023-01-27 11:10:23.300708,0.010794202797114783
2023-01-27 11:10:23.305708,-0.04436028028473985
2023-01-27 11:10:23.310708,-0.08128106594085689
2023-01-27 11:10:23.315708,-0.09990370977896189
2023-01-27 11:10:23.320708,-0.10498504340648648
2023-01-27 11:10:23.325708,-0.10286221606558103
2023-01-27 11:10:23.330708,-0.0986142978072166
2023-01-27 11:10:23.335708,-0.0948137122325215
2023-01-27 11:10:23.340708,-0.09200315177440639
2023-01-27 11:10:23.345708,-0.08988368593317611
2023-01-27 11:10:23.350708,-0.08810858428478238
2023-01-27 11:10:23.355708,-0.08648079713375383
2023-01-27 11:10:23.360708,-0.08493523299694059
2023-01-27 11:10:23.365708,-0.08347489580479367
2023-01-27 11:10:23.370708,-0.08205036818981168
2023-01-27 11:10:23.375708,-0.08055760390121249
2023-01-27 11:10:23.380708,-0.07904529571533198
2023-01-27 11:10:23.385708,-0.07782525344738969
2023-01-27 11:10:23.390708,-0.07724225521087641
2023-01-27 11:10:23.395708,-0.07737348816425232
2023-01-27 11:10:23.400708,-0.07798751443624485
2023-01-27 11:10:23.405708,-0.0786316256430599
2023-01-27 11:10:23.410708,-0.07863660901784889
2023-01-27 11:10:23.415708,-0.07722242660762861
2023-01-27 11:10:23.420708,-0.07387658208608622
2023-01-27 11:10:23.425708,-0.06868961578201754
2023-01-27 11:10:23.430708,-0.062289040535688345
2023-01-27 11:10:23.435708,-0.05552657065593184
2023-01-27 11:10:23.440708,-0.049235027283429954
2023-01-27 11:10:23.445708,-0.044019963539391346
2023-01-27 11:10:23.450708,-0.04000345990061752
2023-01-27 11:10:23.455708,-0.036779247724539825
2023-01-27 11:10:23.460708,-0.03375291824340821
2023-01-27 11:10:23.465708,-0.0305226985678851
2023-01-27 11:10:23.470708,-0.026925405487418126
2023-01-27 11:10:23.475708,-0.022894309980046046
2023-01-27 11:10:23.480708,-0.018415054306387926
2023-01-27 11:10:23.485708,-0.013484761382068848
2023-01-27 11:10:23.490708,-0.007933378219604426
2023-01-27 11:10:23.495708,-0.0013511382377527448
2023-01-27 11:10:23.500708,0.006659229751676254
2023-01-27 11:10:23.505708,0.016170190235713894
2023-01-27 11:10:23.510708,0.026877325028180972
2023-01-27 11:10:23.515708,0.03818250891135542
2023-01-27 11:10:23.520708,0.049210987985134055
2023-01-27 11:10:23.525708,0.058923456315067915
2023-01-27 11:10:23.530708,0.06644805520772926
2023-01-27 11:10:23.535708,0.07132069129888637
2023-01-27 11:10:23.540708,0.07337173074483866
2023-01-27 11:10:23.545708,0.0725149202602133
2023-01-27 11:10:23.550708,0.06873190402984611
2023-01-27 11:10:23.555708,0.06208464364891412
2023-01-27 11:10:23.560708,0.052576661109924226
2023-01-27 11:10:23.565708,0.040132429503005426
2023-01-27 11:10:23.570708,0.024906000122427843
2023-01-27 11:10:23.575708,0.007579322831767361
2023-01-27 11:10:23.580708,-0.010698040947317992
2023-01-27 11:10:23.585708,-0.028523260559145114
2023-01-27 11:10:23.590708,-0.04435479640960691
2023-01-27 11:10:23.595708,-0.056769815666547235
2023-01-27 11:10:23.600708,-0.06505370140075677
2023-01-27 11:10:23.605708,-0.06966259022168263
2023-01-27 11:10:23.610708,-0.07204949855804435
2023-01-27 11:10:23.615708,-0.07405228234264591
2023-01-27 11:10:23.620708,-0.07731437683105459
2023-01-27 11:10:23.625708,-0.08277336719035135
2023-01-27 11:10:23.630708,-0.09017606824636448
2023-01-27 11:10:23.635708,-0.09804490603893509
2023-01-27 11:10:23.640708,-0.10440807044506063
2023-01-27 11:10:23.645708,-0.10778031377866597
2023-01-27 11:10:23.650708,-0.10765354335308065
2023-01-27 11:10:23.655708,-0.10446912131752238
2023-01-27 11:10:23.660708,-0.09943167865276323
2023-01-27 11:10:23.665708,-0.0941247517994909
2023-01-27 11:10:23.670708,-0.08981546014547334
2023-01-27 11:10:23.675708,-0.08692494680654916
2023-01-27 11:10:23.680708,-0.08517563343048085
2023-01-27 11:10:23.685708,-0.08408295738149013
2023-01-27 11:10:23.690708,-0.08315622806549067
2023-01-27 11:10:23.695708,-0.08192800588844298
2023-01-27 11:10:23.700708,-0.08027136325836177
2023-01-27 11:10:23.705708,-0.0786988786551676
2023-01-27 11:10:23.710708,-0.07798751443624488
2023-01-27 11:10:23.715708,-0.07843450320665545
2023-01-27 11:10:23.720708,-0.07971843332052228
2023-01-27 11:10:23.725708,-0.08142908213059784
2023-01-27 11:10:23.730708,-0.08332451432943336
2023-01-27 11:10:23.735708,-0.08499738772245609
2023-01-27 11:10:23.740708,-0.08577664941549297
2023-01-27 11:10:23.745708,-0.08534656661728422
2023-01-27 11:10:23.750708,-0.08431017398834219
2023-01-27 11:10:23.755708,-0.08385577323904424
2023-01-27 11:10:23.760708,-0.08486311137676228
2023-01-27 11:10:23.765708,-0.08735542972524263
2023-01-27 11:10:23.770708,-0.09056071937084187
2023-01-27 11:10:23.775708,-0.09324973935234064
2023-01-27 11:10:23.780708,-0.09416680037975311
2023-01-27 11:10:23.785708,-0.09253428391306716
2023-01-27 11:10:23.790708,-0.08837302774190903
2023-01-27 11:10:23.795708,-0.0823527944956884
2023-01-27 11:10:23.800708,-0.07534305751323692
2023-01-27 11:10:23.805708,-0.06811123182043487
2023-01-27 11:10:23.810708,-0.06132742017507551
2023-01-27 11:10:23.815708,-0.055686827561050145
2023-01-27 11:10:23.820708,-0.051975648850202484
2023-01-27 11:10:23.825708,-0.05103039008918114
2023-01-27 11:10:23.830708,-0.05353828519582739
2023-01-27 11:10:23.835708,-0.059695763045189865
2023-01-27 11:10:23.840708,-0.06894826889038082
2023-01-27 11:10:23.845708,-0.08006511689155449
2023-01-27 11:10:23.850708,-0.09154637902975078
2023-01-27 11:10:23.855708,-0.10212582179812736
2023-01-27 11:10:23.860708,-0.11111538112163535
2023-01-27 11:10:23.865708,-0.11838427967862745
2023-01-27 11:10:23.870708,-0.1238328218460083
2023-01-27 11:10:23.875708,-0.1264873593665498
2023-01-27 11:10:23.880708,-0.12376070022582994
2023-01-27 11:10:23.885708,-0.1115951644018013
2023-01-27 11:10:23.890708,-0.08587281405925747
2023-01-27 11:10:23.895708,-0.04478904253991197
2023-01-27 11:10:23.900708,0.00882287882268418
2023-01-27 11:10:23.905708,0.06659633188368773
2023-01-27 11:10:23.910708,0.11618793010711655
2023-01-27 11:10:23.915708,0.14513760529462078
2023-01-27 11:10:23.920708,0.14549335837364186
2023-01-27 11:10:23.925708,0.11702065516155827
2023-01-27 11:10:23.930708,0.06740967929363245
2023-01-27 11:10:23.935708,0.009351822575018631
2023-01-27 11:10:23.940708,-0.044138431549072175
2023-01-27 11:10:23.945708,-0.08398589604464304
2023-01-27 11:10:23.950708,-0.10707657039165488
2023-01-27 11:10:23.955708,-0.11554039102787939
2023-01-27 11:10:23.960708,-0.11426468938589088
2023-01-27 11:10:23.965708,-0.1082558927120094
2023-01-27 11:10:23.970708,-0.1010423898696899
2023-01-27 11:10:23.975708,-0.09439214586991133
2023-01-27 11:10:23.980708,-0.08890192210674282
2023-01-27 11:10:23.985708,-0.0847613547624011
2023-01-27 11:10:23.990708,-0.0821465253829956
2023-01-27 11:10:23.995708,-0.08112054080327065
2023-01-27 11:10:24.000708,-0.08135318756103507
2023-01-27 11:10:24.005708,-0.08207502022477256
2023-01-27 11:10:24.010708,-0.08238693326711648
2023-01-27 11:10:24.015708,-0.08169666612979057
2023-01-27 11:10:24.020708,-0.07998287677764887
2023-01-27 11:10:24.025708,-0.0777494634253195
2023-01-27 11:10:24.030708,-0.07570366561412807
2023-01-27 11:10:24.035708,-0.07431285810586193
2023-01-27 11:10:24.040708,-0.07349193096160876
2023-01-27 11:10:24.045708,-0.07264078653459213
2023-01-27 11:10:24.050708,-0.07101576030254356
2023-01-27 11:10:24.055708,-0.06817285460983145
2023-01-27 11:10:24.060708,-0.06421228498220438
2023-01-27 11:10:24.065708,-0.059733917005081155
2023-01-27 11:10:24.070708,-0.05555769056081769
2023-01-27 11:10:24.075708,-0.05232857203313841
2023-01-27 11:10:24.080708,-0.0501966476440429
2023-01-27 11:10:24.085708,-0.04876961406018032
2023-01-27 11:10:24.090708,-0.04735986515879631
2023-01-27 11:10:24.095708,-0.04533126671697728
2023-01-27 11:10:24.100708,-0.04233539104461663
2023-01-27 11:10:24.105708,-0.03837097410157204
2023-01-27 11:10:24.110708,-0.03368079662322991
2023-01-27 11:10:24.115708,-0.028518136907089542
2023-01-27 11:10:24.120708,-0.02291063591837878
2023-01-27 11:10:24.125708,-0.016618707340719158
2023-01-27 11:10:24.130708,-0.009327730163931841
2023-01-27 11:10:24.135708,-0.00088020377378056
2023-01-27 11:10:24.140708,0.008630554191768088
2023-01-27 11:10:24.145708,0.018886861407852677
2023-01-27 11:10:24.150708,0.029425621032714778
2023-01-27 11:10:24.155708,0.039781820231790915
2023-01-27 11:10:24.160708,0.04964371770620337
2023-01-27 11:10:24.165708,0.05884354448941847
2023-01-27 11:10:24.170708,0.06714522838592513
2023-01-27 11:10:24.175708,0.07405648632094118
2023-01-27 11:10:24.180708,0.07885297387838355
2023-01-27 11:10:24.185708,0.08072869048919432
2023-01-27 11:10:24.190708,0.07894913852214805
2023-01-27 11:10:24.195708,0.07306118541895829
2023-01-27 11:10:24.200708,0.06315450370311726
2023-01-27 11:10:24.205708,0.04993226166178696
2023-01-27 11:10:24.210708,0.03445009514689437
2023-01-27 11:10:24.215708,0.017761262879783076
2023-01-27 11:10:24.220708,0.000745256780646675
2023-01-27 11:10:24.225708,-0.015929272722067195
2023-01-27 11:10:24.230708,-0.03182967752218242
2023-01-27 11:10:24.235708,-0.046659242006036675
2023-01-27 11:10:24.240708,-0.05998114868998518
2023-01-27 11:10:24.245708,-0.07107641538668324
2023-01-27 11:10:24.250708,-0.0791895389556884
2023-01-27 11:10:24.255708,-0.08391342184325778
2023-01-27 11:10:24.260708,-0.08534391969442359
2023-01-27 11:10:24.265708,-0.08404680921817971
2023-01-27 11:10:24.270708,-0.08101662248373029
2023-01-27 11:10:24.275708,-0.07748265213556825
2023-01-27 11:10:24.280708,-0.07442951202392568
2023-01-27 11:10:24.285708,-0.07218305255184318
2023-01-27 11:10:24.290708,-0.07046282291412351
2023-01-27 11:10:24.295708,-0.06874054966439516
2023-01-27 11:10:24.300708,-0.06654421985149381
2023-01-27 11:10:24.305708,-0.06374577004079528
2023-01-27 11:10:24.310708,-0.06089469045400607
2023-01-27 11:10:24.315708,-0.05916492635464796
2023-01-27 11:10:24.320708,-0.059620540589094065
2023-01-27 11:10:24.325708,-0.062406543813887216
2023-01-27 11:10:24.330708,-0.06666442006826394
2023-01-27 11:10:24.335708,-0.07105044178483097
2023-01-27 11:10:24.340708,-0.07423719018697725
2023-01-27 11:10:24.345708,-0.07533937579103858
2023-01-27 11:10:24.350708,-0.07440547645092012
2023-01-27 11:10:24.355708,-0.07244381018597167
2023-01-27 11:10:24.360708,-0.0705349445343017
2023-01-27 11:10:24.365708,-0.06887075470675846
2023-01-27 11:10:24.370708,-0.0668807849287986
2023-01-27 11:10:24.375708,-0.06408503543833663
2023-01-27 11:10:24.380708,-0.06043791770935053
2023-01-27 11:10:24.385708,-0.056177784212508235
2023-01-27 11:10:24.390708,-0.052095852792262975
2023-01-27 11:10:24.395708,-0.049837531688373925
2023-01-27 11:10:24.400708,-0.050965946167707395
2023-01-27 11:10:24.405708,-0.055380601670749575
2023-01-27 11:10:24.410708,-0.0613274201750755
2023-01-27 11:10:24.415708,-0.06722848679527638
2023-01-27 11:10:24.420708,-0.07272263616323472
2023-01-27 11:10:24.425708,-0.07752433160210105
2023-01-27 11:10:24.430708,-0.08027136325836182
2023-01-27 11:10:24.435708,-0.07956051275203284
2023-01-27 11:10:24.440708,-0.0757757872343063
2023-01-27 11:10:24.445708,-0.07101580740781052
2023-01-27 11:10:24.450708,-0.06733755767345423
2023-01-27 11:10:24.455708,-0.06567848822965605
2023-01-27 11:10:24.460708,-0.06611149013042439
2023-01-27 11:10:24.465708,-0.0680632279609431
2023-01-27 11:10:24.470708,-0.07007817924022669
2023-01-27 11:10:24.475708,-0.07022530198585926
2023-01-27 11:10:24.480708,-0.06731351464986798
2023-01-27 11:10:24.485708,-0.061554547750910384
2023-01-27 11:10:24.490708,-0.054043136537074946
2023-01-27 11:10:24.495708,-0.04604127022417788
2023-01-27 11:10:24.500708,-0.03882547467947001
2023-01-27 11:10:24.505708,-0.03362100601151916
2023-01-27 11:10:24.510708,-0.031252704560756586
2023-01-27 11:10:24.515708,-0.032022730890964246
2023-01-27 11:10:24.520708,-0.036036770790815326
2023-01-27 11:10:24.525708,-0.043330222267080915
2023-01-27 11:10:24.530708,-0.053490202873945215
2023-01-27 11:10:24.535708,-0.06543578704922685
2023-01-27 11:10:24.540708,-0.07779519259929649
2023-01-27 11:10:24.545708,-0.08932007751247796
2023-01-27 11:10:24.550708,-0.09875854104757298
2023-01-27 11:10:24.555708,-0.1044301023994657
2023-01-27 11:10:24.560708,-0.10395129770040504
2023-01-27 11:10:24.565708,-0.09420654837414989
2023-01-27 11:10:24.570708,-0.07180909812450398
2023-01-27 11:10:24.575708,-0.03455762512375751
2023-01-27 11:10:24.580708,0.016371607780456505
2023-01-27 11:10:24.585708,0.07493259000718933
2023-01-27 11:10:24.590708,0.1307805478572844
2023-01-27 11:10:24.595708,0.17195929473717114
2023-01-27 11:10:24.600708,0.18867015838623036
2023-01-27 11:10:24.605708,0.17674727059164794
2023-01-27 11:10:24.610708,0.13938705623149863
2023-01-27 11:10:24.615708,0.08607545696789078
2023-01-27 11:10:24.620708,0.02904097363352767
2023-01-27 11:10:24.625708,-0.02093087776310883
2023-01-27 11:10:24.630708,-0.05736073106527317
2023-01-27 11:10:24.635708,-0.07883706520637412
2023-01-27 11:10:24.640708,-0.08798837661743153
2023-01-27 11:10:24.645708,-0.08939860013015598
2023-01-27 11:10:24.650708,-0.08741140365600578
2023-01-27 11:10:24.655708,-0.08477762895422726
2023-01-27 11:10:24.660708,-0.08248309791088097
2023-01-27 11:10:24.665708,-0.08028582175085149
2023-01-27 11:10:24.670708,-0.07738649845123292
2023-01-27 11:10:24.675708,-0.07308874498383074
2023-01-27 11:10:24.680708,-0.0673856362700462
2023-01-27 11:10:24.685708,-0.06114159028516887
2023-01-27 11:10:24.690708,-0.055677890777587793
2023-01-27 11:10:24.695708,-0.05209099483826941
2023-01-27 11:10:24.700708,-0.05077362060546872
2023-01-27 11:10:24.705708,-0.05128345371653719
2023-01-27 11:10:24.710708,-0.05252858251333227
2023-01-27 11:10:24.715708,-0.05328456252422572
2023-01-27 11:10:24.720708,-0.05286514759063716
2023-01-27 11:10:24.725708,-0.05147097658845624
2023-01-27 11:10:24.730708,-0.049932204186916296
2023-01-27 11:10:24.735708,-0.0491133843491869
2023-01-27 11:10:24.740708,-0.049427352845668675
2023-01-27 11:10:24.745708,-0.050613636394359625
2023-01-27 11:10:24.750708,-0.05175928398966776
2023-01-27 11:10:24.755708,-0.05161181504364942
2023-01-27 11:10:24.760708,-0.04913886636495586
2023-01-27 11:10:24.765708,-0.04402390414847781
2023-01-27 11:10:24.770708,-0.03680606931447979
2023-01-27 11:10:24.775708,-0.02867743344420376
2023-01-27 11:10:24.780708,-0.021083554252982074
2023-01-27 11:10:24.785708,-0.01518956056153609
2023-01-27 11:10:24.790708,-0.011347135528922019
2023-01-27 11:10:24.795708,-0.008884603087656871
2023-01-27 11:10:24.800708,-0.006418824195861826
2023-01-27 11:10:24.805708,-0.0024937775951576666
2023-01-27 11:10:24.810708,0.0038224458694457865
2023-01-27 11:10:24.815708,0.012599913682554122
2023-01-27 11:10:24.820708,0.02305487915873516
2023-01-27 11:10:24.825708,0.03394123809883684
2023-01-27 11:10:24.830708,0.0441624745726585
2023-01-27 11:10:24.835708,0.05321286638574097
2023-01-27 11:10:24.840708,0.06118317693471899
2023-01-27 11:10:24.845708,0.06844964815254648
2023-01-27 11:10:24.850708,0.0753190144896507
2023-01-27 11:10:24.855708,0.08175877756643132
2023-01-27 11:10:24.860708,0.08726716041564941
2023-01-27 11:10:24.865708,0.09098444482163347
2023-01-27 11:10:24.870708,0.09202718734741207
2023-01-27 11:10:24.875708,0.08979805753957036
2023-01-27 11:10:24.880708,0.08406977355480189
2023-01-27 11:10:24.885708,0.0749283620898036
2023-01-27 11:10:24.890708,0.0627458095550537
2023-01-27 11:10:24.895708,0.04817147814352065
2023-01-27 11:10:24.900708,0.03207008168101309
2023-01-27 11:10:24.905708,0.015461447961682731
2023-01-27 11:10:24.910708,-0.0005048513412475206
2023-01-27 11:10:24.915708,-0.01468336970245887
2023-01-27 11:10:24.920708,-0.02625226974487302
2023-01-27 11:10:24.925708,-0.034991725638882934
2023-01-27 11:10:24.930708,-0.041253566741943304
2023-01-27 11:10:24.935708,-0.0456780124727627
2023-01-27 11:10:24.940708,-0.048898458480834905
2023-01-27 11:10:24.945708,-0.05132173725902404
2023-01-27 11:10:24.950708,-0.05298535153269761
2023-01-27 11:10:24.955708,-0.05362148113449145
2023-01-27 11:10:24.960708,-0.0529853515326976
2023-01-27 11:10:24.965708,-0.051167889549368364
2023-01-27 11:10:24.970708,-0.04858593270182599
2023-01-27 11:10:24.975708,-0.045771546094642054
2023-01-27 11:10:24.980708,-0.04327297210693354
2023-01-27 11:10:24.985708,-0.04163369693880763
2023-01-27 11:10:24.990708,-0.041229527443647294
2023-01-27 11:10:24.995708,-0.04209392423744733
2023-01-27 11:10:25.000708,-0.044018231332301976
2023-01-27 11:10:25.005708,-0.04675370883204039
2023-01-27 11:10:25.010708,-0.04993220418691635
2023-01-27 11:10:25.015708,-0.05290868078965415
2023-01-27 11:10:25.020708,-0.055052839219570104
2023-01-27 11:10:25.025708,-0.05626276032050776
2023-01-27 11:10:25.030708,-0.05687991902232166
2023-01-27 11:10:25.035708,-0.057027432302296836
2023-01-27 11:10:25.040708,-0.056399106979370076
2023-01-27 11:10:25.045708,-0.05482475437847251
2023-01-27 11:10:25.050708,-0.0525766611099243
2023-01-27 11:10:25.055708,-0.04981504301994124
2023-01-27 11:10:25.060708,-0.04620591923594472
2023-01-27 11:10:25.065708,-0.04164433748553404
2023-01-27 11:10:25.070708,-0.03709455579519274
2023-01-27 11:10:25.075708,-0.03408330808242743
2023-01-27 11:10:25.080708,-0.033368270844221115
2023-01-27 11:10:25.085708,-0.03454837191198857
2023-01-27 11:10:25.090708,-0.03687819093465801
2023-01-27 11:10:25.095708,-0.03988589671961428
2023-01-27 11:10:25.100708,-0.04317681118845927
2023-01-27 11:10:25.105708,-0.04629096192644797
2023-01-27 11:10:25.110708,-0.049042701721191406
2023-01-27 11:10:25.115708,-0.05156305066440501
2023-01-27 11:10:25.120708,-0.053730607032775775
2023-01-27 11:10:25.125708,-0.05489901018060885
2023-01-27 11:10:25.130708,-0.054427783936262054
2023-01-27 11:10:25.135708,-0.05221435279550529
2023-01-27 11:10:25.140708,-0.04858593270182597
2023-01-27 11:10:25.145708,-0.04408362313453058
2023-01-27 11:10:25.150708,-0.03959476947784419
2023-01-27 11:10:25.155708,-0.03627376649826025
2023-01-27 11:10:25.160708,-0.034882824867963694
2023-01-27 11:10:25.165708,-0.03530391833224257
2023-01-27 11:10:25.170708,-0.036854147911071694
2023-01-27 11:10:25.175708,-0.03884006022444404
2023-01-27 11:10:25.180708,-0.04067659378051751
2023-01-27 11:10:25.185708,-0.04188800640587145
2023-01-27 11:10:25.190708,-0.04238347336649889
2023-01-27 11:10:25.195708,-0.04252914434607704
2023-01-27 11:10:25.200708,-0.04264792054891576
2023-01-27 11:10:25.205708,-0.042610799229158385
2023-01-27 11:10:25.210708,-0.04211902618408199
2023-01-27 11:10:25.215708,-0.041122854129920484
2023-01-27 11:10:25.220708,-0.03969093412160872
2023-01-27 11:10:25.225708,-0.03769819981557949
2023-01-27 11:10:25.230708,-0.03490686416625974
2023-01-27 11:10:25.235708,-0.031132426405396273
2023-01-27 11:10:25.240708,-0.0261080265045166
2023-01-27 11:10:25.245708,-0.019526126016230574
2023-01-27 11:10:25.250708,-0.011635622009634906
2023-01-27 11:10:25.255708,-0.0036724406937097835
2023-01-27 11:10:25.260708,0.002596378326416039
2023-01-27 11:10:25.265708,0.0056912397754438305
2023-01-27 11:10:25.270708,0.004784067627042503
2023-01-27 11:10:25.275708,-0.00021632114023559503
2023-01-27 11:10:25.280708,-0.008462270721793098
2023-01-27 11:10:25.285708,-0.018314220737834393
2023-01-27 11:10:25.290708,-0.028223594650626085
2023-01-27 11:10:25.295708,-0.03753357914728896
2023-01-27 11:10:25.300708,-0.04625400155782688
2023-01-27 11:10:25.305708,-0.05415273183090528
2023-01-27 11:10:25.310708,-0.06000518798828121
2023-01-27 11:10:25.315708,-0.06110027948781845
2023-01-27 11:10:25.320708,-0.05308151245117178
2023-01-27 11:10:25.325708,-0.03103336763835213
2023-01-27 11:10:25.330708,0.007813176140189108
2023-01-27 11:10:25.335708,0.06129719976125376
2023-01-27 11:10:25.340708,0.12152493000030506
2023-01-27 11:10:25.345708,0.1765307672263025
2023-01-27 11:10:25.350708,0.21362423896789545
2023-01-27 11:10:25.355708,0.22358143208491726
2023-01-27 11:10:25.360708,0.20432054996490462
2023-01-27 11:10:25.365708,0.16186801727094033
2023-01-27 11:10:25.370708,0.10760545730590816
2023-01-27 11:10:25.375708,0.05359526413204177
2023-01-27 11:10:25.380708,0.0087747974321246
2023-01-27 11:10:25.385708,-0.02281587843218007
2023-01-27 11:10:25.390708,-0.04195074364542959
2023-01-27 11:10:25.395708,-0.05241141074725389
2023-01-27 11:10:25.400708,-0.058154068887233686
2023-01-27 11:10:25.405708,-0.061374692750316755
2023-01-27 11:10:25.410708,-0.0626977309584617
2023-01-27 11:10:25.415708,-0.062339832860009776
2023-01-27 11:10:25.420708,-0.06058216094970699
2023-01-27 11:10:25.425708,-0.057703586562060954
2023-01-27 11:10:25.430708,-0.05421141907572745
2023-01-27 11:10:25.435708,-0.050924211458450844
2023-01-27 11:10:25.440708,-0.0483214855194091
2023-01-27 11:10:25.445708,-0.046112069700124395
2023-01-27 11:10:25.450708,-0.04392206668853754
2023-01-27 11:10:25.455708,-0.042040096025671055
2023-01-27 11:10:25.460708,-0.04098912328481673
2023-01-27 11:10:25.465708,-0.04079969259223331
2023-01-27 11:10:25.470708,-0.04125356674194332
2023-01-27 11:10:25.475708,-0.04234339125820397
2023-01-27 11:10:25.480708,-0.043825905770063386
2023-01-27 11:10:25.485708,-0.04479606896940809
2023-01-27 11:10:25.490708,-0.04445096105337138
2023-01-27 11:10:25.495708,-0.04290436219342807
2023-01-27 11:10:25.500708,-0.04060447216033931
2023-01-27 11:10:25.505708,-0.03744345556057329
2023-01-27 11:10:25.510708,-0.03315190598368641
2023-01-27 11:10:25.515708,-0.028004953346933148
2023-01-27 11:10:25.520708,-0.022333662956953014
2023-01-27 11:10:25.525708,-0.01596811026375764
2023-01-27 11:10:25.530708,-0.009135405533015714
2023-01-27 11:10:25.535708,-0.003340135630173525
2023-01-27 11:10:25.540708,-0.00028848648071280535
2023-01-27 11:10:25.545708,-0.00034159710242923324
2023-01-27 11:10:25.550708,-0.002812743186950598
2023-01-27 11:10:25.555708,-0.006910377974837539
2023-01-27 11:10:25.560708,-0.01117885112762443
2023-01-27 11:10:25.565708,-0.012917797832257827
2023-01-27 11:10:25.570708,-0.009832581505179365
2023-01-27 11:10:25.575708,-0.0018729532606706922
2023-01-27 11:10:25.580708,0.009784500114619737
2023-01-27 11:10:25.585708,0.024629177736787244
2023-01-27 11:10:25.590708,0.0419988259673118
2023-01-27 11:10:25.595708,0.05945399535933988
2023-01-27 11:10:25.600708,0.07433335483074177
2023-01-27 11:10:25.605708,0.08629376447787236
2023-01-27 11:10:25.610708,0.09587367624044404
2023-01-27 11:10:25.615708,0.10133711017588945
2023-01-27 11:10:25.620708,0.10020097345113746
2023-01-27 11:10:25.625708,0.09364729990876076
2023-01-27 11:10:25.630708,0.08556028455495825
2023-01-27 11:10:25.635708,0.0764977528086789
2023-01-27 11:10:25.640708,0.06267368793487532
2023-01-27 11:10:25.645708,0.04267631584242329
2023-01-27 11:10:25.650708,0.021396081894636067
2023-01-27 11:10:25.655708,0.004546486037617806
2023-01-27 11:10:25.660708,-0.007668932434171386
2023-01-27 11:10:25.665708,-0.018342066647331148
2023-01-27 11:10:25.670708,-0.028055310249328586
2023-01-27 11:10:25.675708,-0.03519575644639593
2023-01-27 11:10:25.680708,-0.040364068001508664
2023-01-27 11:10:25.685708,-0.04619299426137145
2023-01-27 11:10:25.690708,-0.05303343385457985
2023-01-27 11:10:25.695708,-0.05836132742686018
2023-01-27 11:10:25.700708,-0.06072640419006336
2023-01-27 11:10:25.705708,-0.06134959733411785
2023-01-27 11:10:25.710708,-0.06147166341543192
2023-01-27 11:10:25.715708,-0.06093339471078915
2023-01-27 11:10:25.720708,-0.060101352632045704
2023-01-27 11:10:25.725708,-0.06069579688804585
2023-01-27 11:10:25.730708,-0.06356319040060045
2023-01-27 11:10:25.735708,-0.06737928064758916
2023-01-27 11:10:25.740708,-0.07043878734111783
2023-01-27 11:10:25.745708,-0.07222156149430312
2023-01-27 11:10:25.750708,-0.07255434989929191
2023-01-27 11:10:25.755708,-0.07089911395235689
2023-01-27 11:10:25.760708,-0.0674577578902244
2023-01-27 11:10:25.765708,-0.06373265973518162
2023-01-27 11:10:25.770708,-0.06108701229095447
2023-01-27 11:10:25.775708,-0.05967216672405434
2023-01-27 11:10:25.780708,-0.05930801481008517
2023-01-27 11:10:25.785708,-0.06026955116675287
2023-01-27 11:10:25.790708,-0.062481366097926976
2023-01-27 11:10:25.795708,-0.06492943812418905
2023-01-27 11:10:25.800708,-0.06664037704467769
2023-01-27 11:10:25.805708,-0.0675192757599177
2023-01-27 11:10:25.810708,-0.06772220134735102
2023-01-27 11:10:25.815708,-0.06707568311162501
2023-01-27 11:10:25.820708,-0.06572683900594709
2023-01-27 11:10:25.825708,-0.06458779290523814
2023-01-27 11:10:25.830708,-0.064476728439331
2023-01-27 11:10:25.835708,-0.06536622819533001
2023-01-27 11:10:25.840708,-0.06688078492879862
2023-01-27 11:10:25.845708,-0.06883532208606906
2023-01-27 11:10:25.850708,-0.07082343101501462
2023-01-27 11:10:25.855708,-0.07200525572690254
2023-01-27 11:10:25.860708,-0.07192929834127415
2023-01-27 11:10:25.865708,-0.07109625997168456
2023-01-27 11:10:25.870708,-0.07027050107717514
2023-01-27 11:10:25.875708,-0.06970289240666344
2023-01-27 11:10:25.880708,-0.06935696303844449
2023-01-27 11:10:25.885708,-0.06930848145173865
2023-01-27 11:10:25.890708,-0.06950120627880085
2023-01-27 11:10:25.895708,-0.06965599823394607
2023-01-27 11:10:25.900708,-0.06988584995269767
2023-01-27 11:10:25.905708,-0.07094611567852123
2023-01-27 11:10:25.910708,-0.07341980934143057
2023-01-27 11:10:25.915708,-0.07696069431367981
2023-01-27 11:10:25.920708,-0.08058389276266086
2023-01-27 11:10:25.925708,-0.08326874762539538
2023-01-27 11:10:25.930708,-0.08406977355480189
2023-01-27 11:10:25.935708,-0.08229869565081946
2023-01-27 11:10:25.940708,-0.07820387929677959
2023-01-27 11:10:25.945708,-0.0732442092037304
2023-01-27 11:10:25.950708,-0.06933292001485815
2023-01-27 11:10:25.955708,-0.06792033390333108
2023-01-27 11:10:25.960708,-0.0697175711393356
2023-01-27 11:10:25.965708,-0.07456612270116354
2023-01-27 11:10:25.970708,-0.08106470108032221
2023-01-27 11:10:25.975708,-0.08672381830056719
2023-01-27 11:10:25.980708,-0.0890942439436912
2023-01-27 11:10:25.985708,-0.08690858201108714
2023-01-27 11:10:25.990708,-0.08034348487854
2023-01-27 11:10:25.995708,-0.07079143018726637
2023-01-27 11:10:26.000708,-0.06063024327158921
2023-01-27 11:10:26.005708,-0.05260053447112309
2023-01-27 11:10:26.010708,-0.04868209362030019
2023-01-27 11:10:26.015708,-0.049397956499060314
2023-01-27 11:10:26.020708,-0.054115258157253224
2023-01-27 11:10:26.025708,-0.06162353955596265
2023-01-27 11:10:26.030708,-0.07031857967376698
2023-01-27 11:10:26.035708,-0.07841206990569848
2023-01-27 11:10:26.040708,-0.08457462489604939
2023-01-27 11:10:26.045708,-0.0884761734143157
2023-01-27 11:10:26.050708,-0.09072899818420412
2023-01-27 11:10:26.055708,-0.09254143310285094
2023-01-27 11:10:26.060708,-0.0952486246824264
2023-01-27 11:10:26.065708,-0.09925617406597666
2023-01-27 11:10:26.070708,-0.10255694389343259
2023-01-27 11:10:26.075708,-0.10021059080738394
2023-01-27 11:10:26.080708,-0.08587281405925751
2023-01-27 11:10:26.085708,-0.05483766750090993
2023-01-27 11:10:26.090708,-0.007140040397643993
2023-01-27 11:10:26.095708,0.05060647517314043
2023-01-27 11:10:26.100708,0.10582645982503883
2023-01-27 11:10:26.105708,0.14371612663600752
2023-01-27 11:10:26.110708,0.15292188525199885
2023-01-27 11:10:26.115708,0.13020995612184333
2023-01-27 11:10:26.120708,0.081641674041748
2023-01-27 11:10:26.125708,0.020019931068870477
2023-01-27 11:10:26.130708,-0.039907298982143374
2023-01-27 11:10:26.135708,-0.08651095326567343
2023-01-27 11:10:26.140708,-0.11460125446319577
2023-01-27 11:10:26.145708,-0.12560344737810047
2023-01-27 11:10:26.150708,-0.12496273219585408
2023-01-27 11:10:26.155708,-0.11880494013424574
2023-01-27 11:10:26.160708,-0.11169235408306118
2023-01-27 11:10:26.165708,-0.10589285994508187
2023-01-27 11:10:26.170708,-0.10176360607147207
2023-01-27 11:10:26.175708,-0.09881176903270689
2023-01-27 11:10:26.180708,-0.09678721427917475
2023-01-27 11:10:26.185708,-0.09602562500724028
2023-01-27 11:10:26.190708,-0.09695550054311748
2023-01-27 11:10:26.195708,-0.09951349261294157
2023-01-27 11:10:26.200708,-0.10303775966167435
2023-01-27 11:10:26.205708,-0.10650605888704215
2023-01-27 11:10:26.210708,-0.10887961089611048
2023-01-27 11:10:26.215708,-0.10955846533208943
2023-01-27 11:10:26.220708,-0.10875940322875968
2023-01-27 11:10:26.225708,-0.10739228755184933
2023-01-27 11:10:26.230708,-0.10642747581005092
2023-01-27 11:10:26.235708,-0.10627865246989547
2023-01-27 11:10:26.240708,-0.10659575462341299
2023-01-27 11:10:26.245708,-0.10645431976193119
2023-01-27 11:10:26.250708,-0.10484080016613001
2023-01-27 11:10:26.255708,-0.1012777085286889
2023-01-27 11:10:26.260708,-0.09618620574474329
2023-01-27 11:10:26.265708,-0.09067894277326177
2023-01-27 11:10:26.270708,-0.0859930142760276
2023-01-27 11:10:26.275708,-0.08295398765703564
2023-01-27 11:10:26.280708,-0.08159359544515601
2023-01-27 11:10:26.285708,-0.08103611449229212
2023-01-27 11:10:26.290708,-0.07991075515747068
2023-01-27 11:10:26.295708,-0.0770968938061736
2023-01-27 11:10:26.300708,-0.07209758460521688
2023-01-27 11:10:26.305708,-0.06486863913307654
2023-01-27 11:10:26.310708,-0.05572597309947012
2023-01-27 11:10:26.315708,-0.04547833994383052
2023-01-27 11:10:26.320708,-0.0350991897284984
2023-01-27 11:10:26.325708,-0.024986620330347466
2023-01-27 11:10:26.330708,-0.01500129699707028
2023-01-27 11:10:26.335708,-0.00544185276341111
2023-01-27 11:10:26.340708,0.0027406215667724254
2023-01-27 11:10:26.345708,0.00924078986178274
2023-01-27 11:10:26.350708,0.015241703018546061
2023-01-27 11:10:26.355708,0.022148847305617867
2023-01-27 11:10:26.360708,0.029906433075666355
2023-01-27 11:10:26.365708,0.0373650114004443
2023-01-27 11:10:26.370708,0.04384994506835927
2023-01-27 11:10:26.375708,0.04926043883124156
2023-01-27 11:10:26.380708,0.052768986672162954
2023-01-27 11:10:26.385708,0.052633246459355555
2023-01-27 11:10:26.390708,0.04764835163950919
2023-01-27 11:10:26.395708,0.03807077537740432
2023-01-27 11:10:26.400708,0.025002162903547197
2023-01-27 11:10:26.405708,0.009696896129569001
2023-01-27 11:10:26.410708,-0.006346702575683487
2023-01-27 11:10:26.415708,-0.021606564895142545
2023-01-27 11:10:26.420708,-0.035507880151271806
2023-01-27 11:10:26.425708,-0.04873601361076816
2023-01-27 11:10:26.430708,-0.06219287961721419
2023-01-27 11:10:26.435708,-0.07597799316524464
2023-01-27 11:10:26.440708,-0.08950293064117429
2023-01-27 11:10:26.445708,-0.10197050048034242
2023-01-27 11:10:26.450708,-0.11241357028484342
2023-01-27 11:10:26.455708,-0.11986974391007785
2023-01-27 11:10:26.460708,-0.12407322973012914
2023-01-27 11:10:26.465708,-0.12574038870832874
2023-01-27 11:10:26.470708,-0.12590031325817097
2023-01-27 11:10:26.475708,-0.1252285953636406
2023-01-27 11:10:26.480708,-0.12416939437389365
2023-01-27 11:10:26.485708,-0.12318575257769411
2023-01-27 11:10:26.490708,-0.12248655408620826
2023-01-27 11:10:26.495708,-0.12180323146081477
2023-01-27 11:10:26.500708,-0.12073159217834464
2023-01-27 11:10:26.505708,-0.11903597383731793
2023-01-27 11:10:26.510708,-0.11645238101482386
2023-01-27 11:10:26.515708,-0.11262535895353415
2023-01-27 11:10:26.520708,-0.10760545730590818
2023-01-27 11:10:26.525708,-0.10216111559000311
2023-01-27 11:10:26.530708,-0.09731610864400861
2023-01-27 11:10:26.535708,-0.09375335372696343
2023-01-27 11:10:26.540708,-0.0917627438902854
2023-01-27 11:10:26.545708,-0.09136788709198033
2023-01-27 11:10:26.550708,-0.09221951663494107
2023-01-27 11:10:26.555708,-0.09367707323513716
2023-01-27 11:10:26.560708,-0.09532074630260458
2023-01-27 11:10:26.565708,-0.09721565029027729
2023-01-27 11:10:26.570708,-0.09950380027294144
2023-01-27 11:10:26.575708,-0.10199395008169457
2023-01-27 11:10:26.580708,-0.10433594882488245
2023-01-27 11:10:26.585708,-0.10631940388624385
2023-01-27 11:10:26.590708,-0.10779778659343704
2023-01-27 11:10:26.595708,-0.10859877846087601
2023-01-27 11:10:26.600708,-0.10873536765575399
2023-01-27 11:10:26.605708,-0.10844972617088793
2023-01-27 11:10:26.610708,-0.10782182216644277
2023-01-27 11:10:26.615708,-0.10656344423023004
2023-01-27 11:10:26.620708,-0.10440807044506069
2023-01-27 11:10:26.625708,-0.10149784059636338
2023-01-27 11:10:26.630708,-0.09822964668273917
2023-01-27 11:10:26.635708,-0.0949707247421663
2023-01-27 11:10:26.640708,-0.09207527339458457
2023-01-27 11:10:26.645708,-0.08984057154415043
2023-01-27 11:10:26.650708,-0.08813261985778799
2023-01-27 11:10:26.655708,-0.08622511919690735
2023-01-27 11:10:26.660708,-0.08325239270925522
2023-01-27 11:10:26.665708,-0.0787600491025258
2023-01-27 11:10:26.670708,-0.07284283638000479
2023-01-27 11:10:26.675708,-0.0661564773760357
2023-01-27 11:10:26.680708,-0.06005327031016342
2023-01-27 11:10:26.685708,-0.0563774225016196
2023-01-27 11:10:26.690708,-0.05666355416178698
2023-01-27 11:10:26.695708,-0.061398589080228834
2023-01-27 11:10:26.700708,-0.0699579715728759
2023-01-27 11:10:26.705708,-0.08093083321401835
2023-01-27 11:10:26.710708,-0.09243588149547566
2023-01-27 11:10:26.715708,-0.10264167120033897
2023-01-27 11:10:26.720708,-0.1105384081602096
2023-01-27 11:10:26.725708,-0.11623460500002723
2023-01-27 11:10:26.730708,-0.12025078386068333
2023-01-27 11:10:26.735708,-0.12233796010759668
2023-01-27 11:10:26.740708,-0.1206594705581664
2023-01-27 11:10:26.745708,-0.11166391994492783
2023-01-27 11:10:26.750708,-0.09089728444814679
2023-01-27 11:10:26.755708,-0.05512342839900282
2023-01-27 11:10:26.760708,-0.005192756652832007
2023-01-27 11:10:26.765708,0.052211624015611184
2023-01-27 11:10:26.770708,0.10553797334432602
2023-01-27 11:10:26.775708,0.14184109467023245
2023-01-27 11:10:26.780708,0.1512630879878997
2023-01-27 11:10:26.785708,0.1308332629415344
2023-01-27 11:10:26.790708,0.08596897125244142
2023-01-27 11:10:26.795708,0.028552889318425187
2023-01-27 11:10:26.800708,-0.027766823768615695
2023-01-27 11:10:26.805708,-0.07248168480165214
2023-01-27 11:10:26.810708,-0.10087411105632782
2023-01-27 11:10:26.815708,-0.11388492204716526
2023-01-27 11:10:26.820708,-0.1161158084869384
2023-01-27 11:10:26.825708,-0.11307792330490354
2023-01-27 11:10:26.830708,-0.10883152484893789
2023-01-27 11:10:26.835708,-0.10513704237024338
2023-01-27 11:10:26.840708,-0.10222037881612767
2023-01-27 11:10:26.845708,-0.09992512203698448
2023-01-27 11:10:26.850708,-0.09815752506256095
2023-01-27 11:10:26.855708,-0.09681495210215907
2023-01-27 11:10:26.860708,-0.09580155462026592
2023-01-27 11:10:26.865708,-0.0950479032845871
2023-01-27 11:10:26.870708,-0.09431104362010953
2023-01-27 11:10:26.875708,-0.09313682176535996
2023-01-27 11:10:26.880708,-0.0912578925490379
2023-01-27 11:10:26.885708,-0.08888923330165956
2023-01-27 11:10:26.890708,-0.0864497870206832
2023-01-27 11:10:26.895708,-0.08416302934635286
2023-01-27 11:10:26.900708,-0.08207440376281729
2023-01-27 11:10:26.905708,-0.08018574003198176
2023-01-27 11:10:26.910708,-0.0783240795135498
2023-01-27 11:10:26.915708,-0.07613273395181726
2023-01-27 11:10:26.920708,-0.07351597398519505
2023-01-27 11:10:26.925708,-0.0709454812957429
2023-01-27 11:10:26.930708,-0.06906847655773157
2023-01-27 11:10:26.935708,-0.06814136666250928
2023-01-27 11:10:26.940708,-0.0679866522550582
2023-01-27 11:10:26.945708,-0.06817532007570783
2023-01-27 11:10:26.950708,-0.06793856620788566
2023-01-27 11:10:26.955708,-0.06622534023988777
2023-01-27 11:10:26.960708,-0.06233712285757061
2023-01-27 11:10:26.965708,-0.056414247001726106
2023-01-27 11:10:26.970708,-0.04899462312459938
2023-01-27 11:10:26.975708,-0.040333687774631276
2023-01-27 11:10:26.980708,-0.030555527657270383
2023-01-27 11:10:26.985708,-0.020174225155114654
2023-01-27 11:10:26.990708,-0.009856621734797948
2023-01-27 11:10:26.995708,0.0001932377184797621
2023-01-27 11:10:27.000708,0.009976824745535772
2023-01-27 11:10:27.005708,0.01891708432989254
2023-01-27 11:10:27.010708,0.026132067665457677
2023-01-27 11:10:27.015708,0.03169270018368747
2023-01-27 11:10:27.020708,0.036878190934657995
2023-01-27 11:10:27.025708,0.04274669343514939
2023-01-27 11:10:27.030708,0.04894654080271722
2023-01-27 11:10:27.035708,0.05434393123323434
2023-01-27 11:10:27.040708,0.05832235142588608
2023-01-27 11:10:27.045708,0.0608792056211763
2023-01-27 11:10:27.050708,0.061760149896144735
2023-01-27 11:10:27.055708,0.06018146206276693
2023-01-27 11:10:27.060708,0.05541344732046117
2023-01-27 11:10:27.065708,0.04719848650804977
2023-01-27 11:10:27.070708,0.035652123391628196
2023-01-27 11:10:27.075708,0.02127436432639907
2023-01-27 11:10:27.080708,0.005192756652831989
2023-01-27 11:10:27.085708,-0.011029876446454675
2023-01-27 11:10:27.090708,-0.026156108826398804
2023-01-27 11:10:27.095708,-0.039817934895655334
2023-01-27 11:10:27.100708,-0.05233625695109358
2023-01-27 11:10:27.105708,-0.06420428171786115
2023-01-27 11:10:27.110708,-0.07570366561412811
2023-01-27 11:10:27.115708,-0.08662594044995166
2023-01-27 11:10:27.120708,-0.09609004110097874
2023-01-27 11:10:27.125708,-0.10276834717945164
2023-01-27 11:10:27.130708,-0.10556201636791215
2023-01-27 11:10:27.135708,-0.10420317911312808
2023-01-27 11:10:27.140708,-0.09935955703258509
2023-01-27 11:10:27.145708,-0.09238855240634533
2023-01-27 11:10:27.150708,-0.08500735461711881
2023-01-27 11:10:27.155708,-0.07885011750209073
2023-01-27 11:10:27.160708,-0.07493436336517328
2023-01-27 11:10:27.165708,-0.07339001132144125
2023-01-27 11:10:27.170708,-0.07368426024913774
2023-01-27 11:10:27.175708,-0.07507339355696026
2023-01-27 11:10:27.180708,-0.07690569013357153
2023-01-27 11:10:27.185708,-0.07875104376334544
2023-01-27 11:10:27.190708,-0.08046369254589075
2023-01-27 11:10:27.195708,-0.08209090781543853
2023-01-27 11:10:27.200708,-0.08358895778655996
2023-01-27 11:10:27.205708,-0.08462453066179791
2023-01-27 11:10:27.210708,-0.08471886813640585
2023-01-27 11:10:27.215708,-0.08358234859866304
2023-01-27 11:10:27.220708,-0.08132915198802937
2023-01-27 11:10:27.225708,-0.07851479844564119
2023-01-27 11:10:27.230708,-0.07606427371501918
2023-01-27 11:10:27.235708,-0.07500507545694317
2023-01-27 11:10:27.240708,-0.07596810907125467
2023-01-27 11:10:27.245708,-0.07875211219156293
2023-01-27 11:10:27.250708,-0.08231481164693828
2023-01-27 11:10:27.255708,-0.08519661373891829
2023-01-27 11:10:27.260708,-0.08611321449279781
2023-01-27 11:10:27.265708,-0.08450373671095529
2023-01-27 11:10:27.270708,-0.08084833621978746
2023-01-27 11:10:27.275708,-0.07650497853398561
2023-01-27 11:10:27.280708,-0.07303516566753378
2023-01-27 11:10:27.285708,-0.07142895368586209
2023-01-27 11:10:27.290708,-0.07171293348073947
2023-01-27 11:10:27.295708,-0.07304284039136855
2023-01-27 11:10:27.300708,-0.07411698997020723
2023-01-27 11:10:27.305708,-0.07378578229950666
2023-01-27 11:10:27.310708,-0.07166485488414755
2023-01-27 11:10:27.315708,-0.06836422705671504
2023-01-27 11:10:27.320708,-0.06512582302093499
2023-01-27 11:10:27.325708,-0.06317342651637771
2023-01-27 11:10:27.330708,-0.0632266253232955
2023-01-27 11:10:27.335708,-0.0652831701738558
2023-01-27 11:10:27.340708,-0.0685876607894897
2023-01-27 11:10:27.345708,-0.07187422792055356
2023-01-27 11:10:27.350708,-0.0739246606826782
2023-01-27 11:10:27.355708,-0.07410179412596578
2023-01-27 11:10:27.360708,-0.07245819270610795
2023-01-27 11:10:27.365708,-0.06946496333327724
2023-01-27 11:10:27.370708,-0.06567876040935507
2023-01-27 11:10:27.375708,-0.06147470992844513
2023-01-27 11:10:27.380708,-0.05685587972402571
2023-01-27 11:10:27.385708,-0.05150928696194718
2023-01-27 11:10:27.390708,-0.04519621655344958
2023-01-27 11:10:27.395708,-0.038160807627022855
2023-01-27 11:10:27.400708,-0.0311805810779333
2023-01-27 11:10:27.405708,-0.02531557188277151
2023-01-27 11:10:27.410708,-0.02163648605346668
2023-01-27 11:10:27.415708,-0.02097926142138795
2023-01-27 11:10:27.420708,-0.02367993257939805
2023-01-27 11:10:27.425708,-0.02946438263071783
2023-01-27 11:10:27.430708,-0.037623446434736196
2023-01-27 11:10:27.435708,-0.047241801932439716
2023-01-27 11:10:27.440708,-0.057264566421508664
2023-01-27 11:10:27.445708,-0.0666065149798265
2023-01-27 11:10:27.450708,-0.07450163364410398
2023-01-27 11:10:27.455708,-0.08075618523253367
2023-01-27 11:10:27.460708,-0.08544008433818806
2023-01-27 11:10:27.465708,-0.08811009942371445
2023-01-27 11:10:27.470708,-0.08707483857870099
2023-01-27 11:10:27.475708,-0.07912704829388313
2023-01-27 11:10:27.480708,-0.060125391930341665
2023-01-27 11:10:27.485708,-0.026774918617504816
2023-01-27 11:10:27.490708,0.020795067772269176
2023-01-27 11:10:27.495708,0.0771774578591124
2023-01-27 11:10:27.500708,0.13210277259349812
2023-01-27 11:10:27.505708,0.17328881917509048
2023-01-27 11:10:27.510708,0.19052128493785842
2023-01-27 11:10:27.515708,0.1793469551012767
2023-01-27 11:10:27.520708,0.14287292957305892
2023-01-27 11:10:27.525708,0.0906470840407756
2023-01-27 11:10:27.530708,0.03495494648814197
2023-01-27 11:10:27.535708,-0.01351092809856657
2023-01-27 11:10:27.540708,-0.0484657287597656
2023-01-27 11:10:27.545708,-0.06862049453469768
2023-01-27 11:10:27.550708,-0.07661720365285866
2023-01-27 11:10:27.555708,-0.07707305791498552
2023-01-27 11:10:27.560708,-0.07447759807109829
2023-01-27 11:10:27.565708,-0.07187263979091528
2023-01-27 11:10:27.570708,-0.07075130939483637
2023-01-27 11:10:27.575708,-0.07152285067639179
2023-01-27 11:10:27.580708,-0.07373233884572979
2023-01-27 11:10:27.585708,-0.07620366643028118
2023-01-27 11:10:27.590708,-0.0776269063353538
2023-01-27 11:10:27.595708,-0.07725774545647483
2023-01-27 11:10:27.600708,-0.07503052800893775
2023-01-27 11:10:27.605708,-0.07126109727155353
2023-01-27 11:10:27.610708,-0.06659229844808566
2023-01-27 11:10:27.615708,-0.062041697420017125
2023-01-27 11:10:27.620708,-0.0585627555847167
2023-01-27 11:10:27.625708,-0.056415542562504105
2023-01-27 11:10:27.630708,-0.055221121758222504
2023-01-27 11:10:27.635708,-0.05462554071152804
2023-01-27 11:10:27.640708,-0.05459606647491451
2023-01-27 11:10:27.645708,-0.05505413250572498
2023-01-27 11:10:27.650708,-0.05558172985911359
2023-01-27 11:10:27.655708,-0.055641278128038284
2023-01-27 11:10:27.660708,-0.054884552955627365
2023-01-27 11:10:27.665708,-0.053187570176086704
2023-01-27 11:10:27.670708,-0.05060533806681631
2023-01-27 11:10:27.675708,-0.047376965834279444
2023-01-27 11:10:27.680708,-0.04380186647176737
2023-01-27 11:10:27.685708,-0.04003302745561778
2023-01-27 11:10:27.690708,-0.03608485311269761
2023-01-27 11:10:27.695708,-0.03201252737962604
2023-01-27 11:10:27.700708,-0.027935108169913205
2023-01-27 11:10:27.705708,-0.023908933097518976
2023-01-27 11:10:27.710708,-0.01990556716918943
2023-01-27 11:10:27.715708,-0.01582804911368631
2023-01-27 11:10:27.720708,-0.011371175758540597
2023-01-27 11:10:27.725708,-0.005952966704885175
2023-01-27 11:10:27.730708,0.0009856622200459099
2023-01-27 11:10:27.735708,0.009595642659448282
2023-01-27 11:10:27.740708,0.019593041390180515
2023-01-27 11:10:27.745708,0.030437345755848874
2023-01-27 11:10:27.750708,0.041349731385707814
2023-01-27 11:10:27.755708,0.05134854180943204
2023-01-27 11:10:27.760708,0.05959650129079809
2023-01-27 11:10:27.765708,0.06571940363163181
2023-01-27 11:10:27.770708,0.06964544951915737
2023-01-27 11:10:27.775708,0.0712570348241054
2023-01-27 11:10:27.780708,0.07036666572093961
2023-01-27 11:10:27.785708,0.06684229537336539
2023-01-27 11:10:27.790708,0.06051003932952875
2023-01-27 11:10:27.795708,0.051121961036160055
2023-01-27 11:10:27.800708,0.03875335305929177
2023-01-27 11:10:27.805708,0.024174340537188466
2023-01-27 11:10:27.810708,0.00860651396214959
2023-01-27 11:10:27.815708,-0.006805822851727046
2023-01-27 11:10:27.820708,-0.021179717034101406
2023-01-27 11:10:27.825708,-0.03389101459307493
2023-01-27 11:10:27.830708,-0.04478752613067617
2023-01-27 11:10:27.835708,-0.05427755364553902
2023-01-27 11:10:27.840708,-0.06286601722240437
2023-01-27 11:10:27.845708,-0.07063389256790312
2023-01-27 11:10:27.850708,-0.07731437683105458
2023-01-27 11:10:27.855708,-0.08263191519946013
2023-01-27 11:10:27.860708,-0.08630554378032679
2023-01-27 11:10:27.865708,-0.08800913949942514
2023-01-27 11:10:27.870708,-0.08774797618389119
2023-01-27 11:10:27.875708,-0.08615753052577992
2023-01-27 11:10:27.880708,-0.08411785215139375
2023-01-27 11:10:27.885708,-0.0821819863493056
2023-01-27 11:10:27.890708,-0.08055984973907465
2023-01-27 11:10:27.895708,-0.07934215670320782
2023-01-27 11:10:27.900708,-0.078396201133728
2023-01-27 11:10:27.905708,-0.07733941903797426
2023-01-27 11:10:27.910708,-0.07606427371501918
2023-01-27 11:10:27.915708,-0.07513449894104308
2023-01-27 11:10:27.920708,-0.07531901448965064
2023-01-27 11:10:27.925708,-0.07690269713500437
2023-01-27 11:10:27.930708,-0.07969439029693592
2023-01-27 11:10:27.935708,-0.08335723575638378
2023-01-27 11:10:27.940708,-0.08733928203582755
2023-01-27 11:10:27.945708,-0.09081719633745795
2023-01-27 11:10:27.950708,-0.0932051762938499
2023-01-27 11:10:27.955708,-0.09453067156291901
2023-01-27 11:10:27.960708,-0.09496013820171348
2023-01-27 11:10:27.965708,-0.09427413897776464
2023-01-27 11:10:27.970708,-0.09224355220794668
2023-01-27 11:10:27.975708,-0.08923343023407997
2023-01-27 11:10:27.980708,-0.0860170572996139
2023-01-27 11:10:27.985708,-0.08329960500202854
2023-01-27 11:10:27.990708,-0.08178591728210433
2023-01-27 11:10:27.995708,-0.08220587191250578
2023-01-27 11:10:28.000708,-0.08459866046905504
2023-01-27 11:10:28.005708,-0.08779516310880017
2023-01-27 11:10:28.010708,-0.09012798964977253
2023-01-27 11:10:28.015708,-0.09048979904380734
2023-01-27 11:10:28.020708,-0.08849322795867906
2023-01-27 11:10:28.025708,-0.08427093904941209
2023-01-27 11:10:28.030708,-0.07880489528179158
2023-01-27 11:10:28.035708,-0.0739757914144386
2023-01-27 11:10:28.040708,-0.0714484900236129
2023-01-27 11:10:28.045708,-0.07156305185620605
2023-01-27 11:10:28.050708,-0.0736121386289596
2023-01-27 11:10:28.055708,-0.07665852296769744
2023-01-27 11:10:28.060708,-0.07957419008016582
2023-01-27 11:10:28.065708,-0.08101594985871834
2023-01-27 11:10:28.070708,-0.08034348487854004
2023-01-27 11:10:28.075708,-0.07832704320599194
2023-01-27 11:10:28.080708,-0.07632871717214575
2023-01-27 11:10:28.085708,-0.07514489338991037
2023-01-27 11:10:28.090708,-0.07510264962911602
2023-01-27 11:10:28.095708,-0.07650700527013196
2023-01-27 11:10:28.100708,-0.07909338176250444
2023-01-27 11:10:28.105708,-0.08160991470376691
2023-01-27 11:10:28.110708,-0.08289178460836405
2023-01-27 11:10:28.115708,-0.08298075659945
2023-01-27 11:10:28.120708,-0.08250713348388666
2023-01-27 11:10:28.125708,-0.08160839272598065
2023-01-27 11:10:28.130708,-0.08024732768535611
2023-01-27 11:10:28.135708,-0.0788070443479791
2023-01-27 11:10:28.140708,-0.07733841985464088
2023-01-27 11:10:28.145708,-0.07492504999420033
2023-01-27 11:10:28.150708,-0.07091959565877912
2023-01-27 11:10:28.155708,-0.06622958025109352
2023-01-27 11:10:28.160708,-0.06236116215586661
2023-01-27 11:10:28.165708,-0.059848432517969494
2023-01-27 11:10:28.170708,-0.058538716286420774
2023-01-27 11:10:28.175708,-0.058369824599683554
2023-01-27 11:10:28.180708,-0.05851467698812478
2023-01-27 11:10:28.185708,-0.056741418542007815
2023-01-27 11:10:28.190708,-0.051302514970302505
2023-01-27 11:10:28.195708,-0.04297014475439266
2023-01-27 11:10:28.200708,-0.03406544774770731
2023-01-27 11:10:28.205708,-0.02649378610554359
2023-01-27 11:10:28.210708,-0.022045176476240123
2023-01-27 11:10:28.215708,-0.02306690492969394
2023-01-27 11:10:28.220708,-0.030531486496329346
2023-01-27 11:10:28.225708,-0.042226042444026286
2023-01-27 11:10:28.230708,-0.0548364743590354
2023-01-27 11:10:28.235708,-0.06697699450022894
2023-01-27 11:10:28.240708,-0.07844428718090046
2023-01-27 11:10:28.245708,-0.08810878336509304
2023-01-27 11:10:28.250708,-0.0950322598218917
2023-01-27 11:10:28.255708,-0.09987140538329518
2023-01-27 11:10:28.260708,-0.10169148445129385
2023-01-27 11:10:28.265708,-0.09458603577164429
2023-01-27 11:10:28.270708,-0.0713523253798484
2023-01-27 11:10:28.275708,-0.030238548423723116
2023-01-27 11:10:28.280708,0.024569433182477927
2023-01-27 11:10:28.285708,0.08655403623969053
2023-01-27 11:10:28.290708,0.14563760161399836
2023-01-27 11:10:28.295708,0.18568250373561287
2023-01-27 11:10:28.300708,0.19227623939514155
2023-01-27 11:10:28.305708,0.16605187329010057
2023-01-27 11:10:28.310708,0.1223423108458518
2023-01-27 11:10:28.315708,0.07495251114141988
2023-01-27 11:10:28.320708,0.026228230446576954
2023-01-27 11:10:28.325708,-0.02403741630073273
2023-01-27 11:10:28.330708,-0.0680106878280639
2023-01-27 11:10:28.335708,-0.09572093523024627
2023-01-27 11:10:28.340708,-0.10726889222860331
2023-01-27 11:10:28.345708,-0.11138927821763032
2023-01-27 11:10:28.350708,-0.11366367340087882
2023-01-27 11:10:28.355708,-0.11296070560336484
2023-01-27 11:10:28.360708,-0.10854303836822496
2023-01-27 11:10:28.365708,-0.1035792176888887
2023-01-27 11:10:28.370708,-0.10044138133525837
2023-01-27 11:10:28.375708,-0.098004074902528
2023-01-27 11:10:28.380708,-0.09529670327901835
2023-01-27 11:10:28.385708,-0.09355305242445262
2023-01-27 11:10:28.390708,-0.09296476840972898
2023-01-27 11:10:28.395708,-0.09103391524606103
2023-01-27 11:10:28.400708,-0.08599301427602757
2023-01-27 11:10:28.405708,-0.07916001807119505
2023-01-27 11:10:28.410708,-0.07260243594646448
2023-01-27 11:10:28.415708,-0.06707491495770294
2023-01-27 11:10:28.420708,-0.0634429901838302
2023-01-27 11:10:28.425708,-0.06343255119291193
2023-01-27 11:10:28.430708,-0.0672413930296897
2023-01-27 11:10:28.435708,-0.07228794491967029
2023-01-27 11:10:28.440708,-0.07570366561412811
2023-01-27 11:10:28.445708,-0.07658308063034872
2023-01-27 11:10:28.450708,-0.0750545710325241
2023-01-27 11:10:28.455708,-0.07116780813776723
2023-01-27 11:10:28.460708,-0.06589512526988983
2023-01-27 11:10:28.465708,-0.06147827043550861
2023-01-27 11:10:28.470708,-0.059356093406677204
2023-01-27 11:10:28.475708,-0.0587944977134247
2023-01-27 11:10:28.480708,-0.05832235142588606
2023-01-27 11:10:28.485708,-0.05720159544858766
2023-01-27 11:10:28.490708,-0.05476435273885714
2023-01-27 11:10:28.495708,-0.04985202764145853
2023-01-27 11:10:28.500708,-0.04207094758748996
2023-01-27 11:10:28.505708,-0.03258403324738709
2023-01-27 11:10:28.510708,-0.022790431976318273
2023-01-27 11:10:28.515708,-0.013133473074062211
2023-01-27 11:10:28.520708,-0.00377436494454741
2023-01-27 11:10:28.525708,0.004770843521002135
2023-01-27 11:10:28.530708,0.012501081451773572
2023-01-27 11:10:28.535708,0.0204334332223532
2023-01-27 11:10:28.540708,0.02940158173441879
2023-01-27 11:10:28.545708,0.03908747988218903
2023-01-27 11:10:28.550708,0.04875421524047846
2023-01-27 11:10:28.555708,0.05798422403091047
2023-01-27 11:10:28.560708,0.06606340408325188
2023-01-27 11:10:28.565708,0.07156406133745241
2023-01-27 11:10:28.570708,0.07332365214824668
2023-01-27 11:10:28.575708,0.07124784892672831
2023-01-27 11:10:28.580708,0.0657027959823608
2023-01-27 11:10:28.585708,0.05689051123702664
2023-01-27 11:10:28.590708,0.04531642049551006
2023-01-27 11:10:28.595708,0.03205260069965564
2023-01-27 11:10:28.600708,0.01788616180419918
2023-01-27 11:10:28.605708,0.0027864608413445493
2023-01-27 11:10:28.610708,-0.013294419273734011
2023-01-27 11:10:28.615708,-0.029650820516446633
2023-01-27 11:10:28.620708,-0.045220255851745605
2023-01-27 11:10:28.625708,-0.05912011771306676
2023-01-27 11:10:28.630708,-0.07043878734111773
2023-01-27 11:10:28.635708,-0.07823426120560634
2023-01-27 11:10:28.640708,-0.08233885467052447
2023-01-27 11:10:28.645708,-0.08375800588317256
2023-01-27 11:10:28.650708,-0.08390148729085917
2023-01-27 11:10:28.655708,-0.08379583813376867
2023-01-27 11:10:28.660708,-0.08416593074798578
2023-01-27 11:10:28.665708,-0.0855451805973203
2023-01-27 11:10:28.670708,-0.08779605478048315
2023-01-27 11:10:28.675708,-0.08994976733114654
2023-01-27 11:10:28.680708,-0.09094536304473871
2023-01-27 11:10:28.685708,-0.09032242376673423
2023-01-27 11:10:28.690708,-0.08815666288137428
2023-01-27 11:10:28.695708,-0.08489076521061242
2023-01-27 11:10:28.700708,-0.08149743080139157
2023-01-27 11:10:28.705708,-0.0792784262400528
2023-01-27 11:10:28.710708,-0.07902126014232627
2023-01-27 11:10:28.715708,-0.08045252724279216
2023-01-27 11:10:28.720708,-0.08257925510406491
2023-01-27 11:10:28.725708,-0.0842870307364686
2023-01-27 11:10:28.730708,-0.0846467465162277
2023-01-27 11:10:28.735708,-0.083210975758595
2023-01-27 11:10:28.740708,-0.08036752790212627
2023-01-27 11:10:28.745708,-0.07720942854836255
2023-01-27 11:10:28.750708,-0.07486224174499509
2023-01-27 11:10:28.755708,-0.0739592572738299
2023-01-27 11:10:28.760708,-0.07459779828786836
2023-01-27 11:10:28.765708,-0.07644514443410001
2023-01-27 11:10:28.770708,-0.07885297387838354
2023-01-27 11:10:28.775708,-0.08115829827923603
2023-01-27 11:10:28.780708,-0.08301198482513418
2023-01-27 11:10:28.785708,-0.08439632109724801
2023-01-27 11:10:28.790708,-0.08544008433818802
2023-01-27 11:10:28.795708,-0.08629592348179649
2023-01-27 11:10:28.800708,-0.0870027169585227
2023-01-27 11:10:28.805708,-0.08733916195695966
2023-01-27 11:10:28.810708,-0.08700271695852263
2023-01-27 11:10:28.815708,-0.08602840317808129
2023-01-27 11:10:28.820708,-0.08483906835317608
2023-01-27 11:10:28.825708,-0.0838849784537969
2023-01-27 11:10:28.830708,-0.08346875756978978
2023-01-27 11:10:28.835708,-0.08371757496380175
2023-01-27 11:10:28.840708,-0.08416593074798576
2023-01-27 11:10:28.845708,-0.08343877173849938
2023-01-27 11:10:28.850708,-0.08003096282482132
2023-01-27 11:10:28.855708,-0.07356597315406475
2023-01-27 11:10:28.860708,-0.06498157978057859
2023-01-27 11:10:28.865708,-0.05589961694718622
2023-01-27 11:10:28.870708,-0.04858593270182597
2023-01-27 11:10:28.875708,-0.04593085433925913
2023-01-27 11:10:28.880708,-0.04990816116332999
2023-01-27 11:10:28.885708,-0.059822633034426205
2023-01-27 11:10:28.890708,-0.07303516566753378
2023-01-27 11:10:28.895708,-0.08710923020679433
2023-01-27 11:10:28.900708,-0.10003268718719478
2023-01-27 11:10:28.905708,-0.10931679800639713
2023-01-27 11:10:28.910708,-0.11356751620769492
2023-01-27 11:10:28.915708,-0.11492929893993704
2023-01-27 11:10:28.920708,-0.11695723235607133
2023-01-27 11:10:28.925708,-0.11932058210762017
2023-01-27 11:10:28.930708,-0.11748611927032467
2023-01-27 11:10:28.935708,-0.10834669759061215
2023-01-27 11:10:28.940708,-0.09231567382812492
2023-01-27 11:10:28.945708,-0.06813015382259209
2023-01-27 11:10:28.950708,-0.030531486496329314
2023-01-27 11:10:28.955708,0.02180156913757811
2023-01-27 11:10:28.960708,0.07798751443624483
2023-01-27 11:10:28.965708,0.11943053486835212
2023-01-27 11:10:28.970708,0.13265570998191822
2023-01-27 11:10:28.975708,0.11561503824330047
2023-01-27 11:10:28.980708,0.07428526878356922
2023-01-27 11:10:28.985708,0.018813908378590823
2023-01-27 11:10:28.990708,-0.03723879903554911
2023-01-27 11:10:28.995708,-0.08034788223591853
2023-01-27 11:10:29.000708,-0.10385513305664062
2023-01-27 11:10:29.005708,-0.11028035534907144
2023-01-27 11:10:29.010708,-0.10628323256969453
2023-01-27 11:10:29.015708,-0.09746680065897038
2023-01-27 11:10:29.020708,-0.08798837661743159
2023-01-27 11:10:29.025708,-0.08119180617582215
2023-01-27 11:10:29.030708,-0.07808367908000936
2023-01-27 11:10:29.035708,-0.07696778333513497
2023-01-27 11:10:29.040708,-0.0762325525283813
2023-01-27 11:10:29.045708,-0.07617387860740575
2023-01-27 11:10:29.050708,-0.07729034125804897
2023-01-27 11:10:29.055708,-0.07877983119243342
2023-01-27 11:10:29.060708,-0.07995884120464318
2023-01-27 11:10:29.065708,-0.08141499424874822
2023-01-27 11:10:29.070708,-0.0834206789731979
2023-01-27 11:10:29.075708,-0.08465752061633193
2023-01-27 11:10:29.080708,-0.0837332010269165
2023-01-27 11:10:29.085708,-0.08072126480966342
2023-01-27 11:10:29.090708,-0.0762806385755538
2023-01-27 11:10:29.095708,-0.07069776691013865
2023-01-27 11:10:29.100708,-0.06483733654022218
2023-01-27 11:10:29.105708,-0.06056601602315452
2023-01-27 11:10:29.110708,-0.058875285089015905
2023-01-27 11:10:29.115708,-0.05851897089545075
2023-01-27 11:10:29.120708,-0.057456891983747385
2023-01-27 11:10:29.125708,-0.05468564569772756
2023-01-27 11:10:29.130708,-0.05000432580709448
2023-01-27 11:10:29.135708,-0.04340632544226995
2023-01-27 11:10:29.140708,-0.03582040593028058
2023-01-27 11:10:29.145708,-0.02929331422321841
2023-01-27 11:10:29.150708,-0.025194486603140803
2023-01-27 11:10:29.155708,-0.022909566194858143
2023-01-27 11:10:29.160708,-0.02101143263280389
2023-01-27 11:10:29.165708,-0.01874923406668651
2023-01-27 11:10:29.170708,-0.015674432739615406
2023-01-27 11:10:29.175708,-0.010990620741713067
2023-01-27 11:10:29.180708,-0.004327297210693279
2023-01-27 11:10:29.185708,0.003705503909611882
2023-01-27 11:10:29.190708,0.012621283531188906
2023-01-27 11:10:29.195708,0.022883488705962025
2023-01-27 11:10:29.200708,0.03483474254608153
2023-01-27 11:10:29.205708,0.04764315158133966
2023-01-27 11:10:29.210708,0.06005327031016338
2023-01-27 11:10:29.215708,0.07130012240883887
2023-01-27 11:10:29.220708,0.08055984973907468
2023-01-27 11:10:29.225708,0.08650990552912047
2023-01-27 11:10:29.230708,0.08842110633850082
2023-01-27 11:10:29.235708,0.08699905148276556
2023-01-27 11:10:29.240708,0.08337259292602528
2023-01-27 11:10:29.245708,0.07791220460413734
2023-01-27 11:10:29.250708,0.07058303058147428
2023-01-27 11:10:29.255708,0.061475202589653846
2023-01-27 11:10:29.260708,0.05017260834574687
2023-01-27 11:10:29.265708,0.03550034844391009
2023-01-27 11:10:29.270708,0.016900500282645146
2023-01-27 11:10:29.275708,-0.004431361543272354
2023-01-27 11:10:29.280708,-0.026348432525992314
2023-01-27 11:10:29.285708,-0.04697616824803944
2023-01-27 11:10:29.290708,-0.06466905772686005
2023-01-27 11:10:29.295708,-0.07786442210227973
2023-01-27 11:10:29.300708,-0.08604109287261957
2023-01-27 11:10:29.305708,-0.09028579925875048
2023-01-27 11:10:29.310708,-0.09217143058776844
2023-01-27 11:10:29.315708,-0.0925676494516142
2023-01-27 11:10:29.320708,-0.09195506572723378
2023-01-27 11:10:29.325708,-0.09095446733358015
2023-01-27 11:10:29.330708,-0.08974333852529517
2023-01-27 11:10:29.335708,-0.08770102014029803
2023-01-27 11:10:29.340708,-0.08447846025228503
2023-01-27 11:10:29.345708,-0.08089657495002463
2023-01-27 11:10:29.350708,-0.07817983627319328
2023-01-27 11:10:29.355708,-0.07691517362505526
2023-01-27 11:10:29.360708,-0.07726629823446264
2023-01-27 11:10:29.365708,-0.07935031405086318
2023-01-27 11:10:29.370708,-0.0826273411512374
2023-01-27 11:10:29.375708,-0.08562543540828635
2023-01-27 11:10:29.380708,-0.0870988816022872
2023-01-27 11:10:29.385708,-0.08699770825831685
2023-01-27 11:10:29.390708,-0.08577664941549298
2023-01-27 11:10:29.395708,-0.08346693079608682
2023-01-27 11:10:29.400708,-0.0801030844449996
2023-01-27 11:10:29.405708,-0.07639238316221018
2023-01-27 11:10:29.410708,-0.07322748750448224
2023-01-27 11:10:29.415708,-0.07105798253192473
2023-01-27 11:10:29.420708,-0.07027050107717508
2023-01-27 11:10:29.425708,-0.0714346497686333
2023-01-27 11:10:29.430708,-0.07440547645092006
2023-01-27 11:10:29.435708,-0.07775737374427738
2023-01-27 11:10:29.440708,-0.07986267656087867
2023-01-27 11:10:29.445708,-0.08017767040585941
2023-01-27 11:10:29.450708,-0.07909338176250448
2023-01-27 11:10:29.455708,-0.07725480309003713
2023-01-27 11:10:29.460708,-0.07560750097036359
2023-01-27 11:10:29.465708,-0.07530653411420528
2023-01-27 11:10:29.470708,-0.07666528224945059
2023-01-27 11:10:29.475708,-0.07856556521437177
2023-01-27 11:10:29.480708,-0.07950206845998756
2023-01-27 11:10:29.485708,-0.0787972202209162
2023-01-27 11:10:29.490708,-0.07642488181591028
2023-01-27 11:10:29.495708,-0.07243066626243114
2023-01-27 11:10:29.500708,-0.06724139302968965
2023-01-27 11:10:29.505708,-0.061925014082917375
2023-01-27 11:10:29.510708,-0.05736073106527321
2023-01-27 11:10:29.515708,-0.053525667997737
2023-01-27 11:10:29.520708,-0.050100486725568695
2023-01-27 11:10:29.525708,-0.04719954937512905
2023-01-27 11:10:29.530708,-0.044907730072736726
2023-01-27 11:10:29.535708,-0.042684954641651944
2023-01-27 11:10:29.540708,-0.03993133828043931
2023-01-27 11:10:29.545708,-0.036727392190370405
2023-01-27 11:10:29.550708,-0.03348847478628147
2023-01-27 11:10:29.555708,-0.030426580945018655
2023-01-27 11:10:29.560708,-0.027959149330854378
2023-01-27 11:10:29.565708,-0.02713941571711243
2023-01-27 11:10:29.570708,-0.0289928913116455
2023-01-27 11:10:29.575708,-0.033682753982939614
2023-01-27 11:10:29.580708,-0.040652554482221555
2023-01-27 11:10:29.585708,-0.04903630010930325
2023-01-27 11:10:29.590708,-0.057529013603925636
2023-01-27 11:10:29.595708,-0.0645825285447647
2023-01-27 11:10:29.600708,-0.06942908465862271
2023-01-27 11:10:29.605708,-0.07241717627127903
2023-01-27 11:10:29.610708,-0.07363617420196535
2023-01-27 11:10:29.615708,-0.07142228321087682
2023-01-27 11:10:29.620708,-0.06252944469451899
2023-01-27 11:10:29.625708,-0.043426727122982
2023-01-27 11:10:29.630708,-0.011635622009634887
2023-01-27 11:10:29.635708,0.03256503779646756
2023-01-27 11:10:29.640708,0.08421401679515828
2023-01-27 11:10:29.645708,0.13363183682200386
2023-01-27 11:10:29.650708,0.1695338934659957
2023-01-27 11:10:29.655708,0.18331218386202794
2023-01-27 11:10:29.660708,0.17176966369152058
2023-01-27 11:10:29.665708,0.13783666649183476
2023-01-27 11:10:29.670708,0.0897673815488815
2023-01-27 11:10:29.675708,0.03846155069955838
2023-01-27 11:10:29.680708,-0.006611148826777916
2023-01-27 11:10:29.685708,-0.04031512930787772
2023-01-27 11:10:29.690708,-0.06178418919444079
2023-01-27 11:10:29.695708,-0.07272683496101817
2023-01-27 11:10:29.700708,-0.07613639533519737
2023-01-27 11:10:29.705708,-0.07535128744236237
2023-01-27 11:10:29.710708,-0.07286687940359109
2023-01-27 11:10:29.715708,-0.06979418388146538
2023-01-27 11:10:29.720708,-0.06661634147167199
2023-01-27 11:10:29.725708,-0.06392350289074121
2023-01-27 11:10:29.730708,-0.06202459335327139
2023-01-27 11:10:29.735708,-0.060531425457742025
2023-01-27 11:10:29.740708,-0.058995485305786105
2023-01-27 11:10:29.745708,-0.05753073939338749
2023-01-27 11:10:29.750708,-0.05632698535919179
2023-01-27 11:10:29.755708,-0.055086445751950444
2023-01-27 11:10:29.760708,-0.053490202873945195
2023-01-27 11:10:29.765708,-0.051723071852853575
2023-01-27 11:10:29.770708,-0.050004325807094456
2023-01-27 11:10:29.775708,-0.048093255102546154
2023-01-27 11:10:29.780708,-0.04577318951487541
2023-01-27 11:10:29.785708,-0.04330514351552252
2023-01-27 11:10:29.790708,-0.04086891934275619
2023-01-27 11:10:29.795708,-0.038083806008624974
2023-01-27 11:10:29.800708,-0.03466646000742905
2023-01-27 11:10:29.805708,-0.031106638276743193
2023-01-27 11:10:29.810708,-0.028151473030447908
2023-01-27 11:10:29.815708,-0.02604681238078131
2023-01-27 11:10:29.820708,-0.02471367642283427
2023-01-27 11:10:29.825708,-0.024082771329336897
2023-01-27 11:10:29.830708,-0.023679932579398107
2023-01-27 11:10:29.835708,-0.02241951514772604
2023-01-27 11:10:29.840708,-0.019472837448120117
2023-01-27 11:10:29.845708,-0.01501501780498039
2023-01-27 11:10:29.850708,-0.009688338264822882
2023-01-27 11:10:29.855708,-0.0037997709697956805
2023-01-27 11:10:29.860708,0.00254829740151757
2023-01-27 11:10:29.865708,0.009175238761672618
2023-01-27 11:10:29.870708,0.016275446861982297
2023-01-27 11:10:29.875708,0.024621041283838085
2023-01-27 11:10:29.880708,0.034666460007429095
2023-01-27 11:10:29.885708,0.045826009850561865
2023-01-27 11:10:29.890708,0.05712032318115225
2023-01-27 11:10:29.895708,0.06808167363304829
2023-01-27 11:10:29.900708,0.07856448739767068
2023-01-27 11:10:29.905708,0.08820055083783351
2023-01-27 11:10:29.910708,0.09654681384563438
2023-01-27 11:10:29.915708,0.10319266119239125
2023-01-27 11:10:29.920708,0.10712464898824689
2023-01-27 11:10:29.925708,0.10653578966122981
2023-01-27 11:10:29.930708,0.1000086516141891
2023-01-27 11:10:29.935708,0.08769619630629849
2023-01-27 11:10:29.940708,0.0710638388991355
2023-01-27 11:10:29.945708,0.05204865896854931
2023-01-27 11:10:29.950708,0.0328393802046775
2023-01-27 11:10:29.955708,0.015603849394607438
2023-01-27 11:10:29.960708,0.001466472982428885
2023-01-27 11:10:29.965708,-0.01002818168484929
2023-01-27 11:10:29.970708,-0.019953649491071715
2023-01-27 11:10:29.975708,-0.028864057311876568
2023-01-27 11:10:29.980708,-0.03687819093465801
2023-01-27 11:10:29.985708,-0.04409788556806109
2023-01-27 11:10:29.990708,-0.050244729965925175
2023-01-27 11:10:29.995708,-0.054452158325977815
2023-01-27 11:10:30.000708,-0.05615870282053937
2023-01-27 11:10:30.005708,-0.05586053856952972
2023-01-27 11:10:30.010708,-0.054499905556440305
2023-01-27 11:10:30.015708,-0.052630541759319555
2023-01-27 11:10:30.020708,-0.0506774596869945
2023-01-27 11:10:30.025708,-0.04933861348000304
2023-01-27 11:10:30.030708,-0.04899462312459938
2023-01-27 11:10:30.035708,-0.04919815938046228
2023-01-27 11:10:30.040708,-0.0493792705237865
2023-01-27 11:10:30.045708,-0.04957274327325569
2023-01-27 11:10:30.050708,-0.0498841218650341
2023-01-27 11:10:30.055708,-0.04984159973772942
2023-01-27 11:10:30.060708,-0.04897058010101305
2023-01-27 11:10:30.065708,-0.047496505415289596
2023-01-27 11:10:30.070708,-0.04584531113505359
2023-01-27 11:10:30.075708,-0.044020592596210266
2023-01-27 11:10:30.080708,-0.042143069207668304
2023-01-27 11:10:30.085708,-0.040985595324220844
2023-01-27 11:10:30.090708,-0.04118144512176511
2023-01-27 11:10:30.095708,-0.04239197530476693
2023-01-27 11:10:30.100708,-0.04394610971212375
2023-01-27 11:10:30.105708,-0.04573175851679841
2023-01-27 11:10:30.110708,-0.047744512557983294
2023-01-27 11:10:30.115708,-0.04942204154330536
2023-01-27 11:10:30.120708,-0.050292812287807395
2023-01-27 11:10:30.125708,-0.05070102965233526
2023-01-27 11:10:30.130708,-0.051014028489589615
2023-01-27 11:10:30.135708,-0.05070026581937908
2023-01-27 11:10:30.140708,-0.04911482334136959
2023-01-27 11:10:30.145708,-0.046611146621218326
2023-01-27 11:10:30.150708,-0.04392206668853748
2023-01-27 11:10:30.155708,-0.04110462342818476
2023-01-27 11:10:30.160708,-0.038200419396161964
2023-01-27 11:10:30.165708,-0.03622138212430969
2023-01-27 11:10:30.170708,-0.0360367707908153
2023-01-27 11:10:30.175708,-0.036713760441401705
2023-01-27 11:10:30.180708,-0.036445461213588666
2023-01-27 11:10:30.185708,-0.034823445737292964
2023-01-27 11:10:30.190708,-0.03259897232055659
2023-01-27 11:10:30.195708,-0.02939848516485746
2023-01-27 11:10:30.200708,-0.023703973740339192
2023-01-27 11:10:30.205708,-0.01570916692887649
2023-01-27 11:10:30.210708,-0.0085584325715899
2023-01-27 11:10:30.215708,-0.005726725842340405
2023-01-27 11:10:30.220708,-0.008125702850520625
2023-01-27 11:10:30.225708,-0.014467052601021506
2023-01-27 11:10:30.230708,-0.023295283317565918
2023-01-27 11:10:30.235708,-0.033479201679795456
2023-01-27 11:10:30.240708,-0.04341721534728999
2023-01-27 11:10:30.245708,-0.0512367456733103
2023-01-27 11:10:30.250708,-0.05611062049865717
2023-01-27 11:10:30.255708,-0.0588357043438748
2023-01-27 11:10:30.260708,-0.06091872975230214
2023-01-27 11:10:30.265708,-0.06311674417684426
2023-01-27 11:10:30.270708,-0.06435652822256073
2023-01-27 11:10:30.275708,-0.06132274098323704
2023-01-27 11:10:30.280708,-0.04901866242289541
2023-01-27 11:10:30.285708,-0.022573074450792173
2023-01-27 11:10:30.290708,0.020097892731428084
2023-01-27 11:10:30.295708,0.07588571987159368
2023-01-27 11:10:30.300708,0.13573288917541496
2023-01-27 11:10:30.305708,0.18656952253787015
2023-01-27 11:10:30.310708,0.2156917303800581
2023-01-27 11:10:30.315708,0.21560773061270633
2023-01-27 11:10:30.320708,0.18686711788177482
2023-01-27 11:10:30.325708,0.13767984829712998
2023-01-27 11:10:30.330708,0.08080025762319559
2023-01-27 11:10:30.335708,0.029017156115505784
2023-01-27 11:10:30.340708,-0.008991162292659227
2023-01-27 11:10:30.345708,-0.03062685402400901
2023-01-27 11:10:30.350708,-0.038488905876874924
2023-01-27 11:10:30.355708,-0.03780252481321832
2023-01-27 11:10:30.360708,-0.03394524380564679
2023-01-27 11:10:30.365708,-0.030856723782106535
2023-01-27 11:10:30.370708,-0.030291080474853523
2023-01-27 11:10:30.375708,-0.03197945125698119
2023-01-27 11:10:30.380708,-0.03461837768554682
2023-01-27 11:10:30.385708,-0.03690400113299529
2023-01-27 11:10:30.390708,-0.0379359722137451
2023-01-27 11:10:30.395708,-0.037279286383717254
2023-01-27 11:10:30.400708,-0.03514727205038068
2023-01-27 11:10:30.405708,-0.0323858926609669
2023-01-27 11:10:30.410708,-0.029906433075666455
2023-01-27 11:10:30.415708,-0.028119460636957815
2023-01-27 11:10:30.420708,-0.026997527107596307
2023-01-27 11:10:30.425708,-0.026414260826650774
2023-01-27 11:10:30.430708,-0.026180148124694824
2023-01-27 11:10:30.435708,-0.026008411949334894
2023-01-27 11:10:30.440708,-0.02577145956456659
2023-01-27 11:10:30.445708,-0.025638264106445877
2023-01-27 11:10:30.450708,-0.025723379105329514
2023-01-27 11:10:30.455708,-0.025793340736456626
2023-01-27 11:10:30.460708,-0.02553105354309081
2023-01-27 11:10:30.465708,-0.024832719575597947
2023-01-27 11:10:30.470708,-0.02358376979827881
2023-01-27 11:10:30.475708,-0.021407552930377098
2023-01-27 11:10:30.480708,-0.017958283424377372
2023-01-27 11:10:30.485708,-0.01329232155881444
2023-01-27 11:10:30.490708,-0.007741054054349587
2023-01-27 11:10:30.495708,-0.0016917675017172039
2023-01-27 11:10:30.500708,0.004255175590515137
2023-01-27 11:10:30.505708,0.009257687867694217
2023-01-27 11:10:30.510708,0.012789567932486486
2023-01-27 11:10:30.515708,0.01511591265919507
2023-01-27 11:10:30.520708,0.016996663063764513
2023-01-27 11:10:30.525708,0.019141692252999953
2023-01-27 11:10:30.530708,0.02214133739471428
2023-01-27 11:10:30.535708,0.026528088214021635
2023-01-27 11:10:30.540708,0.03245472908020012
2023-01-27 11:10:30.545708,0.03946228696981141
2023-01-27 11:10:30.550708,0.046855013817548696
2023-01-27 11:10:30.555708,0.054117661354118655
2023-01-27 11:10:30.560708,0.06075044721364966
2023-01-27 11:10:30.565708,0.06602324252244529
2023-01-27 11:10:30.570708,0.06926079839467997
2023-01-27 11:10:30.575708,0.07016942077098132
2023-01-27 11:10:30.580708,0.06861170381307594
2023-01-27 11:10:30.585708,0.06433912561196446
2023-01-27 11:10:30.590708,0.05728860944509501
2023-01-27 11:10:30.595708,0.04792104923750006
2023-01-27 11:10:30.600708,0.03695031255483618
2023-01-27 11:10:30.605708,0.024924642782592807
2023-01-27 11:10:30.610708,0.01228471659123891
2023-01-27 11:10:30.615708,-0.0005068752937827885
2023-01-27 11:10:30.620708,-0.013246337883174406
2023-01-27 11:10:30.625708,-0.026125968135549488
2023-01-27 11:10:30.630708,-0.0392101220786571
2023-01-27 11:10:30.635708,-0.051933563449543335
2023-01-27 11:10:30.640708,-0.06337086856365198
2023-01-27 11:10:30.645708,-0.07278302473295735
2023-01-27 11:10:30.650708,-0.07971843332052228
2023-01-27 11:10:30.655708,-0.08399065369780102
2023-01-27 11:10:30.660708,-0.08596897125244138
2023-01-27 11:10:30.665708,-0.08662631192601396
2023-01-27 11:10:30.670708,-0.0868825167417526
2023-01-27 11:10:30.675708,-0.08699736049445025
2023-01-27 11:10:30.680708,-0.08676230907440177
2023-01-27 11:10:30.685708,-0.08593958053750714
2023-01-27 11:10:30.690708,-0.08423805236816403
2023-01-27 11:10:30.695708,-0.08127460852415354
2023-01-27 11:10:30.700708,-0.07704993337392796
2023-01-27 11:10:30.705708,-0.07229903132709244
2023-01-27 11:10:30.710708,-0.06805877387523648
2023-01-27 11:10:30.715708,-0.06507323520108842
2023-01-27 11:10:30.720708,-0.06377955526113505
2023-01-27 11:10:30.725708,-0.06440763097256492
2023-01-27 11:10:30.730708,-0.06664037704467768
2023-01-27 11:10:30.735708,-0.06946803546895056
2023-01-27 11:10:30.740708,-0.07183313369750967
2023-01-27 11:10:30.745708,-0.07329000577295369
2023-01-27 11:10:30.750708,-0.0738285034894943
2023-01-27 11:10:30.755708,-0.07344259098724773
2023-01-27 11:10:30.760708,-0.07226586341857914
2023-01-27 11:10:30.765708,-0.07080225036343822
2023-01-27 11:10:30.770708,-0.06957332789897909
2023-01-27 11:10:30.775708,-0.06874342106529707
2023-01-27 11:10:30.780708,-0.06839533895254128
2023-01-27 11:10:30.785708,-0.0688229121870525
2023-01-27 11:10:30.790708,-0.07012625783681861
2023-01-27 11:10:30.795708,-0.07181106670706278
2023-01-27 11:10:30.800708,-0.07322748750448217
2023-01-27 11:10:30.805708,-0.07417875280621287
2023-01-27 11:10:30.810708,-0.0747420415282249
2023-01-27 11:10:30.815708,-0.07478448719550626
2023-01-27 11:10:30.820708,-0.07402082532644269
2023-01-27 11:10:30.825708,-0.07218754408831526
2023-01-27 11:10:30.830708,-0.06873190402984607
2023-01-27 11:10:30.835708,-0.06276485245391818
2023-01-27 11:10:30.840708,-0.05401909351348868
2023-01-27 11:10:30.845708,-0.04379108169814704
2023-01-27 11:10:30.850708,-0.034546256065368604
2023-01-27 11:10:30.855708,-0.028737293081003673
2023-01-27 11:10:30.860708,-0.028127431869506864
2023-01-27 11:10:30.865708,-0.03347990344086836
2023-01-27 11:10:30.870708,-0.04397014901041979
2023-01-27 11:10:30.875708,-0.057106487165775155
2023-01-27 11:10:30.880708,-0.0701022148132324
2023-01-27 11:10:30.885708,-0.08152486382355491
2023-01-27 11:10:30.890708,-0.09133001416921607
2023-01-27 11:10:30.895708,-0.0996541403337603
2023-01-27 11:10:30.900708,-0.10618706792592997
2023-01-27 11:10:30.905708,-0.11019187395005443
2023-01-27 11:10:30.910708,-0.1097691059112548
2023-01-27 11:10:30.915708,-0.10074724076921378
2023-01-27 11:10:30.920708,-0.0775307416915893
2023-01-27 11:10:30.925708,-0.03658452944522792
2023-01-27 11:10:30.930708,0.019905567169189373
2023-01-27 11:10:30.935708,0.08296615166223593
2023-01-27 11:10:30.940708,0.13888220489025105
2023-01-27 11:10:30.945708,0.17332654662568492
2023-01-27 11:10:30.950708,0.17631332576274866
2023-01-27 11:10:30.955708,0.14623594712548643
2023-01-27 11:10:30.960708,0.09084920585155473
2023-01-27 11:10:30.965708,0.024338184266551762
2023-01-27 11:10:30.970708,-0.03803213685750959
2023-01-27 11:10:30.975708,-0.08502010955246309
2023-01-27 11:10:30.980708,-0.11222124099731441
2023-01-27 11:10:30.985708,-0.12185519833327627
2023-01-27 11:10:30.990708,-0.12008249759674072
2023-01-27 11:10:30.995708,-0.11349879455347282
2023-01-27 11:10:31.000708,-0.10664384067058559
2023-01-27 11:10:31.005708,-0.10132399495945896
2023-01-27 11:10:31.010708,-0.09731610864400861
2023-01-27 11:10:31.015708,-0.09362900104268418
2023-01-27 11:10:31.020708,-0.08964717388153072
2023-01-27 11:10:31.025708,-0.08561526161345016
2023-01-27 11:10:31.030708,-0.08229076862335201
2023-01-27 11:10:31.035708,-0.08024612904887929
2023-01-27 11:10:31.040708,-0.07947802543640128
2023-01-27 11:10:31.045708,-0.07945506837827991
2023-01-27 11:10:31.050708,-0.0793578252196311
2023-01-27 11:10:31.055708,-0.07843259508609965
2023-01-27 11:10:31.060708,-0.07642488181591024
2023-01-27 11:10:31.065708,-0.07376160302464571
2023-01-27 11:10:31.070708,-0.07123212516307827
2023-01-27 11:10:31.075708,-0.06947627961448885
2023-01-27 11:10:31.080708,-0.06873190402984608
2023-01-27 11:10:31.085708,-0.06883082904516832
2023-01-27 11:10:31.090708,-0.06923675537109372
2023-01-27 11:10:31.095708,-0.06921826374302313
2023-01-27 11:10:31.100708,-0.0682510957121849
2023-01-27 11:10:31.105708,-0.06632161700979551
2023-01-27 11:10:31.110708,-0.0638035982847213
2023-01-27 11:10:31.115708,-0.061107775816460916
2023-01-27 11:10:31.120708,-0.05846659466624251
2023-01-27 11:10:31.125708,-0.055850173516756495
2023-01-27 11:10:31.130708,-0.052913229912519386
2023-01-27 11:10:31.135708,-0.04914033743597108
2023-01-27 11:10:31.140708,-0.044234596192836685
2023-01-27 11:10:31.145708,-0.038341892467094775
2023-01-27 11:10:31.150708,-0.03180563449859612
2023-01-27 11:10:31.155708,-0.024756681262421674
2023-01-27 11:10:31.160708,-0.01697262190282339
2023-01-27 11:10:31.165708,-0.007991294138914121
2023-01-27 11:10:31.170708,0.0026925406418740086
2023-01-27 11:10:31.175708,0.01528726450417704
2023-01-27 11:10:31.180708,0.029281377792358287
2023-01-27 11:10:31.185708,0.043374860894907386
2023-01-27 11:10:31.190708,0.055990420281887006
2023-01-27 11:10:31.195708,0.06592970145045968
2023-01-27 11:10:31.200708,0.07265051454305638
2023-01-27 11:10:31.205708,0.07617966372591463
2023-01-27 11:10:31.210708,0.07690569013357161
2023-01-27 11:10:31.215708,0.07525761606620851
2023-01-27 11:10:31.220708,0.07130424678325649
2023-01-27 11:10:31.225708,0.06463009040401405
2023-01-27 11:10:31.230708,0.05471627041697502
2023-01-27 11:10:31.235708,0.04150181264123383
2023-01-27 11:10:31.240708,0.02565125748515118
2023-01-27 11:10:31.245708,0.00844350761262324
2023-01-27 11:10:31.250708,-0.00855843257158987
2023-01-27 11:10:31.255708,-0.023976264633078847
2023-01-27 11:10:31.260708,-0.037094555795192725
2023-01-27 11:10:31.265708,-0.04804646043723348
2023-01-27 11:10:31.270708,-0.0575530529022216
2023-01-27 11:10:31.275708,-0.0664348351949841
2023-01-27 11:10:31.280708,-0.07519881427288046
2023-01-27 11:10:31.285708,-0.08380639586303788
2023-01-27 11:10:31.290708,-0.09164254367351529
2023-01-27 11:10:31.295708,-0.09773205065463596
2023-01-27 11:10:31.300708,-0.1011385545134544
2023-01-27 11:10:31.305708,-0.10135045955770018
2023-01-27 11:10:31.310708,-0.09851813316345207
2023-01-27 11:10:31.315708,-0.09350799853250527
2023-01-27 11:10:31.320708,-0.08772393316030497
2023-01-27 11:10:31.325708,-0.08268625985043396
2023-01-27 11:10:31.330708,-0.07952611148357391
2023-01-27 11:10:31.335708,-0.0786199845790736
2023-01-27 11:10:31.340708,-0.07950206845998758
2023-01-27 11:10:31.345708,-0.08112115381795157
2023-01-27 11:10:31.350708,-0.08238693326711648
2023-01-27 11:10:31.355708,-0.08268330570272199
2023-01-27 11:10:31.360708,-0.0819782465696334
2023-01-27 11:10:31.365708,-0.08056799108455791
2023-01-27 11:10:31.370708,-0.07880489528179158
2023-01-27 11:10:31.375708,-0.07692911583776689
2023-01-27 11:10:31.380708,-0.07491032779216755
2023-01-27 11:10:31.385708,-0.07245299574873218
2023-01-27 11:10:31.390708,-0.06935696303844448
2023-01-27 11:10:31.395708,-0.06587629257653332
2023-01-27 11:10:31.400708,-0.06257753074169149
2023-01-27 11:10:31.405708,-0.05995121188230923
2023-01-27 11:10:31.410708,-0.0583704337477684
2023-01-27 11:10:31.415708,-0.058211771510621346
2023-01-27 11:10:31.420708,-0.059572458267211845
2023-01-27 11:10:31.425708,-0.06189903142428128
2023-01-27 11:10:31.430708,-0.06423632800579068
2023-01-27 11:10:31.435708,-0.06573178701785376
2023-01-27 11:10:31.440708,-0.06558259576559058
2023-01-27 11:10:31.445708,-0.06291462883871259
2023-01-27 11:10:31.450708,-0.05755305290222164
2023-01-27 11:10:31.455708,-0.0509015548083251
2023-01-27 11:10:31.460708,-0.04538854211568831
2023-01-27 11:10:31.465708,-0.04306543778033345
2023-01-27 11:10:31.470708,-0.04519621655344959
2023-01-27 11:10:31.475708,-0.052507327172207095
2023-01-27 11:10:31.480708,-0.0644286498427391
2023-01-27 11:10:31.485708,-0.07828989355840205
2023-01-27 11:10:31.490708,-0.09092132747173298
2023-01-27 11:10:31.495708,-0.10130550729313584
2023-01-27 11:10:31.500708,-0.11017780005931846
2023-01-27 11:10:31.505708,-0.11699904581512294
2023-01-27 11:10:31.510708,-0.11945744603872291
2023-01-27 11:10:31.515708,-0.11635453786842306
2023-01-27 11:10:31.520708,-0.10806223005056377
2023-01-27 11:10:31.525708,-0.09242349983006758
2023-01-27 11:10:31.530708,-0.06313046067953097
2023-01-27 11:10:31.535708,-0.015890423712816206
2023-01-27 11:10:31.540708,0.04406630992889399
2023-01-27 11:10:31.545708,0.1027101787249765
2023-01-27 11:10:31.550708,0.14491638541221608
2023-01-27 11:10:31.555708,0.1603097104432045
2023-01-27 11:10:31.560708,0.14450769126415247
2023-01-27 11:10:31.565708,0.10010627481100724
2023-01-27 11:10:31.570708,0.03803213685750958
2023-01-27 11:10:31.575708,-0.025452081760616734
2023-01-27 11:10:31.580708,-0.07628063857555385
2023-01-27 11:10:31.585708,-0.10797830852720053
2023-01-27 11:10:31.590708,-0.12106816470623007
2023-01-27 11:10:31.595708,-0.12001961629511017
2023-01-27 11:10:31.600708,-0.11130770295858379
2023-01-27 11:10:31.605708,-0.10140859797408454
2023-01-27 11:10:31.610708,-0.09395043551921839
2023-01-27 11:10:31.615708,-0.08888230603080059
2023-01-27 11:10:31.620708,-0.08488714694976801
2023-01-27 11:10:31.625708,-0.08162042292059915
2023-01-27 11:10:31.630708,-0.07926166057586662
2023-01-27 11:10:31.635708,-0.07752006797043022
2023-01-27 11:10:31.640708,-0.07620851695537556
2023-01-27 11:10:31.645708,-0.07575895356734229
2023-01-27 11:10:31.650708,-0.07623255252838126
2023-01-27 11:10:31.655708,-0.07672202531388841
2023-01-27 11:10:31.660708,-0.07654508203268044
2023-01-27 11:10:31.665708,-0.07617295823126774
2023-01-27 11:10:31.670708,-0.07625659555196757
2023-01-27 11:10:31.675708,-0.07660113517559257
2023-01-27 11:10:31.680708,-0.07678548991680138
2023-01-27 11:10:31.685708,-0.07687954615617056
2023-01-27 11:10:31.690708,-0.0767854899168014
2023-01-27 11:10:31.695708,-0.07570216072205553
2023-01-27 11:10:31.700708,-0.07301112264394757
2023-01-27 11:10:31.705708,-0.0689781956042065
2023-01-27 11:10:31.710708,-0.06394784152507782
2023-01-27 11:10:31.715708,-0.057654369029802977
2023-01-27 11:10:31.720708,-0.05002836510539051
2023-01-27 11:10:31.725708,-0.04191142683366635
2023-01-27 11:10:31.730708,-0.03423373028635973
2023-01-27 11:10:31.735708,-0.02713277477605085
2023-01-27 11:10:31.740708,-0.020482540130615227
2023-01-27 11:10:31.745708,-0.014531984404287119
2023-01-27 11:10:31.750708,-0.0093277301639318
2023-01-27 11:10:31.755708,-0.004196217173629013
2023-01-27 11:10:31.760708,0.0015145540237426047
2023-01-27 11:10:31.765708,0.007797943896518494
2023-01-27 11:10:31.770708,0.014664730057120271
2023-01-27 11:10:31.775708,0.022716049026858413
2023-01-27 11:10:31.780708,0.03233452886342997
2023-01-27 11:10:31.785708,0.04290747155628043
2023-01-27 11:10:31.790708,0.053490202873945195
2023-01-27 11:10:31.795708,0.06366528141950961
2023-01-27 11:10:31.800708,0.0732034444808959
2023-01-27 11:10:31.805708,0.08156734148184683
2023-01-27 11:10:31.810708,0.0883970707654953
2023-01-27 11:10:31.815708,0.09383921954568461
2023-01-27 11:10:31.820708,0.09770075976848594
2023-01-27 11:10:31.825708,0.09881547564851738
2023-01-27 11:10:31.830708,0.09587367624044409
2023-01-27 11:10:31.835708,0.08839915704150858
2023-01-27 11:10:31.840708,0.07647296041250219
2023-01-27 11:10:31.845708,0.0602488207495013
2023-01-27 11:10:31.850708,0.040460228919982896
2023-01-27 11:10:31.855708,0.018841166294067978
2023-01-27 11:10:31.860708,-0.0026684999465942097
2023-01-27 11:10:31.865708,-0.022772369655502916
2023-01-27 11:10:31.870708,-0.040508311241865075
2023-01-27 11:10:31.875708,-0.05483454230856919
2023-01-27 11:10:31.880708,-0.06522198766469946
2023-01-27 11:10:31.885708,-0.07214880313789393
2023-01-27 11:10:31.890708,-0.07640083879232401
2023-01-27 11:10:31.895708,-0.07834900776174827
2023-01-27 11:10:31.900708,-0.07839620113372797
2023-01-27 11:10:31.905708,-0.07749869566236162
2023-01-27 11:10:31.910708,-0.07656912505626669
2023-01-27 11:10:31.915708,-0.0757943402209058
2023-01-27 11:10:31.920708,-0.07503052800893777
2023-01-27 11:10:31.925708,-0.07430726490904885
2023-01-27 11:10:31.930708,-0.0733957737684249
2023-01-27 11:10:31.935708,-0.0714823540543816
2023-01-27 11:10:31.940708,-0.06796260923147197
2023-01-27 11:10:31.945708,-0.0631923378612861
2023-01-27 11:10:31.950708,-0.05800982564687717
2023-01-27 11:10:31.955708,-0.053050579973637185
2023-01-27 11:10:31.960708,-0.0489946231245994
2023-01-27 11:10:31.965708,-0.04679653153250486
2023-01-27 11:10:31.970708,-0.04690309613943088
2023-01-27 11:10:31.975708,-0.04857926863394809
2023-01-27 11:10:31.980708,-0.05050917714834211
2023-01-27 11:10:31.985708,-0.051677006741520905
2023-01-27 11:10:31.990708,-0.051350593566894455
2023-01-27 11:10:31.995708,-0.04896226793518381
2023-01-27 11:10:32.000708,-0.04473944753408429
2023-01-27 11:10:32.005708,-0.04000312893588302
2023-01-27 11:10:32.010708,-0.036181014031171695
2023-01-27 11:10:32.015708,-0.03376147905718871
2023-01-27 11:10:32.020708,-0.03247877210378638
2023-01-27 11:10:32.025708,-0.03188014701970098
2023-01-27 11:10:32.030708,-0.031204622238874387
2023-01-27 11:10:32.035708,-0.029362969621238487
2023-01-27 11:10:32.040708,-0.025795500725507688
2023-01-27 11:10:32.045708,-0.021072927623917066
2023-01-27 11:10:32.050708,-0.01625140570104117
2023-01-27 11:10:32.055708,-0.012109389146663957
2023-01-27 11:10:32.060708,-0.009399851784110012
2023-01-27 11:10:32.065708,-0.0091683815676477
2023-01-27 11:10:32.070708,-0.012116432189941401
2023-01-27 11:10:32.075708,-0.017991094654235307
2023-01-27 11:10:32.080708,-0.02603590488433828
2023-01-27 11:10:32.085708,-0.03557621944107945
2023-01-27 11:10:32.090708,-0.04577318951487539
2023-01-27 11:10:32.095708,-0.05545177864609703
2023-01-27 11:10:32.100708,-0.06377955526113512
2023-01-27 11:10:32.105708,-0.07057821037217446
2023-01-27 11:10:32.110708,-0.07524689286947248
2023-01-27 11:10:32.115708,-0.07559834194605243
2023-01-27 11:10:32.120708,-0.06817897409200659
2023-01-27 11:10:32.125708,-0.04960549347708674
2023-01-27 11:10:32.130708,-0.017934244126081408
2023-01-27 11:10:32.135708,0.025703305151057676
2023-01-27 11:10:32.140708,0.07543921470642079
2023-01-27 11:10:32.145708,0.12095772956213126
2023-01-27 11:10:32.150708,0.1508303582668304
2023-01-27 11:10:32.155708,0.15696163965849938
2023-01-27 11:10:32.160708,0.1374638080596923
2023-01-27 11:10:32.165708,0.09724518196686009
2023-01-27 11:10:32.170708,0.046590566635131794
2023-01-27 11:10:32.175708,-0.0023531066698145556
2023-01-27 11:10:32.180708,-0.04017174243926999
2023-01-27 11:10:32.185708,-0.06310524224930164
2023-01-27 11:10:32.190708,-0.07267455756664268
2023-01-27 11:10:32.195708,-0.07337912901458539
2023-01-27 11:10:32.200708,-0.0704147443175315
2023-01-27 11:10:32.205708,-0.0677721672892992
2023-01-27 11:10:32.210708,-0.06692886352539058
2023-01-27 11:10:32.215708,-0.06719038299106173
2023-01-27 11:10:32.220708,-0.06745775789022442
2023-01-27 11:10:32.225708,-0.06728470163465473
2023-01-27 11:10:32.230708,-0.06635189056396479
2023-01-27 11:10:32.235708,-0.06410175799992048
2023-01-27 11:10:32.240708,-0.06055812165141098
2023-01-27 11:10:32.245708,-0.05674569234352678
2023-01-27 11:10:32.250708,-0.053682528436183874
2023-01-27 11:10:32.255708,-0.051579824897451214
2023-01-27 11:10:32.260708,-0.05046109482645979
2023-01-27 11:10:32.265708,-0.050699568534452975
2023-01-27 11:10:32.270708,-0.052240096032619386
2023-01-27 11:10:32.275708,-0.053983674635751135
2023-01-27 11:10:32.280708,-0.0546681880950927
2023-01-27 11:10:32.285708,-0.05385918699699122
2023-01-27 11:10:32.290708,-0.05161504074931133
2023-01-27 11:10:32.295708,-0.04795168346146134
2023-01-27 11:10:32.300708,-0.0433210544288158
2023-01-27 11:10:32.305708,-0.038921331274593025
2023-01-27 11:10:32.310708,-0.03572424501180637
2023-01-27 11:10:32.315708,-0.033604826824979485
2023-01-27 11:10:32.320708,-0.03192583844065659
2023-01-27 11:10:32.325708,-0.030349598701998257
2023-01-27 11:10:32.330708,-0.028512081131338976
2023-01-27 11:10:32.335708,-0.025630713514567378
2023-01-27 11:10:32.340708,-0.02122779749333851
2023-01-27 11:10:32.345708,-0.015769873197477104
2023-01-27 11:10:32.350708,-0.00997682474553581
2023-01-27 11:10:32.355708,-0.0039943441820509806
2023-01-27 11:10:32.360708,0.0022598109208046774
2023-01-27 11:10:32.365708,0.008637235525587157
2023-01-27 11:10:32.370708,0.015337864868342795
2023-01-27 11:10:32.375708,0.023335752718001705
2023-01-27 11:10:32.380708,0.03346443176269527
2023-01-27 11:10:32.385708,0.04545238937848255
2023-01-27 11:10:32.390708,0.05832235142588606
2023-01-27 11:10:32.395708,0.07112002875838518
2023-01-27 11:10:32.400708,0.08269946277141565
2023-01-27 11:10:32.405708,0.0915298549406491
2023-01-27 11:10:32.410708,0.09654681384563435
2023-01-27 11:10:32.415708,0.09779540293410995
2023-01-27 11:10:32.420708,0.09568135440349565
2023-01-27 11:10:32.425708,0.09012798404978688
2023-01-27 11:10:32.430708,0.08101662248373029
2023-01-27 11:10:32.435708,0.0688158988386173
2023-01-27 11:10:32.440708,0.05411525815725317
2023-01-27 11:10:32.445708,0.037115869209568456
2023-01-27 11:10:32.450708,0.018246769905090277
2023-01-27 11:10:32.455708,-0.001253607035402761
2023-01-27 11:10:32.460708,-0.020001729950308723
2023-01-27 11:10:32.465708,-0.03720372189749059
2023-01-27 11:10:32.470708,-0.0522160530090332
2023-01-27 11:10:32.475708,-0.06408306924775264
2023-01-27 11:10:32.480708,-0.0722658634185791
2023-01-27 11:10:32.485708,-0.0773487275981531
2023-01-27 11:10:32.490708,-0.0804156064987182
2023-01-27 11:10:32.495708,-0.08222545715990787
2023-01-27 11:10:32.500708,-0.08346875756978979
2023-01-27 11:10:32.505708,-0.08505263251899015
2023-01-27 11:10:32.510708,-0.08731524646282188
2023-01-27 11:10:32.515708,-0.08944504352303487
2023-01-27 11:10:32.520708,-0.09034435451030727
2023-01-27 11:10:32.525708,-0.08962658312896958
2023-01-27 11:10:32.530708,-0.08731524646282192
2023-01-27 11:10:32.535708,-0.08332001532294118
2023-01-27 11:10:32.540708,-0.07796347141265864
2023-01-27 11:10:32.545708,-0.07245983925995442
