-94.17
-99.49
-100.9
-103.9
-111.47
-122.51
-132.01
-133.4
-121.58
-95.35
-57.97
-15.73
24.55
57.51
80.27
92.4
95.17
90.7
81.05
67.48
50.41
30.02
7.68
-12.77
-24.87
-21.31
2.59
45.61
99.63
151.98
190.01
205.62
197.52
170.32
131.34
87.33
42.77
0.37
-37.46
-67.79
-87.72
-96.22
-95.76
-92.41
-93.67
-105.27
-128.63
-160.38
-194.13
-223.36
-243.85
-254.96
-259.09
-260.42
-263.4
-270.88
-282.83
-295.59
-302.98
-298.72
-279.34
-245.53
-201.92
-155.32
-112.45
-78.8
-58.6
-55.12
-70.55
-104.97
-155.26
-214.94
-275.51
-328.31
-366.72
-386.92
-387.82
-370.49
-337.88
-294.57
-246.14
-198.03
-153.69
-114.25
-78.48
-43.87
-7.86
31.26
74.12
120.35
168.63
216.74
261.63
299.92
328.68
346.17
352.32
348.9
339.28
328.03
320.28
320.25
329.68
346.51
364.64
375.73
372.17
350.23
311.72
263.22
213.21
168.63
132.64
104.45
81.42
61.61
45.22
34.1
29.76
31.21
34.53
34.23
25.9
8.29
-16.21
-43.32
-69.54
-93.74
-116.74
-139.17
-159.7
-175.11
-182.14
-180.19
-172.47
-164.51
-160.88
-162.26
-165.02
-163.61
-154.28
-137.42
-117.15
-98.54
-84.35
-73.71
-63.2
-49.47
-31.49
-10.75
10.32
30.17
48.88
67.22
85.12
101.34
114.72
126.28
139.9
160.47
190.1
224.92
255.04
267.97
254.44
212.98
150.59
79.51
11.8
-45.11
-89.79
-125.08
-155.56
-185.2
-216.56
-250.62
-286.57
-321.25
-348.9
-362.05
-354.44
-324.66
-278.28
-227.04
-185.07
-163.76
-167.9
-194.45
-234.1
-274.63
-304.46
-315.42
-304.1
-271.89
-224.1
-168.52
-113.63
-66.64
-32.21
-11.66
-3.79
-5.53
-12.69
-20
-22.09
-14.79
3.43
31.03
64.53
99.14
130.63
156.98
178.88
199.11
221.16
248.02
281.36
321.04
363.2
400.45
423.67
425.04
400.83
353
288.7
216.18
147.48
93.83
61.57
50.33
55.24
70.86
93.37
120.06
147.47
173
192.55
201.73
197.97
181.44
154.7
121.02
82.78
41.65
-0.92
-44.25
-87.92
-130.19
-167.86
-197.14
-215.19
-221.23
-216.91
-205.55
-191.71
-180.62
-175.97
-179.6
-191.72
-211.41
-236.79
-264.75
-291.03
-311.25
-322.59
-323
-311.43
-287.72
-252.48
-207.1
-153.73
-95.6
-32.18
30.58
83.86
120.06
136.52
136.02
124
105.67
84.38
61.78
37.87
13.73
-8.32
-25.72
-36.29
-39.61
-37.25
-32.33
-28.13
-27.58
-31.13
-36.65
-40.57
-39.64
-32.59
-20.42
-7.33
2.67
6.65
4.62
-0.61
-4.72
-3.57
5.49
23.39
49.26
80.52
112.03
136.71
147.26
139.03
112.84
76.18
41.25
20.52
22
46.29
87.47
136.86
186.94
233.33
274.57
310.37
339.93
361.54
373.19
373.11
360.43
334.6
295.85
246.43
191.73
139.27
96
65.38
46.51
36.58
33.42
37.07
48.75
67.44
86.93
96.69
87.23
56.71
14.61
-22.66
-40.8
-35.79
-16.46
0.17
-1.83
-29.06
-79.8
-141.12
-195.78
-230.94
-243.36
-238.83
-226.07
-210.7
-193.04
-170.87
-142.43
-109.7
-78.45
-54.59
-41.42
-37.95
-40.34
-44.02
-45.86
-44.64
-41.16
-37.1
-31.96
-23.91
-11.54
5.44
25.47
45.79
63.88
77.15
80.76
71.66
47.5
6.87
-48.31
-111.65
-173.28
-220.25
-240.94
-237.87
-219.73
-194.43
-170.99
-155.35
-148.53
-147.06
-144.95
-137.14
-121.97
-100.3
-75.89
-54.05
-38.09
-28.14
-21.39
-14.03
-3.87
8.84
22.78
35.92
46.36
53.91
59.86
66.25
74.88
85.98
97.78
107.9
114.17
115.68
114
112.09
113.07
119.02
130.23
145.37
162.35
178.7
192.06
201.29
206.15
207.68
208.14
210.03
214.85
222.32
230.64
237.37
240.47
237.45
224.93
199.1
156.87
97.79
25.23
-53.86
-131.91
-197.68
-241.3
-258.52
-252.01
-229.06
-197.44
-162.88
-128.69
-96.56
-67.04
-40.72
-18.13
0.86
16.99
31.62
45.96
60.55
75.12
88.99
101.35
110.74
116.01
116.74
113.74
108.46
102.35
96.56
91.85
88.42
86.07
83.91
80.95
77.17
73.19
69.71
66.9
64.28
60.58
53.84
43.79
29.39
10.87
-10.1
-31.25
-50.76
-67.75
-82.27
-94.78
-109.01
-128.36
-153.9
-184.22
-216.5
-248.25
-278.21
-306.19
-332.46
-361.39
-396.6
-438.65
-484.7
-529.89
-569.7
-601.2
-623.07
-609.44
-545.58
-432.49
-288.07
-137.36
0.03
114.67
205.13
274.33
326.66
362.42
382.1
388.03
384.58
377.21
370.65
366.99
366.51
368.34
368.18
362.53
350.38
332.95
313.35
294.47
277.86
263.85
251.79
238.37
220.23
198.33
174.31
150.61
129.26
111
95.54
81.98
68.27
52.83
35.3
16.05
-3.8
-23.16
-41.74
-60.04
-78.85
-99.22
-121.55
-145.19
-169.39
-193.51
-217.55
-241.87
-265.95
-287.88
-304.82
-315.08
-319.42
-320.92
-322.48
-323.59
-319.8
-305.25
-277.37
-240.23
-203.27
-176.3
-163.93
-163.26
-166.88
-168.84
-168.52
-169.84
-176.77
-188.56
-199.69
-204.21
-200.29
-191.78
-184.89
-182.51
-181.27
-173.21
-150.51
-110.86
-59.11
-4.6
43.83
81.37
108.04
126.58
139.37
147.9
152.78
154.42
153.6
151.49
149.41
148.39
148.77
149.97
151.83
154.87
160.14
168.76
181.57
198.92
220.44
244.75
265.09
273.58
264.86
239.48
202.54
160.25
117.48
77.08
40.32
7.42
-21.4
-45.96
-65.76
-81.44
-94.43
-106.41
-118.74
-132.09
-146.2
-160.62
-172.71
-178.24
-174.45
-160.33
-136.32
-103.88
-65.03
-21.9
23.7
70.1
117.37
164.2
208.32
247.16
278.78
302.76
320.62
335.61
337.26
321.75
288.24
239.12
179.24
114.23
49.65
-9.79
-60.93
-102.57
-133.65
-155.81
-172.58
-187.55
-203.16
-220.22
-236.02
-246.74
-249.25
-240.26
-218.16
-183.12
-137.1
-84.37
-34.05
2.88
17.72
8.84
-15.53
-41.4
-55.83
-52.61
-37.09
-19.47
-8.01
-4.58
-4.57
-0.66
11.35
29.65
46.39
52.35
42.62
19.36
-9.71
-34.89
-51.71
-57.94
-53.15
-39.2
-18.43
7.67
39.03
76.3
119.5
166.79
215.41
264.19
311.74
356.48
395.94
426.09
441.68
437.31
409.5
346.99
251.77
138.05
27.56
-60.7
-118.21
-146.52
-152.74
-144.77
-128.8
-106.48
-81.39
-59.08
-45.78
-45.7
-58.39
-78.57
-97.77
-109.02
-105.1
-85.8
-58.26
-33.41
-20.08
-21.14
-33.23
-49.81
-64.7
-73.71
-76.64
-75.65
-73.62
-72.68
-74.16
-78.81
-87.02
-98.55
-111.77
-124.37
-132.33
-131.16
-118.02
-93.55
-62.58
-32.88
-12.58
-6.74
-15.3
-32.55
-48.94
-54.43
-41.83
-9.22
39.46
95.67
146.82
180.81
190.59
176.38
144.32
103.19
60.69
21.23
-14.27
-46.59
-75.96
-101.83
-122.22
-134.6
-137.15
-129.09
-110.68
-82.27
-44.39
2.05
51.89
96.56
126.16
133.86
119.73
91.64
62.03
42.01
36.49
42.67
52.93
59.45
58.14
49.52
36.94
23.72
11.31
-0.45
-12.06
-22.99
-31.72
-36.73
-37.19
-33.68
-27.88
-22.03
-18.22
-17.66
-20.02
-23.63
-26.27
-26.18
-22.94
-17.52
-11.81
-7.66
-6.11
-6.9
-8.8
-10.3
-10.22
-8.25
-4.98
-1.41
1.49
3.15
3.71
3.83
4.35
6.02
9.18
13.73
19.29
25.4
31.53
37.29
42.31
46.19
48.7
49.44
48.13
44.69
39.19
31.95
23.43
14.16
4.74
-4.18
-12.08
-18.5
-23.15
-25.99
-27.16
-26.98
-25.98
-24.69
-23.42
-22.33
-21.38
-20.43
-19.38
-18.3
-17.35
-16.9
-17.22
-18.24
-19.6
-20.74
-20.93
-19.57
-16.35
-11.37
-5.03
2.33
10.72
20.48
31.78
44.75
58.95
73.36
86.5
96.79
103.05
104.59
101.68
94.24
83.05
69.93
57.91
50.58
50.72
58.89
72.53
87.26
97.41
99.5
93.46
82.33
70.42
61.21
55.81
52.02
51.96
54.02
56.32
57.35
56.27
52.88
47.51
40.77
31.87
22.42
11.34
-2.35
-19.49
-40.55
-65.85
-95.22
-127.5
-162.32
-191.93
-211.19
-216.28
-207.11
-188.02
-166.19
-148
-135.53
-129.41
-117.77
-93.58
-53.28
1.3
63.2
122.2
167.03
187.57
171.21
121.36
41.56
-57.99
-162.49
-255.96
-325.57
-364.74
-340.37
-301.65
-251.51
-199.9
-155.07
-122.03
-101.12
-87.79
-73.71
-50.14
-17.55
27.71
75.54
111.07
120.28
96.34
42.96
-26.31
-93.48
-147.55
-177.66
-188.15
-190.63
-197.46
-215.4
-242.6
-270.15
-286.93
-287.91
-269
-234.86
-192.73
-148.59
-104.81
-60.9
-15.72
30.41
73.75
112.19
142.88
165.11
180.46
191.53
200.37
207.38
211.27
209.53
201.28
186.62
167.36
146.42
126.83
110.89
99.7
92.9
88.83
85.07
79.3
70.16
58.07
45.04
33.76
26.37
23.54
24.49
27.84
32.54
38.17
44.66
51.57
57.84
62.16
63.78
62.94
60.79
58.51
56.51
54.19
50.44
44.43
36.31
27.04
17.94
10.08
3.78
-1.13
-4.91
-7.53
-8.51
-7.11
-3.19
2.4
7.95
11.65
12.79
12.45
12.91
16.31
23.38
32.95
42.9
51.51
58.11
62.9
65.86
65.97
61.44
51.1
35.52
17.45
0.81
-11.28
-17.85
-20.37
-21.71
-24.69
-31.15
-41.95
-57.06
-75.39
-94.35
-109.69
-116.61
-111.85
-95.36
-70.79
-43.84
-19.51
0.18
16.34
31.6
47.82
64.56
79.71
91.22
98.85
104.46
110.84
119.57
130
139.53
145.05
144.85
139.59
131.89
125.13
121.8
122.52
126.33
131.54
136.91
142.17
147.51
152.9
157.54
160.27
160.54
159.04
157.75
159.06
164.41
173.57
184.73
195.62
204.39
209.74
210.5
205.39
193.16
173.24
146.26
114.13
79.49
45.09
12.99
-15.97
-41.54
-63.6
-81.93
-96.71
-108.84
-119.64
-130.11
-141.08
-154.29
-170.85
-189.98
-208.3
-220.77
-222.82
-212.73
-192.76
-169.41
-153.4
-153.05
-170.01
-198.51
-228.87
-252.59
-265.68
-268.24
-264.02
-261.61
-268.1
-286.39
-314.11
-345.73
-374.59
-394.16
-398.36
-384.8
-360.07
-333.86
-314.89
-308.13
-315.91
-339.58
-379.23
-431.52
-455.78
-420.27
-319.14
-177.88
-31.33
96.87
197.08
264.91
311.83
344.01
358.06
348.85
314.33
258.65
189.55
118.32
56.91
16.17
0.72
5.23
20.12
36.68
51.2
64.19
77.51
91.72
105.96
117.17
121.22
117.42
109.4
103.13
102.4
106.37
110.59
111.33
107.47
100.97
95.69
94.79
98.82
105.46
111.28
114.24
115.39
117.85
125.03
138.8
158.34
180.06
198.51
207.91
204.1
186.21
157.1
122.6
89.28
61.91
41.87
27.46
15.6
3.96
-7.66
-17.72
-24.52
-27.84
-29.35
-31.61
-36.33
-42.91
-48.74
-50.6
-46.67
-37.64
-26.35
-16.12
-9.19
-6
-5.57
-6.71
-8.72
-11.68
-15.98
-21.73
-28.47
-35.35
-41.48
-46.27
-49.59
-51.7
-53.27
-55.17
-58.23
-62.99
-69.24
-75.97
-81.69
-84.94
-84.99
-81.9
-76.41
-69.26
-60.93
-51.34
-40.05
-26.65
-11.2
5.27
20.91
33.57
41.74
45.09
44.56
41.76
38.17
34.6
31.04
27.17
22.75
17.95
13.25
9.18
6.04
4.06
3.41
4.13
5.98
8.15
9.4
8.78
6.07
2.05
-1.78
-3.85
-3.1
0.89
7.88
17.28
28.24
39.77
50.53
59.06
64.06
64.77
61.55
55.71
49.16
43.65
39.92
37.38
34.49
29.54
21.78
12.04
2.35
-5.09
-9.25
-10.73
-11.42
-13.15
-16.51
-20.59
-23.61
-24.33
-22.94
-20.97
-20.42
-22.59
-27.53
-34.3
-41.66
-48.6
-54.19
-57.01
-54.88
-45.49
-27.74
-3.06
24.29
48.38
63.88
68.16
62.18
49.65
34.89
20.88
8.47
-2.79
-12.97
-20.62
-23.38
-19.69
-10.67
-0.39
5.76
3.9
-6.14
-20.53
-33.4
-39.99
-38.9
-32.66
-26.06
-23.77
-28.19
-38.68
-51.95
-63.36
-68.66
-65.35
-53.55
-36.1
-17.29
-1.54
8.1
10.73
7.78
2.35
-1.58
-0.38
8.04
23.44
42.85
61.46
74.38
78.8
75.4
67.98
61.27
58.35
59.18
61.15
61.29
58.28
52.96
47.19
42.14
37.25
30.77
21.38
9.41
-2.85
-12.19
-16.27
-14.68
-9.06
-2.29
2.68
3.93
1.03
-4.69
-10.51
-13.11
-9.57
1.52
19.43
41.47
63.91
83.12
96.75
104.26
106.66
105.55
101.97
95.69
85.37
69.56
48.11
23.16
-1.3
-20.96
-33.13
-37.92
-38.01
-37.06
-37.89
-41.3
-46.26
-51
-54.37
-56.44
-58.01
-59.54
-60.08
-57.16
-47.72
-29.86
-4.31
25.01
51.96
70.1
74.88
65.21
43.77
16
-11.87
-34.83
-50.44
-58.89
-62.01
-61.91
-59.98
-56.69
-52.26
-47.53
-44.23
-44.16
-47.84
-53.62
-57.89
-56.73
-47.94
-32.25
-13.02
5.45
19.79
28.75
32.87
33.46
31.39
26.87
20.09
12.12
5.29
2.43
5.36
13.53
23.85
31.95
34.13
29.13
18.61
6.3
-3.9
-9.46
-10.17
-7.83
-5.08
-4.14
-5.85
-9.51
-13.41
-15.83
-15.92
-14.36
-12.95
-13.77
-18.13
-25.89
-35.64
-45.43
-53.6
-59.2
-61.91
-61.63
-58.16
-51.43
-41.87
-30.73
-19.79
-10.76
-4.52
-0.78
1.72
4.44
8.18
12.72
16.92
19.42
19.52
17.48
14.38
11.69
10.77
12.6
17.76
26.04
36.12
45.33
50.12
47.25
35.31
15.81
-6.91
-27.02
-39.5
-42
-35.38
-23.17
-9.94
0.15
4.17
0.69
-10.13
-26.74
-46.21
-64.87
-79.02
-85.99
-84.65
-75.48
-59.98
-39.95
-17.13
6.56
28.68
46.01
55.2
54.2
43.43
26.28
8.09
-5.85
-12.41
-11.76
-6.89
-1.71
0.86
0.11
-2.71
-5.64
-7.44
-8.22
-9.29
-12.25
-18.14
-27.06
-38.22
-50.19
-61.11
-68.8
-71.16
-66.89
-56.47
-42.59
-29.67
-22.22
-22.82
-30.7
-41.82
-50.63
-52.59
-45.84
-31.7
-13.44
5.67
23.67
40.22
55.78
70.48
83.66
94.15
101.17
104.89
106.49
107.36
108.27
108.94
108.13
104.27
96.1
83.03
65.08
42.97
17.9
-8.25
-33.03
-53.72
-68.03
-74.96
-75.18
-70.95
-65.05
-60.02
-57.25
-56.79
-57.44
-57.08
-53.43
-45.06
-32.17
-16.68
-1.47
11.42
22.25
33.77
49.64
71.73
98
122.36
137.23
137.05
121.19
94.31
64
37.46
18.76
8.23
3.75
2.82
4.13
7.95
15.32
26.61
40.66
54.83
66.04
71.91
71.63
65.82
55.93
43.4
29.13
13.63
-2.57
-18.48
-32.68
-43.86
-51.51
-56.41
-60.39
-65.46
-72.78
-82.09
-91.71
-99.25
-102.48
-99.94
-91.23
-76.9
-58.25
-37.16
-15.79
3.65
19.49
31.01
38.53
42.94
45.09
45.18
42.96
38.28
31.7
24.75
19.57
18.21
21.89
30.67
43.18
56.76
67.87
72.83
68.98
55.86
35.55
12.21
-9.37
-25.56
-34.98
-38.6
-38.97
-39
-40.9
-45.68
-52.67
-59.75
-63.96
-62.49
-53.99
-39.34
-21.25
-3.08
12.7
25.37
35.72
44.79
52.76
58.68
61.12
59.34
53.96
46.73
39.56
33.57
28.68
24.11
19.11
13.4
7.33
1.39
-4.11
-9.3
-14.6
-20.52
-27.08
-33.56
-38.72
-41.35
-41.31
-40.07
-40.54
-45.72
-57.1
-73.32
-90.28
-102.68
-106.15
-99.12
-83.32
-62.64
-41.17
-21.47
-4.03
12.01
27.25
41.14
51.96
58.13
59.59
58.34
57.38
58.73
62.06
65.06
65.68
64.32
64.26
69.73
82.61
100.38
116.76
125.08
121.99
109.36
92.86
78.43
68.67
61.49
51.6
33.69
5.66
-30.22
-68.18
-101.32
-124.21
-134.83
-134.96
-128.87
-120.9
-113.07
-104.76
-94.1
-80.14
-64.23
-49.55
-39.26
-34.37
-32.91
-30.55
-23.54
-10.86
5.23
20.5
31.11
35.15
33.07
27.17
21.49
18.78
19.08
19.92
18.26
12.28
2.23
-9.93
-21.4
-27.68
-26.97
-21.65
-16.99
-17.6
-24.75
-36.21
-47.63
-54.4
-49.51
-30.22
0.17
34.23
65.45
91.64
114.62
137.81
164
199.37
246.35
302.17
360.29
414.43
459.92
492.75
508.89
474.32
375.77
232.21
86.21
-26.86
-94.94
-124.7
-129.73
-122.37
-110.36
-90.48
-61.52
-27.55
2.47
20.7
22.9
9.21
-17.74
-56.32
-96.13
-128.74
-151.22
-166.22
-177.04
-186.29
-194.43
-200.73
-204.13
-201.3
-191.89
-178.18
-169.1
-165.3
-165.96
-168.54
-169.62
-165.74
-153.08
-131.02
-101.27
-67.41
-32.47
0.44
29.34
53.01
70.44
85.19
96.84
104.03
105.11
99.75
87.96
70.77
49.77
26.53
2.31
-22.87
-49
-75.97
-103.24
-130.97
-159.95
-191.34
-225.82
-262.23
-297.46
-326.3
-343.51
-345.8
-333.36
-309.01
-276.32
-238.14
-196.01
-151.32
-105.96
-62.73
-24.46
7.37
33.59
56.88
79.88
103.33
125.15
141.66
149.66
148.15
139.07
126.41
114.41
105.76
100.89
98.14
95.12
89.94
82.03
71.94
60.68
49.07
37.38
25.95
15.38
6.7
0.77
-2.4
-3.97
-5.85
-9.76
-16.41
-25.2
-34.63
-43.18
-50.2
-55.86
-60.64
-64.35
-65.55
-62.07
-51.81
-34.05
-9.94
17.73
45.53
70.39
90.31
104.65
113.59
117.96
118.87
117.55
115.34
113.4
112.42
112.22
111.87
109.74
104.26
94.54
80.81
64.81
49.68
38.95
35.5
39.99
49.8
59.24
61.04
48.84
19.96
-23.42
-74.63
-124.57
-164.28
-187.31
-191.01
-176.76
-149.17
-114.71
-80.26
-51.44
-31.52
-20.75
-16.87
-16.08
-14.48
-9.32
0.39
13.86
29.04
43.31
54.15
59.66
59.04
52.81
42.77
31.51
21.69
15.37
13.31
14.72
17.73
20.27
21.13
20.34
19.07
18.91
20.88
25.01
30.51
36.49
42.22
47.17
50.42
50.6
46.32
37.11
24.06
9.77
-2.89
-12.08
-17.92
-22
-26.19
-31.55
-37.81
-43.79
-47.98
-49.29
-46.9
-40.16
-28.54
-12.02
8.28
29.8
49.18
63.4
70.92
72.35
70.06
66.86
64.73
64.13
64.22
63.76
62.07
59.39
56.65
54.68
53.33
51.49
47.64
40.79
30.98
19.44
7.82
-2.59
-11.4
-18.97
-25.64
-31.29
-35.12
-36.28
-34.63
-31.28
-28.43
-28.36
-32.61
-41.04
-52.16
-63.8
-73.82
-80.56
-82.8
-79.7
-70.71
-56.13
-37.11
-15.96
4.57
21.99
34.83
42.97
47.3
49.24
49.91
50.06
49.87
49.31
48.39
47.21
46
44.93
43.99
42.9
41.33
38.92
35.62
31.57
26.96
21.95
16.45
10.29
3.46
-3.81
-11.1
-18
-24.35
-30.35
-36.23
-42.02
-47.33
-51.68
-54.75
-56.86
-58.87
-61.86
-66.54
-72.64
-78.97
-83.73
-85.28
-82.72
-76.03
-65.77
-52.72
-37.63
-21.18
-4.26
11.98
26.08
36.74
43.29
45.93
45.65
43.62
40.72
37.23
33.12
28.45
23.78
20.03
18.04
18.04
19.35
20.65
20.43
17.8
12.82
6.44
0.04
-5.39
-9.5
-12.73
-16.06
-20.43
-26.31
-33.76
-42.46
-52.01
-62.03
-71.72
-79.56
-83.1
-79.5
-66.86
-45.46
-18.28
9.64
33.03
48.35
54.94
54.81
51.37
47.63
45.08
43.56
42.1
39.93
37.19
34.78
33.58
33.76
34.39
33.96
31.3
26.31
20.09
14.67
11.65
11.39
12.71
13.26
10.94
4.81
-4.42
-14.82
-24.42
-32.22
-38.53
-44.47
-51.11
-58.29
-64.46
-67.31
-64.78
-56.32
-43.14
-27.7
-12.57
0.51
11.02
19.42
26.32
31.95
36.08
38.42
39.12
38.71
37.83
36.84
35.81
34.61
33.32
32.35
32.23
33.12
34.29
34.24
31.46
25.59
17.64
9.49
3.06
-0.7
-2.31
-3.49
-6.38
-12.46
-20.95
-29.74
-36.44
-39.22
-37.45
-31.67
-23.39
-14.45
-6.33
2.02
12.12
24.68
38.93
53.07
65.11
73.73
78.37
79.33
80.25
84.11
91.84
102.24
113.45
124.65
136.56
150.47
166.86
187.97
213
238.11
258.48
271.88
280.95
291.83
310.51
315.87
291.91
233.12
148.46
53.92
-36.56
-114.13
-175.21
-220.39
-253.12
-273.66
-282.61
-281.33
-272.66
-259.77
-245.3
-231.49
-220.25
-214.23
-210.89
-206.97
-199.22
-185.33
-164.92
-140.08
-115.68
-97.59
-89.74
-88.83
-87.11
-76.07
-51.27
-14.99
24.66
57.84
77.91
80.43
68.43
47.27
20.48
-11.75
-49.7
-90.11
-124.13
-140.24
-130.79
-96.57
-49.11
-6.28
16.04
10.52
-19.47
-62.8
-106.58
-140.72
-159.33
-160.48
-144.75
-113.71
-69.72
-15.99
43.18
102.12
153.56
189.94
204.8
195.67
166.62
127.63
90.77
64.42
48.9
36.5
17.1
-15.91
-61.64
-112.5
-159.13
-195.41
-220.13
-235
-241.09
-236.94
-220.61
-192.89
-159.21
-128.11
-107.01
-98.44
-99.49
-104.76
-110.33
-115.88
-123.18
-132.87
-142.12
-145.14
-136.61
-115.04
-83.99
-50.13
-19.63
4.63
23.27
38.45
51.68
62.67
70.12
73.56
74.17
74.44
77.11
83.74
94.36
108.32
125.32
145.76
169.8
195.79
219.57
235.38
238.18
226.55
204.33
179.72
162.52
160.37
175.93
206.66
247.03
291.75
338.05
385.66
434.37
481.35
520.1
542.24
541.18
515.51
469.98
413.61
355.58
301.9
255.15
216.59
188.59
175.07
178.96
198.56
225.88
248.41
254.16
236.84
198.17
146.09
90.67
39.63
-3.58
-38.94
-67.66
-90.4
-106.97
-117.46
-123.53
-128.41
-136.03
-149.44
-169.61
-195.18
-223.23
-250.74
-275.88
-298.51
-319.68
-340.56
-361.12
-379.64
-393.23
-398.89
-394.98
-382.06
-362.83
-341.28
-321.73
-308.07
-303.08
-307.87
-321.12
-338.68
-354.25
-361.06
-354.37
-333.4
-301.73
-265.74
-232.22
-206.05
-189.31
-181.5
-180.54
-183.6
-187.43
-188.61
-183.7
-170.15
-146.69
-113.43
-71.33
-21.99
31.45
84.04
129.52
162.66
181.89
190.77
196.25
204.86
218.75
234.28
244.71
244.82
234.73
219.89
207.45
201.06
197.72
189.14
166.53
126.14
71.74
13.07
-38.65
-75.52
-95.66
-102.7
-102.39
-98.98
-92.94
-81.23
-59.53
-24.98
21.35
74.35
126.41
170.33
202.02
222.19
235.91
250.17
270.47
297.78
327.58
351.67
361.78
352.88
324.91
281.82
228.99
171.64
114.94
65.39
31.34
21.01
38.51
80.4
135.17
186.69
220.74
230.62
218.99
195.19
169.69
149.29
135.16
124.18
111.99
95.65
74.34
48.58
19.18
-13.38
-49
-87.13
-126.62
-165.95
-203.96
-240.75
-277.33
-314.18
-349.64
-378.83
-394.45
-389.07
-358
-301.54
-225.64
-140.6
-58.5
9.39
55.02
74.92
70.52
47.61
14.82
-18.6
-45.06
-60.29
-64.03
-59.12
-49.92
-40.74
-34.52
-32.42
-33.88
-37.32
-40.82
-42.85
-42.48
-39.41
-33.59
-24.92
-13.3
1.17
17.38
32.53
42.02
40.66
24.28
-8.82
-57.59
-118.75
-187.38
-257.32
-321.45
-372.45
-404.54
-415.93
-410.54
-397.73
-388.25
-389.15
-400.1
-413.64
-419.2
-408.46
-379.06
-334.76
-283.6
-232.53
-184.5
-138.75
-93.68
-49.41
-8.29
26.66
54.02
72.82
85
94.94
107.85
127.5
154.6
186.81
219.86
248.96
266.47
267.88
254.4
232.87
211.46
194.75
181.39
165.33
139.39
94.36
27.12
-57.18
-147.08
-231
-302.4
-360.55
-407.9
-416.31
-367.48
-263.4
-128.5
7.53
125.27
217.63
284.88
330.48
359.46
372.27
371.57
361.42
347.81
335.89
327.5
321.14
313.71
302.04
279.48
239.98
181.91
109.38
30.83
-43.44
-103.55
-142.36
-157.01
-152.48
-137.14
-118.69
-100.45
-81.44
-59.18
-32.28
-1.65
30.25
59.57
84.11
104.22
122.09
138.81
151.85
155.51
143.59
113.17
65.91
8.54
-49.18
-96.97
-127.77
-140.98
-142
-138.96
-138.6
-144.03
-154.5
-166.68
-175.41
-175.22
-162.28
-134.32
-90.15
-30.16
42.09
119.77
184.37
216.66
210.22
173.69
122.3
69.2
21.8
-17.88
-51.11
-79.56
-103.31
-121.08
-132.47
-138.7
-141.97
-144.46
-147.79
-154.1
-162.78
-172.24
-180.43
-186.49
-190.88
-194.79
-199.18
-204.2
-209.1
-211.58
-208.88
-198.77
-180.53
-155.02
-123.43
-85.79
-40.09
11.68
68.12
126.57
182.73
231.11
266.37
284.75
284.91
267.75
235.52
192.14
142
90.13
41.85
2.04
-25.77
-40.02
-41.16
-31.45
-13.06
12.12
42.98
79.37
121.11
167.41
217
268.23
319.33
368.61
413.36
450.15
476.16
490.51
495.64
496.89
499.37
504.51
508.29
502.38
478.68
434.41
372.82
301.64
229.56
163.01
105.26
57.6
20.84
-4.47
-18.63
-25.85
-33.58
-49.42
-78.02
-118.75
-166.57
-214.54
-260.23
-296.79
-317.52
-319.07
-302.77
-273.1
-235.35
-194.69
-155.45
-120.79
-91.58
-67.91
-49.17
-33.19
-19.64
-8.89
-1.8
0.64
-2.46
-10.42
-22.19
-36.37
-51.57
-67.08
-83.22
-101.96
-123.45
-149.31
-181.11
-219.86
-264.31
-309.63
-347.65
-368.94
-366.23
-337.67
-288.29
-227.25
-164.16
-105.12
-51.46
-1.36
46.38
89.56
122.44
138.14
132.78
107.37
67.52
20.96
-24.85
-63.81
-90.86
-101.25
-91.51
-61.4
-16.33
32.83
73.13
95.35
98.47
90.04
81.78
83.15
96.82
118.12
138.8
152
155.2
150.21
140.62
129.39
117.54
105.09
91.84
77.51
61.33
41.88
18.11
-9.3
-37.35
-61.74
-78.98
-88.39
-92.29
-94.22
-96.33
-98.14
-97.11
-90.66
-78.3
-62.65
-48.74
-41.88
-45.23
-58.14
-76.84
-96.66
-114.47
-129.73
-143.94
-158.54
-173.02
-184.2
-187.29
-179.56
-162.87
-143.5
-128.55
-121.57
-120.2
-117.68
-106.46
-81.59
-43.25
3.8
53.08
99.46
140.7
176.54
206.52
223.13
218.75
191.29
147.1
97.02
50.1
10.55
-20.1
-45.7
-68.78
-88.7
-103.01
-109.23
-106.54
-95.91
-80.1
-62.18
-44.84
-28.63
-11.76
8.5
34
64.8
99.42
135.78
171.8
204.76
231.44
248.21
251.56
239.33
211.56
170.73
120.65
65.13
6.68
-52.83
-110.41
-160.86
-196.66
-210.03
-196.18
-156.38
-98.91
-37.49
13.3
43.47
51.3
44.06
34.09
32.9
45.68
69.29
94.14
109.3
107.54
87.85
54.67
14.9
-25.1
-60.99
-89.63
-107.57
-110.71
-95.59
-61.99
-14.63
36.96
80.75
106.1
106.87
82.97
40.23
-11.54
-61.18
-98.4
-115.87
-110.7
-84.65
-43.3
5.89
56.04
102.72
144.24
180.55
211.59
236.39
253.67
263.12
265.88
263.64
256.95
243.64
219.39
180.29
125.81
60.82
-5.41
-62.75
-104.43
-129.89
-144.45
-156.36
-172.92
-198.05
-231.91
-272
-314.34
-353.99
-385.23
-401.9
-398.69
-372.92
-326.15
-264.21
-195.58
-128.89
-70.49
-23.28
12.98
40.47
62.09
80.7
98.95
119.2
143.46
172.9
207.56
245.96
284.62
318.12
339.98
344.51
328.76
293.79
244.39
187.15
127.98
70.45
15.63
-36.51
-85.46
-129.36
-166.09
-194.97
-218.01
-239.1
-261.34
-284.16
-302.17
-307.12
-291.63
-253.27
-196.35
-130.49
-66.86
-13.89
25.26
52.73
73.81
94.26
118.3
147.96
182.92
220.61
256.41
284.42
298.82
295.9
275.57
242.09
203.15
167.48
142.05
130.17
130.78
139.35
149.63
155.66
153.43
141.84
122.63
99.38
75.89
54.7
36.65
21.33
8.32
-2.06
-9.1
-12.68
-14.08
-15.74
-19.8
-26.23
-31.88
-31.77
-21.74
-1.23
25.63
51.61
69.35
74.4
66.44
48.43
24.48
-2.16
-29.59
-56.52
-80.99
-99.71
-109.11
-107.29
-95.7
-79.47
-65.6
-59.93
-64.65
-77.76
-94.57
-110.25
-121.43
-126.15
-122.58
-108.07
-79.71
-36.39
18.97
79.18
134.92
178.46
206.84
222.22
229.61
233.11
233.29
227.41
212.23
187.4
156.99
128.06
106.82
95.26
90.11
85.18
75.33
59.88
43.02
31.24
29.57
38.7
54.55
70.28
79.47
78.81
68.92
53.35
36.22
20.19
5.33
-10.46
-29.74
-53.75
-81.38
-109.64
-135.58
-158.28
-180.15
-205.74
-238.87
-279.37
-321.43
-354.48
-366.71
-349.72
-302.39
-232.21
-153.49
-82.85
-33.85
-13.22
-19.84
-46.77
-84.79
-125.78
-164.63
-198.89
-227.44
-249.34
-263.57
-269.64
-268.59
-263.68
-259.51
-260.02
-266.05
-274.02
-276.94
-267.12
-240.01
-196.54
-143.03
-88.43
-40.55
-3.25
24.08
44.74
62.21
78.12
92.23
103.67
112.55
120.82
131.91
149.65
176.61
213.08
256.11
299.82
336.68
359.71
364.44
350.37
321.05
282.55
241.37
202.21
166.75
134.11
102.43
70.6
39.08
9.62
-16.17
-37.91
-56.63
-73.63
-89.05
-101.24
-107.48
-105.88
-96.72
-82.35
-65.88
-49.38
-33.61
-18.77
-5.95
2.56
4.56
-0.03
-8.24
-15.03
-15.86
-9.34
1.88
12.14
15.91
10.54
-2.96
-21.1
-39.86
-56.4
-69.81
-80.76
-91.01
-102.39
-116.24
-133.14
-153.2
-176.25
-201.61
-228.16
-253.8
-275.99
-291.89
-298.98
-296.2
-285.08
-269.03
-252.05
-237.23
-225.07
-215.15
-206.37
-197.8
-189.62
-184.35
-184.77
-191.75
-202.69
-210.83
-210.32
-197.25
-170.69
-133.07
-91.07
-51.82
-20.42
1.93
18.96
32.7
44.32
55.29
67.64
81.45
95.96
109.1
117.49
118.88
107.46
79.42
37.03
5.9
10.35
62.24
152.06
241.04
315.45
370.44
405.55
424.8
429.75
419.42
393.75
355.82
313.17
277.96
256.84
250.9
256.41
267.17
276.51
281.27
282.77
284.83
291.19
298
296.93
281
249.33
207.91
167.29
137.19
121.6
117.85
116.51
108.04
88.34
60.08
29.58
2.73
-18.35
-35.29
-51.14
-68.92
-89.13
-109.49
-126.59
-138.18
-144.49
-148.12
-152.78
-161.4
-175.05
-192.47
-210.84
-227.36
-241.08
-253.41
-266.99
-283.6
-302.05
-318.15
-326.86
-325.63
-316.53
-305.79
-300.43
-304.19
-314.79
-324.4
-323.32
-304.38
-266.02
-212.51
-151.76
-92.35
-41.02
-1.77
24.19
38.11
43.4
45.46
50.86
65.81
93.99
134.35
180.24
220.89
245.2
246.59
226.83
196.32
170.65
164.04
182.78
222
267.47
301.41
309.81
287.69
240.3
180.15
121.54
75.12
44.76
27.49
16.07
2.38
-19.69
-52.59
-94.85
-141.99
-187.94
-226.82
-254.44
-269.02
-270.64
-260.34
-239.35
-209.45
-173.81
-137.53
-106.64
-85.91
-76.36
-74.76
-75.8
-75.43
-73.27
-72.17
-75.02
-81.7
-88.49
-90.65
-85.99
-76.82
-68.54
-66.13
-70.69
-78.64
-83.76
-80.53
-66.39
-42.56
-12.66
19.06
49.18
75.81
98.73
118.47
135.41
148.88
157.23
158.95
154.46
147.34
143.63
149.37
167.24
195.1
226.92
255.83
277.27
290.36
296.8
298.61
296.47
289.82
278.35
263.54
248.7
237.8
233.45
235.72
242.26
249.41
253.69
253
247.02
236.91
224.57
211.55
198.15
183.14
164.44
140.41
111.01
78.16
45.05
14.64
-11.57
-33.74
-52.85
-69.69
-84.06
-95.12
-102.33
-106.43
-109.54
-114.29
-122.47
-133.89
-146.35
-156.81
-163.13
-165.58
-166.77
-170.17
-178.09
-190.3
-204.03
-215.56
-222.27
-223.65
-221.33
-217.95
-215.88
-216.68
-221.46
-231.69
-249.2
-275.15
-308.38
-344.37
-375.55
-393.83
-393.59
-373.95
-338.9
-295.18
-249.33
-205.07
-162.9
-121.42
-79.44
-37.9
0.14
30.66
50.52
59.14
59.12
55.72
55.15
62.21
78.11
99.84
121.34
136.11
140.14
133.58
120.29
105.63
93.82
86.18
81.36
76.9
71.23
64.71
59.12
56.2
56.19
57.41
57.04
52.72
43.67
31.09
17.57
5.57
-3.53
-9.94
-14.88
-19.63
-24.57
-28.98
-31.3
-30.01
-24.41
-15
-3.4
8.27
18.16
25.57
31.1
36.19
42.32
50.05
58.88
67.56
74.67
79.08
80.16
77.76
72.12
64.04
54.79
46.02
39.04
34.44
31.66
29.45
26.7
23.12
19.57
17.33
17.04
18.03
18.61
17.01
12.48
5.9
-0.7
-4.94
-5.15
-0.68
8.28
20.8
35.4
49.72
60.84
65.78
62.93
53.03
39.27
26.13
17.39
14.52
16.41
20.43
24.12
26.39
27.54
28.43
29.42
30.17
29.93
28.32
25.82
23.29
21.51
20.74
20.66
20.71
20.53
20.29
20.49
21.65
24.06
27.6
31.8
36.03
39.85
42.99
45.37
46.94
47.56
46.95
44.92
41.46
36.95
32.03
27.29
23.15
19.65
16.5
13.32
9.91
6.43
3.37
1.37
0.77
1.23
1.71
0.88
-2.16
-7.23
-12.94
-17.36
-19.17
-18.52
-16.98
-16.67
-18.89
-23.42
-28.64
-32.45
-33.44
-31.25
-26.49
-20.01
-12.48
-4.17
4.8
14.05
22.88
30.44
36.01
39.35
40.7
40.6
39.86
39.14
38.84
38.98
39.31
39.58
39.8
40.43
42.02
44.97
49.15
53.94
58.58
62.6
66.17
69.83
74.16
79.28
84.65
89.41
92.82
94.77
95.82
96.92
99.03
102.73
108.38
116.22
126.72
140.15
155.9
171.7
183.47
186.3
176.25
152.17
116.61
75.04
33.64
-2.97
-33.38
-58.73
-81.11
-101.86
-121.08
-138.28
-153.49
-167.62
-181.44
-194.23
-203.22
-204.66
-196.23
-179.16
-158.31
-139.84
-127.87
-122.42
-119.93
-116.03
-108.25
-96.66
-82.31
-64.72
-41.04
-7.79
36.06
86.78
136.67
177.27
203.36
214.9
215.6
209.77
199.35
183.25
158.86
124.87
82.84
36.93
-7.73
-47.34
-80.02
-105.82
-125.87
-142.01
-156.21
-170.14
-185.16
-202.52
-223.97
-250.79
-282.65
-316.53
-346.82
-366.69
-370.84
-358.46
-334.19
-306.98
-284.41
-268.73
-256.24
-240.54
-216.88
-185.17
-150.05
-118.07
-95.11
-81.99
-74.69
-67.2
-55.46
-38.84
-19.14
0.95
26.4
56.4
85.17
105.61
113.9
109.75
94.87
71.88
43.56
12.76
-18.91
-49.36
-77.57
-101.04
-118.01
-127.95
-130.88
-127.46
-118.93
-107.92
-96.56
-85.57
-73.84
-59.08
-40.55
-17.78
8.66
36.87
63.41
84.84
99.19
106.81
109.95
112.14
118.18
132.8
159.53
199.04
248.05
298.87
340.36
360.78
352.44
315.98
261.22
204.2
161
141.66
146.98
169.66
198.68
224.77
243.63
255.75
264.06
271.45
279.73
290.04
303.34
319.87
338.21
354.18
361.26
352.9
325.29
279.17
219.86
154.99
91.5
33.57
-17.8
-63.64
-105.51
-144.44
-181.16
-216.88
-253.77
-294.3
-339.22
-385.92
-427.84
-455.99
-462.45
-443.62
-401.7
-343.35
-276.35
-206.79
-138.4
-74.26
-19.32
18.44
30.07
10.08
-39.13
-105.74
-171.73
-219.16
-236.7
-223.04
-185.55
-135.46
-82.35
-31.09
17.79
65.47
112.45
158.11
201.74
243.38
283.7
321.94
354.2
373.47
372.48
347.55
301.38
242.86
183.67
134.17
100.01
81.56
75.3
76.4
80.35
83.94
85.24
83.06
76.59
65.19
47.82
22.76
-11.83
-56.66
-109.43
-163.72
-209.94
-237.74
-239.94
-215.26
-168.85
-110.65
-52.59
-5.65
22.27
27.53
11.96
-17.05
-47.63
-66.22
-62.47
-33.59
13.71
65.58
106.55
126.12
122.7
103.46
80.65
65.89
65.82
80.88
106.91
138.31
170.03
198.83
222.44
238.35
243.19
233.95
209.91
174.16
133.12
94.04
62.47
40.14
24.89
12.07
-2.74
-21.72
-44
-66.34
-85.5
-98.41
-102.97
-98.48
-85.76
-66.84
-44.17
-19.82
4.32
24.15
36.76
41.15
37.87
27.71
10.9
-12.3
-40.42
-71.45
-107.54
-148.31
-189.85
-226.18
-253.06
-270.25
-280.71
-287.77
-295.53
-314.61
-350.64
-401.51
-459.23
-515.63
-566.51
-611.22
-649.96
-685.7
-731.78
-796.04
-875.66
-957.79
-1027
-1072.2
-1089.1
-1078.9
-983.42
-785.59
-516.22
-237.31
0.27
178.01
300.99
373.35
415.06
437.6
437.45
413.8
373.27
328.13
290.6
265.57
252.22
248.75
251
248.39
235.43
213.96
191.14
173.54
163.65
160.15
161.21
163.37
159.67
147.12
127.94
107.91
92.5
85.32
86.79
95.89
109.61
123.27
134.73
145.01
157.02
173.18
196.34
226.47
261.01
295.24
324.35
346.37
362.35
375.25
387.77
405.24
429.79
459.52
489.15
513.48
529.94
538.61
541.55
541.64
547.28
564.28
592.73
626.19
654.68
668.72
661.93
633.18
552.58
413.84
236.05
55.87
-94.77
-202.67
-271.21
-310.61
-330.2
-336.34
-327.81
-304.81
-271.58
-236.31
-206.69
-185.37
-173.14
-168.06
-167.52
-165.15
-157.05
-143.37
-128.35
-116.77
-111.36
-112.55
-118.39
-126.51
-132.46
-133.76
-128.19
-118.3
-108.11
-101.24
-100.5
-107.43
-123.8
-149.21
-181.21
-215.11
-246.02
-268.44
-278.35
-274.86
-259.29
-236.1
-209.12
-180.45
-151.17
-123.98
-101.64
-85.9
-76.09
-67.91
-59.27
-50.51
-43.53
-40.8
-44.78
-54.26
-65.1
-72.47
-71.76
-65.67
-59.76
-57.33
-45.64
-13.83
41.71
113.08
177.35
230.63
273.08
307.34
338.9
369.64
397.22
417.08
424.29
416.02
395.5
364.12
323.01
274.03
221.53
172.17
132.39
104.42
73.26
36.43
-7.1
-59.55
-112.36
-163.1
-212.49
-262
-311.94
-359.84
-397.85
-420
-422.34
-403.01
-364.85
-314.36
-259.2
-206.23
-159.87
-120.33
-88.27
-64.64
-50.28
-47.38
-59.24
-87.51
-131.56
-188.41
-252.26
-316.97
-374.89
-416.63
-433.3
-420.24
-376.96
-308.3
-224.39
-138.67
-64.82
-11.82
18.48
29.84
26
11.48
-9.08
-30.89
-48.78
-57.29
-51.24
-27.9
26.28
105.89
189.06
250.48
278.02
275.94
257.07
233.93
213.74
197.97
182.24
163.41
142.09
121.79
105.79
95.41
89.84
86.9
84.17
77.92
66.87
52.63
38.42
26.84
18.67
13.05
8.36
2.98
-5.42
-17.39
-31.69
-46.07
-58.52
-68.15
-74.92
-79.15
-81.09
-82.23
-81.99
-79.21
-72.93
-62.64
-48.9
-33.16
-17.12
-2.48
9.1
17.11
21.88
23.94
24.47
24.5
24.67
25.36
26.81
28.8
31.72
36.29
42.52
50.89
61.36
73.23
85.25
95.99
103.68
108.08
110.05
109.87
109.06
108.99
110.28
112.98
116.7
120.68
120.98
116.38
98.66
64.56
15.38
-44.04
-107.05
-163.96
-213.58
-254.66
-285.71
-308.68
-323.23
-327.82
-322.11
-307.23
-285.5
-260.43
-232.13
-199.94
-167.73
-135.99
-102.1
-63.42
-18
34.85
94.08
161.1
235.98
311.24
381.87
446.01
501.44
545.36
574.35
565.69
506.48
427.21
344.44
258.4
175.74
104.16
50.31
18.17
8.33
21.86
57.74
100.04
136.73
161.74
172.93
172.18
163.41
150.77
139.2
130.79
119.83
100.52
69.08
23.36
-34.37
-96.34
-151.16
-186.85
-197.5
-188.64
-170.57
-153.21
-142.84
-139.68
-138.94
-134.63
-122.69
-103.5
-81.99
-64.32
-55.04
-56.96
-70.01
-91.53
-116.32
-137.67
-149.74
-150.03
-139.24
-120.67
-99.6
-81.15
-70.16
-70.55
-84.14
-109.38
-140.59
-167.19
-176.72
-159.85
-114.83
-50.18
18.61
75.88
112.73
126.3
123
114.53
108.05
107.37
109.39
106.64
93.4
69.74
40.44
11.81
-12.62
-33.53
-53.51
-74.86
-97.39
-118.4
-134.94
-145.74
-151.54
-155.26
-160.6
-169.8
-183.09
-199.07
-213.77
-223.27
-225.29
-219.24
-206.65
-190.27
-172.73
-156.08
-141.27
-128.22
-116.64
-106.59
-97.87
-90.76
-85.65
-82.52
-80.96
-79.96
-77.96
-73.02
-66.69
-58.86
-49.08
-36.98
-22.42
-5.72
12.84
32.71
53.24
74
95.7
119.31
145.59
174.55
205.19
236.76
267.77
296.58
321.86
343.58
362.59
380.66
400.26
423.81
454.25
491.23
530
562.18
578.94
574.41
548.17
505.43
454.54
405.5
363.9
329.6
298.38
265.3
227.4
184.47
138.23
78.09
1.72
-85.77
-173.18
-248.42
-303.78
-337.01
-350.33
-348.04
-335
-313.67
-286.86
-257.62
-228.5
-201.13
-175.78
-152.18
-129.59
-107.51
-84.44
-59.84
-35.91
-15.87
-2.64
2.18
-1.86
-13.35
-29.82
-47.43
-63.67
-78.22
-92.44
-108.52
-125.45
-144.08
-168.8
-198.75
-228.65
-252.37
-265.02
-264.08
-250.08
-226.47
-199.33
-167.88
-132.49
-91.89
-45.41
5.76
59.26
111.6
157.98
191.23
204.53
193.44
159.38
108.19
47.73
-12.44
-59.4
-80.63
-71.89
-38.85
0.06
38.05
74.75
107.75
133.8
147.79
145.62
124.26
84.29
30.04
-30.01
-86.98
-138.62
-185.68
-228.33
-253.21
-247.59
-205.74
-132.84
-51.14
33.04
113.01
181.22
232.32
260.98
262.95
237.4
188.6
126.93
66.85
14.33
-32.62
-81.48
-141.31
-219.27
-316.27
-424.79
-530.2
-596
-595.86
-525.4
-404.98
-266.61
-136.52
-26.86
61.67
133.44
193.85
243.49
277.42
291.27
285.09
262.96
230.03
189.92
140.26
84.64
27.38
-25.27
-65.63
-87.25
-88.01
-71.81
-47.1
-23.08
-4.9
3.82
1.69
-10.3
-29.83
-53.87
-79.38
-103.16
-123.1
-134.9
-136.82
-129.75
-115.47
-95.75
-71.62
-43.38
-11
23.59
58.9
92.52
121.31
142.85
155.74
159.93
156.63
148.02
136.58
125.09
115.24
107.33
101.27
96.65
92.93
89.6
86.54
83.74
81.45
81.67
82.66
83.32
82.69
79.95
74.27
65.38
53.29
38.68
22.75
6.73
-7.51
-18.38
-25.08
-28.07
-28.13
-26.51
-24.09
-21.11
-17.42
-12.03
-3.95
7.19
19.98
33.05
45.09
55.69
65.56
76.04
89.32
108.1
135.53
168.86
206.67
247.1
286.85
320.4
340.52
340.88
318.64
275.98
216.68
147.38
75.13
5.78
-57.28
-113.12
-161.92
-203.87
-239.06
-271.32
-304.23
-339.86
-377.86
-416.15
-452.48
-484.91
-512.01
-511.91
-472.21
-395.44
-298.82
-202.06
-117.1
-47.41
8.67
54.51
93.24
123.54
143.9
154.56
157.94
157.62
156.1
154.86
154.53
155.41
154.85
150.64
142.36
131.22
119.37
107.67
96.31
85.36
75.21
64.42
51.36
38.34
27.47
20.68
17.69
17.18
17.39
16.8
13.03
3.64
-13.36
-39.25
-66.18
-87.53
-100.01
-104.91
-105.18
-103.31
-100.49
-97
-92.8
-87.74
-82.85
-78.8
-75.57
-72.5
-69.15
-65.78
-63.31
-62.56
-63.95
-67.9
-73.8
-80.35
-85.86
-89.21
-90.02
-91.41
-92.7
-94.16
-97.14
-102.62
-110.23
-117.54
-120.21
-113.48
-94.48
-63.79
-26.42
9.87
37.88
53.42
56.31
48.85
35.26
19.45
3.46
-12.83
-30.05
-47.89
-65.16
-81.11
-95.93
-110.74
-126.9
-145.07
-164.68
-183.97
-200.59
-212.75
-220
-223.21
-223.86
-223.16
-220.86
-214.88
-203.51
-185.03
-158.88
-125.96
-88.6
-49.73
-11.78
24.08
57.74
89.78
121.25
153.36
188.16
226.49
266.31
302.1
326.4
333.07
320.6
293.7
261.93
237.62
228.51
235.13
252.38
274.24
297.64
322.74
350.1
378.38
406.31
429.25
441.62
440.23
426.68
407.23
389.52
379
378.79
393.44
422.2
458.32
490.59
507.63
502.61
474.5
427.13
340.54
214.67
67.82
-71.74
-182.51
-257.52
-299.67
-312.31
-305.77
-288.14
-262.71
-234.03
-208.42
-193.58
-198.42
-227.42
-276.66
-334.73
-384.98
-411.18
-406.74
-375.99
-331.02
-288.75
-254.95
-231.03
-217.43
-213.83
-219.42
-233.53
-248.75
-256.6
-248.07
-216.46
-162.97
-100.39
-37.38
18.77
62.3
90.12
101.82
98.94
87.82
75.17
68.57
72.43
84.07
96.35
101.75
96.25
80.68
59.26
35.99
13.36
-7.24
-25.3
-39.05
-46.57
-48.66
-47.49
-47.96
-56.16
-76.26
-107.33
-143.21
-170.06
-177.06
-159.43
-120.08
-68.23
-14.9
31.69
68.52
96.58
119.43
138.27
151.71
157.02
151.61
134.38
105.73
67.32
20.64
-29.56
-77.89
-117.57
-141.8
-146.24
-131.11
-101.91
-67.54
-36.81
-15.11
-3.89
-0.55
-1.39
-4.06
-8.26
-15.15
-25.59
-38.76
-52.34
-64.09
-72.17
-76.28
-77.95
-78.05
-76.64
-72.72
-64.21
-48.83
-25.47
5.76
42.57
81.67
119.81
153.97
181.21
198.23
201.53
185.63
151.59
105.11
55.35
12.23
-17.16
-30.67
-30.86
-22.98
-12.09
-0.84
9.69
19.21
27.32
33.15
35.82
35.31
32.76
30.1
29.76
33.04
39.92
49.44
60.16
70.65
79.83
87.36
92.54
94.67
92.76
85.89
73.56
55.81
33.35
7.41
-20.51
-48.62
-75.85
-101.64
-125.44
-146.42
-163.74
-176.53
-184.11
-187.94
-187.67
-183.99
-178.23
-171.89
-166.2
-161.35
-155.73
-145.73
-127.23
-97.38
-57.21
-11.84
31.11
64.58
84.91
93.08
93.75
92.06
91.23
91.04
89.81
86.55
82.19
78.68
76.74
74.11
65.62
46.02
12.95
-31.02
-78.93
-122.45
-155.19
-173.94
-177.7
-166.16
-138.82
-96.9
-45.63
4.97
42.06
55.24
39.39
0.1
-47.16
-83.16
-94.49
-79.34
-46.89
-11.1
17.4
35.94
49.12
63.8
83.72
106.06
123.39
128.6
119.19
98.52
73.74
51.74
37.26
32.68
37.92
51.95
73.8
102.72
137.79
177.15
216.81
244
246.93
218.99
162.27
86.14
2.54
-78.31
-147
-203.28
-247.77
-279.47
-296.88
-298.59
-284.03
-252.41
-204.7
-143.09
-73.61
-3.72
59.8
112.12
151.11
176.87
190.72
194.07
188.51
175.24
156.44
135.37
115.36
99.08
87.84
81.36
77.81
74.82
70
62.41
52.95
43.62
36.7
33.77
35.01
38.99
43.39
45.69
44.61
40.6
35.41
31.4
30.46
33.42
39.95
48.96
58.62
66.67
70.38
66.72
53.6
31.28
3.56
-22.95
-41.17
-46.7
-40.69
-28.55
-17.72
-14.09
-19.47
-31.13
-44.14
-54.4
-60.67
-64.33
-67.55
-71.42
-75.11
-76.61
-74.25
-68
-59.93
-52.78
-48.28
-46.36
-45.66
-44.53
-42.1
-38.51
-34.5
-31.49
-30.33
-30.93
-32.23
-32.91
-31.77
-28.14
-21.84
-13.74
-6.89
-4.53
-7.76
-14.15
-18.18
-14.05
0.74
23.48
46.78
59.83
54.05
27.43
-16.36
-69.47
-123.92
-174.79
-220.23
-249.56
-254.73
-233.31
-190.06
-134.14
-75.01
-20.23
24.99
58.92
83.15
99.75
111.6
121.72
132.25
143.55
155.04
163.59
166.43
162.56
151.57
134.15
111.81
85.96
57.11
27.16
-3.11
-33.25
-62.69
-90.95
-116.21
-134.68
-141.15
-131.02
-103.04
-61.32
-13.81
30.11
62.89
81.54
87.94
87.02
84.19
83.12
84.65
87.55
89.09
85.66
73.83
51.6
19.83
-17.56
-54.4
-84.92
-105.38
-115.37
-116.97
-113.35
-107.22
-100.24
-93.59
-88.84
-88.14
-93.06
-102.87
-113.52
-118.49
-111.39
-88.96
-53.48
-12.28
25.13
51
62.36
61.55
54.14
45.76
39.64
35.9
32.87
28.91
23.65
18.12
13.62
10.81
9.28
7.98
5.5
1.11
-5.13
-12.47
-19.9
-26.69
-32.48
-37.34
-41.5
-45
-47.51
-48.5
-47.1
-42.65
-34.98
-24.38
-11.56
2.53
16.85
30.41
42.39
52.24
59.66
64.73
67.87
69.77
71.11
72.35
73.61
74.63
75.11
74.87
74.06
73.11
72.56
72.71
73.7
75.64
78.72
82.95
87.67
90.95
89.66
80.4
60.84
31.01
-6.2
-45.55
-81.04
-107.75
-123.04
-126.71
-120.22
-105.43
-84.13
-58.44
-31.62
-8.35
6.37
9.39
1.42
-12.96
-27.03
-35.11
-34.87
-27.64
-16.7
-5.28
4.71
12.39
16.92
17.1
12.2
2.99
-8.31
-19.05
-27.43
-33.54
-38.28
-41.51
-41.31
-35.43
-23.65
-9.29
2.07
6.33
3.99
0.09
0.85
9.14
22.25
33.82
38.46
35.24
28.31
23.82
25.89
34.52
46.49
57.73
65.55
69.25
68.91
64.85
57.84
49.74
43.32
40.95
42.98
47.41
51.2
51.96
49.69
46.45
44.82
46.03
49.18
51.98
52.24
48.68
39.87
23.85
-1.75
-38.58
-86.04
-140.72
-197.08
-248.97
-287.04
-303.72
-295.55
-264.73
-217.95
-163.41
-108.24
-57.39
-13.59
22.22
49.67
69.05
81.14
87.32
89.27
88.68
86.78
84.58
82.86
81.61
80.57
79.31
77.53
75.17
72.51
69.94
68.34
68.79
71.78
77.27
84.38
91.61
97.17
100.04
98.74
92.8
82.52
68.29
50.44
28.88
3.44
-25.54
-56.74
-89.1
-121.47
-152.73
-181.1
-203.49
-215.74
-213.89
-196.19
-164.97
-126.81
-90.12
-62.06
-45.9
-40.22
-40.57
-42.21
-42.33
-40.09
-36.04
-30.76
-24.08
-15.32
-4.05
9.09
22.52
34.37
43.26
49.13
52.83
55.96
60.05
66.02
73.79
82.54
91.11
98.58
104.84
109.84
113.56
115.84
116.31
114.26
109.14
100.89
87.89
71.6
53.53
34.65
15.25
-4.65
-25.18
-45.94
-65.8
-83.26
-96.66
-105.32
-109.37
-110.26
-108.73
-105.19
-99.33
-90.38
-77.58
-60.33
-38.47
-11.72
19.95
55.73
91.57
121.24
137.62
135.53
114.59
80.31
42.55
11.59
-5.76
-8.46
-0.31
12.57
25.23
34.24
37.6
33.62
20.31
-3.67
-37.34
-76.05
-112.08
-136.92
-145.79
-139.71
-124.73
-108.9
-98.47
-95.62
-97.55
-99.37
-97.07
-89.41
-77.82
-65.11
-53.85
-45.4
-39.93
-37.11
-36.58
-38.45
-43.19
-50.96
-61.19
-72.54
-83.14
-90.97
-94.75
-94.15
-89.9
-83.44
-75.99
-67.91
-58.41
-45.7
-26.9
-1.96
28.11
60.55
91.38
116.65
133.79
142.43
144.36
143.82
145.27
152.03
164.93
182.41
201.58
219.56
234.54
245.9
255.29
264.91
277.02
293.06
313.23
336.17
358.58
375.44
372.28
338.73
272.21
181.01
81.37
-9.62
-80.88
-130.01
-161.01
-179.96
-190.24
-192.27
-185.22
-169.63
-148.86
-127.8
-111.38
-102.08
-99.24
-100.17
-101.62
-101.49
-99.48
-96.58
-94.19
-94.06
-97.5
-105.66
-118.12
-131.68
-140.41
-137.58
-118.34
-82.1
-33.8
18.72
67.08
103.41
123.52
127.96
120.41
105.35
89.07
72.73
56.49
40.45
24.14
5.99
-16.66
-47.21
-87.76
-135.86
-183.98
-220.65
-236.18
-227.37
-198.04
-156.32
-110.73
-67.36
-29.25
1.92
25.87
42.58
52.7
58.46
63.27
70.54
82.36
99
116.76
129.97
132.49
120.64
95.53
63.3
33.01
12.77
7.58
16.01
31.44
44.37
47.38
36.39
11.08
-25.77
-69.11
-112.53
-149.5
-170.37
-170.44
-150.89
-118.28
-81.39
-47.73
-21.19
-2.34
10.16
18.05
22.19
23.62
23.54
23.52
25
29.19
36.28
45.43
55.05
63.21
68.85
71.86
73.12
73.92
75.5
78.24
80.8
80.38
73.34
56.91
30.06
-6.03
-47.92
-90.56
-128.41
-157.29
-175.17
-182.38
-180.59
-172.31
-160.69
-148.63
-137.56
-126.75
-113.53
-94.28
-66
-27.71
20.67
74.77
124.13
157.59
169.05
159.89
137.05
108.43
79.46
52.55
27.79
5.3
-13.59
-26.87
-33.48
-34.06
-30.76
-26.36
-22.64
-20.13
-17.81
-13.74
-6.32
4.31
16
25.26
28.81
24.95
14.03
-1.69
-18.71
-33.78
-45.18
-53.18
-59.02
-63.58
-66.41
-65.76
-59.37
-45.28
-22.91
6.73
41.44
77.45
110.36
135.48
148.35
145.73
127.46
96.91
60.14
24.1
-5.9
-27.38
-40.24
-45.51
-44.47
-37.74
-26.24
-12.23
1.1
10.35
12.95
8.11
-2.31
-15.4
-26.81
-31.48
-25.34
-7.19
19.26
45.74
62.44
62.78
47.25
23.94
4.47
-1.99
6.46
23.77
39.22
44.09
35.77
18.29
-1.02
-16.43
-26.42
-33.07
-39.64
-47.42
-54.56
-57.54
-53.38
-41.28
-23.44
-4.37
11.21
19.57
19.91
14.13
5.28
-3.77
-11.61
-18.49
-25.85
-35.12
-46.51
-58.75
-68.97
-73.9
-71.04
-59.93
-42.49
-22.4
-4.14
8.9
15.1
15.37
12.22
9.08
9.15
14.58
26.26
43.26
63.09
81.92
95.82
102.31
101.73
97.43
94.18
95.79
102.7
111.74
117.32
114.35
100.65
77.85
50.64
24.76
5.12
-5.6
-7.17
-1.64
7.11
13.34
11.16
-2.79
-27.35
-56.45
-82.09
-98.13
-102.69
-98.26
-89.09
-78.61
-67.99
-56.88
-45.05
-33.57
-24.48
-19.56
-19.13
-21.76
-24.96
-26.09
-23.75
-18.25
-11.34
-5.29
-1.8
-1.32
-3.03
-5.25
-6.31
-5.23
-2.11
2.08
6.01
8.61
9.53
9.15
8.34
8.07
8.97
11.2
14.53
18.56
22.92
27.48
32.31
37.49
43.01
48.56
53.54
57.3
59.12
58.44
55.03
49.04
40.85
31.07
20.52
9.95
0.15
-8.26
-14.79
-19.26
-21.77
-22.77
-22.83
-22.41
-21.83
-21.06
-19.82
-17.65
-14.05
-8.66
-1.41
7.42
17.22
27.37
37.46
47.21
56.31
64.37
70.99
75.91
78.9
79.92
79.21
77.19
74.35
71.28
68.97
68.95
73.03
82.07
95.34
110.79
125.9
138.33
146.56
149.89
147.92
143.12
136.02
124.95
108.63
87.71
65.08
44.47
28.69
18.48
12.59
8.02
-1.16
-18.59
-43.63
-72.08
-99.31
-122.72
-141.94
-157.53
-169.99
-183.79
-201.29
-221.58
-241.76
-260.17
-277.8
-296.83
-318.52
-342.77
-374.79
-417.51
-469.47
-524.92
-577.45
-622.42
-657.13
-680.05
-649.23
-544.64
-378.13
-187.83
-11.03
133.23
242.97
324.56
386.28
434.54
466.84
480.61
476.83
461.95
442.68
423.79
407.91
396.1
387.73
376.24
356.03
324.57
283.9
238.48
192.35
147.54
108.43
76.2
46.52
14
-26.23
-74.93
-128.8
-182.2
-229.46
-266.1
-289.52
-299.18
-294.34
-276.18
-245.83
-205.76
-161.45
-121.26
-93.32
-82.17
-86.57
-100.59
-120.17
-142.52
-166.28
-190.94
-215.84
-238.2
-253.14
-254.7
-221.09
-149.01
-57.65
23.43
74.87
94.62
92.68
81.33
69.41
59.62
47.24
27.97
2.14
-25.52
-49.63
-66.3
-75.95
-79.56
-79.61
-80.54
-84.38
-89.34
-91.36
-87.24
-75.35
-56.74
-33.6
-8.45
15.88
38.91
63.11
93.07
125.95
159.38
190.11
215.47
233.89
244.84
249.67
250.75
250.59
250.95
253.91
261.13
273.89
291.99
312.71
331.41
343.1
344.79
336.77
323.2
308.67
295.1
280.08
258.52
226.62
185.66
142.71
106.9
84.49
74.29
68.52
58.05
38.49
12.96
-10.07
-22.31
-21.06
-10.57
0.84
5.96
2.78
-5.28
-12.81
-16.65
-17.72
-20.08
-27.23
-39.34
-52.09
-59.06
-55.94
-43.8
-29.06
-20.11
-22.25
-33.82
-47.44
-53.37
-45
-22.41
8.23
38.25
60.93
73.23
75.7
68.94
54.57
35.77
17.1
3.02
-4.14
-4.5
-1.71
0.23
-4.2
-16.24
-32.13
-45.86
-52.73
-51.74
-43.14
-29.88
-14.65
-5.44
-8.84
-27.43
-60.29
-103.97
-154.63
-205.67
-253.13
-293.35
-331.09
-370.78
-413.06
-456.11
-497.27
-535.92
-570.62
-604.91
-595.06
-518.82
-386.55
-234.91
-99.77
3.69
58.75
84.36
94.26
95.56
82.44
46.7
-3.99
-63.67
-126.04
-186.41
-237.72
-275.67
-294.64
-294.86
-277.89
-245.48
-201.44
-150.53
-98.39
-47.1
1.07
46.21
86.56
121.92
154.84
188.19
224.28
263.05
304.17
345.24
384.52
419.34
447.07
465.28
470.86
461.58
437.36
402.04
361.17
320.08
281.32
244.83
209.79
176.31
146.66
124.69
114.22
116.44
128.82
145.92
160.58
166.52
159.52
137.34
99.51
47.16
-12.8
-70.12
-116.55
-150.11
-172.54
-185.73
-190.99
-189.09
-180.94
-167.77
-151.95
-135.87
-121.95
-111.42
-103.65
-97.29
-90.87
-83.18
-73.58
-66.43
-60.34
-54.57
-48.59
-41.14
-31.17
-18.46
-3.79
11.23
24.46
34.59
40.43
41.49
38.55
32.65
24.15
12.53
-3.36
-25.19
-54.71
-88.09
-123.75
-160.06
-195.37
-227.69
-254.2
-271.56
-276.78
-268.29
-247.34
-217.49
-182.29
-144.59
-106.23
-68.13
-31.12
3.4
33.57
57.97
77.26
95.34
117.44
147.41
185.72
229.03
271.14
305.24
322.08
314.82
284.1
238.11
187.13
138.3
94.48
55.9
22.37
-5.75
-27.3
-41.15
-47.49
-48.49
-47.35
-46.9
-48.64
-52.76
-58.4
-63.89
-67.67
-69.05
-68.91
-68.83
-70.21
-73.63
-78.94
-85.47
-92.21
-98.27
-103.2
-107.53
-112.02
-117.13
-122.65
-127.83
-131.59
-132.76
-131.48
-126.61
-117.94
-105.66
-90.34
-72.65
-53.45
-33.76
-14.73
2.53
17.24
28.7
37.05
42.94
47.35
51.24
55.31
59.82
64.56
69.14
72.81
75.74
78.18
80.45
82.4
83.36
82.09
77.1
67.16
51.58
31.82
10.29
-10.25
-27.59
-40.74
-50.02
-56.55
-61.2
-66.18
-69.62
-67.82
-56.22
-31.17
8.81
62.64
127.36
199.6
269.11
327.3
367.54
387.47
389.14
377.5
358.04
334.8
309.23
279.82
244.02
198.38
141.83
77.13
11.04
-47.72
-92.2
-120.62
-137.06
-147.86
-158.35
-168.09
-171.24
-160.07
-129.98
-83.07
-28.15
22.79
61.58
82.17
83.71
68.87
41.61
6.35
-32.62
-71.16
-105.39
-132.51
-152.13
-165.32
-175.01
-183.67
-191.26
-195.3
-191.92
-178.06
-153.48
-121.39
-86.18
-53.18
-26.21
-6.01
8.44
18.58
25.23
28.47
23.1
7.88
-16.25
-46.16
-76.92
-104.89
-128.94
-149.35
-168.85
-188.65
-206.81
-220.19
-225.42
-218.26
-195.77
-158.55
-109.61
-53.25
6.95
69.24
132.43
195.5
259.26
322.91
383.56
436.91
478.59
506.01
519.12
519.64
495.16
441.33
362.01
268.3
173.42
87.33
14.86
-43.2
-88.39
-123.11
-147.52
-162.18
-168.9
-170.53
-170.26
-170.62
-172.97
-177.71
-184.78
-192.18
-198.38
-202.98
-206.53
-209.83
-213.16
-216.47
-218.13
-216.13
-207.54
-190.43
-164.41
-130.69
-91.51
-50.14
-9.96
26.59
57.87
83.6
103.95
119.07
129
133.78
133.58
129.23
122.15
113.98
106.38
100.49
96.55
93.91
91.45
87.91
82.77
76.49
70.21
65.27
62.61
62.3
63.43
64.46
64.01
61.47
57.25
52.58
48.82
47.07
48.01
51.92
58.41
65.83
70.96
69.48
57.54
33.84
1.12
-34.46
-65.4
-86.08
-95
-94.61
-89.4
-82.96
-76.45
-68.84
-58.76
-45.97
-32.16
-20.27
-12.84
-10.8
-13.26
-18.14
-23.13
-26.92
-29.49
-31.89
-35.53
-41.38
-49.49
-59.24
-68.63
-75.09
-75.98
-69.12
-53.63
-30.54
-2.85
24.66
46.44
57.91
56.7
43.35
21.19
-4.61
-28.52
-45.98
-54
-52.81
-44.5
-32.09
-18.71
-6.83
1.85
6.57
7.7
6.71
5.81
7.38
12.89
22.27
34.1
45.74
54.78
59.83
60.83
58.72
54.71
49.55
42.96
34.04
21.6
4.97
-16.02
-40.66
-67.09
-91.79
-109.49
-114.69
-104.09
-78.95
-46.21
-16.67
-0.12
-1
-16.4
-37.62
-54.95
-62.09
-58.11
-47.14
-35.67
-28.04
-25.03
-24.82
-24.81
-23.92
-22.69
-21.76
-22.1
-24.78
-29.1
-33.56
-37.25
-39.85
-41.58
-42.01
-38.16
-26.53
-5.67
24.37
60.75
98.34
132.06
158.38
169.96
166.37
157.95
148.23
138.43
129.07
118.93
109.82
104.83
107.7
122.45
150.19
186.81
224.9
254.95
268.2
260.3
232.67
192.1
148.79
110.94
81.18
58.16
38.13
17.52
-5.02
-29.11
-53.56
-77.29
-100.24
-122.46
-142.07
-155.52
-159.29
-152.27
-138.08
-124.23
-118.73
-126.44
-146.22
-170.96
-191.91
-203.57
-206.47
-205.85
-206.64
-209.57
-211.2
-207.17
-196.86
-185.59
-181.04
-187.4
-201.11
-211.46
-207.29
-184.5
-148.87
-112.55
-86.22
-73.44
-70.03
-68.66
-64.59
-59.14
-58.24
-66.48
-83.17
-101.9
-114.19
-114.07
-100.47
-76.18
-45.93
-14.55
15.39
43.56
71.06
98.5
125.17
145.27
153.31
150.62
139.39
122.9
104
87.39
77.26
76.33
85.5
104.8
132.65
164.31
192.71
209.89
209.96
191.51
159.06
121.73
89.78
69.91
62.19
61.85
63.24
63.69
64.67
70.26
83.66
104.35
127.49
145.89
154.2
151.48
141.25
128.63
116.97
106.32
94.42
79.21
61.22
44.46
34.88
37.14
51.5
73.15
93.78
104.47
98.93
75.28
36.05
-13.26
-66.14
-116.7
-160.68
-195.3
-218.66
-229.81
-229.22
-219.35
-204.66
-190.77
-182.13
-179.49
-179.42
-176.1
-164.27
-142.45
-114.17
-86.48
-66.48
-57.76
-59.14
-66
-72.75
-75.84
-74.92
-71.54
-66.85
-60.6
-51.33
-38.26
-23.03
-9.63
-2.01
-1.07
-3.22
-1.83
8.92
29.93
55.89
77.85
88.12
84.2
69.79
52.18
37.83
29.06
23.93
18.45
9.68
-2.55
-16.05
-27.12
-31.88
-27.42
-12.3
12.88
44.99
78.71
107.58
125.63
129.75
120.81
103.25
83.63
68.69
62.96
67.62
79.72
92.51
98.58
93.13
76.06
51.95
27.73
9.25
-0.57
-3.39
-5.21
-11.08
-23.17
-41.51
-65.32
-94.41
-129.57
-169.8
-212.87
-258.05
-301.56
-336.94
-358.89
-364.56
-353.6
-327.98
-288.4
-236.79
-180.88
-125.9
-73.08
-23.74
20.47
57.73
86.8
111.57
137.03
161.56
185.61
212.29
242.05
272.79
301.23
301.53
258.54
208.66
168.17
130.62
96.52
67.62
46.12
33.77
30.73
39
58.51
80.7
99.94
116.18
130.18
143.27
156.86
172.44
194.17
225.06
260.25
294.11
321.63
336.13
331.92
306.74
263.33
210.36
157.73
109.55
66.78
28.16
-9.77
-48.48
-84.79
-111.65
-121.65
-113.25
-94.52
-78.03
-73.91
-85.66
-107.49
-127.97
-137.31
-133.62
-124.21
-120.16
-127.04
-140.22
-149.67
-146.54
-129.15
-103.69
-79.82
-64.46
-57.28
-51.7
-40.34
-23.1
-8.01
-6.74
-27.54
-71.06
-130.69
-195.95
-256.76
-295.6
-299.13
-266.35
-210.02
-147.33
-89.86
-41.56
-1.51
32.86
64.1
91.85
114.01
128.84
136.54
139.14
138.93
138.5
139.01
140.82
142
139.05
128.76
109.8
83.15
51.52
18.01
-14.75
-43.68
-65.42
-75.82
-70.13
-45.45
-3.53
46.78
91.55
117.24
116.8
92.39
53.62
13.67
-18.38
-36.96
-41.83
-35.97
-22.5
-2.73
23.41
54.8
89.06
122.45
151.36
173.4
188.41
198.37
206.34
215.07
224.72
234.04
240.72
243.06
240.34
233.05
222.37
208.94
198.36
192.49
191.55
194.49
199.98
206.83
214.11
221.06
226.75
230.14
229.22
222.5
209
188.59
162.15
131.04
97.08
61.91
27.18
-6.29
-37.53
-66.34
-92.79
-117.63
-142.39
-169.04
-199.53
-235.02
-275.81
-320.57
-368.16
-416.42
-463.05
-506.04
-544.23
-577.72
-607.79
-636.74
-666.61
-700.3
-736.96
-771.26
-794.87
-799.9
-782.54
-744.68
-693.02
-636.18
-584.79
-544.3
-513.95
-488.88
-463.76
-435.48
-403.17
-366.94
-326.69
-286.45
-248.22
-211.76
-175.49
-138.53
-102
-68.21
-39.49
11.11
93.19
199
307.76
399.55
464.73
503.45
520.94
523.74
517.73
502.94
479.71
450.15
417.93
386.65
358.3
333.14
310.39
288.97
264.51
234.31
198.64
160.4
123.71
92.12
67.79
51.22
40.57
32.41
23.95
14.5
5.73
0.78
2.85
13.86
33.47
59.18
86.23
110.15
128.48
141.57
149.42
154.87
160.91
169.29
180.29
192.61
203.58
209.27
204.68
185.2
148.92
99.17
44.84
-1.48
-27.97
-29.05
-6.9
28.62
66.13
96.83
117.11
127.24
129.52
125.92
116.68
101.47
80.7
56.76
30.53
6.37
-14.17
-32.52
-51.34
-72.76
-96.25
-119
-135.93
-142.14
-134.3
-112.48
-79.57
-40.31
-0.78
31.91
51.49
55.33
45.33
27.88
10.78
-0.05
-2.56
-0.75
-0.19
-4.68
-13.8
-22.96
-25.86
-18.46
-1.9
18.04
33.03
36.75
28.1
11.28
-6.92
-20.96
-29.29
-34.28
-39.72
-48.16
-59.11
-69.63
-76.43
-78.11
-75.9
-73
-72.61
-76.62
-83.33
-88.73
-88.06
-77.62
-55.86
-23.54
16.58
59.78
99.47
128.73
141.74
135.98
113.57
81.17
47.61
20.52
3.64
-3.75
-5.08
-4.12
-2.86
-1.24
1.65
6.06
10.86
14.1
14.38
11.83
7.88
4.7
3.97
6.2
10.58
15.47
19.34
21.49
22.3
22.86
24.56
28.2
33.7
40.02
45.45
48.43
47.67
42.86
34.53
23.7
11.58
-0.66
-12.09
-21.98
-29.75
-35
-37.36
-36.81
-33.75
-29.07
-24.1
-20.11
-18.46
-19.95
-24.94
-33
-43.23
-54.31
-64.86
-73.66
-79.29
-80.86
-77.8
-70.21
-58.55
-43.65
-26.6
-7.64
11.01
28.05
42.78
55.03
64.8
72.43
78.27
82.74
86.12
88.32
89.46
89.64
88.95
87.47
85.5
83.06
80.16
76.72
72.44
67.46
62.04
56.84
52.83
51.14
52.36
56.72
64
73.39
84.03
95.18
106.44
117.79
129.42
140.71
150.42
156.78
157.89
152.06
138.33
116.29
85.59
50.25
12.26
-27.4
-68.61
-111.47
-155.81
-200.66
-244.83
-287.31
-327.28
-364.11
-396.11
-420.36
-433.7
-434.71
-424.6
-406.72
-384.26
-357.92
-326.03
-286.22
-237.41
-181.27
-122.58
-67.2
-19.48
19.51
51.96
81.3
109.7
138.73
169.62
202.55
234.7
260.16
271.83
264.36
236.62
190.93
134.44
77.04
27.84
-8.34
-31.63
-44.9
-51.88
-56.15
-63.82
-80.15
-107.53
-144.05
-184.8
-222.86
-250.3
-260.78
-236.07
-174.35
-93.75
-21.56
25.42
45.71
47.09
38.84
26.56
11.75
-8.73
-36.58
-69.24
-98.41
-117.1
-124.62
-122.22
-113.74
-102.77
-93.11
-85.43
-76.82
-59.23
-27.04
20.51
80.34
147.18
215.78
280.54
338.32
379.89
405.08
417.4
422.69
427.5
436.71
451.86
469.38
482.65
466.73
411.51
323.07
220.21
122.1
38.91
-28.1
-82.44
-127.58
-165.05
-191.13
-203.39
-203.16
-195.51
-186.81
-181.72
-182.23
-187.88
-196.68
-203.62
-205.41
-201.81
-195.16
-189.17
-184.53
-179.83
-172.25
-158.92
-136.4
-103.7
-62.79
-17.66
26.27
64.98
96.56
120.83
138.53
151.76
162.68
172.64
181.26
186.11
183.18
168.19
138.94
97.3
49.76
5.09
-29.04
-49.07
-56.1
-54.41
-49.09
-43.73
-39.76
-37.17
-35.51
-34.66
-34.74
-35.62
-36.49
-36.25
-33.96
-29.07
-22.24
-15.06
-9.73
-8.09
-10.1
-13.13
-13.17
-5.9
10.55
33.94
58.31
76.14
80.94
71.78
52.04
27.6
4.13
-15.15
-29.86
-41.01
-49.72
-56.08
-59.33
-59.28
-56.82
-53.77
-52.28
-54.06
-59.23
-66.72
-74.54
-80.51
-83.48
-83.33
-80.56
-75.88
-69.56
-60.97
-48.82
-31.85
-9.59
16.93
45.07
71.58
93.68
109.34
118.74
122.18
120.78
116.13
109.94
104.29
101
100.5
101.05
98.01
87.54
67.37
39.12
8.17
-17.95
-33.04
-35.16
-26.97
-14.23
-2.68
3.8
3.93
-2.17
-14.26
-32.33
-55.56
-80.67
-101.99
-113.1
-109.98
-92.91
-67.11
-40.52
-20.46
-10.63
-10.14
-15.15
-21.2
-25.62
-27.98
-29.33
-30.81
-32.81
-35.11
-37.25
-39.43
-42.26
-46.54
-52.77
-60.61
-68.9
-76.05
-80.41
-80.66
-76.2
-67.04
-53.74
-37.08
-18.04
2.4
22.9
42.22
59.28
73.35
84.09
91.67
96.59
99.47
100.81
101.39
101.15
100.3
99.31
98.9
99.75
102.49
106.4
110.17
112.11
110.91
105.96
97.74
87.64
77.34
68.46
62.25
59.73
61.15
65.37
69.45
69.01
59.68
39.3
9.53
-24.39
-55.43
-77.84
-89.29
-91.28
-87.65
-82.26
-77.18
-72.38
-66.93
-60.35
-53.49
-47.81
-44.34
-42.93
-42.38
-41.12
-37.86
-32.37
-25.71
-19.87
-16.51
-16.22
-18.34
-21.35
-23.64
-24
-22.01
-18.4
-15.02
-13.39
-14.1
-16.72
-20.23
-23.55
-25.85
-26.84
-27.05
-28.27
-31.83
-38.23
-47.13
-58.02
-70.54
-85.09
-98.34
-103.45
-97.31
-80.14
-55.46
-28.01
-2.08
19.8
36.62
46.92
51.72
50.95
44.76
33.85
22.07
12.31
6.77
6.69
12.43
23.23
37.22
52.75
68.69
84.42
99.28
112.78
124.36
133.88
140.48
142.64
139.31
130.09
115.17
95.01
70.4
43.34
16.43
-8.45
-30.27
-48.26
-62.04
-71.49
-76.94
-78.93
-78.14
-75.43
-71.77
-68
-64.42
-61.22
-58.35
-55.72
-53.26
-50.89
-48.67
-46.81
-45.46
-44.34
-43.36
-42.42
-41.42
-40.41
-39.5
-38.93
-38.93
-39.75
-40.98
-42.6
-44.55
-46.87
-49.77
-53.49
-58.13
-63.38
-69.82
-74.84
-76.35
-72.6
-62.41
-45.79
-23.67
2.22
31
59.62
86.65
110.95
131.55
147.87
158.34
161.13
154.8
139.06
115.03
86
55.67
27.25
3.39
-15.96
-32.34
-47.79
-63.81
-81.15
-99.07
-116.26
-130.66
-139.44
-139.62
-129.07
-107.94
-79.47
-49.52
-24.2
-7.76
-0.96
-0.82
-2.48
-1.83
2.03
6.64
7.16
0.7
-12.47
-28.19
-39.94
-41.96
-31.28
-10.47
14.51
37.38
54.54
66.1
74.77
83.25
91.75
97.93
97.38
86.94
66.01
36.7
3
-29.9
-56.76
-73.25
-76.86
-67.8
-48.65
-24.04
1.19
23.84
43.13
60.17
76.79
94.13
111.8
128.07
140.16
144.84
139.41
122.67
95.49
61.21
25.01
-7.59
-32.48
-47.96
-54.77
-55.44
-52.59
-48.73
-45.67
-44.87
-47.59
-54.79
-66.75
-82.49
-99.07
-111.44
-114.32
-104.67
-84.32
-60.4
-42.34
-37.09
-44.71
-57.89
-65.57
-59.81
-40.41
-14.87
6.42
16.54
15.69
10.19
6.12
7.57
13.89
21.17
25.27
24.33
19.28
12.17
5.27
0.67
0.85
7.87
22.51
43.22
66.25
87.46
103.44
112.39
113.15
104.13
83.41
51.3
13.13
-20.47
-37.45
-30.85
-3.46
32.83
63.48
79.07
79.91
74.37
71.73
75.02
78.32
71.22
46.18
4.48
-43.84
-86.08
-114.8
-131.79
-145.87
-165.89
-193.93
-223.84
-245.91
-254.26
-251.87
-249.36
-258.18
-282.97
-317.84
-348.92
-361.89
-349.37
-314.11
-266.53
-218.95
-179.85
-151.31
-130.56
-113.56
-98.06
-84.46
-74.38
-68.78
-66.68
-65.4
-61.95
-54.62
-43.66
-31.3
-20.25
-12.58
-8.67
-7.16
-5.67
-1.63
6.83
20.58
39.11
60.37
80.99
96.97
105.12
104.52
97.3
88.06
82.14
83.4
92.88
108.66
127.18
144.93
159.82
171.2
179.37
184.82
187.96
189.64
191.96
198.39
212.51
235.75
265.38
293.69
310.58
308.41
286.27
251.01
214.07
185.55
169.36
162.3
157.7
150.26
139.2
127.31
117.48
109.52
100.02
85.38
65.57
44.87
29.05
20.7
16.59
9.58
-6.47
-31.37
-57.25
-72.37
-68.39
-46.18
-16.62
5.27
9.22
-5.11
-29.11
-51.91
-68.23
-81.61
-100.67
-131.46
-171.37
-208.58
-229.18
-225.62
-201.15
-167.59
-138.14
-120.33
-113.54
-111.63
-105.95
-92.47
-73.16
-53.68
-39.22
-31.28
-27.55
-24.1
-17.8
-3.2
21.51
54.2
89.78
123.28
152.5
178.08
201.85
225.05
254.63
294.25
342.62
394.24
443.13
486.4
525.15
562.97
603.74
658.76
733.42
823.05
913.51
987.72
1033.6
1048.3
1036.9
952.31
774.67
517.44
224.8
-54.06
-288.26
-468.51
-598.34
-686.57
-743.8
-771.87
-774.46
-759.12
-736.67
-716.29
-703.2
-697.45
-696.43
-697.82
-693.76
-679.93
-657.43
-632.51
-612.79
-603.38
-604.97
-614.33
-625.66
-627.09
-608.62
-566.12
-503.23
-429.29
-355.14
-289.21
-235.73
-194.79
-161.68
-131.76
-102.53
-74.17
-47.84
-23.84
-0.92
22.97
49.37
79.28
112.22
146.47
179.91
210.9
238.8
263.85
286.53
306.86
324.15
336.91
344.01
344.6
338.37
325.48
306.6
282.79
255.17
224.7
192.04
159.46
129.19
102.85
81.18
64.38
52.51
45.53
42.97
43.75
49.95
63.03
82.89
107.53
134.18
160.54
185.14
206.95
224.85
243.26
265.79
293.46
323.96
353.44
378.7
398.07
410.84
416.77
423.55
438.3
465.21
504.16
552.64
608.23
670.15
738.77
769.34
732.3
620.76
455.15
267.26
82.12
-87.31
-234.45
-355.01
-445.95
-500.28
-517.69
-505.26
-475.29
-439.14
-404.68
-375.08
-351.64
-335.44
-322.08
-309.36
-296.6
-284.77
-273.87
-264.34
-256.23
-250.82
-249.11
-248.38
-248.52
-250.04
-253.81
-258.56
-264.9
-267.77
-265.76
-258.35
-234.94
-193.36
-138.58
-90.96
-55.26
-31.58
-14.34
-1.93
6.78
13
13.65
5.4
-13.65
-41.27
-75.71
-115.14
-159.15
-207.15
-245.89
-266.81
-268.45
-256.99
-239.54
-222.34
-208.55
-199.56
-194.21
-188.74
-180.33
-165.55
-141.71
-107.51
-66.7
-26.4
5.73
25.45
33.74
33.19
27.54
19.54
12.55
8.62
9.39
16.28
30.32
52.08
79.38
108.64
134.02
152.61
163.83
168.96
170.01
168.52
165.93
162.15
156.21
147.13
135.02
121.2
107.63
98.25
91.57
85.96
79.37
69.82
56.21
38.81
20.1
3.35
-9.47
-18.83
-26.28
-33.85
-43.13
-54.54
-67.13
-77.08
-80.07
-74.1
-60.61
-42.83
-23.86
-5.41
12.99
34.22
60.74
96.13
141.77
195.94
255.49
317.08
377.06
430.47
453.22
427.81
353.12
246.93
135.79
41.59
-24.88
-63.66
-81.73
-88.03
-86.71
-78.43
-63.49
-44.34
-25.69
-12.73
-9.03
-15.52
-30.79
-50.05
-68.48
-84.16
-96.25
-106.87
-118.46
-132.03
-146.73
-160.47
-169.58
-171.38
-165.73
-155.07
-143.61
-134.84
-130.25
-129.3
-130.29
-130.5
-127.95
-122.26
-114.55
-107.21
-102.77
-103.12
-108.94
-118.69
-128.16
-131.43
-122.93
-100.22
-65.68
-25.73
11.61
39.65
55.17
58.68
53.22
42.62
30.44
19.58
12.3
10.67
15.73
26.76
41.24
55.82
67.51
74.82
77.65
77.11
74.85
72.51
71.58
72.94
76.74
82.1
87.27
90.57
91.12
89.51
87.59
87.58
90.77
96.63
102.72
105.37
100.82
86.34
61.71
29.74
-4.34
-34.31
-54.95
-63.91
-62.65
-55.71
-48.99
-47
-51.43
-60.84
-71.84
-81
-86.43
-88.26
-85.89
-80.04
-72.06
-63.74
-56.79
-52.28
-49.64
-46.83
-41.39
-32.21
-20.81
-10.75
-5.72
-6.94
-11.9
-15.03
-10.46
4.99
29.88
58.32
82.73
97.35
100.68
95.54
87.08
80
76.03
73.19
67.13
54.11
33.28
7.68
-16.97
-34.91
-43.11
-42.67
-38
-34.85
-37.35
-45.89
-56.59
-63.38
-60.89
-47.49
-26.65
-5.65
7.66
8.67
-1.81
-18.2
-33.01
-40.48
-39.15
-32.06
-24.43
-20.59
-21.69
-25.48
-27.86
-25.63
-18.24
-7.92
1.81
8.14
10.36
9.82
8.41
7.18
5.96
4.06
1.21
-2.05
-5.17
-8.5
-13.57
-22.06
-34.06
-47.24
-57.73
-62.23
-59.55
-51.29
-40.54
-30.15
-21.89
-16.7
-15.24
-17.81
-23.65
-30.1
-33.37
-31.1
-25.2
-22.61
-32.47
-60.77
-105.78
-157.25
-200.7
-224.31
-224.13
-204.7
-174.74
-141.82
-109.56
-79.06
-52.8
-37.09
-40.28
-67.61
-116.18
-173.98
-224.17
-252.47
-253.4
-231.59
-198.08
-164.42
-137.56
-118.47
-103.98
-90.13
-74.53
-56.95
-38.44
-20.21
-3.17
12.18
25.4
36.17
44.47
50.73
55.84
60.69
65.79
70.96
75.69
79.39
81.84
83.18
83.67
83.46
82.41
80.3
77.09
73.06
68.72
64.74
61.81
60.58
61.54
65.02
71.13
79.83
90.99
104.47
120.38
139.05
161.01
187.01
217.84
254.07
295.51
340.52
385.68
426.03
456.24
472.02
471.65
456.51
430.61
398.82
365.04
331.1
296.95
261.92
226.25
191.77
161.46
138.11
122.66
113.48
106.8
97.98
82.98
59.58
27.84
-9.68
-48.02
-80.56
-100.56
-103.28
-88
-58.56
-22.2
13.06
40.69
56.95
60.62
52.12
32.97
5.85
-25.04
-54.55
-77.98
-92.74
-99.11
-99.36
-95.87
-89.81
-81.3
-70.51
-59.02
-49.86
-45.86
-47.88
-53.93
-59.82
-61.17
-55.29
-42.09
-23.61
-3.06
16.22
31.22
39.56
40.02
32.81
19.72
3.86
-11.02
-21.84
-27.1
-27.2
-24.05
-20.01
-16.88
-15.52
-16.22
-19.54
-26.46
-37.81
-53.01
-69.35
-82.51
-88.34
-85.09
-74.44
-60.88
-49.35
-42.86
-41.38
-42.73
-44.39
-44.81
-43.68
-41.17
-37.43
-32.86
-28.98
-29.15
-37.78
-57.96
-88.99
-125.51
-158.9
-180.84
-186.98
-178.6
-161.26
-141.44
-123.35
-107.66
-92.41
-75.37
-56.27
-37.17
-21.18
-10.51
-5.39
-4.02
-3.58
-1.55
3.44
11.44
21.39
31.6
40.15
45.45
46.59
43.4
36.17
25.57
12.65
-0.96
-12.97
-20.93
-23.2
-20.3
-15.34
-13.26
-18.59
-33.09
-54.36
-76.67
-93.45
-100.22
-96.52
-85.65
-72.49
-60.75
-51.57
-44.11
-37.42
-31.94
-29.69
-32.8
-41.45
-52.75
-61.78
-64.1
-58.28
-46.73
-34.45
-26.31
-24.38
-27.28
-31.56
-33.87
-32.74
-28.98
-24.84
-22.59
-23.53
-27.83
-34.77
-43.07
-51.14
-57.3
-60.07
-58.84
-54.5
-49.33
-46.2
-47.3
-53.3
-63.09
-74.42
-84.99
-93.24
-98.56
-100.97
-100.63
-97.66
-92.34
-85.42
-78.37
-72.82
-69.73
-68.83
-68.32
-65.67
-58.75
-47
-31.83
-16.18
-3.18
5.19
8.89
9.69
10.29
13.29
20.35
31.9
47.39
65.98
87.03
110.46
136.47
164.93
194.57
222.7
245.82
261.08
267.86
268.55
267.57
269.01
274.23
280.9
284.34
280.44
268.53
252.09
237.01
228.21
226.84
229.57
230.54
224.53
209.62
187.89
163.96
142.52
126.18
114.86
106.57
99.02
90.9
82.17
73.31
64.27
54.03
41.11
24.79
6.16
-11.9
-25.87
-33.29
-34.11
-30.91
-27.81
-28.81
-36.33
-50.38
-68.66
-87.34
-102.17
-110
-110.03
-104.27
-96.73
-91.45
-90.34
-92.08
-93
-89.49
-80.46
-68.14
-56.66
-49.32
-46.67
-46.62
-46.34
-44.67
-42.79
-42.95
-46.2
-51.12
-54.59
-54.06
-49.79
-45.07
-44.31
-50.06
-61.01
-72.42
-78.52
-75.73
-64.43
-48.46
-32.96
-21.62
-15.09
-11.24
-6.8
0.42
10.09
19.54
25.29
24.9
18.21
7.2
-5.44
-18.01
-30.46
-43.83
-58.57
-73.28
-84.5
-88.05
-81.17
-64.07
-39.9
-13.48
10.47
28.6
39.07
41.05
34.35
19.49
-1.91
-27.01
-52.53
-75.78
-95.35
-111.17
-123.7
-133.11
-139.18
-141.97
-142.22
-141.28
-140.16
-138.25
-133.16
-122.02
-103.6
-79.8
-55.34
-35.54
-23.73
-19.39
-18.7
-16.88
-10.76
-0.21
12.06
22.09
26.59
24.38
16.77
7.04
-0.79
-3.45
0.2
8.32
16.69
20.8
18.42
11.46
5.62
7.53
20.72
42.79
65.83
80.21
79.7
64.94
43.13
24.13
14.99
16.44
23.05
27.26
24.3
15.22
6.2
4.82
15.96
39.53
70.67
102.11
127.03
141.07
142.94
133.82
116.6
95.08
73.11
54.15
40.63
33.25
30.62
29.55
26.25
17.74
3.15
-16.01
-36.42
-54.51
-67.88
-75.93
-79.32
-78.85
-74.95
-67.78
-58.23
-48.55
-41.95
-41.16
-46.87
-56.72
-65.76
-68.6
-61.99
-46.39
-25.68
-5.55
9.16
16.61
18.45
18.65
21.25
28.47
39.67
51.68
60.42
62.69
57.51
46.3
32.28
19.2
10.1
6.32
7.26
11.04
15.25
17.83
17.62
14.25
7.91
-0.91
-11.43
-22.48
-32.43
-39.42
-41.97
-39.53
-32.76
-23.27
-13.16
-4.46
1.22
2.67
-0.74
-8.72
-19.75
-31.16
-39.78
-43.02
-40.06
-32.11
-21.75
-11.61
-3.21
3.48
9.32
15.11
21.04
26.64
31.25
34.47
36.3
36.95
36.66
35.77
34.67
33.69
32.84
31.65
29.61
26.77
24.22
23.69
26.47
32.18
38.49
42.09
40.54
33.78
24.31
15.84
11.21
10.83
12.69
13.78
11.92
6.94
0.49
-5.14
-8.39
-9.11
-8.33
-7.55
-7.9
-9.79
-12.98
-16.86
-20.8
-24.34
-27.17
-29.14
-30.07
-29.81
-28.3
-25.59
-21.87
-17.33
-12.07
-5.97
1.05
8.86
16.8
23.59
27.77
28.39
25.63
20.8
15.82
12.14
10.21
9.53
9.35
9.38
9.82
10.89
12.19
12.63
11.04
7.09
1.66
-3.59
-7.26
-9.13
-10.29
-12.37
-16.37
-21.99
-27.85
-32.18
-33.62
-31.66
-26.67
-19.64
-11.8
-4.59
0.6
2.57
0.66
-4.93
-12.96
-21.39
-27.94
-30.8
-29.16
-23.51
-15.39
-6.7
1.08
7.37
12.55
17.46
22.69
28.19
33.2
36.7
37.86
36.45
32.98
28.59
24.63
22.14
21.32
21.42
21.17
19.58
16.52
12.62
8.77
5.45
2.48
-0.71
-4.32
-7.83
-10.18
-10.59
-9.31
-7.63
-7.23
-8.99
-12.34
-15.64
-17.25
-16.62
-14.55
-12.53
-11.81
-12.78
-15.06
-17.93
-20.8
-23.32
-25.29
-26.21
-25.23
-21.48
-14.72
-5.74
3.71
11.65
16.67
18.55
18.12
16.6
14.89
13.3
11.79
10.45
9.85
10.74
13.53
17.7
21.91
24.54
24.62
22.22
18.49
14.96
12.85
12.58
13.78
15.49
16.72
16.86
15.72
13.52
10.58
7.12
3.18
-1.37
-6.66
-12.7
-19.8
-28.65
-40.2
-55.07
-72.53
-90.24
-104.58
-112.05
-110.65
-100.72
-84.67
-65.69
-46.5
-28.51
-12.06
2.91
16.14
26.96
34.55
38.62
39.91
40.14
41.41
45.14
51.02
57.02
60.49
59.66
54.95
49.08
45.85
48.32
56.87
68.59
78.71
83.14
80.59
73.17
65.13
60.73
62.51
70.26
81.21
91.69
98.55
99.5
92.52
75.36
46.45
6.84
-38.58
-81.64
-112.99
-125.32
-116.39
-90.2
-56.81
-29.11
-16.08
-18.52
-31.17
-47.74
-64.3
-79.84
-94.56
-108.08
-118.72
-124.1
-122.42
-114.4
-102.94
-91.27
-81.57
-73.97
-66.29
-54.55
-34.66
-4.45
33.4
71.43
99.78
109.66
96.47
61.08
9.05
-53.44
-117.46
-174.49
-217.5
-241.35
-243.39
-224.17
-187.75
-141.14
-92.42
-48.17
-12.58
13.26
30.7
42.4
51.63
62.08
77.87
102.82
138.93
183.71
229.35
264.12
276.12
258.53
213.01
149.6
82.73
25.43
-15.29
-39.06
-49.34
-49.74
-42.03
-26.97
-6.19
16.79
37.81
54.31
67.06
79.29
93.86
110.79
126.48
135.98
136.16
127.79
114.43
99.52
83.95
65.74
42.05
11.84
-22.29
-54.61
-78.38
-88.67
-84.36
-68.51
-46.72
-24.68
-6.24
7.47
17.06
23.3
25.91
23.53
14.93
0.69
-16.15
-31.07
-39.81
-40.23
-32.8
-19.59
-2.62
17.12
39.02
61.85
82.41
96.35
99.64
90.41
69.51
39.51
3.01
-37.82
-80.25
-120.31
-152.32
-171.11
-174.86
-166.96
-155.47
-150.13
-157.57
-174.94
-193.48
-201.45
-190.84
-161.97
-122.63
-82.83
-49.96
-26.18
-9.21
4.13
16.36
27.97
37.65
43.7
44.61
38.97
25.64
4.61
-22.99
-53.97
-83.18
-104.91
-114.29
-106.93
-84.83
-55.13
-27.49
-11.39
-12.97
-32.34
-65.08
-102.9
-135.78
-155.31
-157.18
-142.09
-115.52
-84.91
-56.8
-34.86
-19.33
-8.59
-0.65
4.28
6.88
8.48
11.07
16.57
25.72
38.1
52.3
66.29
78.87
90.63
103.72
120.93
144.13
172.71
203.16
230.07
248.14
254.45
249.74
237.66
223
209.66
199.42
192.07
186.34
180.96
175.29
169.17
162.21
153.49
141.8
126.4
107.57
86.54
64.83
43.54
22.98
2.98
-16.39
-34.34
-49.51
-60.73
-67.86
-71.84
-74.03
-75.2
-74.94
-72.05
-65.49
-55.33
-42.97
-30.48
-19.64
-11.28
-5.35
-1.31
1.24
2.35
1.79
-0.72
-5.27
-11.48
-18.24
-23.86
-26.44
-24.76
-18.98
-10.76
-2.59
3.42
6.49
7.35
7.58
8.6
10.91
14.1
17.2
19.09
18.6
14.51
5.8
-7.74
-24.82
-42.53
-57.03
-64.91
-64.57
-56.74
-44.15
-30.3
-18.29
-9.94
-5.68
-4.84
-6.22
-8.57
-10.96
-13.03
-14.84
-16.64
-18.56
-20.52
-22.47
-24.69
-27.87
-32.66
-39.17
-46.41
-52.57
-55.78
-54.98
-50.48
-43.69
-36.44
-30.02
-24.95
-20.95
-17.48
-14.11
-10.68
-7.15
-3.55
0.03
3.45
6.46
8.82
10.38
11.07
10.81
9.4
6.6
2.4
-2.8
-8.17
-12.82
-16.15
-18.16
-19.33
-20.24
-21.21
-22.27
-23.47
-25.08
-27.66
-31.65
-36.95
-42.77
-48.02
-51.81
-53.88
-54.47
-53.93
-52.29
-49.18
-44.18
-37.21
-28.75
-19.61
-10.65
-2.38
4.98
11.42
16.84
21.06
23.87
25.22
25.17
23.87
21.56
18.52
15.19
12.02
9.33
7.12
5.11
2.95
0.6
-1.58
-3.01
-3.34
-2.71
-1.73
-1.1
-1.21
-2.02
-3.27
-4.9
-7.08
-10.06
-13.67
-17.19
-19.53
-19.79
-17.72
-13.8
-8.97
-4.08
0.3
3.96
6.82
8.84
10.08
10.73
11.04
11.09
10.57
8.91
5.64
0.88
-4.51
-9.23
-12.15
-12.8
-11.6
-9.45
-7.19
-5.18
-3.27
-1.04
1.75
5.02
8.45
11.67
14.37
16.3
17.12
16.5
14.26
10.57
5.94
0.9
-4.32
-9.91
-16.25
-23.41
-30.83
-37.19
-40.84
-40.33
-34.81
-24.31
-9.76
6.87
22.75
34.64
39.75
36.87
27.08
13.41
-0.51
-12.18
-21.31
-29.69
-39.67
-52.31
-66.56
-79.7
-88.84
-92.43
-90.88
-86.11
-80.35
-75.2
-71.34
-68.64
-66.33
-62.86
-55.81
-42.42
-20.81
8.74
43.39
78.48
109.2
132.35
147.14
155.09
158.81
160.42
161.19
161.89
162.96
164.3
164.87
162.61
155.24
141.52
121.43
96.58
70.08
45.76
27.22
16.92
15.34
20.71
29.18
34.75
31.04
13.78
-17.68
-60.33
-109.01
-158.51
-204.9
-239.64
-254.79
-245.52
-212.08
-160.12
-98.52
-36.42
18.73
61.55
87.64
97.46
93.87
82.53
70.53
64.01
65.02
70.3
72.59
64.93
41.44
0.07
-56.01
-119.87
-183.03
-237.57
-276.65
-294.75
-288.62
-258.87
-209.91
-147.99
-79.32
-8.82
59.29
120.55
169.46
200.17
208.31
192.29
157.72
117.19
85.11
69.75
70.29
79.1
87.07
87.92
80.45
66.43
47.63
23.97
-6.31
-43.57
-85.29
-124.55
-154.24
-171.1
-177.68
-181.57
-187.53
-198.19
-209.35
-211.94
-198.57
-169.71
-133.75
-101.65
-80.92
-72.44
-72.26
-74.78
-76.47
-77.33
-79.37
-84.11
-90.45
-95.61
-96.4
-91.25
-80.25
-65.06
-47.76
-29.75
-13.03
2.34
17.16
32.15
46.93
60.24
70.31
75.67
75.8
71.46
64.83
58.47
54.56
54.32
58.04
65.34
75.61
88.3
103.14
120.49
141.04
165.57
194.39
226.68
260.03
290.53
313.82
326.43
326.96
316.19
296.31
269.82
238.72
204.52
168.81
133.91
102.75
78.21
61.87
53.37
50.65
51.01
52.36
54.09
56.9
62.09
70.42
81.42
93.28
103.45
109.48
109.88
104.47
94.25
81.01
66.71
53.04
41.26
32.25
26.61
24.62
25.86
29.05
31.92
31.63
25.64
12.45
-7.99
-34.65
-66.02
-100.62
-136.79
-172.11
-202.88
-224.52
-232.87
-225.9
-204.98
-174.86
-142.2
-113.42
-92.88
-82.04
-79.88
-83.92
-91.17
-98.71
-103.73
-103.67
-96.48
-81.39
-59.52
-34.09
-9.8
8.74
18.57
19.49
13.92
5.83
-0.9
-3.86
-2.71
1.15
5.49
8.32
8.62
6.5
2.74
-1.73
-6.28
-10.7
-14.98
-19.27
-23.85
-29.3
-36.42
-45.73
-56.77
-67.79
-76.08
-79.17
-76.06
-67.89
-57.29
-47.03
-38.74
-32.36
-26.85
-21.19
-15.15
-9.22
-3.85
1.05
6.12
11.88
18.04
23.5
27.04
28.1
27.2
25.57
24.29
23.59
22.86
21.19
18.17
14.31
10.78
8.64
8.21
8.87
9.52
9.24
7.78
5.48
2.85
-0.01
-3.41
-7.82
-13.25
-18.86
-23.1
-24.39
-21.9
-16.11
-8.62
-1.45
3.95
7.25
9.25
11.23
14.15
18.06
22.16
25.24
26.44
25.68
23.67
21.48
20
19.45
19.36
18.87
17.22
14.21
10.21
6.03
2.4
-0.29
-2.1
-3.4
-4.56
-5.81
-7.21
-8.75
-10.53
-12.79
-15.77
-19.58
-24.05
-28.68
-32.79
-35.72
-36.98
-36.38
-34.01
-30.14
-25.16
-19.48
-13.48
-7.44
-1.52
4.2
9.57
14.34
18.08
20.38
20.98
20.04
18.08
15.86
14.14
13.39
13.68
14.67
15.83
16.66
16.9
16.52
15.69
14.59
13.26
11.6
9.45
6.73
3.58
0.28
-2.9
-5.88
-8.81
-11.97
-15.51
-19.31
-22.96
-25.93
-27.8
-28.45
-28.04
-26.82
-25.01
-22.56
-19.27
-14.84
-9.14
-2.32
5.08
12.21
18.09
21.93
23.37
22.66
20.53
17.97
15.85
14.64
14.32
14.49
14.66
14.47
13.83
12.83
11.7
10.6
9.57
8.52
7.33
5.91
4.21
2.24
0.08
-2.25
-4.81
-7.78
-11.39
-15.77
-20.73
-25.73
-29.97
-32.61
-33.14
-31.48
-27.97
-23.2
-17.7
-11.92
-6.11
-0.4
5.08
10.14
14.46
17.64
19.29
19.13
17.2
13.96
10.29
7.19
5.44
5.24
6.12
7.11
7.15
5.64
2.61
-1.26
-5.05
-8.01
-9.86
-10.84
-11.54
-12.7
-14.92
-18.41
-22.91
-27.81
-32.42
-36.21
-39.01
-41.05
-42.93
-45.13
-47.33
-48.03
-45.01
-36.52
-22.4
-4.6
13.35
27.46
34.83
34.67
28.17
17.57
5.59
-4.56
-8.98
-3.89
12.32
37.11
63.56
82.28
85.02
68.07
33.83
-9.76
-50.85
-78.27
-86.66
-77.99
-58.71
-34.96
-10.37
13.35
34.88
52.71
65.16
71.2
71.21
66.89
60.13
51.87
41.6
27.53
7.05
-22.49
-62.48
-109.12
-154.86
-189.7
-204.49
-194.6
-162.2
-115.66
-66.51
-24.96
3.76
19.83
27.19
30.38
32.05
32.41
30.44
25.45
18.14
10.57
5.04
2.59
3.2
5.88
9.34
12.79
16.23
20.29
25.97
33.74
43.35
54.11
65.22
76.22
87.22
98.4
109.24
118.11
122.04
117.9
103.94
80.81
51.57
20.78
-7.07
-29.69
-45.5
-54.35
-57.05
-54.54
-47.65
-37.22
-24.43
-10.92
1.55
11.7
18.86
23.13
25.16
25.67
25.07
23.5
20.96
17.71
14.42
11.86
10.56
10.63
11.58
12.57
12.79
11.78
9.68
7.19
5.09
4.03
4.36
6.12
9.19
13.48
18.95
25.46
32.73
39.99
46.26
50.54
52.24
51.35
48.54
44.78
41.11
38.33
36.82
36.57
37.23
38.27
39.04
38.95
37.65
35.19
32.07
28.95
26.32
24.03
21.17
16.47
8.83
-2
-15.12
-28.65
-40.39
-48.44
-51.71
-50.22
-45.12
-38.53
-33.16
-31.5
-35.04
-43.54
-55.23
-67.48
-78.12
-86.25
-92.31
-97.34
-102.01
-106.17
-109.15
-110.62
-111.31
-112.87
-117.06
-124.57
-134.36
-143.91
-150.02
-149.7
-140.74
-121.97
-93.55
-57.23
-16.38
24.27
59.72
86.09
101.74
107.61
106.4
101.2
94.16
86.11
76.93
66.55
55.66
45.76
38.53
35.11
35.54
38.81
43.38
47.78
51.07
52.98
53.74
53.65
52.8
50.92
47.62
42.78
36.9
31.3
27.73
27.57
30.83
35.71
38.92
37.06
28.4
13.96
-2.72
-17.18
-26.17
-29.04
-27.62
-24.75
-22.47
-20.96
-18.94
-14.97
-8.69
-1.14
6.02
11.66
15.82
19.27
22.5
24.78
24.32
19.2
8.63
-6.33
-23.14
-38.85
-51.34
-59.89
-64.87
-66.88
-65.9
-61.09
-51.39
-36.5
-17.54
2.97
22.01
37.11
47.04
51.98
53.02
51.65
49.35
47.54
47.68
51.07
58.45
69.4
82.42
95.53
107.04
116.1
122.71
127.19
129.92
131.23
131.32
131.01
131.67
134.39
138.82
142.49
141.44
132
112.71
84.28
50.16
15.43
-14.72
-36.27
-47.22
-47.72
-39.7
-26.51
-14.16
-8.87
-15.36
-35.47
-67.79
-108.61
-153.35
-197.66
-238.01
-274.42
-308.27
-341.49
-375.24
-409.25
-441.87
-470.68
-493.24
-494.15
-463.29
-398.9
-309.82
-211.1
-116.18
-32.13
39.44
99.36
148.55
185.37
208.75
219.56
221.09
217.9
214.11
212.06
212.37
214.72
216.68
216.29
212.68
206.3
198.47
190.66
183.15
175.44
166.81
155.68
141.24
123.88
105.04
87.02
72.11
62.02
57.61
59.16
65.9
76.83
90.94
107.18
124.69
142.62
160.1
176.3
190.68
202.69
211.78
218.86
223.87
226.45
225.95
221.55
212.42
198.2
178.92
154.96
127.1
95.93
62.27
26.96
-9.16
-45.16
-80.05
-112.97
-143.32
-170.82
-195.76
-218.61
-239.97
-260.79
-282.34
-306.06
-333.04
-363.07
-393.87
-421.36
-440.51
-447.38
-440.79
-422.72
-397.21
-368.42
-339.37
-311.79
-286.98
-266.46
-251.64
-242.82
-238.11
-233.62
-224.87
-208.85
-185.29
-156.53
-126.14
-97.45
-72.58
-52.36
-36.83
-25.46
-17.17
-10.12
-1.81
10.4
28.74
54.54
87.77
126.87
168.68
208.72
242.23
265.65
277.94
280.92
278.3
273.8
269.62
265.42
259.12
248.37
232.12
211.33
188.64
167.1
148.74
134.2
123.19
115.51
111.58
112
116.48
122.75
126.78
124.03
111.47
88.73
58.24
24.14
-9.89
-41.87
-72.35
-103.66
-138.14
-176.26
-215.58
-251.44
-279.14
-296.49
-304.89
-308.73
-312.66
-318.81
-325.68
-329.33
-326.14
-315.24
-298.95
-281.02
-264.09
-248.08
-230.55
-208.68
-180.95
-147.86
-111.32
-73.47
-35.45
2.94
42.96
86.07
132.42
180.2
225.32
262.61
287.53
298.09
295.63
284.32
269.27
254.43
241.44
229.72
217.76
204.4
189.7
174.61
160.2
146.83
133.91
120.49
105.92
90.4
75.27
62.41
53.19
47.71
44.48
40.95
34.79
25.16
13.2
1.29
-8.33
-14.91
-19.58
-24.41
-30.8
-38.32
-44.92
-48.28
-47.41
-43.18
-37.71
-32.76
-28.58
-23.9
-17.19
-8
2.38
11.38
16.58
17.24
14.59
11.12
9.35
10.57
14.33
18.86
22.15
22.89
21.07
18.07
15.91
16.19
19.22
23.72
27.43
28.29
25.31
18.96
10.94
3.27
-2.75
-6.68
-8.8
-9.44
-8.45
-5.29
0.42
8.27
16.84
24.1
28.4
29.32
27.89
25.99
25.31
26.31
28.19
29.36
28.7
26.09
22.37
18.69
15.65
13.03
10.09
6.29
1.5
-3.61
-8.05
-11.09
-12.57
-12.85
-12.7
-12.94
-14.13
-16.49
-19.76
-23.27
-26.21
-27.84
-27.66
-25.74
-22.54
-18.83
-15.38
-12.53
-10.06
-7.46
-4.27
-0.44
3.47
6.71
8.95
10.46
12.04
14.43
17.73
21.31
24.18
25.58
25.49
24.6
23.76
23.48
23.47
22.85
20.73
16.8
11.49
5.82
0.7
-3.56
-7.24
-10.86
-14.58
-17.95
-19.94
-19.54
-16.23
-10.4
-3.15
4.13
10.33
14.95
18.11
20.24
21.66
22.44
22.42
21.35
19.21
16.19
12.65
8.97
5.3
1.59
-2.31
-6.39
-10.3
-13.46
-15.48
-16.36
-16.51
-16.54
-16.95
-17.96
-19.56
-21.65
-24.09
-26.63
-28.72
-29.59
-28.48
-25.05
-19.71
-13.62
-8.15
-4.24
-1.93
-0.39
1.37
3.78
6.5
8.59
9.33
8.76
7.79
7.54
8.59
10.39
11.64
11.19
8.85
5.48
2.5
0.86
0.51
0.65
0.33
-0.84
-2.61
-4.47
-6.25
-8.36
-11.42
-15.59
-20.04
-23.17
-23.35
-19.91
-13.45
-5.51
2.2
8.61
13.54
17.31
20.23
22.24
22.97
22.13
19.89
16.82
13.65
10.83
8.41
6.15
3.89
1.71
-0.09
-1.3
-1.97
-2.43
-3.13
-4.44
-6.46
-9.06
-12
-14.87
-17.23
-18.56
-18.35
-16.31
-12.52
-7.39
-1.59
4.2
9.5
14.02
17.63
20.18
21.48
21.28
19.65
17.12
14.64
13.21
13.26
14.28
15.11
14.55
12.24
9.02
6.58
6.45
9.08
13.62
18.77
23.95
30.04
39.11
53.14
72.52
94.94
115.56
128.19
127.13
108.78
72.94
23.25
-33.39
-88.2
-132.21
-158.17
-162.42
-145.77
-113.74
-75.56
-42.04
-22.97
-24.04
-44.84
-78.43
-113.57
-138.46
-144.83
-130.28
-97.94
-53.7
-2.66
52.64
111.32
171.35
227.09
269.23
287.58
275.32
232.6
167.37
92.48
21.15
-37.11
-78.28
-102.97
-114
-114.06
-104.71
-86.84
-61.95
-32.97
-3.95
21.26
40.52
53.81
63.18
71.41
80.77
92.08
104.7
116.96
127.19
134.61
138.9
140.3
139.57
137.71
135.75
134.09
131.62
125.95
114.61
95.5
68.06
33.84
-4.16
-42.48
-78.35
-110.79
-141.15
-167.08
-184.47
-189.79
-182.3
-164.67
-141.58
-118.53
-101.41
-94.44
-99.44
-115.73
-139.91
-166.47
-189.55
-204.64
-205.6
-191.14
-166.08
-139.02
-117.55
-104.79
-96.69
-88.21
-75.79
-58.51
-38.74
-20.26
-6.54
0.31
-0.09
-6.43
-16.63
-28.15
-39.13
-49.35
-59.25
-68.64
-76.01
-79.12
-76.41
-68.53
-58.2
-48.79
-42.7
-39.44
-35.32
-25.05
-4.38
27.74
68.47
112.07
151.97
182.44
200.25
205.24
199.99
188.19
173.09
156.39
138.46
119.31
99.42
80
62.42
47.3
34.07
21.78
10.15
-0.12
-8.14
-14.28
-20.68
-30.21
-44.26
-61.09
-76.31
-85.31
-86.16
-80.66
-72.88
-66.28
-61.38
-55.54
-45.07
-27.96
-5.57
17.7
36.58
47.39
49.47
45.11
38.19
32.5
30.2
31.12
33.26
34.05
31.63
25.8
18.11
10.87
6.02
4.24
4.91
6.65
8.17
8.72
8.42
8.02
8.39
9.94
12.33
14.58
15.53
14.47
11.64
8.04
4.92
2.94
1.86
0.82
-0.9
-3.32
-5.77
-7.4
-7.75
-6.98
-5.8
-4.99
-5.1
-6.37
-8.69
-11.79
-15.12
-17.96
-19.47
-19.04
-16.57
-12.52
-7.71
-2.9
1.48
5.38
8.7
11.15
12.38
12.27
11.27
10.16
9.56
9.44
9.15
7.92
5.5
2.43
-0.33
-1.97
-2.4
-2.18
-2.12
-2.74
-3.99
-5.39
-6.53
-7.41
-8.29
-9.5
-11.15
-13.02
-14.59
-15.31
-14.67
-12.4
-8.65
-4.04
0.49
4.01
6.06
6.93
7.48
8.56
10.52
12.84
14.38
14.09
11.7
8.02
4.52
2.63
2.86
4.58
6.39
6.92
5.57
2.88
0.07
-1.66
-1.77
-0.65
0.66
1.14
0.24
-1.89
-4.68
-7.5
-10.05
-12.29
-14.22
-15.54
-15.76
-14.37
-11.2
-6.81
-2.22
1.48
3.71
4.65
5.07
5.76
6.95
8.3
9.04
8.59
6.88
4.44
1.98
0.08
-1.07
-1.61
-1.7
-1.43
-0.79
0.21
1.37
2.37
2.92
2.86
2.26
1.25
-0.05
-1.58
-3.28
-5.13
-7.12
-9.28
-11.57
-13.87
-15.74
-16.55
-15.77
-13.25
-9.38
-5.04
-1.15
1.68
3.34
4.21
4.81
5.56
6.52
7.48
8.19
8.44
8.25
7.72
7.09
6.52
6.11
5.74
5.25
4.53
3.66
2.89
2.44
2.39
2.52
2.45
1.78
0.37
-1.65
-3.9
-5.92
-7.49
-8.62
-9.53
-10.45
-11.46
-12.37
-12.82
-12.38
-10.75
-7.94
-4.33
-0.55
2.72
5.02
6.28
6.8
7.07
7.51
8.22
8.91
9.09
8.37
6.81
4.85
3.25
2.6
3.1
4.46
6.05
7.24
7.68
7.38
6.59
5.55
4.38
3.04
1.5
-0.2
-1.89
-3.38
-4.57
-5.58
-6.69
-8.27
-10.45
-12.98
-15.21
