1.18
5.1
8.33
11.04
13.49
15.9
18.43
21.1
23.82
26.41
28.68
30.46
31.73
32.59
33.22
33.79
34.29
34.58
34.45
33.72
32.38
30.56
28.44
26.22
24.03
21.93
19.85
17.65
15.05
11.7
7.4
2.11
-3.83
-9.77
-14.91
-18.53
-20.12
-19.56
-17.08
-13.16
-8.45
-3.64
0.61
3.87
5.9
6.79
6.85
6.52
6.19
6.1
6.3
6.69
7.18
7.71
8.34
9.17
10.33
11.89
13.84
16.03
18.25
20.23
21.65
22.29
21.96
20.61
18.3
15.15
11.36
7.14
2.74
-1.65
-5.9
-9.97
-13.95
-18.02
-22.35
-27.07
-32.17
-37.36
-42.13
-45.82
-47.78
-47.63
-45.3
-41.23
-36.13
-30.87
-26.17
-22.5
-20
-18.53
-17.86
-17.56
-17.21
-16.3
-14.42
-11.31
-6.94
-1.61
4.2
9.89
14.97
19.11
22.1
23.92
24.62
24.4
23.52
22.4
21.38
20.66
20.17
19.57
18.44
16.46
13.57
9.98
6.08
2.24
-1.38
-4.84
-8.42
-12.43
-17.11
-22.44
-28.24
-34.14
-39.61
-44.11
-47.07
-48.11
-47.06
-44.11
-39.7
-34.5
-29.2
-24.26
-19.9
-15.99
-12.29
-8.54
-4.65
-0.73
2.99
6.26
8.91
10.94
12.61
14.19
15.98
18.12
20.57
23.17
25.66
27.84
29.55
30.74
31.45
31.74
31.68
31.31
30.68
29.76
28.57
27.07
25.24
23.1
20.67
18.05
15.35
12.67
10.03
7.35
4.44
1.06
-2.94
-7.52
-12.36
-16.92
-20.52
-22.54
-22.58
-20.59
-16.8
-11.78
-6.13
-0.51
4.48
8.42
11.1
12.51
12.83
12.36
11.42
10.3
9.25
8.45
7.98
7.92
8.27
8.93
9.78
10.64
11.44
12.19
12.89
13.52
14.01
14.22
14.06
13.46
12.4
10.86
8.86
6.44
3.74
1
-1.53
-3.68
-5.38
-6.79
-8.13
-9.62
-11.38
-13.42
-15.61
-17.83
-19.82
-21.24
-21.67
-20.73
-18.18
-14.09
-8.79
-2.87
3.04
8.42
12.88
16.23
18.35
19.2
18.76
17.12
14.51
11.32
8.05
5.16
3.04
1.8
1.4
1.6
2.08
2.56
2.79
2.7
2.24
1.39
0.14
-1.57
-3.79
-6.56
-9.82
-13.42
-17.16
-20.8
-24.19
-27.23
-29.96
-32.5
-35.08
-37.9
-41.1
-44.62
-48.18
-51.24
-53.17
-53.42
-51.67
-47.96
-42.64
-36.26
-29.49
-22.95
-17.12
-12.36
-8.82
-6.42
-4.95
-4.05
-3.39
-2.73
-1.89
-0.82
0.49
2.04
3.89
6.08
8.59
11.34
14.1
16.61
18.61
19.95
20.68
20.95
20.89
20.58
19.91
18.72
16.88
14.42
11.49
8.32
5.09
1.93
-1.11
-4
-6.77
-9.52
-12.5
-16.02
-20.34
-25.41
-30.82
-35.82
-39.53
-41.25
-40.67
-37.95
-33.65
-28.52
-23.3
-18.5
-14.36
-10.9
-7.98
-5.45
-3.26
-1.42
0.01
1.08
1.93
2.76
3.81
5.25
7.13
9.36
11.78
14.21
16.53
18.64
20.51
22.05
23.14
23.66
23.52
22.76
21.54
20.13
18.72
17.37
16.02
14.49
12.59
10.31
7.73
4.94
2.08
-0.79
-3.73
-6.8
-10.14
-13.89
-18.04
-22.46
-26.82
-30.57
-33.07
-33.83
-32.64
-29.63
-25.3
-20.28
-15.17
-10.42
-6.28
-2.8
0.02
2.25
3.98
5.35
6.58
7.91
9.59
11.71
14.22
16.98
19.75
22.38
24.75
26.84
28.6
29.97
30.88
31.16
30.7
29.47
27.55
25.11
22.34
19.35
16.17
12.75
9.04
5.08
1.06
-2.76
-6.17
-9.04
-11.49
-13.76
-16.16
-18.88
-21.92
-25
-27.64
-29.21
-29.19
-27.27
-23.5
-18.24
-12.08
-5.62
0.68
6.54
11.93
16.87
21.32
25.16
28.16
30.11
31.03
31.09
30.68
30.24
30.08
30.25
30.6
30.86
30.75
30.18
29.16
27.75
26.04
24
21.54
18.53
14.86
10.52
5.65
0.51
-4.62
-9.5
-14.01
-18.13
-21.95
-25.65
-29.42
-33.44
-37.81
-42.49
-47.17
-51.25
-53.97
-54.66
-52.94
-48.92
-43.06
-36.01
-28.45
-20.87
-13.68
-7.19
-1.68
2.58
5.47
6.98
7.34
6.85
5.92
4.9
4.1
3.72
3.84
4.42
5.33
6.5
7.85
9.43
11.16
12.93
14.5
15.56
15.91
15.48
14.42
12.89
11.04
8.88
6.42
3.66
0.61
-2.57
-5.75
-8.88
-12.04
-15.45
-19.4
-24.11
-29.67
-36.05
-42.95
-49.79
-55.86
-60.33
-62.51
-61.97
-58.71
-53.13
-46
-38.17
-30.37
-23.08
-16.44
-10.41
-4.87
0.18
4.66
8.45
11.43
13.64
15.3
16.77
18.41
20.46
23.02
25.96
29.09
32.24
35.29
38.17
40.84
43.09
44.68
45.32
44.95
43.73
42.02
40.26
38.59
36.89
34.78
31.86
27.93
23.09
17.74
12.25
6.96
1.91
-2.97
-7.84
-12.83
-18.1
-23.77
-29.85
-36.21
-42.29
-47.32
-50.36
-50.67
-47.93
-42.34
-34.55
-25.43
-15.83
-6.4
2.41
10.3
17.12
22.72
27.04
30.03
31.76
32.37
32.12
31.34
30.34
29.48
28.98
29.01
29.6
30.65
31.91
33
33.55
33.29
32.16
30.3
27.93
25.28
22.49
19.54
16.38
12.92
9.15
5.13
0.94
-3.29
-7.4
-11.19
-14.52
-17.36
-19.86
-22.34
-25.18
-28.63
-32.7
-36.99
-40.83
-43.33
-43.67
-41.29
-36.14
-28.63
-19.61
-10.1
-1.08
6.78
13.18
18.05
21.49
23.56
24.31
23.84
22.42
20.49
18.6
17.26
16.75
17.08
17.97
19.02
19.9
20.42
20.62
20.69
20.77
20.84
20.63
19.7
17.65
14.49
10.6
6.71
3.47
1.22
-0.28
-1.62
-3.46
-6.15
-9.64
-13.53
-17.4
-21.04
-24.44
-27.87
-31.6
-35.9
-40.97
-46.92
-53.77
-61.24
-68.71
-75.23
-79.67
-81.11
-79.08
-73.76
-65.87
-56.48
-46.63
-37.15
-28.47
-20.65
-13.49
-6.69
-0.11
6.27
12.25
17.58
22.05
25.63
28.49
30.94
33.25
35.57
37.93
40.27
42.47
44.48
46.22
47.69
48.79
49.37
49.21
48.18
46.27
43.63
40.63
37.57
34.73
32.2
29.98
28.07
26.5
25.32
24.45
23.71
22.73
21.11
18.55
14.93
10.34
4.99
-0.88
-7.03
-13.28
-19.58
-25.99
-32.7
-39.9
-47.47
-54.92
-61.28
-65.39
-66.27
-63.47
-57.17
-48.1
-37.3
-25.76
-14.32
-3.59
5.97
14.1
20.61
25.53
28.99
31.23
32.51
33.1
33.35
33.61
34.28
35.64
37.75
40.39
43.17
45.61
47.32
48.06
47.81
46.67
44.82
42.46
39.74
36.77
33.6
30.21
26.62
22.88
19.07
15.26
11.51
7.83
4.21
0.64
-2.82
-6.13
-9.24
-12.23
-15.31
-18.75
-22.8
-27.57
-32.94
-38.48
-43.61
-47.68
-50.11
-50.5
-48.68
-44.66
-38.62
-30.87
-21.88
-12.29
-2.87
5.58
12.38
17.09
19.59
20.09
19
16.88
14.3
11.76
9.69
8.39
8
8.55
9.89
11.71
13.66
15.36
16.56
17.18
17.26
16.87
16.07
14.83
13.13
11.06
8.82
6.74
5.07
3.91
3.03
2.02
0.42
-2.12
-5.67
-10.01
-14.79
-19.61
-24.19
-28.45
-32.52
-36.75
-41.58
-47.45
-54.49
-62.45
-70.48
-77.32
-81.57
-82.14
-78.57
-71.2
-61.05
-49.45
-37.73
-26.85
-17.29
-9.19
-2.38
3.5
8.81
13.86
18.84
23.72
28.29
32.27
35.38
37.5
38.8
39.59
40.26
41.14
42.25
43.37
44.22
44.47
43.98
42.74
40.93
38.72
36.27
33.64
30.84
27.87
24.77
21.66
18.67
15.91
13.45
11.24
9.11
6.91
4.53
1.94
-0.88
-3.91
-7.23
-10.88
-14.83
-19
-23.32
-27.8
-32.71
-38.44
-45.3
-53.27
-61.7
-69.45
-75.09
-77.42
-75.78
-70.3
-61.72
-51.18
-39.8
-28.54
-18.03
-8.7
-0.74
5.87
11.33
16.03
20.38
24.72
29.24
33.93
38.74
43.51
48.13
52.48
56.49
60.1
63.36
66.37
69.2
71.87
74.25
76.08
77.1
77.13
76.13
74.14
71.25
67.47
62.85
57.5
51.64
45.56
39.53
33.6
27.65
21.49
14.93
8.08
1.2
-5.29
-11.13
-16.26
-20.89
-25.45
-30.31
-35.84
-42.18
-49.22
-56.52
-63.3
-68.43
-70.81
-69.65
-64.75
-56.65
-46.34
-35.06
-23.91
-13.69
-4.78
2.63
8.48
12.8
15.64
17.15
17.6
17.28
16.57
15.82
15.32
15.2
15.48
16.08
16.88
17.81
18.85
20.02
21.24
22.26
22.73
22.32
20.79
18.22
14.97
11.53
8.36
5.7
3.52
1.57
-0.48
-2.92
-5.79
-8.97
-12.28
-15.55
-18.77
-22.04
-25.58
-29.62
-34.37
-40.04
-46.71
-54.34
-62.45
-70.21
-76.43
-79.95
-79.97
-76.35
-69.69
-61.06
-51.64
-42.3
-33.52
-25.39
-17.82
-10.8
-4.43
1.01
5.39
8.75
11.43
13.9
16.6
19.76
23.28
26.9
30.23
33.15
35.63
37.83
39.81
41.53
42.79
43.33
43
41.72
39.71
37.2
34.54
31.99
29.74
27.8
25.96
23.95
21.42
18.22
14.32
9.88
5.13
0.25
-4.67
-9.61
-14.6
-19.67
-24.94
-30.67
-37.14
-44.53
-52.71
-61.07
-68.59
-74.04
-76.38
-75.07
-70.27
-62.73
-53.53
-43.75
-34.22
-25.43
-17.58
-10.65
-4.47
1.1
6.27
11.15
15.78
20.14
24.18
27.87
31.33
34.73
38.26
42.01
45.91
49.69
53.12
56
58.22
59.79
60.7
60.88
60.22
58.69
56.32
53.34
50.01
46.55
43.11
39.65
36.12
32.51
28.83
25.12
21.36
17.36
12.92
7.88
2.21
-3.88
-10.04
-15.97
-21.51
-26.75
-31.95
-37.51
-43.67
-50.42
-57.45
-64.09
-69.47
-72.68
-72.92
-69.74
-63.18
-53.77
-42.48
-30.44
-18.68
-7.94
1.43
9.45
16.19
21.71
25.89
28.6
29.73
29.5
28.37
26.99
26.02
25.89
26.71
28.24
30.05
31.65
32.7
33.05
32.72
31.83
30.47
28.69
26.49
23.85
20.86
17.69
14.6
11.74
9.2
6.87
4.55
1.99
-1.01
-4.58
-8.67
-13.16
-17.87
-22.53
-26.98
-31.11
-35.04
-38.95
-43.18
-47.97
-53.43
-59.41
-65.4
-70.65
-74.25
-75.41
-73.59
-68.77
-61.37
-52.19
-42.23
-32.36
-23.28
-15.37
-8.75
-3.42
0.67
3.66
5.72
7.1
8.15
9.27
10.82
13.03
16
19.63
23.72
28.05
32.32
36.35
39.92
42.89
45.17
46.66
47.27
47.01
45.99
44.36
42.37
40.17
37.81
35.25
32.42
29.34
26.16
23.07
20.19
17.47
14.59
11.18
6.96
1.9
-3.81
-9.74
-15.52
-20.97
-26.09
-31.16
-36.48
-42.4
-49.04
-56.27
-63.64
-70.35
-75.49
-78.05
-77.43
-73.48
-66.7
-58.07
-48.73
-39.66
-31.36
-23.93
-17.1
-10.65
-4.49
1.28
6.41
10.83
14.68
18.35
22.21
26.51
31.25
36.22
41.17
45.86
50.19
54.07
57.43
60.12
61.95
62.82
62.73
61.83
60.26
58.15
55.54
52.44
48.82
44.74
40.36
35.83
31.33
26.93
22.67
18.46
14.16
9.65
4.82
-0.31
-5.6
-10.81
-15.69
-20.14
-24.21
-28.11
-32.13
-36.61
-41.72
-47.38
-53.17
-58.3
-61.81
-62.76
-60.52
-54.98
-46.63
-36.31
-25.09
-14
-3.74
5.25
12.83
19
23.85
27.47
29.94
31.36
31.89
31.77
31.27
30.66
30.13
29.77
29.61
29.65
29.85
30.05
30.12
29.83
28.99
27.53
25.47
22.96
20.13
17.13
14.08
11.11
8.33
5.92
3.98
2.47
1.17
-0.27
-2.24
-4.98
-8.5
-12.57
-16.83
-20.89
-24.59
-28.02
-31.46
-35.22
-39.52
-44.42
-49.9
-55.83
-61.94
-67.74
-72.49
-75.29
-75.41
-72.46
-66.7
-58.89
-50.12
-41.37
-33.39
-26.47
-20.59
-15.53
-11.03
-6.9
-2.99
0.76
4.35
7.76
10.99
14.07
17.05
20.03
23.04
26.15
29.36
32.68
35.97
39.04
41.57
43.24
43.83
43.36
42.09
40.41
38.74
37.3
36.14
35.14
34.1
32.96
31.7
30.41
29.11
27.79
26.27
24.37
21.92
18.87
15.27
11.26
6.94
2.39
-2.35
-7.26
-12.31
-17.45
-22.72
-28.23
-34.19
-40.71
-47.7
-54.67
-60.77
-64.98
-66.44
-64.73
-60.02
-53.02
-44.7
-36.08
-27.95
-20.72
-14.55
-9.32
-4.88
-1
2.39
5.38
8.03
10.43
12.72
15.08
17.65
20.5
23.64
27
30.56
34.27
38.04
41.65
44.71
46.84
47.67
47.12
45.4
42.91
40.13
37.39
34.79
32.24
29.64
26.88
23.96
20.96
17.9
14.67
11.1
7.04
2.42
-2.59
-7.73
-12.69
-17.2
-21.18
-24.71
-27.93
-31.05
-34.28
-37.77
-41.59
-45.55
-49.17
-51.77
-52.55
-50.93
-46.67
-40.06
-31.72
-22.48
-13.08
-4.13
3.98
11
16.75
21.09
23.97
25.54
26
25.64
24.73
23.53
22.24
21.14
20.44
20.28
20.69
21.46
22.3
22.85
22.86
22.23
21.04
19.46
17.67
15.8
13.92
12.02
10.06
7.97
5.75
3.49
1.26
-0.86
-2.92
-5.05
-7.44
-10.23
-13.44
-16.94
-20.51
-23.94
-27.1
-30.04
-32.99
-36.36
-40.52
-45.8
-52.21
-59.41
-66.67
-72.94
-77.13
-78.37
-76.26
-71.02
-63.39
-54.46
-45.28
-36.64
-28.9
-22.14
-16.23
-11.03
-6.44
-2.41
1.13
4.33
7.34
10.26
13.15
15.98
18.76
21.51
24.34
27.28
30.32
33.29
36
38.23
39.86
40.86
41.22
41.01
40.25
38.98
37.32
35.43
33.48
31.61
29.85
28.13
26.42
24.72
23.12
21.72
20.51
19.31
17.77
15.55
12.4
8.31
3.49
-1.72
-7.03
-12.24
-17.31
-22.39
-27.74
-33.66
-40.34
-47.72
-55.35
-62.4
-67.89
-70.96
-71.16
-68.53
-63.61
-57.14
-49.88
-42.43
-35.16
-28.25
-21.81
-15.88
-10.48
-5.57
-1.02
3.41
7.93
12.72
17.74
22.75
27.49
31.78
35.67
39.42
43.36
47.64
52.12
56.41
60.03
62.67
64.27
65.02
65.18
64.91
64.22
63.02
61.17
58.6
55.35
51.53
47.26
42.64
37.71
32.48
27.02
21.37
15.61
9.84
4.09
-1.66
-7.36
-12.98
-18.45
-23.63
-28.48
-32.97
-37.22
-41.41
-45.81
-50.56
-55.59
-60.47
-64.42
-66.48
-65.76
-61.86
-54.9
-45.62
-35.03
-24.13
-13.63
-3.91
4.87
12.6
19.11
24.19
27.76
29.92
31.06
31.63
32.12
32.72
33.4
33.95
34.22
34.2
34.07
34.04
34.22
34.47
34.45
33.81
32.35
30.09
27.26
24.11
20.87
17.61
14.37
11.2
8.21
5.5
3.12
0.96
-1.25
-3.76
-6.79
-10.39
-14.45
-18.77
-23.15
-27.46
-31.63
-35.68
-39.68
-43.71
-47.86
-52.25
-56.95
-61.97
-67.05
-71.59
-74.82
-75.86
-74.11
-69.39
-62.1
-53.06
-43.25
-33.55
-24.56
-16.64
-9.88
-4.26
0.31
3.99
6.96
9.42
11.61
13.69
15.8
18.03
20.36
22.77
25.17
27.5
29.71
31.73
33.5
34.85
35.58
35.52
34.64
33.04
31.03
28.93
27.03
25.46
24.16
22.97
21.72
20.34
18.85
17.34
15.82
14.32
12.76
11.07
9.21
7.15
4.86
2.18
-1.08
-5.06
-9.77
-14.96
-20.27
-25.39
-30.28
-35.18
-40.59
-46.93
-54.19
-61.83
-68.82
-74.03
-76.53
-76
-72.63
-67.06
-60.08
-52.4
-44.55
-36.83
-29.35
-22.13
-15.21
-8.55
-2.21
3.78
9.37
14.52
19.3
23.81
28.21
32.59
37.01
41.46
45.96
50.5
55.02
59.43
63.45
66.76
69.02
70
69.67
68.16
65.73
62.65
59.15
55.42
51.6
47.72
43.8
39.82
35.73
31.54
27.25
22.85
18.28
13.44
8.21
2.6
-3.24
-9.02
-14.46
-19.32
-23.55
-27.35
-31.01
-34.94
-39.52
-44.89
-50.87
-56.87
-61.93
-64.98
-65.2
-62.18
-56.21
-48.05
-38.7
-29.02
-19.64
-10.86
-2.82
4.37
10.54
15.46
18.98
21.09
22.06
22.31
22.34
22.5
22.92
23.56
24.21
24.71
25.02
25.15
25.12
24.88
24.28
23.25
21.8
20.11
18.38
16.7
15.02
13.18
11.1
8.9
6.79
5.01
3.6
2.31
0.74
-1.51
-4.61
-8.39
-12.52
-16.65
-20.55
-24.23
-27.86
-31.68
-35.97
-41.02
-46.96
-53.72
-60.86
-67.56
-72.83
-75.75
-75.77
-72.87
-67.59
-60.73
-53.14
-45.48
-38.05
-30.95
-24.08
-17.3
-10.62
-4.2
1.69
6.8
10.92
14.15
16.71
18.91
21.02
23.23
25.54
27.94
30.48
33.21
36.16
39.18
42
44.2
45.5
45.81
45.28
44.2
42.82
41.31
39.68
37.91
35.99
33.92
31.72
29.33
26.67
23.62
20.15
16.31
12.24
8.06
3.86
-0.37
-4.76
-9.47
-14.72
-20.67
-27.46
-35.11
-43.4
-51.87
-59.74
-66.13
-70.16
-71.29
-69.38
-64.78
-58.2
-50.44
-42.27
-34.25
-26.65
-19.52
-12.84
-6.5
-0.41
5.34
10.66
15.39
19.43
22.9
26.08
29.35
33.09
37.46
42.28
47.17
51.61
55.19
57.71
59.2
59.81
59.66
58.74
56.92
54.03
49.98
44.89
39.15
33.27
27.81
23.15
19.44
16.56
14.23
12.07
9.63
6.52
2.32
-3.23
-10.07
-17.76
-25.43
-32.06
-36.93
-39.95
-41.68
-43.03
-44.67
-46.65
-48.25
-48.32
-45.83
-40.32
-32.16
-22.34
-12.15
-2.71
5.29
11.71
16.73
20.59
23.39
25.08
25.54
24.8
23.21
21.38
20
19.54
20.11
21.38
22.86
24.14
24.98
25.34
25.27
24.87
24.07
22.85
21.07
18.72
15.84
12.62
9.29
6.07
3.07
0.27
-2.42
-5.13
-7.92
-10.84
-13.82
-16.8
-19.66
-22.31
-24.77
-27.14
-29.69
-32.77
-36.68
-41.41
-46.53
-51.2
-54.33
-55.01
-52.7
-47.43
-39.77
-30.48
-20.42
-10.32
-0.71
8.03
15.63
21.97
27.04
30.91
33.78
35.85
37.29
38.2
38.71
38.89
38.9
38.83
38.73
38.61
38.41
37.96
37.14
35.8
33.86
31.34
28.26
24.7
20.73
16.47
12.06
7.73
3.7
0.2
-2.61
-4.75
-6.39
-7.82
-9.35
-11.2
-13.41
-15.94
-18.6
-21.27
-23.97
-26.83
-30.05
-33.57
-37.02
-39.61
-40.46
-38.79
-34.34
-27.46
-18.97
-9.9
-1.05
7.15
14.63
21.47
27.58
32.72
36.52
38.79
39.62
39.44
38.82
38.3
38.16
38.42
38.95
39.54
40.08
40.46
40.57
40.28
39.48
38.12
36.25
34
31.5
28.89
26.19
23.39
20.45
17.31
13.94
10.4
6.77
3.18
-0.19
-3.22
-5.89
-8.29
-10.67
-13.32
-16.46
-20.21
-24.52
-29.21
-34.01
-38.67
-43.03
-47.01
-50.72
-54.37
-58.27
-62.63
-67.39
-72.05
-75.74
-77.47
-76.41
-72.25
-65.27
-56.24
-46.15
-35.89
-26.08
-17.05
-8.92
-1.68
4.65
10.11
14.67
18.37
21.29
23.5
25.14
26.33
27.18
27.74
28.03
28.07
27.92
27.7
27.55
27.52
27.58
27.59
27.34
26.73
25.73
24.45
23.07
21.77
20.68
19.84
19.27
18.94
18.81
18.83
18.86
18.77
18.42
17.75
16.73
15.43
13.87
12.04
9.86
7.16
3.83
-0.19
-4.78
-9.72
-14.71
-19.56
-24.22
-28.84
-33.71
-39.07
-45
-51.36
-57.75
-63.62
-68.31
-71.17
-71.7
-69.68
-65.25
-58.92
-51.49
-43.75
-36.35
-29.64
-23.63
-18.15
-12.97
-7.94
-2.99
1.8
6.34
10.5
14.17
17.36
20.12
22.59
24.94
27.27
29.67
32.15
34.66
37.13
39.48
41.57
43.2
44.23
44.51
44.05
43.08
41.91
40.89
40.15
39.72
39.39
38.96
38.27
37.32
36.2
35
33.72
32.18
30.21
27.65
24.53
21.04
17.44
13.98
10.65
7.32
3.71
-0.35
-4.87
-9.6
-14.16
-18.22
-21.66
-24.69
-27.7
-31.16
-35.38
-40.37
-45.79
-50.93
-54.91
-56.86
-56.25
-53.07
-47.82
-41.32
-34.45
-27.89
-21.95
-16.68
-11.93
-7.65
-3.89
-0.72
1.81
3.81
5.42
6.82
8.12
9.41
10.76
12.25
13.97
15.94
18.1
20.28
22.33
24.08
25.43
26.35
26.8
26.86
26.55
26.01
25.43
25.02
24.86
24.9
24.89
24.48
23.4
21.53
19.03
16.23
13.58
11.39
9.84
8.81
8.04
7.24
6.09
4.36
1.98
-1.02
-4.49
-8.19
-11.88
-15.48
-18.95
-22.41
-25.99
-29.8
-33.89
-38.17
-42.39
-46.14
-48.88
-49.98
-49.01
-45.81
-40.71
-34.47
-28.06
-22.35
-17.84
-14.57
-12.22
-10.42
-8.9
-7.59
-6.63
-6.05
-5.72
-5.36
-4.61
-3.23
-1.22
1.23
3.84
6.33
8.57
10.56
12.32
13.79
14.87
15.39
15.31
14.76
14.04
13.49
13.37
13.68
14.27
14.88
15.28
15.41
15.31
15.06
14.69
14.2
13.56
12.83
12.08
11.42
10.81
10.09
9
7.27
4.84
1.75
-1.72
-5.27
-8.66
-11.75
-14.59
-17.34
-20.17
-23.26
-26.73
-30.53
-34.49
-38.21
-41.17
-42.8
-42.69
-40.7
-37.1
-32.5
-27.62
-23.13
-19.39
-16.46
-14.13
-12.15
-10.36
-8.77
-7.45
-6.4
-5.58
-4.75
-3.66
-2.15
-0.19
2.07
4.44
6.74
8.89
10.84
12.62
14.22
15.59
16.72
17.56
18.13
18.43
18.48
18.3
17.98
17.63
17.3
17.02
16.65
16.1
15.27
14.23
13.17
12.3
11.74
11.39
11
10.23
8.89
7.01
4.74
2.29
-0.29
-3.08
-6.32
-10.22
-14.82
-19.96
-25.29
-30.46
-35.14
-39.13
-42.4
-45.04
-47.17
-48.97
-50.54
-51.8
-52.53
-52.29
-50.63
-47.18
-41.9
-34.97
-26.96
-18.58
-10.63
-3.93
0.77
2.95
2.56
0.08
-3.46
-6.83
-8.96
-9.12
-7.04
-2.7
3.76
11.9
20.84
29.24
35.5
38.39
37.54
33.63
28.11
22.5
17.77
14.12
11.3
9.08
7.6
7.33
8.79
12.2
17.35
23.69
30.56
37.36
43.52
48.55
51.94
53.32
52.49
49.54
44.74
38.5
31.26
23.37
15.24
7.23
-0.3
-7.06
-12.86
-17.67
-21.49
-24.35
-26.3
-27.33
-27.5
-26.94
-25.8
-24.28
-22.51
-20.64
-18.75
-16.94
-15.35
-14.09
-13.19
-12.57
-12.1
-11.61
-11
-10.22
-9.31
-8.29
-7.13
-5.75
-4.04
-1.97
0.48
3.28
6.37
9.6
12.76
15.4
17.05
17.32
16.06
13.55
10.36
7.12
4.35
2.24
0.68
-0.6
-1.83
-3.09
-4.24
-5.12
-5.64
-5.83
-5.92
-6.24
-7.09
-8.64
-10.94
-13.89
-17.38
-21.31
-25.56
-30.04
-34.64
-39.17
-43.41
-47.17
-50.21
-52.33
-53.35
-53.15
-51.7
-49.09
-45.43
-40.93
-35.72
-29.87
-23.43
-16.4
-8.92
-1.2
6.41
13.51
19.62
24.31
27.3
28.48
28.06
26.54
24.58
22.89
21.94
21.91
22.62
23.73
24.88
25.88
26.75
27.58
28.41
29.16
29.69
29.83
29.52
28.82
27.87
26.78
25.6
24.28
22.77
21.07
19.23
17.33
15.45
13.67
12.09
10.75
9.72
8.94
8.26
7.45
6.31
4.74
2.78
0.61
-1.6
-3.83
-6.27
-9.27
-13.21
-18.27
-24.41
-31.46
-39.11
-47.06
-54.96
-62.24
-68.19
-72.02
-73.14
-71.36
-67.03
-60.99
-54.19
-47.43
-41.21
-35.6
-30.45
-25.54
-20.75
-16.07
-11.59
-7.39
-3.49
0.22
3.89
7.69
11.66
15.69
19.66
23.4
26.88
30.1
33.12
35.9
38.31
40.15
41.26
41.61
41.28
40.45
39.35
38.19
37.14
36.3
35.7
35.3
34.9
34.36
33.56
32.47
31.13
29.57
27.75
25.59
23.06
20.12
16.82
13.25
9.39
5.24
0.81
-3.88
-8.66
-13.33
-17.71
-21.79
-25.66
-29.67
-34.09
-39.14
-44.7
-50.29
-55.12
-58.19
-58.67
-56.07
-50.5
-42.57
-33.22
-23.39
-13.79
-4.87
3.21
10.36
16.51
21.55
25.4
28.08
29.75
30.74
31.37
31.91
32.55
33.37
34.4
35.61
36.97
38.36
39.71
40.85
41.63
41.9
41.55
40.53
38.88
36.72
34.25
31.72
29.27
26.94
24.64
22.24
19.63
16.87
14.07
11.4
8.95
6.66
4.39
1.9
-0.96
-4.33
-8.24
-12.63
-17.37
-22.28
-27.16
-31.79
-36.1
-40.1
-44.06
-48.32
-53.17
-58.58
-64.09
-68.91
-72.01
-72.58
-70.2
-65
-57.58
-48.84
-39.71
-30.92
-22.99
-16.07
-10.11
-4.91
-0.28
3.88
7.59
10.78
13.42
15.57
17.46
19.33
21.38
23.65
26.06
28.48
30.82
33.14
35.51
37.97
40.36
42.41
43.77
44.19
43.67
42.48
41.03
39.73
38.8
38.25
37.93
37.58
36.94
35.83
34.1
31.72
28.73
25.27
21.57
17.77
13.95
10.02
5.86
1.3
-3.7
-9.04
-14.56
-20.1
-25.54
-30.89
-36.26
-41.81
-47.74
-54.14
-60.85
-67.4
-72.96
-76.55
-77.24
-74.53
-68.48
-59.75
-49.43
-38.66
-28.46
-19.4
-11.67
-5.14
0.39
5.07
8.92
11.85
13.88
15.17
16.07
17.03
18.45
20.52
23.24
26.4
29.81
33.28
36.75
40.11
43.27
45.98
47.92
48.8
48.5
47.14
45.08
42.79
40.67
38.99
37.76
36.76
35.71
34.35
32.51
30.2
27.53
24.59
21.49
18.2
14.7
10.89
6.75
2.29
-2.4
-7.22
-12.1
-16.97
-21.77
-26.44
-31
-35.55
-40.35
-45.73
-51.77
-58.28
-64.52
-69.4
-71.74
-70.64
-65.86
-57.85
-47.59
-36.27
-24.86
-13.99
-3.96
5.16
13.37
20.63
26.96
32.38
36.99
40.84
43.91
46.09
47.31
47.62
47.27
46.69
46.3
46.35
46.81
47.44
47.91
47.86
47.08
45.53
43.22
40.35
37.14
33.82
30.63
27.68
24.97
22.41
19.9
17.3
14.58
11.81
9.04
6.3
3.58
0.82
-2.07
-5.17
-8.53
-12.2
-16.13
-20.3
-24.63
-29.03
-33.45
-37.85
-42.32
-47.08
-52.34
-58.18
-64.37
-70.22
-74.74
-76.85
-75.77
-71.28
-63.8
-54.22
-43.62
-33.03
-23.09
-14.13
-6.24
0.62
6.47
11.3
15.08
17.86
19.77
21.11
22.23
23.41
24.83
26.51
28.32
30.19
32.07
34.02
36.15
38.48
40.86
43.01
44.59
45.33
45.16
44.23
42.85
41.29
39.74
38.17
36.45
34.48
32.19
29.7
27.16
24.66
22.26
19.89
17.43
14.75
11.74
8.27
4.3
-0.19
-5.09
-10.21
-15.33
-20.33
-25.23
-30.19
-35.46
-41.21
-47.51
-54.2
-60.9
-67.01
-71.73
-74.28
-74
-70.64
-64.4
-56.02
-46.52
-36.88
-27.8
-19.61
-12.32
-5.84
-0.1
4.85
8.89
11.96
14.15
15.68
16.85
17.99
19.34
21.07
23.29
26
29.14
32.59
36.08
39.32
41.98
43.7
44.23
43.49
41.58
38.87
35.81
32.9
30.48
28.7
27.51
26.65
25.78
24.59
22.91
20.68
18.05
15.23
12.41
9.65
6.84
3.78
0.24
-3.82
-8.3
-12.9
-17.38
-21.67
-25.85
-30.15
-34.82
-40.04
-45.8
-51.84
-57.68
-62.6
-65.84
-66.69
-64.69
-59.78
-52.35
-43.14
-33.08
-23.11
-13.97
-6.06
0.51
5.88
10.29
13.87
16.72
18.88
20.45
21.72
22.96
24.5
26.42
28.6
30.81
32.8
34.46
35.74
36.71
37.35
37.62
37.4
36.57
35.09
33.03
30.58
27.96
25.41
23.07
20.93
18.89
16.8
14.57
12.24
9.9
7.66
5.52
3.34
0.93
-1.85
-5.02
-8.46
-11.98
-15.41
-18.7
-21.92
-25.23
-28.9
-33.14
-37.99
-43.21
-48.2
-52.06
-53.85
-52.91
-49.1
-42.83
-34.91
-26.24
-17.57
-9.36
-1.87
4.77
10.38
14.77
17.79
19.45
19.94
19.62
18.9
18.16
17.72
17.72
18.19
19.09
20.31
21.75
23.22
24.48
25.29
25.44
24.92
23.85
22.44
20.92
19.49
18.23
17.13
16.18
15.28
14.39
13.4
12.26
10.95
9.49
7.93
6.29
4.47
2.33
-0.26
-3.37
-6.89
-10.7
-14.66
-18.71
-22.89
-27.27
-31.95
-36.97
-42.34
-47.97
-53.52
-58.49
-62.19
-63.93
-63.24
-60.03
-54.68
-47.85
-40.29
-32.62
-25.21
-18.31
-12.07
-6.65
-2.19
1.23
3.7
5.46
6.88
8.25
9.79
11.52
13.41
15.44
17.63
20.08
22.8
25.79
28.84
31.73
34.17
35.95
36.99
37.3
37.04
36.4
35.62
34.89
34.35
34.01
33.75
33.4
32.74
31.61
29.94
27.71
25.02
22.03
18.93
15.91
13.16
10.66
8.23
5.57
2.35
-1.6
-6.25
-11.4
-16.76
-22.1
-27.27
-32.24
-37.11
-42
-46.96
-51.96
-56.75
-60.88
-63.76
-64.85
-63.73
-60.38
-55.12
-48.5
-41.19
-33.72
-26.47
-19.69
-13.57
-8.27
-3.98
-0.78
1.47
3.03
4.34
5.75
7.53
9.73
12.27
14.99
17.74
20.48
23.22
26.01
28.79
31.37
33.57
35.15
35.97
36.03
35.47
34.49
33.31
32.11
30.92
29.75
28.52
27.13
25.49
23.51
21.17
18.52
15.68
12.79
9.96
7.22
4.5
1.65
-1.45
-4.87
-8.6
-12.53
-16.57
-20.61
-24.56
-28.45
-32.32
-36.21
-40.14
-43.96
-47.22
-49.35
-49.62
-47.53
-42.85
-35.88
-27.3
-18.01
-8.9
-0.59
6.56
12.57
17.58
21.76
25.18
27.86
29.78
31
31.69
32.03
32.23
32.48
32.94
33.78
35.11
37.04
39.48
42.13
44.42
45.76
45.66
43.9
40.68
36.4
31.68
27.04
22.79
18.95
15.47
12.28
9.51
7.4
6.06
5.41
4.99
4.17
2.28
-1
-5.56
-10.95
-16.56
-21.89
-26.68
-30.89
-34.74
-38.53
-42.57
-47.15
-52.34
-57.87
-63.21
-67.58
-70.18
-70.41
-68.03
-63.26
-56.63
-48.96
-41.08
-33.71
-27.37
-22.23
-18.24
-15.08
-12.44
-10
-7.61
-5.17
-2.66
-0.08
2.61
5.42
8.36
11.38
14.48
17.58
20.48
22.88
24.34
24.47
23.11
20.48
17.23
14.25
12.37
11.96
12.87
14.38
15.7
16.23
15.83
14.89
13.93
13.36
13.17
13.02
12.38
10.93
8.6
5.61
2.28
-1.15
-4.57
-8.09
-11.83
-15.97
-20.62
-25.93
-31.89
-38.29
-44.73
-50.49
-54.84
-57.18
-57.2
-54.96
-50.88
-45.5
-39.4
-33.12
-26.96
-21.17
-15.88
-11.18
-7.07
-3.52
-0.43
2.32
4.86
7.37
10.02
12.96
16.24
19.85
23.71
27.72
31.73
35.61
39.19
42.3
44.74
46.35
47.02
46.74
45.65
43.93
41.76
39.31
36.69
33.96
31.23
28.58
26.03
23.57
21.07
18.32
15.16
11.52
7.37
2.9
-1.73
-6.32
-10.7
-14.75
-18.45
-21.94
-25.48
-29.39
-33.84
-38.61
-43.18
-46.66
-48.13
-46.99
-43.16
-37.06
-29.46
-21.19
-12.91
-5.14
1.81
7.65
12.26
15.53
17.52
18.46
18.71
18.66
18.67
18.99
19.68
20.74
22.02
23.36
24.57
25.52
26.1
26.25
25.94
25.14
23.89
22.23
20.22
17.95
15.47
12.94
10.48
8.25
6.33
4.77
3.41
2.05
0.45
-1.57
-4.04
-6.92
-10.12
-13.54
-17.08
-20.72
-24.42
-28.19
-32.15
-36.46
-41.32
-46.76
-52.54
-58.04
-62.41
-64.8
-64.56
-61.58
-56.2
-49.13
-41.26
-33.4
-26.13
-19.75
-14.34
-9.79
-6
-2.77
0.05
2.62
5.11
7.66
10.39
13.29
16.39
19.68
23.14
26.81
30.56
34.2
37.47
40.13
42.07
43.31
43.97
44.11
43.78
42.93
41.63
40.03
38.33
36.71
35.22
33.78
32.19
30.29
27.94
25.16
21.98
18.48
14.7
10.63
6.3
1.72
-2.97
-7.69
-12.36
-17.04
-21.92
-27.23
-33.16
-39.69
-46.51
-52.99
-58.37
-61.89
-63.01
-61.56
-57.7
-51.96
-44.95
-37.35
-29.63
-22.22
-15.32
-9.03
-3.33
1.84
6.5
10.73
14.54
17.98
21.13
24.06
26.87
29.58
32.23
34.82
37.39
39.99
42.55
44.92
46.8
47.89
47.94
46.98
45.18
42.85
40.28
37.64
35.01
32.36
29.73
27.08
24.47
21.82
19.07
16.12
12.86
9.26
5.3
1.04
-3.38
-7.75
-11.88
-15.59
-18.85
-21.79
-24.66
-27.86
-31.69
-36.3
-41.45
-46.5
-50.55
-52.63
-52.04
-48.6
-42.7
-35.13
-26.87
-18.65
-10.93
-3.84
2.58
8.25
13
16.6
18.95
20.09
20.24
19.68
18.75
17.73
16.91
16.53
16.73
17.52
18.72
19.98
20.98
21.43
21.28
20.59
19.49
18.22
16.97
15.89
15.05
14.38
13.71
12.83
11.69
10.31
8.86
7.49
6.22
4.95
3.46
1.58
-0.77
-3.54
-6.68
-10.12
-13.85
-17.85
-22.07
-26.51
-31.21
-36.35
-42.07
-48.4
-54.99
-61.1
-65.72
-67.85
-66.91
-62.95
-56.62
-48.99
-41.15
-33.88
-27.5
-22
-17.16
-12.78
-8.77
-5.08
-1.71
1.39
4.36
7.37
10.53
13.88
17.35
20.82
24.19
27.36
30.35
33.14
35.7
37.94
39.72
40.92
41.5
41.56
41.25
40.69
39.93
38.96
37.78
36.43
35.02
33.63
32.3
30.89
29.18
26.96
24.05
20.49
16.38
11.9
7.24
2.57
-1.95
-6.21
-10.17
-13.96
-17.8
-22.08
-27.08
-32.85
-39.05
-44.91
-49.47
-51.85
-51.5
-48.35
-42.77
-35.45
-27.17
-18.7
-10.64
-3.4
2.85
8.07
12.38
15.94
18.89
21.34
23.32
24.85
26.02
26.95
27.8
28.7
29.68
30.74
31.76
32.62
33.18
33.33
33.02
32.25
31.01
29.34
27.25
24.75
21.88
18.74
15.52
12.44
9.71
7.44
5.59
3.91
2.1
-0.11
-2.86
-6.06
-9.55
-13.15
-16.76
-20.38
-24.13
-28.1
-32.33
-36.8
-41.41
-46.03
-50.5
-54.56
-57.88
-60.02
-60.51
-59.05
-55.55
-50.33
-44.03
-37.32
-30.85
-24.98
-19.82
-15.34
-11.49
-8.25
-5.57
-3.34
-1.3
0.9
3.51
6.61
10.03
13.45
16.6
19.35
21.75
23.97
26.14
28.25
30.23
31.94
33.22
33.96
34.06
33.55
32.52
31.12
29.54
27.96
26.45
24.96
23.41
21.66
19.68
17.48
15.07
12.38
9.32
5.8
1.82
-2.48
-6.87
-11.17
-15.35
-19.63
-24.33
-29.76
-35.97
-42.58
-48.82
-53.76
-56.66
-57.15
-55.41
-51.93
-47.35
-42.21
-36.83
-31.35
-25.92
-20.72
-15.95
-11.68
-7.85
-4.24
-0.6
3.15
6.94
10.62
14.08
17.38
20.71
24.23
27.94
31.62
34.92
37.52
39.27
40.21
40.49
40.3
39.75
38.89
37.74
36.37
34.85
33.32
31.88
30.6
29.4
28.21
26.9
25.36
23.6
21.62
19.49
17.2
14.78
12.12
9.17
5.89
2.31
-1.52
-5.62
-9.98
-14.7
-19.78
-25.11
-30.32
-34.91
-38.2
-39.57
-38.59
-35.21
-29.84
-23.18
-16.13
-9.41
-3.52
1.41
5.5
8.94
11.87
14.32
16.28
17.76
18.86
19.69
20.41
21.13
21.9
22.72
23.63
24.64
25.71
26.8
27.79
28.53
28.88
28.73
27.99
26.61
24.6
22.04
19.13
16.1
13.14
10.37
7.7
5.03
2.22
-0.78
-3.94
-7.14
-10.27
-13.2
-15.84
-18.19
-20.26
-22.18
-24.12
-26.36
-29.14
-32.62
-36.73
-41.17
-45.38
-48.64
-50.3
-49.92
-47.44
-43.11
-37.49
-31.26
-25.1
-19.55
-14.87
-11.15
-8.33
-6.27
-4.79
-3.74
-2.96
-2.27
-1.49
-0.39
1.1
2.96
5.11
7.45
9.91
12.46
15.06
17.59
19.86
21.65
22.82
23.37
23.38
22.97
22.22
21.22
20.08
18.93
17.9
17.07
16.38
15.65
14.67
13.29
11.48
9.34
6.96
4.33
1.44
-1.78
-5.35
-9.14
-12.97
-16.71
-20.39
-24.27
-28.69
-33.88
-39.7
-45.59
-50.65
-53.95
-54.89
-53.4
-49.94
-45.26
-40.12
-35.08
-30.44
-26.22
-22.4
-18.88
-15.52
-12.19
-8.72
-5.04
-1.17
2.73
6.47
9.86
12.82
15.42
17.8
20.18
22.73
25.48
28.35
31.09
33.41
35.04
35.87
35.98
35.55
34.83
33.97
33.01
31.9
30.58
29.04
27.23
25.13
22.7
19.91
16.77
13.35
9.82
6.33
3
-0.15
-3.15
-6.07
-8.94
-11.74
-14.45
-17.16
-20.04
-23.28
-27.03
-31.18
-35.36
-38.95
-41.22
-41.6
-39.82
-36
-30.52
-23.97
-16.93
-9.85
-3.11
3.12
8.69
13.52
17.49
20.52
22.61
23.83
24.44
24.73
25.03
25.54
26.35
27.32
28.21
28.76
28.78
28.25
27.27
26.06
24.72
23.28
21.61
19.55
17.05
14.19
11.17
8.16
5.25
2.36
-0.62
-3.74
-6.95
-10.04
-12.84
-15.28
-17.44
-19.54
-21.85
-24.58
-27.9
-31.84
-36.31
-40.99
-45.38
-48.84
-50.71
-50.58
-48.28
-44.07
-38.48
-32.23
-25.94
-20.09
-14.89
-10.39
-6.57
-3.39
-0.9
0.81
1.69
1.85
1.56
1.31
1.56
2.57
4.37
6.7
9.17
11.5
13.52
15.24
16.72
18.01
19.03
19.64
19.67
19.08
17.98
16.55
15
13.43
11.88
10.25
8.48
6.45
4.14
1.59
-1.15
-4
-6.96
-10.06
-13.41
-17.13
-21.43
-26.41
-32.06
-38.23
-44.53
-50.4
-55.25
-58.54
-59.88
-59.18
-56.6
-52.52
-47.49
-42.01
-36.48
-31.17
-26.1
-21.22
-16.46
-11.84
-7.45
-3.44
0.21
3.59
6.87
10.2
13.63
17.09
20.47
23.66
26.58
29.22
31.54
33.42
34.81
35.67
36.06
36.09
35.87
35.38
34.65
33.71
32.61
31.5
30.46
29.53
28.66
27.72
26.6
25.23
23.6
21.65
19.33
16.62
13.5
10.03
6.3
2.45
-1.5
-5.62
-10.09
-15.1
-20.69
-26.66
-32.47
-37.45
-40.86
-42.22
-41.34
-38.35
-33.64
-27.76
-21.28
-14.7
-8.4
-2.59
2.61
7.17
11.06
14.23
16.63
18.27
19.35
20.16
21.1
22.41
24.19
26.28
28.46
30.54
32.44
34.21
35.85
37.28
38.29
38.58
37.93
36.27
33.78
30.84
27.84
25.12
22.75
20.61
18.45
15.98
13.02
9.6
5.87
2.08
-1.58
-5.01
-8.22
-11.34
-14.45
-17.7
-21.17
-24.95
-29.04
-33.27
-37.25
-40.39
-42.08
-41.83
-39.49
-35.27
-29.66
-23.25
-16.55
-9.91
-3.53
2.36
7.51
11.62
14.36
15.6
15.48
14.38
12.83
11.38
10.38
10.01
10.23
10.83
11.62
12.41
13.11
13.64
14.04
14.33
14.56
14.73
14.76
14.56
14.05
13.23
12.22
11.2
10.3
9.53
8.7
7.51
5.71
3.2
0.04
-3.54
-7.32
-11.11
-14.87
-18.59
-22.38
-26.32
-30.55
-35.22
-40.45
-46.11
-51.79
-56.76
-60.19
-61.33
-59.87
-56.01
-50.37
-43.72
-36.84
-30.24
-24.17
-18.68
-13.65
-8.99
-4.63
-0.58
3.12
6.43
9.35
11.96
14.41
16.83
19.26
21.63
23.8
25.61
26.94
27.72
27.93
27.57
26.64
25.15
23.08
20.45
17.33
13.87
10.24
6.69
3.35
0.27
-2.63
-5.51
-8.48
-11.57
-14.77
-18.03
-21.44
-25.1
-29.12
-33.43
-37.74
-41.52
-44.14
-45.01
-43.84
-40.62
-35.66
-29.44
-22.5
-15.3
-8.15
-1.23
5.3
11.25
16.28
20.13
22.68
24.09
24.8
25.33
26.09
27.27
28.75
30.32
31.69
32.73
33.34
33.49
33.14
32.2
30.61
28.35
25.53
22.28
18.75
15.08
11.4
7.87
4.66
1.96
-0.13
-1.69
-3.03
-4.59
-6.84
-10.03
-14.07
-18.49
-22.56
-25.58
-26.95
-26.37
-23.74
-19.19
-13.03
-5.64
2.48
10.81
18.85
26.25
32.76
38.29
42.86
46.44
49.09
50.85
51.92
52.59
53.23
54.12
55.43
57.13
58.99
60.71
62
62.62
62.46
61.47
59.67
57.16
54.11
50.72
47.14
43.48
39.68
35.62
31.19
26.37
21.3
16.14
11.03
5.97
0.87
-4.39
-9.97
-15.97
-22.4
-29.15
-35.95
-42.27
-47.43
-50.73
-51.7
-50.3
-46.88
-42.13
-36.76
-31.43
-26.6
-22.57
-19.54
-17.63
-16.79
-16.84
-17.39
-17.99
-18.14
-17.53
-16.02
-13.71
-10.8
-7.53
-4.13
-0.77
2.52
5.71
8.81
11.71
14.27
16.3
17.62
18.17
18.05
17.44
16.59
15.66
14.66
13.49
11.99
10.05
7.64
4.87
1.88
-1.25
-4.44
-7.78
-11.41
-15.55
-20.41
-26.09
-32.47
-39.19
-45.59
-50.92
-54.55
-56.1
-55.56
-53.19
-49.43
-44.79
-39.66
-34.39
-29.17
-24.14
-19.31
-14.63
-10.04
-5.51
-1.15
2.89
6.45
9.54
12.25
14.78
17.3
19.88
22.46
24.86
26.91
28.46
29.47
29.95
29.94
29.58
29.04
28.5
28.1
27.86
27.73
27.62
27.41
27.04
26.5
25.77
24.76
23.36
21.48
19.07
16.24
13.1
9.78
6.37
2.84
-0.89
-4.87
-9.12
-13.6
-18.23
-22.94
-27.78
-32.86
-38.18
-43.62
-48.69
-52.73
-55.06
-55.23
-53.17
-49.29
-44.26
-38.81
-33.5
-28.63
-24.21
-20.13
-16.2
-12.28
-8.29
-4.25
-0.28
3.47
6.88
9.9
12.52
14.87
17.05
19.14
21.12
22.85
24.13
24.81
24.87
24.41
23.73
23.14
22.82
22.82
23.01
23.14
23.03
22.61
21.99
21.39
21.15
21.58
23.03
25.72
29.61
34.33
39.07
42.84
44.75
44.35
41.8
37.83
33.42
29.42
26.27
23.92
21.97
19.87
17.12
13.37
8.47
2.47
-4.23
-10.93
-16.68
-20.47
-21.51
-19.58
-15.12
-9.23
-3.32
1.3
3.81
4.07
2.64
0.49
-1.35
-2.06
-1.3
0.85
3.95
7.36
10.49
12.9
14.48
15.43
16.3
17.68
20.04
23.52
27.76
32.11
35.78
38.16
39.04
38.67
37.58
36.31
35.2
34.18
32.93
31.04
28.25
24.58
20.23
15.52
10.74
6.18
2.16
-0.91
-2.79
-3.57
-3.93
-4.96
-7.84
-13.39
-21.72
-32.32
-44.19
-56.23
-67.34
-76.43
-82.37
-84.17
-81.27
-73.84
-62.96
-50.32
-37.8
-26.87
-18.35
-12.33
-8.49
-6.34
-5.37
-5.13
-5.3
-5.62
-5.99
-6.32
-6.57
-6.51
-5.83
-4.13
-1.19
2.79
7.17
10.96
13.21
13.36
11.54
8.49
5.24
2.68
1.22
0.64
0.25
-0.8
-3.15
-7.01
-12.09
-17.81
-23.63
-29.34
-35.11
-41.44
-48.84
-57.59
-67.49
-77.87
-87.58
-95.31
-99.77
-99.91
-95.2
-85.73
-72.46
-57.07
-41.8
-28.87
-19.9
-15.41
-14.64
-15.76
-16.43
-14.65
-9.39
-0.97
9.11
18.72
25.84
29.12
28.23
23.82
17.2
9.94
3.57
-0.7
-2.08
-0.32
4.31
11.03
18.93
27.08
34.82
41.73
47.39
51.29
52.72
51.12
46.4
39.17
30.68
22.37
15.37
9.98
5.87
2.23
-1.63
-6.02
-10.77
-15.39
-19.28
-21.93
-23.14
-22.87
-21.32
-18.75
-15.52
-12.02
-8.67
-5.88
-3.99
-3.25
-3.61
-4.82
-6.42
-7.91
-8.86
-9.1
-8.7
-7.82
-6.67
-5.4
-4.03
-2.66
-1.41
-0.44
0.03
-0.13
-0.93
-2.28
-3.99
-5.85
-7.68
-9.26
-10.42
-11.09
-11.3
-11.17
-10.9
-10.67
-10.63
-10.83
-11.29
-11.95
-12.81
-13.81
-14.93
-16.12
-17.36
-18.68
-20.11
-21.65
-23.09
-24.13
-24.36
-23.42
-21.18
-17.74
-13.47
-8.81
-4.2
0.07
3.86
7.12
9.88
12.15
13.97
15.4
16.56
17.62
18.7
19.9
21.22
22.61
23.91
24.91
25.36
25.06
23.87
21.85
19.24
16.35
13.63
11.39
9.77
8.7
7.91
7
5.56
3.35
0.29
-3.46
-7.52
-11.44
-14.76
-17.21
-18.72
-19.5
-19.95
-20.62
-22.04
-24.56
-28.3
-32.96
-37.95
-42.42
-45.49
-46.45
-44.91
-40.93
-34.93
-27.68
-20.03
-12.78
-6.43
-1.13
3.28
7.1
10.64
14.03
17.23
20.12
22.51
24.34
25.68
26.68
27.57
28.56
29.82
31.43
33.37
35.51
37.63
39.45
40.78
41.42
41.34
40.57
39.19
37.36
35.25
33.09
31.07
29.34
27.83
26.35
24.59
22.27
19.25
15.59
11.49
7.25
3.08
-0.85
-4.49
-7.88
-11.15
-14.49
-18.18
-22.47
-27.41
-32.8
-38.01
-42.18
-44.47
-44.36
-41.74
-36.95
-30.67
-23.62
-16.45
-9.65
-3.49
1.93
6.65
10.81
14.47
17.67
20.3
22.27
23.51
24.13
24.39
24.61
25.08
25.89
27.01
28.31
29.63
30.83
31.82
32.54
32.94
32.96
32.56
31.72
30.42
28.64
26.47
24.03
21.5
19.01
16.59
14.08
11.3
8.07
4.39
0.5
-3.28
-6.64
-9.49
-11.99
-14.45
-17.23
-20.64
-24.78
-29.53
-34.55
-39.3
-43.04
-45.05
-44.73
-41.84
-36.58
-29.53
-21.52
-13.46
-6.06
0.26
5.36
9.32
12.31
14.47
15.93
16.79
17.14
17.15
17.01
16.91
16.98
17.29
17.85
18.62
19.56
20.62
21.74
22.83
23.72
24.24
24.2
23.45
21.98
19.91
17.46
14.93
12.54
10.4
8.46
6.54
4.37
1.73
-1.39
-4.87
-8.43
-11.81
-14.87
-17.58
-20.15
-22.82
-25.86
-29.43
-33.55
-38.14
-42.96
-47.62
-51.54
-54.04
-54.51
-52.54
-48.13
-41.71
-34.02
-25.99
-18.44
-11.97
-6.83
-2.99
-0.18
1.91
3.53
4.86
6.02
7.07
8.09
9.24
10.61
12.31
14.37
16.74
19.3
21.98
24.58
26.93
28.84
30.16
30.81
30.81
30.31
29.47
28.47
27.41
26.32
25.16
23.87
22.43
20.82
19.13
17.36
15.48
13.37
10.9
8.02
4.8
1.38
-2.03
-5.3
-8.35
-11.2
-13.95
-16.84
-20.09
-23.99
-28.65
-33.86
-39.08
-43.43
-45.99
-46.01
-43.28
-38.08
-31.12
-23.25
-15.23
-7.57
-0.56
5.66
10.95
15.15
18.18
20.04
20.94
21.21
21.19
21.15
21.22
21.39
21.61
21.91
22.32
22.89
23.6
24.37
25.07
25.53
25.68
25.43
24.77
23.71
22.29
20.63
18.86
17.12
15.45
13.78
11.94
9.73
7.06
3.94
0.51
-3.02
-6.42
-9.51
-12.21
-14.54
-16.67
-18.87
-21.46
-24.74
-28.9
-33.86
-39.3
-44.55
-48.8
-51.3
-51.54
-49.42
-45.33
-39.93
-34.01
-28.23
-22.94
-18.2
-13.87
-9.81
-6.03
-2.71
-0.03
1.87
3.06
3.92
4.85
6.19
8.09
10.48
13.17
15.96
18.68
21.21
23.47
25.36
26.77
27.67
28.07
28.09
27.91
27.67
27.4
27.07
26.48
25.45
23.92
21.91
19.56
16.99
14.25
11.22
7.78
3.85
-0.45
-4.87
-9.16
-13.18
-16.99
-20.85
-25.09
-29.92
-35.42
-41.41
-47.47
-53.01
-57.35
-59.9
-60.25
-58.3
-54.26
-48.65
-42.14
-35.47
-29.23
-23.74
-19.05
-14.99
-11.29
-7.7
-4.06
-0.38
3.25
6.72
9.94
12.95
15.81
18.64
21.6
24.76
28.1
31.48
34.64
37.31
39.31
40.59
41.22
41.35
41.03
40.31
39.16
37.54
35.49
33.08
30.46
27.76
25.11
22.54
20.07
17.59
14.95
12.02
8.71
5.08
1.19
-2.8
-6.82
-10.84
-14.97
-19.39
-24.24
-29.57
-35.2
-40.75
-45.67
-49.27
-50.85
-49.96
-46.46
-40.51
-32.64
-23.6
-14.22
-5.2
2.89
9.84
15.57
20.09
23.5
25.83
27.17
27.7
27.75
27.62
27.68
28.05
28.72
29.55
30.35
30.99
31.44
31.7
31.76
31.6
31.13
30.23
28.79
26.7
23.94
20.67
17.18
13.77
10.68
7.95
5.45
2.97
0.27
-2.76
-6.1
-9.68
-13.4
-17.26
-21.22
-25.26
-29.3
-33.34
-37.44
-41.74
-46.46
-51.6
-56.91
-61.77
-65.31
-66.7
-65.39
-61.39
-55.16
-47.55
-39.45
-31.57
-24.29
-17.76
-11.97
-6.88
-2.53
1.07
3.91
6.15
7.98
9.71
11.62
13.88
16.57
19.58
22.8
25.99
29.02
31.77
34.14
36.04
37.36
38.06
38.12
37.59
36.6
35.29
33.83
32.34
30.91
29.58
28.32
27.02
25.54
23.72
21.44
18.65
15.33
11.56
7.4
2.99
-1.6
-6.24
-10.88
-15.56
-20.35
-25.46
-31.1
-37.44
-44.41
-51.66
-58.54
-64.19
-67.81
-68.83
-67.08
-62.78
-56.51
-48.98
-40.92
-32.99
-25.61
-19.03
-13.29
-8.21
-3.56
0.88
5.2
9.39
13.35
16.98
20.2
23.06
25.67
28.21
30.88
33.83
37.12
40.66
44.17
47.25
49.54
50.81
51.09
50.6
49.66
48.52
47.35
46.18
44.92
43.46
41.7
39.6
37.1
34.22
30.97
27.38
23.5
19.34
14.86
10.05
4.92
-0.45
-5.83
-11.06
-16.01
-20.83
-25.82
-31.4
-37.84
-45.04
-52.41
-59.04
-63.87
-66.08
-65.3
-61.68
-55.8
-48.4
-40.16
-31.62
-23.15
-15.12
-7.98
-2.18
1.87
3.97
4.32
3.49
2.38
2.02
3.35
6.96
13.02
21.19
30.73
40.64
49.85
57.46
62.88
65.79
66.19
64.28
60.45
55.24
49.28
43.14
37.33
32.19
27.74
23.8
20.07
16.23
12.11
7.67
3
-1.74
-6.37
-10.87
-15.31
-19.85
-24.65
-29.85
-35.45
-41.43
-47.66
-53.89
-59.71
-64.46
-67.43
-67.96
-65.66
-60.63
-53.41
-44.8
-35.71
-26.83
-18.61
-11.31
-5.03
0.13
4.04
6.65
8.07
8.61
8.79
9.18
10.21
12.04
14.58
17.52
20.45
23.02
24.97
26.17
26.59
26.26
25.32
23.91
22.2
20.33
18.42
16.53
14.72
13.01
11.36
9.69
7.77
5.44
2.61
-0.68
-4.23
-7.89
-11.5
-15.04
-18.59
-22.28
-26.27
-30.71
-35.78
-41.65
-48.42
-55.9
-63.56
-70.53
-75.75
-78.36
-77.84
-74.25
-68.08
-60.18
-51.42
-42.52
-33.89
-25.65
-17.75
-10.08
-2.6
4.61
11.33
17.36
22.43
26.44
29.4
31.55
33.3
35.13
37.41
40.32
43.68
47.1
50.09
52.3
53.67
54.29
54.37
53.97
53.08
51.65
49.7
47.43
45.12
43.04
41.31
39.91
38.58
37.02
34.95
32.24
28.87
24.88
20.39
15.5
10.33
4.93
-0.66
-6.51
-12.78
-19.63
-27.21
-35.44
-43.96
-51.99
-58.61
-62.86
-64.08
-62.05
-57.02
-49.69
-40.96
-31.83
-23.09
-15.31
-8.67
-3.17
1.32
5.01
7.98
10.3
12.06
13.42
14.64
16.05
17.86
20.17
22.93
25.99
29.17
32.26
35.05
37.35
38.94
39.69
39.51
38.42
36.47
33.81
30.68
27.32
24.04
21.02
18.31
15.72
12.99
9.82
6.13
2.05
-2.21
-6.43
-10.57
-14.75
-19.18
-24.06
-29.54
-35.67
-42.4
-49.49
-56.43
-62.44
-66.55
-67.93
-66.15
-61.43
-54.52
-46.43
-38.09
-30.1
-22.64
-15.62
-8.94
-2.59
3.23
8.29
12.42
15.63
18.21
20.54
23.04
25.92
29.18
32.69
36.23
39.64
42.84
45.82
48.47
50.59
51.91
52.25
51.59
50.11
48.15
46.04
43.95
41.87
39.67
37.25
34.63
31.93
29.32
26.81
24.29
21.52
18.25
14.33
9.79
4.73
-0.64
-6.13
-11.63
-17.13
-22.72
-28.59
-34.97
-42
-49.61
-57.4
-64.62
-70.36
-73.75
-74.26
-71.77
-66.65
-59.62
-51.51
-43.06
-34.81
-27.04
-19.79
-12.98
-6.48
-0.17
5.99
11.93
17.56
22.8
27.54
31.8
35.54
38.79
41.63
44.13
46.42
48.6
50.76
52.81
54.64
56.06
56.99
57.42
57.5
57.41
57.26
57.11
56.82
56.25
55.25
53.73
51.68
49.14
46.2
42.98
39.6
36.16
32.77
29.38
25.92
22.23
18.18
13.73
8.98
4.11
-0.67
-5.22
-9.56
-13.84
-18.3
-23.18
-28.61
-34.55
-40.73
-46.67
-51.67
-55.01
-56.06
-54.46
-50.25
-43.85
-36.04
-27.76
-19.9
-13.05
-7.49
-3.17
0.14
2.69
4.64
6.01
6.81
7.06
6.85
6.4
5.94
5.75
5.92
6.47
7.31
8.29
9.29
10.24
11.12
11.85
12.42
12.7
12.65
12.31
11.79
11.29
10.92
10.7
10.45
10.01
9.22
8.12
6.83
5.51
4.24
2.91
1.3
-0.85
-3.64
-7.06
-10.92
-14.9
-18.8
-22.49
-26.08
-29.73
-33.74
-38.3
-43.48
-49.09
-54.67
-59.59
-63.13
-64.73
-64.1
-61.34
-56.96
-51.66
-46.14
-40.88
-36.12
-31.78
-27.7
-23.71
-19.75
-15.88
-12.18
-8.7
-5.39
-2.14
1.18
4.68
8.37
12.2
16.01
19.68
23.08
26.11
28.65
30.59
31.82
32.24
31.86
30.77
29.22
27.53
26.05
25.04
24.56
24.44
24.41
24.18
23.56
22.55
21.27
19.85
18.35
16.65
14.64
12.17
9.22
5.87
2.18
-1.8
-6
-10.27
-14.48
-18.49
-22.33
-26.19
-30.37
-35.1
-40.32
-45.65
-50.38
-53.82
-55.43
-55.07
-52.98
-49.63
-45.59
-41.29
-36.97
-32.7
-28.47
-24.22
-19.95
-15.68
-11.47
-7.42
-3.53
0.19
3.8
7.33
10.77
14.08
17.16
19.97
22.54
25.04
27.68
30.56
33.61
36.53
38.9
40.37
40.84
40.45
39.56
38.57
37.77
37.3
37.11
37.13
37.22
37.32
37.3
37.03
36.34
35.11
33.31
30.98
28.18
24.94
21.25
17.04
12.33
7.22
1.97
-3.13
-7.84
-12.07
-15.91
-19.58
-23.34
-27.38
-31.75
-36.29
-40.57
-44.06
-46.17
-46.44
-44.72
-41.14
-36.12
-30.28
-24.22
-18.45
-13.26
-8.76
-4.96
-1.8
0.74
2.78
4.4
5.76
7.02
8.29
9.64
10.99
12.23
13.19
13.8
14.11
14.19
14.16
14.05
13.79
13.35
12.71
11.97
11.29
10.77
10.42
10.09
9.59
8.76
7.58
6.16
4.71
3.34
2.09
0.82
-0.6
-2.31
-4.43
-6.96
-9.87
-13.09
-16.46
-19.86
-23.13
-26.21
-29.12
-32
-35.01
-38.34
-42.01
-45.8
-49.3
-51.93
-53.18
-52.68
-50.42
-46.69
-42.07
-37.16
-32.5
-28.4
-24.92
-21.97
-19.36
-16.97
-14.74
-12.69
-10.83
-9.07
-7.26
-5.18
-2.66
0.38
3.84
7.48
11.07
14.42
17.39
19.97
22.15
23.93
25.3
26.2
26.65
26.73
26.61
26.46
26.33
26.21
25.96
25.4
24.38
22.94
21.22
19.44
17.73
16.05
14.22
12.02
9.29
6.09
2.56
-1.08
-4.8
-8.61
-12.64
-16.99
-21.73
-26.87
-32.41
-38.35
-44.5
-50.54
-55.84
-59.72
-61.6
-61.24
-58.81
-54.8
-49.87
-44.62
-39.47
-34.67
-30.29
-26.25
-22.44
-18.7
-14.9
-10.98
-6.96
-2.94
1.05
4.99
8.88
12.76
16.62
20.43
24.13
27.7
31.11
34.33
37.22
39.58
41.25
42.15
42.38
42.16
41.74
41.24
40.68
39.94
38.87
37.41
35.61
33.58
31.38
29.02
26.38
23.33
19.81
15.83
11.5
6.94
2.27
-2.45
-7.12
-11.66
-16.06
-20.32
-24.55
-28.94
-33.7
-38.76
-43.87
-48.42
-51.67
-52.96
-51.91
-48.52
-43.16
-36.47
-29.09
-21.56
-14.16
-7.08
-0.47
5.42
10.25
13.72
15.74
16.47
16.35
15.95
15.74
15.96
16.6
17.53
18.66
19.99
21.61
23.58
25.78
27.94
29.65
30.64
30.81
30.32
29.47
28.57
27.79
27.15
26.53
25.83
24.96
23.86
22.49
20.75
18.54
15.79
12.54
8.89
5.02
1.07
-2.96
-7.12
-11.54
-16.26
-21.25
-26.39
-31.59
-36.8
-42.13
-47.76
-53.82
-60.31
-66.91
-73.02
-77.8
-80.51
-80.58
-77.89
-72.68
-65.55
-57.26
-48.62
-40.26
-32.62
-25.94
-20.23
-15.42
-11.32
-7.8
-4.69
-1.87
0.82
3.53
6.43
9.6
12.98
16.41
19.72
22.83
25.76
28.62
31.43
34.09
36.37
37.94
38.59
38.38
37.55
36.49
35.54
34.85
34.34
33.86
33.19
32.25
31.14
30.01
28.99
28.06
26.97
25.39
22.95
19.51
15.18
10.22
4.96
-0.42
-5.92
-11.66
-17.82
-24.49
-31.71
-39.4
-47.45
-55.67
-63.59
-70.59
-75.83
-78.55
-78.22
-74.77
-68.64
-60.59
-51.57
-42.35
-33.45
-25.02
-17.02
-9.29
-1.76
5.53
12.43
18.73
24.27
29.02
33.09
36.7
40.08
43.47
46.99
50.64
54.33
57.89
61.07
63.62
65.29
65.87
65.29
63.66
61.26
58.49
55.7
53.12
50.72
48.33
45.71
42.72
39.27
35.46
31.36
27.02
22.43
17.5
12.22
6.64
0.93
-4.71
-10.05
-14.96
-19.44
-23.63
-27.86
-32.45
-37.71
-43.84
-50.71
-57.82
-64.34
-69.16
-71.17
-69.62
-64.26
-55.49
-44.27
-31.79
-19.15
-7.24
3.37
12.53
20.25
26.65
31.82
35.78
38.55
40.2
40.9
40.96
40.81
40.84
41.31
42.29
43.62
45.03
46.24
46.99
47.08
46.36
44.73
42.15
38.75
34.71
30.25
25.61
20.97
16.44
12.17
8.21
4.58
1.23
-2.03
-5.44
-9.23
-13.47
-18.05
-22.73
-27.23
-31.37
-35.13
-38.67
-42.29
-46.3
-50.99
-56.49
-62.73
-69.28
-75.4
-80.09
-82.29
-81.21
-76.5
-68.42
-57.76
-45.65
-33.32
-21.77
-11.62
-3.09
3.94
9.73
14.48
18.27
21.13
23.13
24.5
25.59
26.77
28.28
30.14
32.22
34.39
36.57
38.8
41.11
43.37
45.34
46.72
47.3
47.06
46.13
44.73
43.05
41.18
39.14
36.95
34.64
32.27
29.82
27.21
24.29
20.95
17.18
13.11
8.88
4.58
0.19
-4.38
-9.19
-14.23
-19.36
-24.43
-29.38
-34.39
-39.87
-46.28
-53.86
-62.4
-71.12
-78.79
-84.07
-85.86
-83.64
-77.61
-68.54
-57.58
-45.93
-34.57
-24.23
-15.28
-7.83
-1.78
3.13
7.2
10.72
13.9
16.93
19.9
22.94
26.16
29.59
33.25
37.06
40.92
44.71
48.29
51.5
54.19
56.18
57.32
57.58
57.02
55.78
53.99
51.81
49.34
46.65
43.82
40.88
37.82
34.59
31.09
27.35
23.45
19.52
15.67
11.86
7.94
3.71
-0.98
-6.09
-11.39
-16.52
-21.24
-25.45
-29.38
-33.43
-37.99
-43.34
-49.36
-55.58
-61.19
-65.18
-66.63
-64.89
-59.86
-51.85
-41.65
-30.26
-18.65
-7.63
2.26
10.81
18.03
23.97
28.76
32.44
35
36.49
36.98
36.73
36.05
35.33
34.86
34.85
35.31
36.13
37.05
37.75
37.94
37.41
36.12
34.09
31.47
28.42
25.08
21.62
18.22
15.08
12.34
10.04
8.07
6.26
4.42
2.45
0.34
-1.92
-4.39
-7.18
-10.45
-14.25
-18.56
-23.16
-27.87
-32.46
-36.86
-41.13
-45.48
-50.18
-55.42
-61.25
-67.34
-73.02
-77.3
-79.21
-78.06
-73.65
-66.34
-56.92
-46.42
-35.74
-25.6
-16.4
-8.33
-1.44
4.28
8.85
12.31
14.74
16.39
17.59
18.75
20.19
22.04
24.31
26.83
29.46
32.09
34.71
37.26
39.66
41.67
43
43.47
43.08
42.03
40.64
39.23
37.96
36.81
35.58
34.07
32.2
30.01
27.64
25.24
22.87
20.39
17.62
14.31
10.3
5.58
0.2
-5.65
-11.72
-17.76
-23.53
-28.85
-33.75
-38.49
-43.47
-49.12
-55.69
-63.01
-70.43
-76.89
-81.18
-82.28
-79.76
-73.81
-65.27
-55.33
-45.18
-35.72
-27.42
-20.29
-14.14
-8.72
-3.83
0.61
4.66
8.43
12.07
15.7
19.42
23.17
26.84
30.28
33.39
36.15
38.62
40.91
43.05
45.02
46.71
47.91
48.47
48.33
47.61
46.55
45.46
44.52
43.75
42.91
41.69
39.79
37.17
34.01
30.62
27.36
24.38
21.71
19.15
16.47
13.44
9.92
5.9
1.45
-3.28
-8.17
-13.05
-17.89
-22.67
-27.5
-32.61
-38.22
-44.49
-51.29
-58.15
-64.16
-68.29
-69.57
-67.49
-62.13
-54.1
-44.31
-33.69
-23.09
-13.05
-3.98
3.93
10.56
15.91
20.11
23.37
25.94
27.96
29.55
30.78
31.77
32.64
33.54
34.61
35.9
37.39
38.86
40.08
40.75
40.66
39.7
37.9
35.38
32.35
29.07
25.72
22.47
19.44
16.63
14.07
11.72
9.54
7.41
5.24
2.93
0.36
-2.56
-5.84
-9.42
-13.17
-16.95
-20.63
-24.16
-27.61
-31.1
-34.81
-38.91
-43.46
-48.41
-53.53
-58.33
-62.2
-64.43
-64.43
-61.85
-56.76
-49.61
-41.18
-32.35
-23.91
-16.38
-9.99
-4.73
-0.4
3.12
5.9
7.93
9.26
10
10.42
10.88
11.66
12.95
14.73
16.89
19.24
21.61
23.88
25.94
27.77
29.31
30.54
31.41
31.91
32.07
31.89
31.44
30.74
29.86
28.82
27.6
26.16
24.46
22.51
20.28
17.83
15.18
12.29
9.08
5.44
1.3
-3.31
-8.2
-13.21
-18.14
-22.97
-27.77
-32.72
-38.04
-43.85
-50.07
-56.38
-62.22
-66.79
-69.31
-69.21
-66.32
-60.98
-53.87
-45.85
-37.75
-30.1
-23.23
-17.12
-11.66
-6.71
-2.14
2.04
5.77
8.99
11.71
14.11
16.47
19.03
21.92
25.06
28.23
31.18
33.75
35.92
37.74
39.23
40.37
41.07
41.25
40.89
40.05
38.83
37.46
36.11
34.99
34.21
33.76
33.51
33.23
32.67
31.68
30.21
28.29
26.07
23.64
21.05
18.22
14.99
11.14
6.54
1.19
-4.78
-11.09
-17.43
-23.51
-29.19
-34.49
-39.61
-44.84
-50.39
-56.34
-62.42
-68.05
-72.43
-74.7
-74.27
-71.03
-65.38
-58.09
-50.11
-42.16
-34.73
-28.01
-22.02
-16.73
-12.11
-8.11
-4.59
-1.34
1.89
5.26
8.78
12.33
15.76
18.96
21.98
25.01
28.22
31.68
35.23
38.52
41.23
43.08
43.99
44.07
43.49
42.47
41.2
39.82
38.46
37.23
36.17
35.14
33.97
32.41
30.32
27.75
24.84
21.83
18.83
15.81
12.59
8.88
4.47
-0.73
-6.52
-12.57
-18.48
-23.99
-29.05
-33.84
-38.72
-43.97
-49.67
-55.51
-60.84
-64.81
-66.64
-65.8
-62.11
-55.79
-47.38
-37.61
-27.26
-17.07
-7.59
0.86
8.14
14.25
19.26
23.19
26.07
27.98
29.05
29.53
29.7
29.82
30.11
30.66
31.57
32.81
34.29
35.8
37.02
37.61
37.31
36.05
33.9
31.15
28.07
24.87
21.65
18.38
15.1
11.88
8.94
6.43
4.42
2.79
1.24
-0.55
-2.8
-5.52
-8.47
-11.39
-14.14
-16.76
-19.51
-22.68
-26.49
-31.03
-36.19
-41.65
-46.96
-51.52
-54.64
-55.77
-54.53
-50.9
-45.22
-38.07
-30.14
-22.05
-14.26
-7.1
-0.83
4.36
8.36
11.18
12.92
13.82
14.14
14.11
13.89
13.61
13.35
13.24
13.4
13.97
15.01
16.52
18.37
20.28
21.9
22.88
22.97
22.07
20.42
18.36
16.3
14.54
13.22
12.26
11.5
10.78
9.93
8.88
7.59
6.02
4.1
1.82
-0.88
-3.96
-7.4
-11.12
-15
-18.95
-22.87
-26.79
-30.84
-35.24
-40.25
-46.06
-52.59
-59.35
-65.57
-70.25
-72.53
-71.91
-68.44
-62.69
-55.53
-47.88
-40.43
-33.54
-27.32
-21.68
-16.53
-11.82
-7.53
-3.61
0.01
3.48
6.85
10.16
13.38
16.44
19.39
22.34
25.42
28.65
31.93
34.97
37.51
39.36
40.48
40.95
40.92
40.47
39.63
38.45
37.02
35.52
34.14
33.04
32.25
31.75
31.39
31.01
30.48
29.66
28.4
26.57
24.02
20.68
16.54
11.72
6.44
0.93
-4.58
-9.9
-14.95
-19.76
-24.48
-29.33
-34.59
-40.39
-46.67
-52.97
-58.55
-62.52
-64.11
-62.92
-59.03
-53
-45.57
-37.6
-29.72
-22.39
-15.78
-9.98
-4.97
-0.66
3.07
6.38
9.4
12.25
14.94
17.48
19.94
22.42
25.18
28.42
32.24
36.52
40.95
45.08
48.46
50.82
51.97
51.95
50.83
48.75
45.87
42.36
38.47
34.45
30.6
27.03
23.75
20.63
17.56
14.43
11.32
8.37
5.73
3.44
1.28
-0.99
-3.66
-6.83
-10.41
-14.16
-17.85
-21.38
-24.79
-28.31
-32.15
-36.44
-41.14
-45.89
-50.12
-53.03
-53.86
-51.98
-47.22
-39.84
-30.52
-20.2
-9.73
0.23
9.22
16.99
23.35
28.13
31.2
32.62
32.66
31.77
30.49
29.25
28.31
27.75
27.53
27.61
27.95
28.46
29.05
29.46
29.42
28.71
27.28
25.24
22.82
20.3
17.9
15.75
13.83
12.06
10.32
8.52
6.62
4.64
2.64
0.63
-1.47
-3.82
-6.61
-9.96
-13.87
-18.2
-22.77
-27.33
-31.76
-35.95
-39.91
-43.69
-47.51
-51.69
-56.52
-62.11
-68.15
-73.92
-78.37
-80.45
-79.51
-75.48
-68.86
-60.47
-51.2
-41.69
-32.38
-23.48
-15.22
-7.83
-1.54
3.53
7.48
10.57
13.18
15.65
18.18
20.8
23.46
26.07
28.56
30.92
33.12
35.22
37.24
39.17
40.92
42.34
43.22
43.37
42.75
41.46
39.77
38
36.37
34.99
33.77
32.53
31.16
29.6
27.9
26.18
24.49
22.76
20.83
18.41
15.25
11.28
6.55
1.29
-4.22
-9.79
-15.32
-20.77
-26.28
-31.98
-38
-44.36
-50.93
-57.23
-62.49
-65.83
-66.44
-63.82
-58.04
-49.6
-39.41
-28.4
-17.52
-7.48
1.24
8.36
13.86
17.87
20.62
22.34
23.35
23.89
24.28
24.84
25.91
27.67
30.2
33.37
36.95
40.77
44.67
48.55
52.22
55.31
57.24
57.45
55.5
51.29
45.07
37.34
28.67
19.61
10.63
2.2
-5.25
-11.35
-15.89
-18.9
-20.66
-21.53
-21.89
-22.03
-22.15
-22.45
-23.07
-24.08
-25.5
-27.22
-29.16
-31.37
-34.03
-37.34
-41.33
-45.66
-49.61
-52.15
-52.32
-49.5
-43.58
-35.03
-24.66
-13.44
-2.32
7.95
16.86
24.15
29.72
33.59
35.86
36.66
36.18
34.72
32.78
30.86
29.45
28.82
28.95
29.55
30.21
30.52
30.21
29.25
27.7
25.75
23.58
21.27
18.87
16.29
13.44
10.2
6.59
2.75
-1.02
-4.33
-6.94
-8.82
-10.19
-11.46
-13.1
-15.39
-18.4
-22.08
-26.26
-30.83
-35.71
-40.84
-46.22
-51.88
-57.9
-64.39
-71.41
-78.63
-85.37
-90.55
-92.99
-91.81
-86.79
-78.43
-67.76
-56.05
-44.35
-33.42
-23.66
-15.23
-8.16
-2.39
2.29
6.27
10.08
14.22
18.9
23.9
28.74
32.79
35.63
37.25
38.01
38.45
39.14
40.29
41.8
43.23
43.91
43.18
40.69
36.62
31.81
27.61
25.38
25.97
29.37
34.8
41.15
47.48
53.16
57.88
61.34
63.04
62.34
58.81
52.54
44.25
35.07
26.05
17.8
10.36
3.32
-3.83
-11.44
-19.6
-28.19
-37.08
-46.18
-55.35
-64.26
-72.24
-78.26
-81.29
-80.67
-76.42
-69.26
-60.35
-50.8
-41.36
-32.36
-23.8
-15.61
-7.83
-0.62
5.87
11.63
16.83
21.7
26.41
31.02
35.47
39.7
43.73
47.68
51.7
55.9
60.2
64.4
68.15
71.05
72.81
73.28
72.51
70.72
68.18
65.13
61.79
58.25
54.53
50.67
46.71
42.63
38.4
34
29.36
24.52
19.61
14.76
10.05
5.37
0.51
-4.77
-10.54
-16.68
-22.86
-28.67
-33.85
-38.35
-42.41
-46.45
-50.86
-55.96
-61.73
-67.8
-73.43
-77.71
-79.65
-78.51
-73.94
-66.13
-55.74
-43.74
-31.19
-18.98
-7.77
2.1
10.48
17.37
22.79
26.8
29.47
30.98
31.51
31.35
30.78
30.07
29.45
29.18
29.36
30.06
31.15
32.32
33.17
33.31
32.46
30.52
27.74
24.49
21.26
18.35
15.85
13.6
11.32
8.74
5.78
2.6
-0.53
-3.35
-5.82
-8.09
-10.47
-13.24
-16.58
-20.48
-24.74
-29.12
-33.38
-37.45
-41.4
-45.53
-50.2
-55.7
-62.1
-69.07
-75.85
-81.33
-84.4
-84.19
-80.41
-73.39
-63.97
-53.27
-42.27
-31.77
-22.19
-13.71
-6.38
-0.23
4.72
8.54
11.36
13.46
15.15
16.76
18.48
20.38
22.43
24.59
26.86
29.25
31.77
34.26
36.44
37.98
38.59
38.15
36.8
34.86
32.67
30.6
28.82
27.41
26.3
25.36
24.36
23.1
21.53
19.7
17.78
15.9
14.13
12.35
10.28
7.63
4.21
-0.08
-5.19
-10.93
-17.11
-23.49
-29.98
-36.6
-43.49
-50.87
-58.85
-67.26
-75.46
-82.45
-87.06
-88.4
-86.07
-80.33
-71.96
-61.95
-51.28
-40.64
-30.45
-20.92
-12.11
-4.05
3.34
10.16
16.58
22.71
28.62
34.27
39.57
44.47
48.96
53.16
57.17
61.14
65.11
69.01
72.62
75.7
78.02
79.43
79.84
79.24
77.73
75.48
72.72
69.64
66.37
62.92
59.27
55.29
50.96
46.35
41.59
36.84
32.15
27.45
22.57
17.31
11.6
5.44
-1.05
-7.66
-14.22
-20.58
-26.69
-32.58
-38.37
-44.26
-50.49
-57.21
-64.28
-71.21
-77.11
-80.91
-81.62
-78.66
-72.03
-62.37
-50.8
-38.56
-26.75
-16.06
-6.8
0.99
7.42
12.54
16.34
18.81
20.03
20.23
19.79
19.19
18.82
18.96
19.66
20.84
22.3
23.79
25.09
26.02
26.51
26.55
26.2
25.55
24.66
23.55
22.17
20.52
18.64
16.67
14.72
12.9
11.17
9.36
7.27
4.69
1.51
-2.25
-6.46
-10.96
-15.6
-20.27
-24.98
-29.81
-34.98
-40.71
-47.19
-54.43
-62.21
-69.93
-76.77
-81.76
-84.03
-83.03
-78.71
-71.52
-62.38
-52.4
-42.6
-33.73
-26.14
-19.76
-14.3
-9.33
-4.53
0.25
4.99
9.58
13.91
17.96
21.85
25.74
29.78
34.04
38.44
42.84
46.96
50.48
53.15
54.75
55.16
54.42
52.7
50.3
47.6
44.94
42.57
40.57
38.84
37.19
35.43
33.46
31.27
28.97
26.63
24.23
21.61
18.57
14.87
10.41
5.24
-0.48
-6.49
-12.54
-18.51
-24.41
-30.43
-36.86
-43.92
-51.68
-59.88
-67.85
-74.69
-79.42
-81.3
-80
-75.7
-68.99
-60.74
-51.8
-42.88
-34.37
-26.41
-18.91
-11.7
-4.66
2.24
8.97
15.44
21.64
27.61
33.5
39.48
45.63
51.86
57.89
63.38
68.08
71.86
74.77
76.92
78.34
78.9
78.38
76.63
73.69
69.93
65.82
61.79
58.05
54.51
50.93
47.05
42.79
38.19
33.44
28.78
24.41
20.44
16.85
13.49
10.05
6.23
1.77
-3.33
-8.87
-14.47
-19.76
-24.58
-28.97
-33.23
-37.76
-42.95
-48.97
-55.73
-62.74
-69.16
-73.95
-76.06
-74.76
-69.85
-61.78
-51.53
-40.36
-29.49
-19.76
-11.6
-5.04
0.02
3.78
6.33
7.79
8.31
8.15
7.68
7.26
7.15
7.49
8.22
9.23
10.42
11.72
13.18
14.84
16.72
18.72
20.61
22.11
22.94
23
22.43
21.54
20.73
20.28
20.27
20.53
20.79
20.8
20.43
19.71
18.69
17.44
15.94
14.13
11.92
9.25
6.11
2.52
-1.45
-5.75
-10.32
-15.18
-20.32
-25.78
-31.56
-37.65
-44
-50.56
-57.2
-63.62
-69.37
-73.77
-76.07
-75.76
-72.7
-67.33
-60.51
-53.25
-46.33
-40.15
-34.61
-29.36
-24.08
-18.56
-12.92
-7.36
-2.11
2.76
7.26
11.52
15.6
19.49
23.19
26.73
30.16
33.59
36.99
40.2
42.98
45.1
46.4
46.94
46.88
46.36
45.51
44.35
42.92
41.34
39.88
38.74
38.06
37.76
37.58
37.17
36.26
34.76
32.76
30.54
28.27
26.04
23.77
21.29
18.44
15.11
11.3
7.01
2.34
-2.63
-7.73
-12.77
-17.66
-22.41
-27.22
-32.38
-38.08
-44.19
-50.26
-55.42
-58.78
-59.7
-57.94
-53.79
-47.88
-40.93
-33.56
-26.2
-19.1
-12.42
-6.35
-1.09
3.19
6.41
8.61
9.96
10.7
11.11
11.44
11.95
12.8
14.06
15.68
17.56
19.51
21.38
23.02
24.33
25.22
25.67
25.62
25.11
24.23
23.14
22.02
21
20.12
19.32
18.47
17.49
16.35
15.11
13.87
12.68
11.46
10.02
8.12
5.52
2.16
-1.86
-6.24
-10.63
-14.72
-18.33
-21.54
-24.59
-27.85
-31.68
-36.27
-41.6
-47.36
-53.03
-57.93
-61.46
-63.14
-62.82
-60.63
-56.95
-52.25
-46.95
-41.42
-35.94
-30.7
-25.87
-21.55
-17.76
-14.42
-11.34
-8.31
-5.21
-2.01
1.18
4.28
7.29
10.31
13.45
16.85
20.47
24.14
27.55
30.43
32.63
34.14
35.06
35.46
35.42
34.99
34.28
33.44
32.68
32.15
31.87
31.69
31.38
30.71
29.53
27.84
25.79
23.52
21.12
18.64
15.99
13.08
9.79
6.03
1.79
-2.88
-7.87
-13.09
-18.36
-23.54
-28.53
-33.34
-38.17
-43.32
-49.11
-55.7
-62.86
-69.91
-75.92
-79.85
-80.95
-78.95
-74.14
-67.21
-59.05
-50.52
-42.25
-34.71
-28.12
-22.56
-18.02
-14.32
-11.24
-8.53
-6
-3.54
-1.16
1.08
3.17
5.13
7.07
9.04
11
12.79
14.17
14.94
15.08
14.7
13.89
12.64
10.76
8.03
4.49
0.57
-3.02
-5.64
-6.99
-7.26
-6.98
-6.62
-6.34
-5.85
-4.71
-2.76
-0.28
2.03
3.38
3.36
2.11
0.32
-1.03
-1.11
0.5
3.66
7.78
12.09
15.97
19.02
21.01
21.71
20.79
17.8
12.4
4.63
-4.86
-14.89
-23.97
-30.8
-34.42
-34.45
-30.84
-23.97
-14.49
-3.4
8.13
19
28.44
36.24
42.73
48.62
54.71
61.62
69.62
78.57
87.97
97.18
105.65
113.31
120.68
128.81
138.7
150.74
164.2
177.29
187.66
193.16
192.31
184.66
170.67
151.44
128.55
103.85
79.34
56.64
36.63
19.2
3.34
-12.3
-28.73
-46.01
-63.13
-78.29
-89.7
-96.37
-98.48
-97.26
-94.26
-90.7
-86.87
-82.26
-76
-67.69
-57.82
-47.67
-38.76
-32.04
-27.6
-24.73
-22.48
-20.26
-18.04
-16.23
-15.24
-15.14
-15.47
-15.38
-14.04
-11.07
-6.74
-1.84
2.61
5.81
7.45
7.73
7.25
6.6
6.05
5.53
4.69
3.2
0.97
-1.79
-4.63
-7.08
-8.8
-9.72
-10
-9.98
-10.06
-10.54
-11.57
-13.11
-14.92
-16.73
-18.28
-19.48
-20.41
-21.3
-22.37
-23.75
-25.4
-27.12
-28.7
-30
-31
-31.8
-32.55
-33.47
-34.75
-36.56
-38.96
-41.93
-45.28
-48.75
-52.08
-55.08
-57.65
-59.81
-61.73
-63.69
-65.94
-68.64
-71.63
-74.38
-76.03
-75.69
-72.73
-67.12
-59.35
-50.3
-40.86
-31.76
-23.46
-16.18
-10.06
-5.12
-1.33
1.5
3.63
5.36
6.9
8.34
9.66
10.85
12
13.21
14.66
16.41
18.42
20.55
22.65
24.52
25.97
26.84
26.95
26.26
24.83
22.86
20.59
18.21
15.83
13.49
11.21
9.01
7.01
5.25
3.65
2
-0.01
-2.63
-5.98
-9.97
-14.44
-19.11
-23.73
-28.11
-32.18
-36.02
-39.84
-43.97
-48.65
-53.93
-59.55
-64.89
-69.09
-71.24
-70.66
-67.03
-60.57
-51.94
-42.15
-32.24
-23.03
-14.97
-8.07
-2.16
2.99
7.5
11.27
14.21
16.3
17.79
18.98
20.21
21.67
23.39
25.34
27.51
29.95
32.66
35.53
38.23
40.28
41.24
40.87
39.21
36.57
33.35
29.91
26.43
23.07
19.93
17.12
14.7
12.63
10.73
8.7
6.29
3.29
-0.29
-4.35
-8.75
-13.38
-18.2
-23.2
-28.3
-33.46
-38.69
-44.14
-50.11
-56.86
-64.4
-72.24
-79.4
-84.54
-86.36
-84.01
-77.47
-67.49
-55.4
-42.69
-30.63
-19.94
-10.84
-3.12
3.63
9.73
15.35
20.43
24.83
28.37
31.08
33.14
34.88
36.63
38.58
40.79
43.12
45.39
47.36
48.89
49.84
50.13
49.69
48.51
46.65
44.16
41.21
37.95
34.53
31.1
27.87
24.9
22.23
19.73
17.12
14.12
10.46
6.04
0.92
-4.73
-10.71
-16.86
-23.14
-29.6
-36.38
-43.61
-51.37
-59.53
-67.65
-74.89
-80.16
-82.35
-80.66
-74.84
-65.33
-53.15
-39.54
-25.77
-12.8
-1.21
8.71
16.85
23.21
27.81
30.71
32.05
32.1
31.31
30.2
29.33
29.16
29.95
31.72
34.32
37.42
40.6
43.39
45.37
46.24
45.9
44.42
42.02
38.97
35.51
31.8
27.94
24.06
20.24
16.51
12.73
8.71
4.2
-0.84
-6.33
-12.02
-17.8
-23.74
-30.09
-37.01
-44.24
-50.95
-55.88
-57.78
-55.82
-49.88
-40.54
-28.83
-15.86
-2.67
9.95
21.44
31.45
39.77
46.31
51.15
54.45
56.49
57.65
58.34
58.92
59.66
60.65
61.83
63.07
64.24
65.21
65.85
65.98
65.4
63.96
61.54
58.2
53.97
48.92
43.11
36.6
29.51
22.02
14.36
6.78
-0.49
-7.29
-13.58
-19.42
-25.05
-30.86
-37.25
-44.49
-52.45
-60.49
-67.54
-72.29
-73.6
-70.9
-64.26
-54.46
-42.69
-30.25
-18.2
-7.26
2.25
10.27
16.79
21.85
25.48
27.78
29.02
29.62
30.09
30.92
32.42
34.71
37.66
41
44.41
47.51
50
51.63
52.22
51.76
50.32
48.05
45.1
41.6
37.66
33.37
28.9
24.42
20.16
16.23
12.64
9.23
5.69
1.71
-2.99
-8.43
-14.54
-20.98
-27.43
-33.58
-39.35
-44.92
-50.68
-57.11
-64.48
-72.8
-81.47
-89.51
-95.58
-98.4
-97.03
-91.18
-81.25
-68.25
-53.57
-38.59
-24.42
-11.69
-0.58
9.06
17.48
24.86
31.23
36.47
40.6
43.72
46.1
48.14
50.13
52.2
54.37
56.53
58.62
60.69
62.79
64.94
67
68.66
69.53
69.3
67.87
65.38
62.17
58.73
55.45
52.55
50.03
47.58
44.82
41.45
37.38
32.81
28.1
23.6
19.46
15.54
11.49
6.89
1.51
-4.61
-11.23
-18.04
-24.79
-31.37
-37.77
-44.07
-50.38
-56.85
-63.74
-71.22
-79.25
-87.27
-94.21
-98.65
-99.23
-95.22
-86.72
-74.75
-60.78
-46.34
-32.61
-20.23
-9.38
0.01
8.03
14.75
20.18
24.36
27.45
29.74
31.64
33.56
35.8
38.44
41.42
44.54
47.54
50.26
52.67
54.79
56.64
58.11
58.95
58.89
57.78
55.74
53.14
50.42
47.96
45.91
44.16
42.46
40.52
38.13
35.19
31.74
27.9
23.86
19.86
16.09
12.6
9.22
5.64
1.54
-3.23
-8.59
-14.26
-19.88
-25.23
-30.23
-35
-39.81
-45
-50.8
-57.2
-63.84
-69.97
-74.55
-76.43
-74.78
-69.3
-60.31
-48.71
-35.63
-22.27
-9.6
1.64
11.09
18.55
24.07
27.8
29.97
30.85
30.79
30.2
29.51
29.08
29.19
29.91
31.2
32.89
34.82
36.81
38.66
40.11
40.86
40.7
39.5
37.4
34.62
31.42
27.96
24.35
20.61
16.8
13.08
9.53
6.24
3.19
0.33
-2.42
-5.15
-7.98
-11.06
-14.55
-18.56
-23.09
-27.94
-32.82
-37.39
-41.48
-45.15
-48.69
-52.51
-57.02
-62.39
-68.4
-74.32
-79.01
-81.21
-79.96
-74.9
-66.4
-55.44
-43.34
-31.31
-20.31
-10.83
-3.05
3.07
7.68
10.88
12.85
13.79
14.01
13.96
14.1
14.87
16.43
18.74
21.48
24.34
27.04
29.43
31.41
32.95
33.93
34.21
33.68
32.35
30.42
28.21
26.06
24.21
22.74
21.55
20.39
19.01
17.21
14.98
12.46
9.89
7.39
4.99
2.51
-0.28
-3.55
-7.36
-11.59
-16.11
-20.74
-25.34
-29.8
-34.08
-38.26
-42.52
-47.13
-52.21
-57.57
-62.51
-65.98
-66.89
-64.48
-58.7
-50.15
-39.87
-29.02
-18.57
-9.15
-1.08
5.54
10.71
14.48
16.95
18.21
18.48
18.03
17.24
16.55
16.37
17.01
18.52
20.77
23.42
26.11
28.53
30.48
31.84
32.54
32.53
31.75
30.26
28.13
25.49
22.58
19.57
16.58
13.65
10.72
7.71
4.63
1.61
-1.15
-3.46
-5.27
-6.78
-8.31
-10.17
-12.54
-15.33
-18.21
-20.85
-23.07
-24.96
-26.9
-29.38
-32.84
-37.34
-42.54
-47.62
-51.5
-53.06
-51.56
-46.86
-39.42
-30.29
-20.63
-11.46
-3.48
3.01
7.99
11.57
13.84
14.95
15.06
14.37
13.19
11.79
10.45
9.42
8.9
9.01
9.75
11.08
12.81
14.67
16.38
17.6
18.09
17.69
16.36
14.25
11.59
8.69
5.84
3.29
1.14
-0.58
-2.04
-3.48
-5.19
-7.39
-10.12
-13.22
-16.33
-19.1
-21.23
-22.69
-23.68
-24.66
-26.14
-28.58
-32.15
-36.62
-41.34
-45.34
-47.54
-47.08
-43.46
-36.82
-27.83
-17.5
-7
2.74
11.1
17.81
22.86
26.4
28.53
29.39
29.13
28
26.43
24.86
23.77
23.44
23.95
25.15
26.76
28.46
29.96
31.06
31.64
31.61
30.92
29.53
27.4
24.59
21.23
17.5
13.69
10.07
6.79
3.87
1.14
-1.7
-4.93
-8.63
-12.7
-16.76
-20.45
-23.55
-26.09
-28.35
-30.74
-33.62
-37.31
-41.92
-47.33
-53.08
-58.46
-62.45
-64.02
-62.41
-57.37
-49.32
-39.19
-28.18
-17.36
-7.58
0.77
7.51
12.71
16.53
19.15
20.83
21.8
22.36
22.73
23.13
23.72
24.64
25.95
27.61
29.55
31.55
33.42
34.88
35.79
36.02
35.54
34.38
32.6
30.31
27.59
24.56
21.33
18
14.69
11.44
8.29
5.18
2.05
-1.27
-4.89
-8.9
-13.33
-18.06
-23
-27.93
-32.77
-37.45
-42.05
-46.68
-51.5
-56.67
-62.27
-68.25
-74.25
-79.58
-83.26
-84.3
-81.92
-75.9
-66.7
-55.34
-43.15
-31.34
-20.72
-11.57
-3.86
2.66
8.14
12.62
16.13
18.68
20.44
21.7
22.8
24.02
25.56
27.48
29.78
32.38
35.14
37.9
40.45
42.56
44.03
44.68
44.39
43.15
41.07
38.43
35.6
32.95
30.73
28.93
27.29
25.43
23.12
20.28
17.09
13.81
10.6
7.46
4.24
0.71
-3.25
-7.65
-12.4
-17.39
-22.46
-27.54
-32.58
-37.58
-42.74
-48.28
-54.46
-61.23
-68.05
-73.93
-77.57
-77.74
-73.81
-65.95
-55.11
-42.73
-30.28
-18.86
-9.01
-0.76
6.15
12.03
17.05
21.26
24.66
27.35
29.58
31.67
33.89
36.39
39.11
41.88
44.53
46.95
49.13
51.1
52.79
54.15
54.94
55.01
54.26
52.78
50.75
48.44
46.08
43.81
41.63
39.38
36.95
34.24
31.26
28.12
24.89
21.67
18.4
14.96
11.15
6.91
2.25
-2.68
-7.62
-12.39
-16.91
-21.31
-25.87
-30.9
-36.65
-43.2
-50.41
-57.73
-64.29
-68.91
-70.44
-68.02
-61.45
-51.31
-38.82
-25.51
-12.76
-1.5
7.86
15.36
21.24
25.79
29.14
31.4
32.61
32.96
32.69
32.19
31.88
32.08
32.98
34.56
36.7
39.15
41.62
43.81
45.4
46.11
45.78
44.35
41.96
38.9
35.52
32.14
29.01
26.17
23.56
21.01
18.35
15.5
12.41
9.11
5.6
1.93
-1.92
-5.83
-9.74
-13.5
-17.02
-20.32
-23.54
-26.9
-30.62
-34.93
-39.94
-45.68
-51.95
-58.24
-63.75
-67.44
-68.3
-65.62
-59.32
-49.9
-38.47
-26.33
-14.7
-4.52
3.75
10.02
14.47
17.4
19.08
19.77
19.7
19.16
18.52
18.19
18.49
19.61
21.49
23.91
26.6
29.31
31.88
34.12
35.83
36.72
36.57
35.39
33.43
31.19
29.14
27.63
26.64
25.86
24.84
23.26
21.04
18.3
15.31
12.25
9.19
6.05
2.71
-0.91
-4.73
-8.68
-12.64
-16.57
-20.52
-24.48
-28.44
-32.41
-36.44
-40.7
-45.39
-50.63
-56.16
-61.26
-64.83
-65.75
-63.28
-57.36
-48.7
-38.53
-28.19
-18.73
-10.67
-4.11
1.2
5.49
8.96
11.65
13.58
14.84
15.67
16.39
17.31
18.63
20.3
22.08
23.72
25.07
26.15
27.11
28.09
29.11
30.03
30.61
30.63
30.02
28.9
27.56
26.21
25.03
24.02
23.08
22.03
20.74
19.15
17.31
15.36
13.4
11.59
9.89
8.22
6.39
4.17
1.41
-1.97
-5.88
-10.12
-14.38
-18.41
-22.12
-25.54
-28.94
-32.62
-36.82
-41.46
-46.06
-49.76
-51.61
-50.88
-47.27
-41.07
-33.04
-24.11
-15.19
-6.99
0.11
5.96
10.6
14.1
16.64
18.36
19.43
20
20.2
20.16
20.02
19.91
20.04
20.53
21.54
23.11
25.13
27.31
29.29
30.72
31.35
31.09
30.01
28.27
26.09
23.66
21.1
18.47
15.78
13.06
10.39
7.85
5.47
3.24
1.06
-1.16
-3.53
-6.02
-8.6
-11.23
-13.87
-16.56
-19.37
-22.41
-25.72
-29.37
-33.39
-37.76
-42.38
-46.93
-50.91
-53.57
-54.19
-52.2
-47.54
-40.65
-32.44
-23.98
-16.18
-9.56
-4.24
-0.08
3.07
5.29
6.58
7.02
6.81
6.37
6.07
6.27
7.14
8.62
10.57
12.82
15.24
17.65
19.91
21.8
23.18
23.96
24.14
23.72
22.75
21.33
19.56
17.7
15.99
14.61
13.55
12.6
11.42
9.77
7.67
5.35
3.16
1.33
-0.24
-1.91
-4.14
-7.25
-11.27
-15.86
-20.52
-24.74
-28.28
-31.28
-34.06
-37.11
-40.76
-45.09
-49.78
-54.33
-57.96
-59.93
-59.66
-56.79
-51.41
-44.01
-35.46
-26.77
-18.9
-12.44
-7.51
-3.88
-1.06
1.33
3.6
5.81
7.96
9.99
11.86
13.59
15.18
16.68
18.1
19.59
21.24
23.16
25.3
27.45
29.28
30.43
30.74
30.19
29.03
27.56
26.06
24.62
23.23
21.76
20.13
18.4
16.63
14.97
13.49
12.18
10.93
9.63
8.14
6.29
3.98
1.07
-2.46
-6.55
-10.96
-15.42
-19.69
-23.68
-27.53
-31.5
-35.91
-40.87
-46.29
-51.69
-56.29
-59.22
-59.7
-57.23
-51.79
-43.85
-34.27
-24.11
-14.39
-5.81
1.31
6.99
11.46
14.97
17.62
19.41
20.33
20.44
19.99
19.39
19.09
19.39
20.35
21.82
23.53
25.2
26.65
27.77
28.48
28.74
28.46
27.57
26.1
24.15
21.92
19.58
17.31
15.16
13.12
11.21
9.35
7.5
5.59
3.51
1.12
-1.65
-4.84
-8.3
-11.89
-15.41
-18.78
-22.04
-25.39
-29.03
-33.24
-38.21
-43.9
-50.05
-56.05
-60.92
-63.62
-63.26
-59.47
-52.58
-43.53
-33.57
-23.81
-15.02
-7.41
-0.94
4.52
9.01
12.44
14.73
15.97
16.44
16.55
16.73
17.33
18.53
20.38
22.8
25.57
28.44
31.15
33.45
35.15
36.17
36.45
36.06
35.02
33.46
31.58
29.58
27.63
25.82
24.11
22.35
20.46
18.3
15.87
13.11
10.04
6.62
2.87
-1.17
-5.37
-9.65
-13.98
-18.37
-22.91
-27.6
-32.39
-37.18
-42.02
-47.07
-52.61
-58.8
-65.41
-71.67
-76.43
-78.43
-76.84
-71.54
-63.15
-52.8
-41.7
-30.79
-20.63
-11.48
-3.47
3.31
8.79
12.97
16.01
18.24
20.05
21.78
23.6
25.6
27.76
30.07
32.57
35.28
38.18
41.19
44.11
46.7
48.7
49.9
50.16
49.5
48.03
46.01
43.74
41.5
39.49
37.78
36.33
35
33.61
31.98
29.93
27.37
24.33
20.99
17.53
14.13
10.74
7.18
3.07
-1.8
-7.47
-13.64
-19.89
-25.82
-31.22
-36.22
-41.16
-46.51
-52.59
-59.44
-66.67
-73.48
-78.77
-81.37
-80.41
-75.55
-67.18
-56.28
-44.13
-32.03
-20.87
-11.12
-2.75
4.44
10.75
16.34
21.19
25.25
28.45
30.91
32.86
34.65
36.53
38.68
41.11
43.73
46.44
49.11
51.7
54.06
56.03
57.38
57.89
57.5
56.29
54.52
52.5
50.49
48.55
46.58
44.32
41.5
38.03
34.01
29.71
25.46
21.52
17.97
14.7
11.49
8.02
4.09
-0.38
-5.33
-10.58
-15.86
-20.95
-25.68
-30.05
-34.27
-38.63
-43.5
-49.06
-55.1
-60.94
-65.51
-67.6
-66.28
-61.23
-52.78
-41.87
-29.68
-17.32
-5.59
4.98
14.15
21.79
27.79
32.1
34.77
35.98
36.13
35.72
35.24
35.11
35.5
36.4
37.69
39.19
40.74
42.28
43.65
44.7
45.19
44.93
43.85
42.04
39.71
37.08
34.3
31.43
28.46
25.34
22.12
18.86
15.66
12.62
9.73
6.89
3.93
0.64
-3.12
-7.43
-12.17
-17.11
-21.99
-26.58
-30.83
-34.86
-38.92
-43.34
-48.43
-54.35
-61.03
-68.01
-74.46
-79.24
-81.2
-79.49
-73.89
-64.9
-53.6
-41.34
-29.37
-18.55
-9.27
-1.57
4.74
9.85
13.91
17.04
19.37
21.15
22.66
24.16
25.85
27.83
30.1
32.57
35.14
37.65
40
42.04
43.58
44.48
44.65
44.06
42.78
40.98
38.88
36.74
34.87
33.42
32.4
31.59
30.65
29.24
27.17
24.45
21.33
18.13
15.08
12.27
9.56
6.67
3.34
-0.68
-5.51
-11.06
-17.08
-23.18
-28.97
-34.26
-39.14
-43.92
-49.07
-54.89
-61.37
-67.97
-73.83
-77.86
-79.14
-77.07
-71.62
-63.29
-52.98
-41.88
-31.06
-21.31
-13.02
-6.17
-0.52
4.17
8.07
11.26
13.83
15.88
17.63
19.36
21.26
23.45
25.89
28.55
31.37
34.36
37.43
40.43
43.1
45.13
46.22
46.24
45.28
43.63
41.69
39.78
38.03
36.46
34.96
33.45
31.93
30.41
28.85
27.16
25.2
22.93
20.39
17.71
15.05
12.45
9.73
6.66
2.98
-1.39
-6.31
-11.52
-16.69
-21.58
-26.14
-30.4
-34.56
-38.85
-43.5
-48.66
-54.25
-59.81
-64.57
-67.57
-67.92
-65.05
-58.99
-50.27
-39.8
-28.63
-17.73
-7.78
0.81
7.94
13.73
18.35
21.98
24.76
26.76
28.08
28.87
29.41
30.06
31.11
32.69
34.67
36.83
38.86
40.5
41.61
42.12
42.06
41.38
40.09
38.11
35.5
32.32
28.75
24.98
21.21
17.64
14.42
11.64
9.32
7.43
5.8
4.2
2.39
0.12
-2.67
-6.01
-9.76
-13.75
-17.82
-21.78
-25.56
-29.1
-32.5
-36
-39.96
-44.71
-50.24
-56.11
-61.31
-64.58
-64.79
-61.37
-54.52
-45.18
-34.66
-24.24
-14.9
-7.09
-0.81
4.1
7.86
10.6
12.37
13.25
13.41
13.1
12.78
12.82
13.49
14.83
16.71
18.89
21.13
23.26
25.1
26.62
27.67
28.14
27.94
27.04
25.55
23.7
21.74
19.89
18.24
16.7
15.06
13.14
10.88
8.38
5.89
3.64
1.69
-0.14
-2.21
-4.86
-8.3
-12.43
-16.97
-21.51
-25.75
-29.62
-33.29
-37.1
-41.43
-46.54
-52.39
-58.62
-64.51
-69.13
-71.56
-71.11
-67.53
-61.13
-52.65
-43.08
-33.43
-24.48
-16.66
-10.12
-4.72
-0.25
3.5
6.68
9.39
11.68
13.57
15.23
16.82
18.51
20.38
22.35
24.29
26.01
27.42
28.59
29.61
30.53
31.32
31.82
31.8
31.23
30.28
29.28
28.54
28.21
28.21
28.26
28.05
27.37
26.18
24.55
22.62
20.51
18.28
15.89
13.22
10.15
6.52
2.28
-2.53
-7.72
-12.95
-17.93
-22.48
-26.64
-30.67
-34.98
-39.96
-45.77
-52.2
-58.54
-63.77
-66.75
-66.61
-63.01
-56.28
-47.3
-37.21
-27.13
-17.83
-9.81
-3.2
2.05
6.1
9.2
11.62
13.6
15.36
17.07
18.84
20.78
23.02
25.57
28.46
31.59
34.81
37.95
40.76
43.01
44.49
45.07
44.65
43.3
41.13
38.39
35.37
32.32
29.47
26.93
24.67
22.55
20.47
18.26
15.83
13.17
10.23
7.07
3.7
0.19
-3.43
-7.04
-10.65
-14.25
-17.81
-21.37
-24.95
-28.61
-32.52
-36.8
-41.46
-46.29
-50.77
-54.09
-55.44
-54.17
-50.06
-43.38
-34.85
-25.35
-15.81
-6.97
0.72
7.05
12.01
15.64
18
19.18
19.4
18.96
18.3
17.85
17.88
18.54
19.76
21.3
22.95
24.54
25.93
27.08
27.89
28.24
28.07
27.33
26.02
24.27
22.24
20.08
17.97
16.01
14.22
12.57
10.97
9.34
7.6
5.66
3.5
1.05
-1.76
-4.93
-8.5
-12.47
-16.81
-21.43
-26.19
-30.94
-35.53
-39.97
-44.43
-49.31
-54.97
-61.53
-68.61
-75.31
-80.33
-82.39
-80.7
-75.2
-66.65
-56.3
-45.46
-35.16
-25.91
-17.82
-10.79
-4.68
0.59
4.98
8.5
11.28
13.51
15.45
17.35
19.36
21.55
23.9
26.35
28.82
31.25
33.57
35.69
37.54
38.99
39.94
40.27
39.94
39
37.65
36.13
34.72
33.6
32.81
32.23
31.6
30.67
29.26
27.36
25.08
22.58
20.03
17.44
14.7
11.58
7.87
3.47
-1.54
-6.87
-12.22
-17.3
-22
-26.35
-30.58
-35.01
-39.95
-45.57
-51.79
-58.05
-63.44
-66.81
-67.12
-63.84
-57.19
-48.02
-37.54
-26.95
-17.09
-8.4
-0.97
5.28
10.42
14.53
17.66
19.9
21.49
22.7
23.79
25.04
26.59
28.52
30.82
33.42
36.12
38.73
41.03
42.87
44.14
44.82
44.9
44.4
43.34
41.72
39.57
36.99
34.13
31.17
28.28
25.5
22.83
20.15
17.36
14.34
11.05
7.48
3.63
-0.47
-4.75
-9.11
-13.47
-17.77
-22.02
-26.3
-30.76
-35.54
-40.74
-46.32
-52.04
-57.42
-61.69
-64.01
-63.58
-60.01
-53.49
-44.7
-34.72
-24.65
-15.31
-7.18
-0.38
5.14
9.46
12.62
14.65
15.65
15.82
15.52
15.21
15.35
16.24
18
20.44
23.25
26.06
28.63
30.86
32.77
34.38
35.61
36.36
36.44
35.83
34.57
32.84
30.85
28.72
26.47
24.09
21.59
19.01
16.4
13.76
10.97
7.86
4.21
-0.11
-5.03
-10.33
-15.63
-20.64
-25.22
-29.5
-33.72
-38.29
-43.55
-49.62
-56.34
-63.14
-69.09
-73.13
-74.25
-71.88
-66.06
-57.49
-47.28
-36.68
-26.74
-18.1
-10.91
-4.96
0.06
4.49
8.49
12.1
15.27
17.97
20.22
22.18
24.03
25.96
28.07
30.31
32.63
34.86
36.95
38.79
40.32
41.45
42.1
42.21
41.74
40.76
39.39
37.8
36.16
34.52
32.88
31.09
29.03
26.59
23.78
20.71
17.51
14.3
11.08
7.74
4.09
0
-4.57
-9.49
-14.5
-19.32
-23.76
-27.83
-31.78
-35.98
-40.79
-46.3
-52.14
-57.48
-61.23
-62.34
-60.2
-54.78
-46.67
-36.84
-26.42
-16.33
-7.19
0.69
7.26
12.6
16.81
20.03
22.4
24.02
25.06
25.71
26.19
26.74
27.53
28.64
30.07
31.75
33.56
35.35
36.97
38.25
39.06
39.25
38.76
37.59
35.84
33.62
31.06
28.31
25.48
22.71
20.07
17.57
15.16
12.75
10.2
7.37
4.2
0.7
-3.07
-6.97
-10.85
-14.57
-18.06
-21.31
-24.41
-27.55
-31.01
-35.01
-39.62
-44.62
-49.4
-53.04
-54.51
-53
-48.2
-40.4
-30.42
-19.39
-8.44
1.51
9.88
16.46
21.34
24.79
27.17
28.85
30.06
30.92
31.43
31.57
31.42
31.2
31.25
31.94
33.52
35.98
39.05
42.26
44.94
46.38
46.06
43.66
39.29
33.44
26.87
20.42
14.72
10.04
6.28
3.1
0.12
-2.93
-6.13
-9.51
-13
-16.66
-20.5
-24.54
-28.7
-32.82
-36.79
-40.56
-44.25
-48.01
-52.12
-56.78
-62.12
-68.08
-74.36
-80.33
-85.07
-87.56
-86.96
-82.83
-75.37
-65.33
-53.82
-41.97
-30.72
-20.67
-12.12
-5.05
0.73
5.5
9.54
13.02
15.97
18.39
20.28
21.74
22.95
24.11
25.38
26.87
28.54
30.31
32.12
33.92
35.59
37.01
37.98
38.33
37.97
36.88
35.21
33.2
31.16
29.4
28.06
27.09
26.26
25.28
23.95
22.28
20.5
18.84
17.42
16.11
14.51
12.13
8.64
3.97
-1.62
-7.67
-13.73
-19.43
-24.63
-29.39
-33.94
-38.54
-43.48
-48.85
-54.46
-59.73
-63.74
-65.43
-63.98
-59.06
-50.97
-40.59
-29.11
-17.73
-7.34
1.56
8.87
14.65
19.02
22.1
23.94
24.65
24.48
23.81
23.13
22.87
23.28
24.39
26.05
28.02
30.06
32
33.73
35.11
36.03
36.38
36.11
35.23
33.75
31.73
29.17
26.11
22.67
19.02
15.42
12.1
9.21
6.72
4.53
2.41
0.13
-2.49
-5.52
-8.95
-12.64
-16.4
-20.06
-23.58
-27.02
-30.58
-34.5
-38.97
-44.03
-49.48
-54.84
-59.32
-61.98
-61.93
-58.66
-52.22
-43.28
-32.95
-22.47
-12.81
-4.55
2.21
7.61
11.84
15.01
17.2
18.45
18.92
18.89
18.69
18.6
18.76
19.17
19.81
20.72
21.96
23.6
25.62
27.81
29.79
31.15
31.6
31.07
29.73
27.89
25.88
23.91
22.02
20.09
17.98
15.55
12.78
9.71
6.42
3
-0.52
-4.14
-7.91
-11.9
-16.14
-20.59
-25.09
-29.44
-33.47
-37.13
-40.57
-44.08
-48.05
-52.84
-58.55
-64.86
-71.04
-75.96
-78.46
-77.61
-73.05
-65.15
-54.88
-43.58
-32.54
-22.63
-14.27
-7.4
-1.76
2.91
6.73
9.79
12.08
13.73
14.95
16.06
17.39
19.18
21.57
24.46
27.71
31.06
34.24
37
39.24
40.87
41.88
42.23
41.88
40.82
39.1
36.89
34.5
32.22
30.24
28.52
26.85
24.92
22.52
19.64
16.44
13.19
10.04
6.95
3.72
0.08
-4.15
-8.95
-14.16
-19.51
-24.71
-29.6
-34.21
-38.76
-43.6
-49.13
-55.51
-62.44
-69.14
-74.39
-76.89
-75.73
-70.65
-62.14
-51.28
-39.36
-27.58
-16.8
-7.45
0.38
6.81
12.01
16.15
19.34
21.68
23.3
24.4
25.29
26.35
27.93
30.22
33.26
36.84
40.62
44.17
47.02
48.86
49.56
49.19
48.02
46.36
44.44
42.38
40.12
37.61
34.8
31.72
28.45
25.09
21.7
18.31
14.94
11.53
7.95
4.03
-0.38
-5.35
-10.7
-16.13
-21.25
-25.81
-29.8
-33.45
-37.17
-41.4
-46.5
-52.49
-59.08
-65.48
-70.57
-73.1
-72.03
-66.87
-57.92
-46.18
-33.1
-20.15
-8.46
1.38
9.23
15.23
19.56
22.36
23.73
23.93
23.33
22.44
21.79
21.81
22.76
24.64
27.33
30.59
34.11
37.51
40.4
42.46
43.46
43.41
42.41
40.7
38.51
36.02
33.35
30.52
27.59
24.47
21.13
17.53
13.65
9.52
5.2
0.75
-3.79
-8.37
-13.04
-17.81
-22.7
-27.72
-32.88
-38.32
-44.23
-50.86
-58.4
-66.87
-75.86
-84.53
-91.66
-95.86
-96.03
-91.72
-83.24
-71.57
-58.13
-44.29
-31.16
-19.41
-9.31
-0.82
6.18
11.88
16.41
19.91
22.54
24.5
26.06
27.59
29.45
31.93
35.11
38.86
42.89
46.86
50.43
53.34
55.44
56.63
56.87
56.26
54.94
53.12
51.03
48.77
46.36
43.7
40.7
37.38
33.89
30.42
27.05
23.73
20.23
16.23
11.57
6.2
0.27
-5.92
-12.13
-18.16
-24
-29.75
-35.69
