40.72
17.88
-12.24
-45.76
-77.88
-104.04
-120.97
-127.42
-124.42
-114.63
-101.3
-87.11
-73.56
-61.03
-49.4
-38.52
-28.26
-18.38
-8.34
2.57
14.62
27.38
39.86
51.15
61.1
70.28
79.32
88.21
96.03
101.46
103.69
103.2
101.66
101.01
102.42
105.53
108.83
110.77
110.72
109.32
107.8
106.88
106.03
103.71
98.31
89.39
78.27
67.55
59.81
56.29
56.15
56.87
55.47
50.07
40.69
29.18
18.12
9.54
3.93
0.06
-4.37
-11.45
-22.05
-35.47
-49.82
-63.08
-73.92
-82.1
-88.19
-92.97
-96.93
-100.19
-102.75
-104.63
-105.93
-106.59
-106.28
-104.56
-101.1
-95.88
-89.2
-81.59
-73.5
-65.34
-57.44
-50.12
-43.56
-37.64
-31.9
-25.66
-18.44
-10.2
-1.41
7.12
14.7
20.98
26.02
30.08
33.46
36.34
38.74
40.63
41.93
42.66
42.82
42.43
41.46
39.89
37.81
35.56
33.64
32.53
32.41
32.78
32.67
30.99
27.18
21.63
15.56
10.32
6.69
4.51
2.71
0.05
-4.16
-9.74
-15.61
-20.34
-22.7
-22.21
-19.1
-14.49
-9.86
-6.74
-6.25
-8.76
-13.82
-20.28
-26.75
-31.93
-34.92
-35.22
-32.53
-26.66
-17.52
-5.27
9.47
25.52
41.28
55.03
65.33
71.37
73.06
71.01
66.22
59.75
52.44
44.84
37.22
29.91
23.36
18.12
14.7
13.11
12.67
12.05
9.72
4.54
-3.82
-14.75
-27.14
-39.73
-51.63
-62.3
-71.48
-78.92
-84.37
-87.61
-88.59
-87.45
-84.29
-78.99
-71.16
-60.42
-46.78
-31.03
-14.63
0.72
13.49
22.85
28.71
31.67
32.62
32.48
31.98
31.55
31.37
31.33
31.36
31.38
31.33
31.12
30.5
29.19
27.01
24.13
21.02
18.36
16.6
15.79
15.67
15.92
16.49
17.59
19.41
21.8
24.13
25.42
24.75
21.7
16.38
9.51
2
-5.2
-11.32
-15.83
-18.61
-19.87
-20.01
-19.59
-19.08
-18.85
-19.16
-20.26
-22.34
-25.51
-29.63
-34.24
-38.73
-42.55
-45.32
-46.85
-46.96
-45.27
-41.34
-34.9
-26.22
-16.32
-6.82
0.52
4.42
4.54
1.54
-3.18
-7.97
-11.45
-12.78
-11.74
-8.63
-4.09
1.11
6.3
11.07
15.38
19.56
24.11
29.54
35.96
43.09
50.24
56.6
61.58
65
67.04
68.03
68.12
67.15
64.73
60.7
55.39
49.78
45.18
42.65
42.63
44.7
47.89
51.05
53.2
53.64
51.98
48.09
42.21
35.02
27.57
21.09
16.48
13.95
12.95
12.52
11.77
10.26
8.1
5.73
3.6
1.89
0.24
-2.26
-7.01
-15.6
-29.36
-48.64
-72.6
-99.28
-126.31
-151.65
-173.92
-192.36
-206.33
-215.05
-217.59
-213.28
-202.06
-184.47
-161.44
-133.81
-102.35
-68.02
-32.44
1.9
32.01
55.19
69.89
76.21
75.83
71.38
65.66
60.88
58.23
57.88
59.22
61.38
63.65
65.59
66.93
67.39
66.51
63.83
59.16
52.72
45.38
38.56
34.04
33.52
38.21
48.26
62.54
78.85
94.65
107.73
116.9
121.9
123.02
120.64
115.14
107.21
98.16
89.72
83.4
79.79
78.41
78.34
78.9
80.1
82.3
85.52
89.12
92.24
94.78
98.21
105.33
118.85
139.6
165.59
192.4
215.03
229.89
235.93
234.34
227.39
217.32
205.74
193.82
182.82
174.19
169.11
167.52
167.59
166.01
159.51
146.6
128.57
108.89
91.14
76.9
64.83
51.67
34.38
12.19
-12.87
-37.24
-57.96
-74.43
-88.34
-101.95
-115.95
-128.38
-135.73
-135.42
-127.96
-117.19
-108.42
-105.45
-108.36
-113.54
-115.66
-110.66
-97.9
-80.3
-62.72
-49.55
-43.06
-42.98
-47.58
-54.75
-62.81
-70.67
-77.49
-82.38
-84.78
-84.95
-84.34
-85.17
-89.22
-96.93
-107.01
-117.23
-125.4
-130.19
-131.4
-129.76
-126.5
-123.33
-122.31
-125.42
-133.74
-146.61
-161.37
-174.19
-181.51
-181.5
-174.61
-163.11
-150.08
-138.58
-131.12
-129.13
-132.38
-138.48
-143.38
-142.92
-134.71
-119.18
-99.12
-78.02
-58.17
-39.96
-22.61
-5.69
10.23
24.07
35.31
44.5
52.68
60.13
65.43
66.08
60.21
48.25
33.32
19.83
11.33
9.16
12.16
17.81
23.42
26.9
26.7
21.7
11.36
-3.55
-20.55
-35.87
-45.77
-48.26
-43.95
-35.71
-27.25
-21.41
-19.1
-19.34
-20.35
-20.72
-20.13
-19.45
-19.98
-22.69
-27.67
-34.22
-41.18
-47.44
-52.21
-55.21
-56.66
-57.07
-57.13
-57.38
-58.16
-59.44
-61.08
-62.85
-64.61
-66.18
-67.27
-67.51
-66.55
-64.35
-61.36
-58.58
-57.09
-57.73
-60.56
-64.79
-68.96
-71.39
-70.7
-66.09
-57.61
-46.04
-32.8
-19.65
-8.28
0.19
5.53
8.35
9.83
11.1
12.8
14.91
16.93
18.42
19.35
20.17
21.49
23.63
26.32
28.71
29.85
29.05
26.13
21.34
15.19
8.21
0.86
-6.45
-13.31
-19.35
-24.33
-28.19
-31.06
-33.09
-34.42
-35.06
-34.94
-34.04
-32.35
-29.87
-26.51
-22.1
-16.44
-9.44
-1.22
7.86
17.2
26.06
33.58
38.97
41.64
41.33
38.25
33.08
26.78
20.44
15.06
11.41
9.93
10.76
13.63
17.96
22.93
27.56
31
32.68
32.41
30.41
27.14
23.06
18.54
13.83
9.08
4.39
-0.18
-4.65
-9.09
-13.59
-18.23
-22.93
-27.48
-31.61
-35.08
-37.66
-39.17
-39.4
-38.18
-35.4
-31.12
-25.64
-19.35
-12.52
-5.13
3.02
12.12
21.94
31.68
40.11
45.98
48.52
47.82
44.74
40.43
35.99
32
28.55
25.45
22.49
19.63
17.03
14.93
13.45
12.59
12.25
12.29
12.58
12.99
13.44
13.8
13.89
13.47
12.24
9.87
6.17
1.16
-4.87
-11.46
-18.09
-24.32
-29.83
-34.33
-37.51
-39
-38.41
-35.55
-30.53
-23.76
-15.93
-7.68
0.38
7.78
14.24
19.59
23.86
27.15
29.59
31.28
32.2
32.23
31.22
29.26
26.68
24.09
22.14
21.24
21.45
22.37
23.37
23.82
23.32
21.77
19.38
16.54
13.67
11.2
9.42
8.5
8.45
9.08
10.07
11.04
11.59
11.39
10.23
8.03
4.91
1.12
-2.9
-6.61
-9.51
-11.2
-11.48
-10.35
-7.99
-4.68
-0.69
3.67
8.14
12.43
16.27
19.36
21.46
22.39
22.19
21.14
19.67
18.22
17.09
16.34
15.73
14.97
13.76
12.07
10.04
7.94
6.05
4.54
3.37
2.35
1.24
-0.2
-2.05
-4.2
-6.38
-8.2
-9.36
-9.69
-9.3
-8.52
-7.78
-7.42
-7.52
-7.89
-8.17
-8.03
-7.3
-5.97
-4.21
-2.24
-0.25
1.67
3.39
4.98
6.61
8.71
11.78
16.02
20.98
25.49
27.92
26.76
21.37
12.23
0.74
-11.27
-22.33
-31.64
-39.14
-45.14
-50.01
-53.93
-56.87
-58.7
-59.31
-58.65
-56.68
-53.32
-48.5
-42.23
-34.63
-26.08
-17.09
-8.24
-0.05
7.2
13.45
18.79
23.34
27.18
30.34
32.83
34.68
35.83
36.14
35.36
33.3
30.01
25.94
21.79
18.35
16.14
15.11
14.81
14.39
13.15
10.7
7.15
2.95
-1.32
-5.14
-8.18
-10.11
-10.55
-9.03
-4.94
2.25
12.62
25.51
39.7
53.73
66.48
77.13
84.9
88.63
86.79
78.2
62.87
42.61
20.54
0.05
-16.47
-28.29
-36.06
-41.06
-44.38
-46.57
-47.63
-47.18
-44.43
-38.25
-27.65
-12.41
6.39
26.64
46.19
63.74
78.8
91.07
99.37
101.2
93.76
75.45
47.49
14.01
-19.34
-47.68
-68.74
-83.2
-93.6
-102.38
-110.55
-117.26
-120.69
-119.21
-112.31
-100.65
-85.35
-67.34
-46.84
-24.14
-0.24
22.54
40.97
52.19
54.99
50.6
42.26
33.94
28.77
27.95
30.56
34.26
36.48
35.42
30.62
22.66
12.72
2.03
-8.35
-17.35
-23.82
-26.52
-24.42
-17.19
-5.6
8.47
22.41
33.65
40.52
42.61
40.75
36.28
30.44
23.95
17.23
10.68
4.96
0.92
-0.87
-0.55
1
2.5
2.97
2.1
0.07
-2.89
-6.87
-12.38
-19.93
-29.62
-40.83
-52.34
-62.59
-70.12
-73.87
-73.29
-68.36
-59.48
-47.47
-33.49
-18.96
-5.55
5.1
11.71
13.85
12.26
8.84
5.9
5.21
7.25
11.03
14.85
17.31
18.14
18.27
19.21
22.07
26.85
32.47
37.4
40.43
41.11
39.74
36.95
33.41
29.83
27.06
26.1
27.78
32.05
37.6
41.99
42.76
38.71
30.91
22.37
16.66
15.9
19.34
23.6
24.36
18.69
6.62
-8.84
-23.48
-34.23
-40.52
-44.09
-47.25
-50.98
-54.22
-54.73
-50.91
-43.17
-34.06
-26.8
-23.44
-23.84
-25.97
-27.35
-26.52
-23.64
-19.94
-16.74
-14.5
-12.78
-10.63
-7.34
-2.84
2.39
7.65
12.31
16.02
18.64
20.16
20.67
20.36
19.44
18.17
16.76
15.34
14
12.77
11.72
10.86
10.17
9.53
8.82
7.98
7.08
6.25
5.45
4.48
2.89
0.31
-3.26
-7.37
-11.23
-14.03
-15.39
-15.51
-15.03
-14.51
-14.11
-13.43
-11.84
-8.97
-5
-0.67
3.15
5.84
7.36
8.07
8.49
9
9.64
10.26
10.7
10.89
10.85
10.63
10.23
9.67
9.13
8.86
9.13
10.01
11.21
12.21
12.46
11.64
9.89
7.64
5.4
3.51
2.03
0.78
-0.44
-1.78
-3.24
-4.79
-6.41
-8.12
-9.93
-11.78
-13.5
-14.92
-15.97
-16.77
-17.62
-18.88
-20.72
-22.98
-25.14
-26.52
-26.51
-24.84
-21.67
-17.44
-12.7
-7.95
-3.48
0.5
3.92
6.72
8.83
10.25
11.05
11.38
11.44
11.47
11.74
12.43
13.64
15.29
17.1
18.69
19.72
20.1
20.12
20.34
21.23
22.84
24.62
25.65
25.18
22.99
19.66
16.17
13.43
11.79
10.91
10.12
8.77
6.56
3.55
0.04
-3.73
-7.57
-11.28
-14.57
-17.08
-18.4
-18.29
-16.71
-13.81
-9.93
-5.58
-1.29
2.52
5.6
7.95
9.71
11.07
12.14
12.86
13.14
12.99
12.53
12.1
12.03
12.5
13.43
14.53
15.42
15.81
15.65
15.09
14.39
13.77
13.24
12.68
11.87
10.61
8.83
6.65
4.35
2.18
0.36
-1.1
-2.3
-3.43
-4.69
-6.22
-8.04
-10.08
-12.17
-14.09
-15.56
-16.27
-16
-14.64
-12.22
-8.96
-5.15
-1.13
2.82
6.49
9.71
12.36
14.4
15.84
16.82
17.46
17.98
18.57
19.29
20.11
20.87
21.4
21.57
21.4
21.01
20.57
20.27
20.22
20.36
20.53
20.49
19.94
18.66
16.55
13.69
10.39
7.07
4.2
2.03
0.59
-0.3
-0.91
-1.46
-2.03
-2.62
-3.24
-3.92
-4.8
-6.04
-7.72
-9.78
-12.02
-14.1
-15.62
-16.26
-15.8
-14.26
-11.84
-8.86
-5.71
-2.67
0.06
2.41
4.43
6.2
7.75
9.05
10.09
10.76
11.05
11.04
10.87
10.75
10.89
11.38
12.17
13.13
14
14.6
14.76
14.46
13.81
13
12.23
11.68
11.4
11.4
11.61
11.91
12.15
12.18
11.81
10.96
9.68
8.14
6.62
5.34
4.36
3.57
2.75
1.75
0.54
-0.67
-1.64
-2.24
-2.58
-3.05
-4.16
-6.26
-9.4
-13.3
-17.42
-21.14
-23.96
-25.51
-25.62
-24.32
-21.78
-18.35
-14.56
-10.96
-7.99
-5.8
-4.26
-2.97
-1.55
0.25
2.44
4.74
6.76
8.1
8.59
8.32
7.64
6.97
6.73
7.06
7.86
8.78
9.4
9.45
8.91
7.94
6.81
5.71
4.65
3.47
1.99
0.11
-2.09
-4.35
-6.32
-7.69
-8.32
-8.17
-7.37
-6.09
-4.53
-2.82
-1.03
0.92
3.11
5.75
8.98
12.95
17.8
23.55
30.23
37.75
46.09
55.24
65.26
76.26
88.22
100.93
113.84
126.33
137.74
147.9
157.16
166.35
176.38
187.62
199.52
210.51
218.61
222.22
221
216.1
209.7
204.17
201.13
201.15
203.81
208.15
213.18
218.17
222.78
226.88
230.32
232.68
233.1
230.27
222.55
208.49
187.32
159.5
126.72
91.72
57.39
26.27
0.07
-20.5
-35.43
-45.31
-51.01
-53.62
-54.28
-54.24
-54.73
-56.84
-61.37
-68.7
-78.96
-91.96
-107.42
-124.78
-143.08
-160.91
-176.43
-187.86
-193.92
-194.47
-190.48
-183.65
-175.78
-168.05
-160.86
-153.93
-146.86
-139.43
-131.76
-124.11
-116.74
-109.83
-103.48
-97.83
-92.98
-89.02
-85.8
-82.99
-80.26
-77.31
-74.15
-70.94
-67.77
-64.55
-61.07
-57.23
-53.31
-49.92
-47.79
-47.44
-48.76
-51.05
-53.28
-54.44
-54.12
-52.45
-49.94
-47.15
-44.49
-42.35
-41.22
-41.64
-43.82
-47.43
-51.41
-54.47
-55.62
-54.77
-52.7
-50.62
-49.48
-49.47
-50.15
-50.85
-51.22
-51.22
-51
-50.52
-49.37
-47.12
-43.57
-39.04
-34.11
-29.43
-25.32
-21.75
-18.53
-15.54
-12.85
-10.69
-9.2
-8.29
-7.65
-6.96
-6.09
-5.09
-4.11
-3.21
-2.3
-1.15
0.37
2.15
3.81
4.83
4.85
3.8
1.97
-0.07
-1.73
-2.6
-2.56
-1.76
-0.51
0.81
1.83
2.21
1.65
-0.04
-2.9
-6.72
-10.98
-14.93
-17.78
-18.98
-18.41
-16.51
-14.21
-12.58
-12.59
-14.73
-18.82
-24.21
-29.91
-35.1
-39.19
-42.03
-43.64
-44.29
-44.29
-44.07
-44.1
-44.69
-46
-47.74
-49.38
-50.15
-49.45
-46.96
-42.7
-37.02
-30.4
-23.32
-16.12
-9.05
-2.2
4.36
10.6
16.62
22.48
28.26
33.99
39.47
44.31
47.97
49.8
49.32
46.34
40.88
33.18
23.66
12.91
1.76
-8.78
-17.76
-24.54
-29.04
-31.7
-33.3
-34.53
-35.79
-37.09
-38.24
-39.07
-39.47
-39.38
-38.7
-37.21
-34.62
-30.89
-26.22
-21.07
-16
-11.39
-7.43
-4.09
-1.22
1.3
3.47
5.18
6.29
6.67
6.23
4.9
2.69
-0.31
-3.94
-8.05
-12.47
-17.07
-21.7
-26.23
-30.55
-34.54
-38.12
-41.22
-43.75
-45.54
-46.22
-45.47
-43.02
-38.91
-33.47
-27.23
-20.8
-14.59
-8.87
-3.7
0.88
4.85
8.18
10.94
13.29
15.4
17.45
19.49
21.52
23.47
25.35
27.15
28.93
30.68
32.26
33.56
34.41
34.75
34.51
33.77
32.57
30.99
29.11
27.04
24.89
22.74
20.65
18.68
16.83
15.09
13.4
11.71
9.92
7.98
5.81
3.42
0.79
-2.11
-5.34
-8.88
-12.62
-16.37
-19.83
-22.8
-25.21
-27.25
-29.17
-31.26
-33.61
-36.09
-38.49
-40.54
-42.15
-43.4
-44.64
-46.34
-49.01
-52.93
-57.97
-63.53
-68.54
-71.82
-72.39
-69.85
-64.46
-57
-48.5
-39.8
-31.51
-23.94
-17.28
-11.68
-7.28
-4.12
-2.15
-1.21
-1.05
-1.55
-2.51
-3.62
-4.29
-3.7
-1.01
4.33
12.32
22.38
33.47
44.53
54.73
63.54
70.72
76.1
79.56
80.97
80.41
78.2
74.99
71.6
68.65
66.39
64.52
62.42
59.5
55.5
50.66
45.67
41.27
37.82
35.22
32.85
29.95
26
20.96
15.25
9.49
4.2
-0.43
-4.47
-8.19
-11.88
-15.74
-19.93
-24.5
-29.53
-35.01
-40.89
-47
-53.21
-59.37
-65.36
-71.02
-75.94
-79.57
-81.22
-80.32
-76.69
-70.63
-62.91
-54.46
-46.24
-38.77
-32.2
-26.38
-21
-15.78
-10.57
-5.39
-0.25
4.65
9.19
13.2
16.58
19.39
21.82
24.11
26.43
28.94
31.51
33.96
35.97
37.36
38.03
38
37.39
36.36
35.11
33.8
32.61
31.65
30.97
30.62
30.44
30.22
29.68
28.55
26.69
24.19
21.27
18.22
15.36
12.84
10.71
8.87
7.22
5.63
4.02
2.3
0.3
-2.11
-5.06
-8.55
-12.51
-16.69
-20.88
-24.91
-28.79
-32.76
-37.09
-42.01
-47.56
-53.48
-59.39
-64.74
-68.93
-71.3
-71.24
-68.3
-62.43
-54.07
-44.13
-33.79
-24.19
-16.1
-9.67
-4.63
-0.35
3.71
7.83
12.03
16.11
19.83
23.04
25.77
28.14
30.32
32.35
34.16
35.66
36.83
37.77
38.69
39.78
41.09
42.48
43.65
44.25
44.05
43.03
41.37
39.34
37.17
34.98
32.78
30.54
28.24
25.92
23.62
21.36
19.03
16.45
13.42
9.82
5.75
1.49
-2.57
-6.15
-9.18
-11.87
-14.59
-17.74
-21.65
-26.37
-31.79
-37.6
-43.42
-48.89
-53.84
-58.33
-62.69
-67.48
-73.18
-79.95
-87.4
-94.51
-99.92
-102.28
-100.66
-94.94
-85.77
-74.42
-62.41
-51.14
-41.52
-33.87
-27.88
-22.71
-17.32
-10.87
-2.97
6.06
15.35
23.83
30.68
35.72
39.4
42.63
46.21
50.61
55.77
61.25
66.42
70.73
73.85
75.63
76.12
75.47
73.87
71.56
68.72
65.49
61.93
58.04
53.89
49.58
45.32
41.28
37.5
33.88
30.23
26.28
21.84
16.86
11.38
5.51
-0.63
-6.97
-13.46
-19.99
-26.45
-32.57
-38.08
-42.67
-46.18
-48.7
-50.59
-52.49
-55.19
-59.38
-65.43
-73.16
-81.73
-89.81
-95.74
-97.96
-95.39
-87.77
-75.68
-60.44
-43.78
-27.45
-12.87
-0.8
8.65
15.9
21.64
26.48
30.8
34.68
37.99
40.64
42.76
44.75
47.09
50.16
54.04
58.45
62.85
66.68
69.49
71.07
71.44
70.72
69.1
66.79
63.95
60.77
57.44
54.13
50.94
47.86
44.74
41.29
37.28
32.56
27.26
21.66
16.1
10.76
5.56
0.33
-5.07
-10.53
-15.7
-20.2
-23.81
-26.71
-29.46
-32.76
-37.16
-42.77
-49.2
-55.78
-61.84
-67.06
-71.57
-75.91
-80.81
-86.82
-94.02
-101.89
-109.35
-114.93
-117.14
-114.88
-107.73
-96.13
-81.34
-65.18
-49.42
-35.46
-23.89
-14.47
-6.38
1.34
9.41
18.01
26.83
35.26
42.7
48.81
53.65
57.51
60.9
64.3
67.98
72.03
76.22
80.13
83.16
84.85
84.88
83.36
80.67
77.37
73.98
70.78
67.87
65.11
62.43
59.75
57.11
54.51
51.95
49.39
46.69
43.78
40.54
36.9
32.78
28.22
23.29
18.12
12.87
7.62
2.43
-2.71
-7.77
-12.72
-17.53
-22.17
-26.74
-31.31
-36.05
-41.08
-46.6
-52.84
-60.09
-68.6
-78.33
-88.74
-98.63
-106.18
-109.34
-106.47
-96.91
-81.31
-61.6
-40.37
-20.18
-2.81
11
21.56
29.77
36.7
43.12
49.41
55.51
61.09
65.76
69.23
71.4
72.34
72.23
71.25
69.57
67.49
65.31
63.45
62.18
61.55
61.31
60.98
60.05
58.18
55.44
52.18
48.93
46.14
43.99
42.43
41.18
39.94
38.37
36.25
33.35
29.61
25.11
20.1
14.99
10.12
5.72
1.77
-1.94
-5.81
-10.19
-15.36
-21.46
-28.39
-35.9
-43.49
-50.66
-56.99
-62.41
-67.22
-72.01
-77.52
-84.23
-92.21
-100.81
-108.78
-114.39
-115.89
-112.03
-102.4
-87.79
-69.87
-50.76
-32.38
-16.03
-2.18
9.4
19.36
28.37
36.88
45.01
52.46
58.72
63.34
66.09
67.3
67.6
67.87
68.82
70.77
73.6
76.95
80.41
83.61
86.28
88.08
88.55
87.27
84.06
79.14
73.18
67.03
61.36
56.52
52.39
48.69
45.16
41.64
38.11
34.52
30.67
26.33
21.39
15.89
10.1
4.32
-1.32
-6.84
-12.49
-18.49
-24.96
-31.84
-39.02
-46.29
-53.45
-60.34
-66.88
-73.16
-79.49
-86.36
-94.28
-103.48
-113.59
-123.42
-131.19
-134.87
-132.93
-124.82
-111.27
-94.18
-75.87
-58.49
-43.38
-30.96
-20.74
-11.85
-3.38
5.28
14.24
23.3
31.99
39.9
46.76
52.61
57.62
62
65.93
69.4
72.31
74.47
75.79
76.34
76.4
76.3
76.24
76.23
75.91
74.82
72.52
68.9
64.19
58.86
53.41
48.17
43.34
38.93
34.98
31.47
28.31
25.38
22.47
19.43
16.14
12.57
8.66
4.42
-0.1
-4.78
-9.36
-13.72
-17.82
-21.92
-26.39
-31.57
-37.64
-44.61
-52.45
-61.21
-71
-81.74
-92.77
-102.69
-109.51
-111.27
-106.78
-96.11
-80.66
-62.73
-44.7
-28.39
-14.67
-3.52
5.68
13.71
21.17
28.32
35.1
41.19
46.21
49.89
52.24
53.51
54.1
54.38
54.58
54.76
54.85
54.7
54.23
53.41
52.2
50.59
48.45
45.61
41.92
37.32
32.01
26.4
21.06
16.45
12.74
9.7
6.78
3.31
-1.16
-6.77
-13.24
-20.03
-26.56
-32.41
-37.42
-41.74
-45.66
-49.63
-54.1
-59.44
-65.75
-72.76
-79.61
-84.95
-87.22
-85.06
-77.85
-65.97
-50.81
-34.39
-18.79
-5.58
4.57
11.83
17.05
21.16
24.8
28.1
30.71
32.17
32.18
30.77
28.3
25.21
21.86
18.42
15.07
11.92
9.23
7.13
5.57
4.21
2.55
0.19
-2.95
-6.55
-10.06
-12.93
-14.92
-16.21
-17.3
-18.77
-21.07
-24.37
-28.55
-33.33
-38.39
-43.6
-48.99
-54.84
-61.44
-69.01
-77.4
-85.92
-93.35
-98.21
-99.25
-95.79
-88.04
-76.91
-63.65
-49.55
-35.58
-22.4
-10.35
0.4
9.94
18.43
26.09
33.09
39.39
44.91
49.5
53.22
56.21
58.69
60.77
62.45
63.66
64.32
64.5
64.2
63.48
62.16
60
56.74
52.29
46.88
40.92
35.01
29.68
25.27
21.89
19.39
17.53
15.99
14.53
12.93
11.09
8.94
6.52
3.93
1.33
-1.18
-3.59
-6.03
-8.8
-12.13
-16.15
-20.58
-24.71
-27.42
-27.42
-23.75
-15.97
-4.42
9.92
25.71
41.64
56.67
70.05
81.36
90.49
97.67
103.25
107.46
110.16
110.89
109.12
104.64
97.85
89.6
80.97
72.74
65.28
58.65
52.89
48.31
45.33
44.29
45.11
47.36
50.36
53.49
56.43
58.99
60.99
62.17
62.15
60.52
56.93
51.28
43.68
34.62
24.81
14.98
5.8
-2.28
-9.22
-15.19
-20.57
-25.72
-30.79
-35.78
-40.52
-44.8
-48.37
-51.16
-53.33
-55.32
-57.81
-61.46
-66.7
-73.32
-80.49
-86.83
-90.83
-91.34
-87.9
-80.93
-71.6
-61.45
-51.92
-43.86
-37.45
-32.14
-27.11
-21.58
-15.32
-8.63
-2.31
2.73
5.86
6.81
5.85
3.54
0.71
-1.84
-3.51
-3.97
-3.35
-2.01
-0.47
1.05
2.6
4.46
6.89
9.75
12.51
14.35
14.74
13.65
11.67
9.48
7.52
5.68
3.4
0.2
-4.06
-8.98
-13.98
-18.57
-22.68
-26.62
-30.8
-35.43
-40.35
-45.23
-49.69
-53.74
-57.64
-61.82
-66.61
-71.76
-76.54
-79.79
-80.37
-77.62
-71.64
-63.26
-53.7
-44.13
-35.23
-27.18
-19.72
-12.59
-5.71
0.65
6.05
10.13
12.81
14.45
15.5
16.45
17.4
18.06
17.83
16.17
12.85
8.08
2.44
-3.41
-8.82
-13.33
-16.52
-18.03
-17.52
-14.81
-10.03
-3.63
3.63
10.92
17.46
22.54
25.52
25.85
23.29
18.06
10.98
3.24
-3.93
-9.66
-13.64
-15.96
-16.92
-16.69
-15.34
-13.01
-10.16
-7.57
-6.17
-6.72
-9.52
-14.35
-20.48
-26.87
-32.27
-35.4
-35.2
-31.14
-23.41
-13.01
-1.54
9.32
18.26
24.67
28.69
30.95
32.24
33.24
34.41
35.87
37.51
39.06
40.2
40.75
40.7
40.27
39.76
39.52
39.78
40.63
42
43.7
45.41
46.66
46.94
45.75
42.85
38.34
32.78
27.06
22.11
18.67
16.97
16.68
17.03
17.13
16.25
14.15
11.09
7.67
4.58
2.29
0.91
0.32
0.15
0.02
-0.38
-1.25
-2.65
-4.53
-6.69
-8.89
-10.88
-12.61
-14.24
-16.14
-18.76
-22.43
-27.14
-32.39
-37.33
-40.79
-41.74
-39.55
-34.24
-26.53
-17.59
-8.68
-0.82
5.5
10.38
14.24
17.62
20.95
24.3
27.58
30.57
33.11
35.15
36.84
38.36
39.98
41.99
44.57
47.96
52.26
57.42
63.17
68.98
74.13
78.01
80.32
81.14
80.96
80.45
80.12
80.18
80.42
80.47
79.98
78.91
77.44
75.84
74.23
72.38
69.79
65.83
60.05
52.25
42.62
31.47
19.09
5.73
-8.45
-23.19
-38.1
-52.72
-66.63
-79.45
-90.81
-100.28
-107.17
-110.81
-110.71
-106.98
-100.44
-92.32
-83.87
-75.82
-68.37
-61.31
-54.51
-48.15
-42.9
-39.53
-38.66
-40.38
-44.15
-48.94
-53.41
-56.29
-56.61
-53.92
-48.36
-40.62
-31.65
-22.29
-12.88
-3.11
7.65
19.95
33.76
48.26
61.9
73.03
80.26
82.93
81.01
74.8
64.69
51
34.11
14.73
-5.94
-26.36
-45.01
-60.72
-73.04
-82.16
-88.76
-93.58
-97.11
-99.45
-100.33
-99.45
-96.6
-91.83
-85.15
-76.43
-65.28
-51.21
-34.09
-14.53
6.09
26.01
43.64
58.24
70.11
80.27
89.87
99.48
108.84
117.07
123.3
127.12
128.91
129.47
129.51
129.3
128.44
126.27
122.25
116.39
109.05
100.71
91.6
81.58
70.43
58.05
44.8
31.4
18.87
8.08
-0.52
-7.02
-12.02
-16.31
-20.6
-25.29
-30.44
-35.83
-41.32
-47.08
-53.64
-61.7
-71.61
-83.28
-96.01
-108.8
-120.53
-130.08
-136.46
-138.92
-137.19
-131.45
-122.36
-110.77
-97.64
-84.08
-71.25
-60.3
-52.1
-46.9
-44.14
-42.67
-41.39
-39.84
-38.51
-38.5
-40.85
-45.9
-53.15
-61.54
-70.11
-78.36
-86.33
-94.15
-101.54
-107.76
-111.97
-114.03
-115.22
-118.13
-125.54
-138.36
-154.09
-166.78
-169.12
-155.53
-124.85
-81.01
-31.35
16.35
56.48
86.61
106.79
118.11
121.52
117.68
107.6
93.25
77.31
62.17
48.65
35.53
20.27
0.57
-24.19
-52.23
-79.93
-103.12
-118.75
-125.64
-124.52
-116.88
-104.08
-86.92
-65.85
-41.68
-15.9
9.46
32.54
52.2
68.13
80.52
89.48
94.86
96.45
94.55
90.41
86.07
83.66
84.48
88.41
93.85
98.61
100.77
99.57
95.57
90.06
84.39
79.27
74.67
70.08
64.98
59.28
53.5
48.63
45.69
45.21
46.79
49.14
50.44
49.02
44.14
36.33
27.27
19.2
14.22
13.62
17.58
24.78
32.08
34.78
27.45
5.87
-31.29
-81.52
-139.15
-197.57
-251.83
-300.4
-344.84
-387.63
-429.4
-467.26
-495.05
-505.43
-492.63
-454.44
-392.59
-311.79
-218.44
-119.63
-22.66
65.19
137.61
190.53
223.52
240.17
246.9
250.32
254.75
260.85
266.41
268.39
264.76
255.58
242.31
226.69
209.64
191.42
172.31
153.14
135.31
119.86
106.89
95.42
83.94
71.27
57.11
42
26.94
13.05
1.26
-7.82
-13.99
-17.54
-19.25
-20.2
-21.39
-23.26
-25.55
-27.43
-27.95
-26.53
-23.07
-17.94
-11.89
-5.9
-1.23
0.96
-0.03
-4.08
-10.26
-17.18
-23.33
-27.38
-28.35
-25.75
-19.7
-11.16
-1.87
6.19
11.77
15.32
19.17
26.37
38.72
55.21
71.82
83.11
84.89
76.22
59.65
39.86
21.34
6.51
-4.33
-11.97
-16.77
-18.08
-14.98
-7.61
2.01
10.6
15.12
14.45
9.9
4.26
0.03
-2.04
-3.16
-5.18
-8.9
-13.12
-14.99
-11.56
-1.35
15.01
35.48
57.91
81.11
104.85
129.15
153.79
178.31
202.56
227.09
253.01
281.09
310.55
338.33
359.48
368.73
362.34
339.56
302.78
256.61
206.17
155.73
108.02
64.41
25.44
-8.55
-37.09
-59.69
-76.1
-86.7
-92.44
-94.62
-94.43
-92.76
-90.25
-87.16
-83.49
-79.13
-74.1
-68.7
-63.37
-58.58
-54.47
-50.93
-47.74
-44.9
-42.91
-42.6
-44.76
-49.69
-56.95
-65.4
-73.35
-79.05
-81.09
-78.95
-73.23
-65.66
-58.63
-54.51
-54.69
-59.1
-66.24
-73.83
-79.93
-83.58
-84.91
-84.78
-84.07
-83.25
-82.27
-80.82
-78.54
-75.41
-71.51
-66.98
-61.85
-55.91
-48.88
-40.68
-31.68
-22.64
-14.55
-8.21
-3.86
-1.19
0.39
1.23
1.22
-0.05
-2.75
-6.47
-10.19
-12.78
-13.48
-12.21
-9.5
-6.1
-2.62
0.57
3.2
4.8
4.7
2.13
-3.45
-12.1
-23.41
-36.45
-49.99
-62.62
-72.94
-79.74
-82.27
-80.38
-74.65
-66.3
-56.94
-47.98
-40.31
-34.07
-28.89
-24.34
-20.42
-17.55
-16.42
-17.43
-20.37
-24.39
-28.41
-31.6
-33.68
-34.88
-35.5
-35.64
-35.04
-33.3
-30.22
-26.04
-21.43
-17.2
-13.97
-11.84
-10.29
-8.38
-5.13
0.13
7.49
16.36
25.81
34.86
42.77
49.19
54.27
58.8
64.07
71.41
81.26
92.38
101.25
102.73
91.53
64.3
21.28
-33.35
-92.64
-148.88
-195.69
-229.26
-248.42
-254.08
-248.39
-234.05
-213.9
-190.53
-166.02
-141.65
-118.15
-95.85
-75.2
-56.97
-42.12
-31.33
-24.45
-20.2
-16.44
-10.91
-1.96
10.82
26.67
43.97
60.68
74.68
83.99
87.03
82.95
72.07
55.96
37.11
18.39
2.05
-10.7
-19.94
-26.47
-31.18
-34.25
-35.13
-32.85
-26.89
-18.02
-8.28
-0.21
4.25
4.6
1.57
-3.48
-9.4
-15.34
-20.31
-22.7
-20.76
-13.57
-2.23
9.95
18.72
20.94
16.38
7.72
-0.8
-5.77
-6.1
-2.89
1.74
6.09
9.4
11.67
12.84
12.49
9.86
4.41
-3.55
-12.81
-21.5
-27.86
-30.83
-30.55
-28.16
-25.2
-22.76
-20.9
-18.57
-14.28
-7.01
3
14.13
24.05
30.88
34.02
34.52
34.26
34.9
37
39.85
42.13
42.94
42.43
41.65
42.04
44.59
49.69
57.41
67.76
80.67
95.37
109.61
119.47
120.43
109.33
86.38
55.7
24.2
-1.18
-16.25
-20.81
-18
-12.14
-6.58
-2.63
0.07
2.33
4.41
5.72
5.43
3.24
-0.18
-3.52
-5.69
-6.41
-6.39
-6.78
-8.44
-11.47
-15.13
-18.29
-19.99
-19.89
-18.5
-16.89
-16.16
-16.98
-19.28
-22.32
-25.07
-26.4
-25.58
-22.65
-18.4
-14.08
-10.65
-8.07
-4.85
1.74
14.73
35.86
64.28
96.19
125.93
148.06
159.42
160.21
153.43
143.17
132.77
123.9
116.77
111.11
107.04
104.92
104.86
105.96
106.6
105.26
101.51
96.36
91.62
88.73
88.01
88.53
88.59
86.52
81.1
71.47
57.12
37.84
14.2
-12.15
-38.7
-62.94
-83.36
-100.19
-115.1
-130.17
-146.62
-164.1
-180.96
-195.08
-204.79
-209.18
-207.8
-200.49
-187.25
-168.66
-146.22
-122.14
-98.8
-77.82
-59.52
-43.06
-27.26
-11.33
4.6
19.62
32.65
42.92
50.21
54.68
56.64
56.38
54.32
51.03
47.28
43.9
41.48
40.27
40.03
40.13
39.8
38.34
35.2
29.98
22.37
12.08
-0.82
-15.8
-31.58
-46.25
-57.65
-63.91
-63.97
-57.87
-46.65
-32
-15.79
0.39
15.36
28.33
38.71
45.99
49.8
50.11
47.32
42.44
36.75
31.56
27.73
25.58
24.78
24.71
24.73
24.38
23.56
22.41
21.15
19.86
18.44
16.6
14.09
10.81
6.94
2.93
-0.78
-3.84
-6.19
-7.98
-9.47
-10.87
-12.3
-13.79
-15.37
-17.11
-19.06
-21.19
-23.33
-25.14
-26.27
-26.46
-25.63
-23.88
-21.4
-18.35
-14.79
-10.73
-6.17
-1.17
4.07
9.23
14
18.1
21.4
23.88
25.67
26.96
27.9
28.6
29.02
29.02
28.34
26.8
24.4
21.35
18.09
15.04
12.52
10.59
9.08
7.7
6.24
4.63
2.91
1.2
-0.4
-1.84
-3.08
-4.08
-4.74
-5.02
-4.86
-4.38
-3.72
-3.16
-2.9
-3.1
-3.79
-4.95
-6.55
-8.56
-10.96
-13.66
-16.5
-19.19
-21.37
-22.63
-22.68
-21.32
-18.54
-14.59
-9.93
-5.16
-0.93
2.29
4.33
5.34
5.73
5.93
6.17
6.46
6.63
6.48
6.05
5.48
5.08
4.98
5.14
5.34
5.36
5.2
5.03
5.18
5.83
7
8.38
9.65
10.56
11.11
11.49
11.97
12.75
13.85
15.15
16.37
17.26
17.66
17.65
17.51
17.6
18.3
19.71
21.65
23.54
24.68
24.4
22.32
18.46
13.15
6.88
0.11
-6.88
-13.97
-21.1
-28.07
-34.54
-40.03
-43.99
-46.03
-45.92
-43.63
-39.29
-33.21
-25.79
-17.58
-9.28
-1.56
4.96
9.98
13.57
16.11
18.1
19.99
21.99
24.06
25.97
27.34
27.8
27.11
25.19
22.21
18.68
15.37
13.15
12.64
14.04
16.95
20.52
23.88
26.29
27.56
27.87
27.64
27.23
26.78
26.15
25.06
23.24
20.52
16.95
12.66
7.91
3.06
-1.41
-4.96
-7.21
-8.08
-7.94
-7.53
-7.72
-9.08
-11.59
-14.71
-17.63
-19.74
-20.81
-21.17
-21.32
-21.61
-22.06
-22.28
-21.81
-20.38
-18.06
-15.07
-11.63
-7.7
-3.12
2.1
7.68
12.91
16.93
19.05
19.08
17.3
14.37
11.04
7.93
5.48
3.91
3.35
3.77
5.04
6.86
8.87
10.67
11.88
12.3
11.79
10.4
8.27
5.61
2.65
-0.35
-3.14
-5.52
-7.29
-8.32
-8.57
-8.16
-7.33
-6.41
-5.75
-5.56
-5.89
-6.6
-7.45
-8.19
-8.72
-9.14
-9.76
-10.91
-12.77
-15.26
-17.98
-20.41
-22.13
-22.88
-22.73
-21.93
-20.72
-19.35
-17.95
-16.59
-15.3
-14.06
-12.76
-11.25
-9.36
-6.92
-3.93
-0.54
2.94
6.05
8.25
9.02
8.03
5.33
1.4
-2.94
-6.82
-9.59
-11.07
-11.54
-11.55
-11.65
-12.11
-12.88
-13.61
-13.8
-13
-10.89
-7.35
-2.5
3.33
9.54
15.37
19.99
22.75
23.29
21.79
18.83
15.27
11.86
9.07
6.85
4.99
3.44
2.46
2.64
4.37
7.56
11.44
14.88
16.85
16.85
15.02
11.99
8.48
5.09
2.23
0.09
-1.17
-1.53
-1.09
-0.18
0.69
1.05
0.66
-0.48
-2.03
-3.49
-4.29
-4.04
-2.65
-0.46
1.87
3.61
4.22
3.61
2.15
0.5
-0.71
-1.12
-0.68
0.3
1.39
2.17
2.33
1.83
0.84
-0.33
-1.29
-1.72
-1.51
-0.76
0.22
1.02
1.29
0.93
0.07
-1.03
-2.03
-2.87
-3.71
-4.97
-7.04
-10.23
-14.5
-19.49
-24.59
-29.09
-32.45
-34.32
-34.63
-33.53
-31.32
-28.38
-25.13
-22.01
-19.29
-17.13
-15.33
-13.46
-10.94
-7.36
-2.65
2.79
8.23
12.86
16.1
17.79
18.14
17.55
16.47
15.22
14.01
12.92
12
11.3
10.83
10.55
10.29
9.81
8.8
6.98
4.19
0.47
-3.87
-8.35
-12.34
-15.45
-17.45
-18.39
-18.51
-18.09
-17.35
-16.44
-15.53
-14.79
-14.37
-14.34
-14.55
-14.84
-15.06
-15.22
-15.51
-16.14
-17.1
-18.06
-18.47
-17.74
-15.47
-11.62
-6.41
-0.33
6.13
12.5
18.38
23.44
27.43
30.17
31.7
32.19
32
31.54
31.25
31.34
31.81
32.46
32.91
32.83
32.01
30.5
28.47
26.22
24.06
22.24
20.98
20.38
20.43
20.92
21.44
21.48
20.63
18.64
15.55
11.67
7.41
3.25
-0.44
-3.41
-5.59
-7.05
-7.96
-8.62
-9.31
-10.29
-11.69
-13.55
-15.75
-18.13
-20.46
-22.51
-24.07
-25
-25.21
-24.73
-23.67
-22.22
-20.53
-18.7
-16.75
-14.64
-12.38
-10.02
-7.68
-5.47
-3.5
-1.8
-0.3
1.08
2.48
3.95
5.51
7.17
8.9
10.64
12.26
13.63
14.59
15.03
14.95
14.43
13.65
12.8
12.06
11.55
11.28
11.17
11.12
10.98
10.6
9.84
8.58
6.8
4.52
1.87
-0.96
-3.72
-6.23
-8.42
-10.4
-12.41
-14.65
-17.24
-19.96
-22.4
-24.04
-24.44
-23.45
-21.21
-18.15
-14.74
-11.39
-8.3
-5.44
-2.69
0.09
2.87
5.46
7.5
8.78
9.24
9.15
8.9
8.91
9.39
10.24
11.22
12.02
12.5
12.66
12.71
12.72
12.75
12.73
12.57
12.31
12.04
11.94
12.06
12.3
12.44
12.23
11.5
10.24
8.56
6.67
4.79
3.08
1.65
0.53
-0.32
-1.01
-1.72
-2.6
-3.79
-5.25
-6.91
-8.6
-10.28
-11.99
-13.84
-15.95
-18.25
-20.49
-22.25
-23.07
-22.58
-20.69
-17.55
-13.57
-9.28
-5.19
-1.73
0.84
2.48
3.32
3.56
3.4
3.01
2.43
1.74
0.97
0.21
-0.42
-0.82
-0.88
-0.54
0.29
1.66
3.62
6.13
9.03
12.11
15.07
17.73
20.03
22.17
24.52
27.56
31.7
37.12
43.74
51.23
59.14
67
74.39
81
86.55
90.78
93.44
94.29
93.06
89.57
83.78
75.85
66.23
55.55
44.61
34.19
24.85
16.85
10.16
4.46
-0.63
-5.43
-10.07
-14.43
-18.18
-20.96
-22.62
-23.32
-23.49
-23.65
-24.09
-24.83
-25.64
-26.24
-26.53
-26.7
-27.13
-28.14
-29.82
-31.95
-34.13
-35.93
-37.11
-37.55
-37.31
-36.53
-35.32
-33.84
-32.15
-30.28
-28.17
-25.78
-23.09
-20.29
-17.74
-15.8
-14.77
-14.69
-15.37
-16.47
-17.7
-18.9
-20.08
-21.34
-22.69
-24.05
-25.15
-25.75
-25.67
-24.94
-23.73
-22.34
-20.98
-19.76
-18.65
-17.65
-16.82
-16.41
-16.74
-18.02
-20.24
-22.96
-25.49
-27.09
-27.31
-26.16
-24.15
-21.98
-20.28
-19.31
-18.78
-18.06
-16.54
-13.89
-10.21
-6.02
-2.01
1.23
3.37
4.38
4.54
4.29
4.06
4.23
5.01
6.35
8.08
9.95
11.76
13.34
14.61
15.45
15.77
15.49
14.6
13.25
11.64
10.1
8.84
7.99
7.52
7.27
7.03
6.59
5.91
5.04
4.2
3.69
3.73
4.34
5.35
6.49
7.42
7.95
7.98
7.51
6.62
5.47
4.19
2.94
1.85
0.91
0.05
-0.94
-2.21
-3.9
-6.01
-8.48
-11.23
-14.11
-17.02
-19.77
-22.16
-23.96
-25.04
-25.39
-25.08
-24.22
-22.93
-21.35
-19.57
-17.76
-16.03
-14.45
-12.99
-11.55
-9.99
-8.19
-6.19
-4.14
-2.23
-0.68
0.44
1.13
1.48
1.64
1.77
1.94
2.23
2.64
3.13
3.71
4.38
5.15
5.99
6.91
7.9
9.02
10.32
11.85
13.53
15.18
16.57
17.48
17.86
17.82
17.53
17.11
16.49
15.56
14.16
12.32
10.29
8.46
7.14
6.42
6.15
5.9
5.3
3.97
1.84
-1.04
-4.41
-7.93
-11.24
-14.04
-16.17
-17.66
-18.74
-19.68
-20.67
-21.65
-22.31
-22.23
-21.05
-18.63
-15.11
-10.98
-6.9
-3.65
-1.87
-1.89
-3.64
-6.63
-10.07
-13.16
-15.31
-16.25
-16.07
-14.97
-13.2
-10.97
-8.5
-6.08
-4.04
-2.62
-1.85
-1.59
-1.51
-1.29
-0.73
0.18
1.37
2.77
4.43
6.42
8.91
12.07
16.06
20.93
26.65
33.05
39.75
46.18
51.6
55.19
56.28
54.52
49.97
43.11
34.65
25.27
15.44
5.38
-4.88
-15.25
-25.51
-35.28
-44.15
-51.82
-58.15
-63.11
-66.64
-68.57
-68.59
-66.47
-62.16
-55.94
-48.5
-40.74
-33.48
-27.25
-22.18
-18.02
-14.48
-11.32
-8.52
-6.24
-4.63
-3.66
-3.12
-2.7
-2.12
-1.26
-0.13
1.16
2.44
3.62
4.73
5.83
7.08
8.61
10.41
12.34
14.11
15.39
16.05
16.15
15.92
15.61
15.4
15.26
15.09
14.73
14.09
13.17
11.99
10.63
9.15
7.61
6.08
4.63
3.3
2.03
0.76
-0.58
-1.99
-3.4
-4.73
-5.96
-7.16
-8.43
-9.85
-11.41
-13.05
-14.73
-16.45
-18.23
-20.04
-21.7
-22.82
-22.99
-22.02
-19.95
-17.21
-14.32
-11.76
-9.73
-8.2
-6.87
-5.45
-3.7
-1.47
1.2
4.12
7
9.53
11.47
12.77
13.53
13.96
14.33
14.79
15.43
16.23
17.16
18.13
19.08
19.95
20.67
21.18
21.39
21.32
21.02
20.65
20.39
20.3
20.32
20.2
19.63
18.35
16.33
13.73
10.93
8.26
5.91
3.93
2.26
0.9
-0.11
-0.65
-0.67
-0.21
0.59
1.5
2.36
3.11
3.79
4.41
4.8
4.61
3.34
0.63
-3.63
-9.21
-15.52
-21.87
-27.53
-31.96
-34.82
-35.95
-35.31
-33.05
-29.47
-25.1
-20.56
-16.39
-12.91
-10.15
-7.91
-5.88
-3.81
-1.61
0.68
2.96
5.23
7.62
10.3
13.36
16.71
20.02
22.85
24.83
25.78
25.77
25.08
24.01
22.79
21.53
20.27
19.02
17.84
16.73
15.75
14.96
14.44
14.26
14.39
14.7
14.98
15.06
14.83
14.38
13.88
13.48
13.24
13.11
12.94
12.69
12.4
12.11
11.79
11.27
10.32
8.77
6.61
4.05
1.46
-0.9
-2.93
-4.82
-7.02
-10.04
-14.22
-19.59
-25.8
-32.16
-37.79
-41.89
-43.84
-43.41
-40.68
-36.01
-29.91
-22.95
-15.65
-8.45
-1.64
4.59
10.16
15.02
19.12
22.4
24.83
26.41
27.29
27.8
28.24
28.86
29.75
30.75
31.64
32.2
32.33
32.14
31.82
31.51
31.26
31.01
30.65
30.14
29.52
28.88
28.35
27.94
27.68
27.53
27.47
27.47
27.52
27.59
27.59
27.42
26.9
25.92
24.44
22.5
20.23
17.68
14.83
11.54
7.66
3.14
-1.82
-6.74
-10.93
-13.71
-14.64
-13.6
-10.87
-6.98
-2.52
1.91
5.95
9.36
12.04
13.9
14.83
14.77
13.68
11.7
9.16
6.49
4.09
2.18
0.76
-0.3
-1.13
-1.75
-2.08
-2.01
-1.53
-0.81
-0.18
0.06
-0.26
-1.13
-2.33
-3.53
-4.5
-5.09
-5.34
-5.39
-5.47
-5.85
-6.74
-8.27
-10.41
-13.08
-16.19
-19.69
-23.55
-27.74
-32.13
-36.54
-40.69
-44.27
-46.96
-48.48
-48.66
-47.44
-44.99
-41.71
-38.21
-35.06
-32.64
-30.94
-29.59
-28.06
-25.9
-22.89
-19.14
-14.97
-10.74
-6.71
-2.99
0.41
3.43
6.01
8.05
9.55
10.56
11.27
11.86
12.41
12.88
13.1
12.93
12.26
11.11
9.63
7.95
6.2
4.51
2.94
1.53
0.25
-0.93
-2.08
-3.2
-4.3
-5.4
-6.53
-7.77
-9.19
-10.79
-12.49
-14.19
-15.83
-17.45
-19.21
-21.34
-23.99
-27.16
-30.64
-34.07
-37.02
-39.16
-40.29
-40.49
-39.93
-38.84
-37.38
-35.6
-33.44
-30.81
-27.79
-24.49
-21.2
-18.15
-15.51
-13.37
-11.63
-10.14
-8.56
-6.55
-3.73
0.06
4.73
9.89
14.93
19.24
22.39
24.27
25.04
25.05
24.63
24.05
23.47
22.89
22.35
21.83
21.39
21.12
21.05
21.19
21.47
21.83
22.12
22.32
22.4
22.39
22.4
22.48
22.69
23.08
23.64
24.36
25.22
26.17
27.16
28.22
29.48
31.22
33.83
37.66
42.95
49.75
57.98
67.48
78.15
89.92
102.65
116.09
129.8
143.38
156.61
169.54
182.43
195.61
209.34
223.71
238.68
253.99
269.03
282.66
293.23
298.91
298.3
290.92
277.12
257.65
233.07
203.55
169.25
130.82
89.72
47.98
7.68
-29.53
-62.36
-89.68
-110.29
-123.09
-127.64
-124.7
-116.22
-104.83
-92.83
-81.43
-70.79
-60.54
-50.64
-41.61
-34.45
-30.06
-28.72
-29.9
-32.47
-35.22
-37.47
-39.24
-41.14
-43.89
-47.81
-52.69
-57.86
-62.61
-66.61
-70.05
-73.47
-77.42
-82.14
-87.36
-92.49
-96.87
-100.17
-102.41
-103.93
-105.11
-106.17
-107.09
-107.69
-107.86
-107.59
-106.9
-105.68
-103.65
-100.52
-96.27
-91.35
-86.66
-83.19
-81.65
-82.05
-83.62
-85.05
-84.98
-82.47
-77.22
-69.67
-60.71
-51.38
-42.45
-34.4
-27.34
-21.3
-16.38
-12.79
-10.76
-10.3
-11.04
-12.38
-13.59
-14.15
-13.95
-13.2
-12.32
-11.62
-11.16
-10.79
-10.28
-9.49
-8.52
-7.65
-7.25
-7.57
-8.6
-10.08
-11.65
-13.08
-14.34
-15.6
-17.09
-18.96
-21.19
-23.69
-26.28
-28.76
-31.01
-32.9
-34.39
-35.52
-36.42
-37.24
-38.12
-39.08
-40.11
-41.24
-42.65
-44.63
-47.48
-51.09
-54.95
-58.06
-59.39
-58.22
-54.48
-48.71
-41.89
-35.14
-29.26
-24.73
-21.54
-19.38
-17.69
-15.96
-13.78
-11.06
-8.08
-5.29
-3.21
-2.11
-1.96
-2.42
-3.02
-3.25
-2.78
-1.41
0.8
3.51
6.13
8.01
8.63
7.84
5.84
3.12
0.21
-2.52
-4.93
-6.94
-8.5
-9.53
-9.94
-9.87
-9.6
-9.55
-10.08
-11.34
-13.14
-15.07
-16.7
-17.73
-18.21
-18.38
-18.72
-19.58
-21.14
-23.32
-25.85
-28.42
-30.8
-32.96
-34.98
-37
-39.16
-41.59
-44.37
-47.48
-50.72
-53.56
-55.36
-55.39
-53.22
-48.85
-42.78
-35.9
-29.11
-23.13
-18.23
-14.32
-11.1
-8.16
-5.2
-2.03
1.38
4.93
8.35
11.32
13.57
15.01
15.79
16.17
16.5
16.97
17.63
18.38
19.12
19.81
20.57
21.6
22.99
24.68
26.37
27.72
28.42
28.39
27.73
26.67
25.47
24.24
23.02
21.81
20.61
19.46
18.35
17.24
15.96
14.39
12.47
10.24
7.79
5.17
2.3
-1.04
-5.06
-9.9
-15.47
-21.56
-27.73
-33.53
-38.56
-42.59
-45.65
-48.09
-50.49
-53.41
-57.13
-61.37
-65.24
-67.5
-66.97
-63.03
-55.86
-46.4
-36
-25.96
-17.19
-10.03
-4.27
0.63
5.24
9.96
14.78
19.38
23.27
26.1
27.83
28.71
29.19
29.63
30.18
30.74
31.17
31.4
31.54
31.84
32.43
33.25
34.04
34.36
33.83
32.21
29.58
26.23
22.69
19.44
16.8
14.79
13.05
11.03
8.14
4.06
-1.15
-7.05
-13.06
-18.68
-23.72
-28.37
-33.04
-38.13
-43.78
-49.76
-55.43
-59.85
-62.04
-61.25
-57.19
-50.08
-40.71
-30.12
-19.44
-9.51
-0.72
6.92
13.7
19.89
25.62
30.77
35.16
38.55
40.9
42.29
42.89
42.9
42.5
41.86
41.24
40.94
41.28
42.36
43.98
45.6
46.52
46.13
44.09
40.56
36.05
31.3
26.97
23.44
20.64
18.17
15.43
11.88
7.31
1.87
-4
-9.8
-15.17
-20.01
-24.41
-28.68
-33.16
-38.14
-43.84
-50.08
-56.38
-61.72
-64.83
-64.56
-60.3
-52.28
-41.6
-29.84
-18.5
-8.61
-0.47
6.24
12.12
17.72
23.29
28.73
33.72
38
41.43
44.1
46.19
47.84
49.11
49.96
50.39
50.5
50.6
51.04
52.05
53.63
55.4
56.82
57.29
56.46
54.27
51.01
47.2
43.43
40.11
37.34
34.99
32.71
30.18
27.22
23.87
20.3
16.66
13.01
9.28
5.39
1.24
-3.25
-8.12
-13.4
-19.03
-24.86
-30.57
-35.87
-40.58
-44.84
-49.03
-53.71
-59.34
-65.91
-72.94
-79.31
-83.62
-84.47
-80.88
-72.64
-60.47
-45.93
-30.9
-17.17
-5.82
2.86
9.36
14.6
19.41
24.39
29.53
34.57
39.05
42.57
44.94
46.25
46.82
46.96
47.04
47.21
47.51
47.87
48.12
48.14
47.81
47.09
45.92
44.35
42.38
40.14
37.78
35.47
33.43
31.66
30.14
28.66
26.97
24.86
22.17
18.92
15.2
11.31
7.53
4.15
1.33
-1.02
-3.15
-5.52
-8.5
-12.31
-16.82
-21.72
-26.55
-30.97
-34.87
-38.38
-41.88
-45.74
-50.35
-55.83
-62.03
-68.39
-73.83
-77.07
-76.77
-72.2
-63.39
-51.3
-37.51
-23.73
-11.35
-1.07
6.98
13.17
18.01
22.03
25.67
29.23
32.89
36.58
40.12
43.16
45.48
46.94
47.64
47.84
47.83
47.92
48.26
48.86
49.51
49.86
49.5
48.06
45.39
41.71
37.54
33.55
30.35
28.21
27.05
26.54
26.19
25.61
24.56
22.95
20.76
18.05
14.94
11.57
8.22
5.04
2.09
-0.83
-4.04
-7.89
-12.58
-17.96
-23.63
-29.02
-33.76
-37.66
-40.93
-43.89
-47.02
-50.72
-55.22
-60.5
-66.07
-71.07
-74.26
-74.47
-70.84
-63.29
-52.57
-40.07
-27.44
-16.04
-6.63
0.66
6.22
10.71
14.73
18.63
22.49
26.08
29.11
31.37
32.8
33.6
34.05
34.43
34.93
35.65
36.5
37.38
38.14
38.67
38.85
38.58
37.76
36.39
34.58
32.4
30.05
27.67
25.44
23.5
21.9
20.53
19.21
17.61
15.41
12.49
8.99
5.23
1.74
-1.19
-3.49
-5.43
-7.5
-10.2
-13.76
-18.08
-22.82
-27.49
-31.71
-35.32
-38.42
-41.28
-44.28
-47.77
-52.09
-57.36
-63.27
-69.09
-73.57
-75.32
-73.25
-66.96
-56.94
-44.58
-31.56
-19.39
-9.07
-0.88
5.43
10.32
14.34
17.82
20.86
23.45
25.52
27.08
28.26
29.24
30.24
31.38
32.65
33.97
35.22
36.36
37.32
38.03
38.29
37.81
36.32
33.72
30.23
26.32
22.61
19.62
17.58
16.31
15.4
14.35
12.76
10.52
7.75
4.7
1.62
-1.34
-4.17
-6.97
-9.84
-12.93
-16.28
-19.92
-23.8
-27.84
-31.91
-35.86
-39.65
-43.39
-47.35
-51.84
-57.05
-62.86
-68.59
-73.15
-75.28
-73.84
-68.35
-59.09
-46.99
-33.42
-19.82
-7.3
3.37
11.84
18.07
22.28
24.84
26.25
27.02
27.51
28.01
28.55
29.09
29.53
29.74
29.65
29.28
28.7
27.98
27.23
26.48
25.65
24.59
23.04
20.83
17.94
14.51
10.87
7.4
4.39
1.89
-0.38
-2.96
-6.4
-10.95
-16.41
-22.16
-27.47
-31.87
-35.38
-38.48
-42
-46.7
-52.96
-60.64
-68.96
-76.64
-82.13
-83.93
-81.07
-73.43
-61.91
-48.17
-34.16
-21.54
-11.29
-3.56
2.15
6.63
10.64
14.65
18.72
22.58
25.77
27.89
28.82
28.82
28.48
28.52
29.5
31.61
34.56
37.7
40.22
41.34
40.5
37.4
32.06
24.89
16.68
8.62
2.08
-1.78
-2.38
0.01
4.33
9.26
13.8
17.81
21.89
26.88
33.13
40.06
46.25
49.87
49.4
44.18
34.62
22.06
8.44
-4.1
-13.75
-19.34
-20.7
-18.62
-14.6
-10.29
-7.11
-5.74
-6.16
-7.78
-9.78
-11.45
-12.49
-13.11
-13.76
-14.97
-17.05
-19.94
-23.45
-27.23
-30.85
-33.88
-35.78
-36.12
-34.72
-31.81
-27.9
-23.54
-18.83
-13.44
-6.88
0.88
9.05
16.13
20.48
21.09
17.87
11.68
3.76
-4.83
-13.53
-22.2
-30.79
-39.05
-46.41
-52.27
-56.28
-58.61
-59.8
-60.4
-60.42
-59.15
-55.38
-47.92
-36.38
-21.36
-4.32
12.99
29.26
43.95
57.24
69.61
81.31
92.12
101.38
108.23
111.91
111.96
108.16
100.56
89.5
75.73
60.45
45.15
31.19
19.4
9.8
1.72
-5.76
-13.3
-21.01
-28.63
-35.85
-42.71
-49.66
-57.36
-66.18
-75.79
-85.07
-92.41
-96.21
-95.52
-90.35
-81.74
-71.51
-61.69
-54.12
-50.1
-50.26
-54.38
-61.5
-69.82
-77.03
-80.7
-78.95
-70.89
-56.94
-38.64
-18.09
2.53
21.47
37.55
50.21
59.41
65.48
68.94
70.32
70.09
68.59
66.11
63.08
60.07
57.73
56.55
56.7
57.97
59.95
62.05
63.68
64.36
63.73
61.63
58.1
53.45
48.09
42.45
36.77
31.07
25.22
19.14
12.88
6.66
0.74
-4.74
-9.8
-14.62
-19.44
-24.35
-29.33
-34.23
-38.83
-42.92
-46.2
-48.3
-48.68
-46.81
-42.5
-36.12
-28.62
-21.15
-14.58
-9.03
-3.88
1.8
8.56
16.17
23.58
29.49
33.02
34.19
33.95
33.56
34.08
35.85
38.56
41.57
44.29
46.47
48.11
49.33
50.1
50.22
49.47
47.74
45.26
42.52
40.1
38.39
37.49
37.07
36.55
35.36
32.99
29.33
24.61
19.4
14.4
10.25
7.31
5.56
4.64
4
3.16
1.78
-0.23
-2.92
-6.27
-10.27
-14.66
-18.83
-21.86
-22.61
-20.34
-14.84
-6.7
3.09
13.42
23.5
32.96
41.65
49.45
56.06
61.07
64.11
65.07
64.17
61.91
58.94
55.91
53.47
52
51.67
52.24
53.21
54.05
54.44
54.43
54.41
54.9
56.34
58.89
62.36
66.22
69.73
71.9
71.62
67.71
59.27
45.92
28.13
7.25
-14.7
-35.36
-52.53
-64.55
-70.63
-70.91
-66.41
-58.6
-49.09
-39.28
-30
-21.44
-13.17
-4.57
4.86
14.89
24.57
32.36
36.64
36.29
31.13
21.9
9.91
-3.51
-17.41
-31.39
-45.27
-58.81
-71.39
-82.06
-89.88
-94.24
-95.13
-93.16
-89.25
-84.24
-78.61
-72.35
-65.21
-57
-47.88
-38.4
-29.38
-21.58
-15.38
-10.67
-6.99
-3.81
-0.92
1.46
2.84
2.74
1.09
-1.72
-5.04
-8.24
-11.04
-13.45
-15.68
-17.83
-19.82
-21.4
-22.39
-22.87
-23.27
-24.22
-26.29
-29.67
-33.93
-38.08
-40.74
-40.61
-36.91
-29.68
-19.84
-8.89
1.59
10.36
16.86
21.18
23.87
25.55
26.67
27.45
27.96
28.27
28.52
28.91
29.54
30.34
31.02
31.29
31.03
30.39
29.79
29.78
30.71
32.63
35.15
37.54
39.01
38.94
37.11
33.79
29.54
25.01
20.63
16.46
12.28
7.72
2.51
-3.28
-9.32
-15.02
-19.9
-23.62
-26.09
-27.5
-28.18
-28.59
-29.22
-30.52
-32.69
-35.54
-38.43
-40.4
-40.51
-38.17
-33.45
-26.97
-19.71
-12.56
-6.12
-0.59
4.11
8.15
11.73
14.93
17.88
20.63
23.24
25.71
28.02
30.13
32.03
33.7
35.03
35.81
35.75
34.5
31.84
27.63
21.94
15.1
7.63
0.22
-6.43
-11.9
-16.19
-19.64
-22.8
-25.98
-29.07
-31.51
-32.69
-32.27
-30.42
-27.8
-25.22
-23.38
-22.6
-22.9
-24.06
-25.71
-27.38
-28.44
-28.21
-26.04
-21.64
-15.11
-7.09
1.49
9.69
16.76
22.25
26.06
28.38
29.48
29.72
29.46
29.05
28.77
28.8
29.1
29.42
29.46
28.9
27.67
25.84
23.67
21.47
19.47
17.86
16.77
16.29
16.54
17.47
18.85
20.14
20.6
19.48
16.36
11.31
4.96
-1.78
-8.02
-13.17
-17.06
-19.86
-21.9
-23.47
-24.76
-25.97
-27.13
-28.22
-29.04
-29.21
-28.36
-26.25
-22.95
-18.9
-14.83
-11.45
-9.22
-8.12
-7.62
-6.84
-4.93
-1.36
3.9
10.36
17.24
23.64
28.73
31.75
32.18
29.77
24.72
17.79
10.08
2.79
-3.17
-7.35
-9.75
-10.7
-10.58
-9.72
-8.39
-6.92
-5.56
-4.55
-3.98
-3.83
-4.02
-4.47
-5.13
-5.94
-6.85
-7.68
-8.3
-8.65
-8.79
-8.89
-9.17
-9.83
-10.91
-12.35
-14.06
-15.97
-18.07
-20.34
-22.68
-24.77
-26.15
-26.23
-24.66
-21.43
-16.95
-11.96
-7.18
-3.1
0.11
2.53
4.33
5.51
5.94
5.46
4.07
2.04
-0.2
-2.08
-3.2
-3.37
-2.66
-1.24
0.65
2.84
5.22
7.64
9.96
12.06
13.76
15.02
15.8
16.11
15.88
15.02
13.47
11.3
8.86
6.56
4.83
3.81
3.27
2.69
1.5
-0.63
-3.68
-7.22
-10.68
-13.53
-15.52
-16.67
-17.16
-17.28
-17.34
-17.63
-18.42
-19.85
-21.75
-23.7
-25.13
-25.47
-24.42
-22.12
-18.96
-15.5
-12.12
-9
-6.12
-3.41
-0.88
1.35
3.06
4.18
4.72
4.88
4.9
5
5.25
5.59
5.92
6.12
6.16
6.1
5.98
5.83
5.62
5.32
4.96
4.65
4.55
4.8
5.47
6.51
7.81
9.16
10.37
11.24
11.66
11.67
11.4
11.03
10.62
10.14
9.32
7.99
5.93
3.15
-0.23
-3.95
-7.61
-10.77
-13.02
-14.18
-14.37
-14.06
-13.9
-14.39
-15.63
-17.22
-18.44
-18.63
-17.52
-15.32
-12.66
-10.18
-8.31
-7.1
-6.24
-5.3
-3.95
-2.17
-0.2
1.63
3.14
4.35
5.45
6.61
7.8
8.79
9.28
9.13
8.52
7.82
7.46
7.58
8.06
8.53
8.6
8.08
7
5.63
4.27
3.26
2.81
3.08
4.04
5.53
7.2
8.67
9.54
9.56
8.67
7.03
4.91
2.65
0.55
-1.21
-2.55
-3.56
-4.36
-5.07
-5.76
-6.45
-7.14
-7.83
-8.49
-9.05
-9.38
-9.3
-8.7
-7.63
-6.27
-4.79
-3.32
-1.82
-0.18
1.73
3.92
6.25
8.56
10.66
12.5
14.16
15.8
17.61
19.76
22.32
25.28
28.56
32.01
35.46
38.72
41.49
43.47
44.21
43.41
40.96
37.07
32.18
26.74
21.12
15.49
9.88
4.19
-1.67
-7.7
-13.8
-19.7
-25
-29.16
-31.62
-31.86
-29.76
-25.59
-20
-13.92
-8.27
-3.78
-0.79
0.61
0.54
-0.93
-3.85
-8.22
-13.78
-19.8
-25.19
-28.92
-30.59
-30.75
-30.76
-32.32
-36.55
-43.5
-52.03
-60.17
-66.02
-68.32
-66.8
-61.98
-54.91
-46.65
-38.17
-30.2
-23.28
-17.82
-14.01
-11.75
-10.67
-10.23
-9.83
-8.98
-7.33
-4.73
-1.3
2.59
6.45
9.84
12.5
14.53
16.15
17.56
18.79
19.58
19.65
18.89
17.47
15.71
13.85
11.93
9.64
6.69
2.91
-1.5
-6.06
-10.18
-13.33
-15.22
-15.7
-14.83
-12.58
-8.98
-3.99
2.38
10.04
18.68
27.76
36.45
43.75
48.73
50.73
49.64
45.85
40.2
33.63
26.89
20.46
14.41
8.64
3.01
-2.55
-8.01
-13.29
-18.33
-23.1
-27.36
-30.79
-32.91
-33.28
-31.83
-28.92
-25.29
-21.8
-19.11
-17.44
-16.6
-16.18
-15.74
-15.04
-13.98
-12.58
-10.86
-8.94
-7
-5.35
-4.34
-4.27
-5.29
-7.29
-10
-12.98
-15.78
-17.99
-19.26
-19.36
-18.18
-15.8
-12.41
-8.35
-4.02
0.2
4.11
7.69
11.06
14.39
17.7
20.89
23.68
25.84
27.28
28.2
28.98
29.97
31.39
33.14
34.92
36.34
37.05
36.85
35.61
33.32
30.07
26.04
21.54
16.97
12.62
8.61
4.85
1.12
-2.78
-6.91
-11.18
-15.32
-19.01
-21.9
-23.69
-24.16
-23.33
-21.49
-19.16
-16.97
-15.39
-14.47
-13.81
-12.71
-10.5
-6.92
-2.26
2.83
7.65
11.88
15.79
19.99
25.12
31.4
38.44
45.38
51.38
55.89
59.04
61.46
63.92
66.95
70.62
74.47
77.91
80.59
82.61
84.73
88.02
93.43
101.47
111.91
123.68
135.05
143.89
148.13
146.28
137.64
122.46
101.84
77.44
51.26
25.38
1.64
-18.7
-35.18
-48.02
-57.56
-63.46
-64.31
-58.16
-43.79
-22.12
3.27
27.1
44.2
51.31
47.9
35.47
16.35
-7.39
-34.07
-62.08
-89.3
-113.38
-132.39
-145.5
-153.08
-156.17
-155.76
-152.46
-146.75
-139.32
-131.15
-123.24
-116.06
-109.24
-101.78
-92.54
-80.99
-67.56
-53.42
-39.91
-27.87
-17.42
-8.11
0.66
9.19
17.37
24.72
30.71
35.01
37.58
38.64
38.5
37.5
35.94
34.27
33.15
33.52
36.1
41.03
47.49
53.77
57.87
58.22
54.39
47.2
38.34
29.54
21.94
15.73
10.37
5.12
-0.21
-4.8
-7.11
-5.66
-0.03
8.62
17.77
24.52
26.86
24.32
17.92
9.21
-0.6
-11.02
-21.94
-32.95
-43
-50.64
-54.72
-55
-52.15
-47.13
-40.57
-32.43
-22.48
-10.72
2.15
14.93
26.4
35.74
42.74
47.5
49.97
49.86
46.82
40.87
32.75
23.76
15.33
8.44
3.34
-0.25
-2.81
-4.72
-6.41
-8.51
-11.98
-17.68
-25.7
-35.04
-43.62
-49.1
-49.96
-46.16
-39.15
-31.09
-23.84
-18.17
-13.87
-10.25
-6.98
-4.4
-3.31
-4.29
-7.23
-11.16
-14.61
-16.37
-15.91
-13.62
-10.38
-7.03
-3.97
-1.06
2.02
5.36
8.69
11.43
12.94
12.78
10.72
6.68
0.65
-7.16
-16.16
-25.24
-32.94
-37.9
-39.29
-37.13
-32.23
-25.85
-19.31
-13.55
-9.08
-5.95
-3.9
-2.49
-1.2
0.35
2.35
4.73
7.21
9.43
11.01
11.67
11.11
9.02
5.06
-0.95
-8.85
-17.95
-27.05
-34.67
-39.47
-40.67
-38.36
-33.42
-27.02
-20.26
-13.64
-7.07
-0.04
7.81
16.35
24.81
32.06
37.13
39.66
39.98
39.08
38.25
38.52
40.34
43.54
47.42
51.24
54.48
57.12
59.56
62.41
66.17
70.93
76.5
82.65
89.42
96.67
104.14
111.41
118.21
124.65
131.2
138.44
146.65
155.34
162.4
164.81
159.93
146.72
126
99.73
70.01
38.69
7.51
-22.46
-50.26
-74.68
-94.02
-106.43
-110.71
-106.78
-95.79
-80.26
-65.43
-58.41
-66.19
-92.89
-138.29
-198.23
-266.27
-335.55
-391.51
-419.45
-410
-364.47
-293.21
-209.49
-124.17
-44.37
25.81
84.31
129.3
160.58
177.34
179.73
169.35
149.09
122.18
91.94
61.34
31.35
1.47
-29
-60.15
-91.78
-123.52
-155.9
-190.37
-228
-268.75
-309.68
-345.05
-367.85
-373.02
-360.14
-333.96
-302.01
-270.36
-241.25
-212.92
-182.02
-146.4
-106.88
-66.53
-28.67
5.29
36.69
68.08
101.46
136.78
172.15
204.95
232.94
254.99
270.93
281.71
288.57
293.34
298.2
305.19
315.74
329.89
345.57
358.13
361.57
350.46
322.82
281.83
235.68
195.56
172.32
172.85
196.72
236.67
281.09
318.53
341
345.16
332
305.34
270.1
229.56
185.76
139.55
92.14
45.52
1.99
-36.28
-67.74
-92.42
-114.31
-140.21
-178.14
-233.16
-304.85
-387.64
-472.99
-552.31
-608.6
-626.34
-598.46
-532.79
-446.02
-352.79
-260.41
-170.55
-83.54
-0.85
72.78
133.71
178.39
204.89
214.12
209.41
195.81
179.57
166.87
155.87
147.43
138.85
124.96
101.17
66.65
25.53
-14.51
-47.26
-69.39
-79.3
-78.21
-68.9
-54.89
-40.76
-32.29
-35.43
-53.39
-87.44
-133.73
-180.97
-215.19
-225.35
-208.66
-170.88
-121.17
-67.5
-15.31
33.03
76.01
112.07
140.18
160.4
173.69
181.95
188.66
193.43
194.85
191.16
180.95
163.73
140.15
111.09
78.27
43.37
7.35
-29.01
-65.06
-101.41
-140.54
-182.28
-227.43
-274.86
-320.34
-357.7
-380.82
-386.39
-375.78
-354
-326.51
-296.83
-265.08
-230.39
-194.27
-162.29
-142.34
-139.85
-153.34
-173.57
-188.17
-187.84
-171.33
-145.32
-119.77
-102
-92.81
-86.98
-77.17
-59.42
-34.91
-8.63
14.3
31.7
44.98
57.59
72.75
91.65
112.57
132.23
147.18
155.16
155.59
149.31
138.18
124.23
109.11
93.5
77.36
60.55
43.21
26.2
11.08
-0.06
-5
-1.89
10.39
31.92
61.34
95.59
130.25
160.34
181.78
192.81
194.82
192.11
190.45
195.03
208.51
230.39
257.47
285.46
310.7
331.33
347.57
361.12
374.09
387.93
402.66
416.47
425.98
427.04
415.77
389.99
350.34
300.57
246.58
194.39
148.07
108.58
74.42
43.18
13.5
-14.32
-39.01
-60
-78.67
-98.16
-121.67
-150.09
-180.59
-207.02
-222.66
-223.29
-209.28
-185.32
-157.84
-131.76
-108.39
-85.68
-60.47
-31.28
0
28.7
49.34
58.04
53.83
38.55
15.88
-9.61
-32.82
-48.49
-51.77
-39.47
-11.37
29.17
75.94
121.6
159.72
186.14
199.33
199.93
190.06
172.79
151.74
130.77
113.3
101.37
94.99
91.92
88.49
80.87
66.55
45.09
18.38
-10.1
-36.37
-57.35
-72.01
-81.9
-90.84
-103.62
-124.15
-153.73
-190.33
-229.3
-265.17
-293.88
-313.93
-326.43
-333.87
-338.46
-341.02
-340.92
-337.08
-328.94
-317.37
-304.31
-292.03
-282.12
-274.76
-268.84
-262.48
-253.82
-241.45
-224.7
-203.48
-178.12
-149.26
-117.74
-84.69
-51.51
-19.89
8.33
31.55
48.74
59.9
66.08
69.08
70.71
72.3
74.28
76.42
78.17
79.14
79.2
78.42
76.87
74.39
70.74
65.8
59.65
52.64
45.21
37.81
30.84
24.67
19.64
16.02
13.87
13.01
12.98
13.2
13.12
12.51
11.53
10.7
10.6
11.53
13.27
15.17
16.38
16.32
14.86
12.36
9.44
6.91
5.63
6.51
10.27
16.92
25.39
33.49
38.7
39.3
35.41
29.11
23.53
21.36
23.62
29.51
36.97
43.94
49.25
52.79
55.26
57.49
60.18
63.71
68.3
73.94
80.32
86.61
91.46
93.23
90.45
82.41
69.63
54.02
38.4
25.59
17.3
13.48
12.48
11.93
10.07
6.45
1.98
-1.87
-4.06
-4.51
-4.12
-4.07
-5.29
-8.15
-12.77
-19.4
-28.62
-41.01
-56.58
-74.5
-93.21
-111.13
-127.26
-141.47
-154.24
-165.82
-175.59
-181.86
-182.47
-175.84
-161.87
-142.32
-120.3
-99.25
-81.87
-69.42
-61.59
-56.87
-53.06
-47.78
-38.92
-25.19
-6.4
16
39.01
58.68
71.33
74.84
69.58
58.23
44.66
32.47
23.6
18.11
14.66
11.63
8.13
4.32
1.17
-0.32
0.2
2.08
4.06
4.87
3.9
1.63
-0.56
-0.99
1.52
7.13
14.81
22.85
29.55
33.8
35.38
34.82
33.04
30.88
28.99
27.64
26.9
26.83
27.56
29.21
31.69
34.52
36.96
38.36
38.61
38.34
38.67
40.6
44.48
49.75
55.31
60.17
63.88
66.32
67.35
66.37
62.52
55.21
44.64
31.97
18.73
6.24
-4.99
-15.04
-24.23
-32.56
-39.5
-44.27
-46.23
-45.14
-41.25
-35.1
-27.33
-18.78
-10.43
-3.54
0.51
0.57
-3.86
-12.31
-23.22
-34.37
-43.64
-49.71
-52.48
-53
-52.87
-53.63
-56.18
-60.68
-66.58
-72.89
-78.34
-81.55
-81.45
-77.54
-70.35
-61.29
-52.28
-44.83
-39.34
-34.91
-29.86
-22.63
-12.57
-0.24
12.94
25.31
35.49
42.65
46.62
47.74
46.93
45.52
44.88
45.97
48.92
52.93
56.7
59.23
60.4
61.08
62.53
65.5
69.66
73.47
74.97
72.55
65.81
55.72
44.22
33.52
25.4
20.78
19.7
21.54
25.26
29.65
33.63
36.38
37.78
38.4
39.36
41.72
45.81
50.78
54.76
55.47
51.19
41.43
27.13
10.26
-6.91
-22.5
-35.37
-45.06
-51.6
-55.27
-56.57
-56.17
-54.94
-53.72
-53.03
-52.83
-52.52
-51.17
-48.09
-43.17
-37.05
-30.83
-25.49
-21.38
-18.11
-14.63
-9.81
-2.86
6.31
17.17
28.77
40.15
50.64
59.94
68.15
75.48
82.07
87.66
91.46
92.18
88.3
78.56
62.22
39.37
10.98
-20.97
-53.62
-83.5
-107.24
-122.29
-127.58
-123.85
-113.21
-98.43
-81.93
-65.24
-48.97
-33.32
-18.55
-5.22
6.03
14.82
21.28
25.86
29.03
31.06
31.86
31.2
28.96
25.14
20.06
14.05
7.46
0.7
-5.67
-10.98
-14.71
-16.57
-16.66
-15.18
-12.24
-7.65
-1.11
7.31
16.73
25.37
30.99
31.76
27.03
17.62
5.43
-7.37
-19.25
-29.76
-39.23
-48.2
-56.64
-63.68
-67.96
-68.23
-64
-55.68
-44.22
-30.43
-14.72
2.75
21.48
40.27
57.1
69.95
77.56
80.12
79.25
77.23
76.07
76.7
78.83
81.29
82.66
81.76
77.93
71.15
61.84
50.82
39.19
28.13
18.72
11.56
6.7
3.7
1.88
0.63
-0.38
-1.14
-1.58
-1.66
-1.53
-1.48
-1.72
-2.34
-3.29
-4.4
-5.31
-5.45
-4.19
-0.99
4.2
10.79
17.56
23.08
26.22
26.48
23.98
19.35
13.53
7.7
3.22
1.45
3.12
7.87
13.99
19
20.66
18.09
12.11
4.74
-1.89
-6.73
-10.26
-14.14
-20.26
-29.71
-42.21
-56.17
-69.24
-79.08
-84.01
-83.43
-77.82
-68.43
-56.8
-44.33
-32.13
-20.94
-11.44
-4.15
0.63
3.18
4.53
6.08
8.92
13.06
17.31
19.7
18.39
12.51
2.49
-10.39
-24.47
-38.33
-50.97
-61.63
-69.68
-74.71
-76.82
-76.72
-75.66
-74.86
-74.99
-75.9
-76.62
-76.02
-73.13
-67.41
-58.75
-47.49
-34.28
-19.96
-5.42
8.74
22.37
35.69
48.96
61.97
73.75
82.81
87.64
87.3
81.74
71.37
56.72
38.13
16.02
-8.56
-33.46
-55.76
-72.53
-81.9
-83.63
-79.14
-71.04
-62.42
-56.15
-54.3
-57.51
-64.48
-72.02
-75.91
-72.56
-60.55
-41.56
-19.46
1.51
18.94
33.29
47.31
64.13
85.24
109.45
133.24
152.48
164.22
167.66
163.9
154.91
142.37
127.27
110.24
92.3
75.32
61.77
53.81
52.15
55.62
61.54
66.94
69.8
69.85
68.33
67.14
67.64
69.98
72.81
73.74
70.12
59.89
42.46
19.05
-7.55
-33.71
-56.02
-72.31
-82.13
-86.59
-87.81
-88.16
-89.65
-93.49
-99.94
-108.19
-116.58
-123.12
-126.11
-124.86
-120.02
-113.25
-106.43
-100.72
-96.14
-91.78
-86.43
-79.41
-70.83
-61.4
-51.79
-42.13
-32.03
-21.13
-9.65
1.51
11.32
19.41
26.55
34.19
43.41
53.99
64.36
72.73
78.47
83.02
89.27
99.86
115.44
133.8
150.79
162.1
165.3
160.51
149.9
136.15
121.01
104.72
86.55
66.04
43.9
22.33
4.01
-9.04
-16.54
-19.84
-20.78
-20.17
-16.8
-7.99
8.85
34.07
64.8
95.4
119.7
133.46
136.02
130.2
120.77
112.11
106.3
102.44
97.08
85.61
63.84
29.38
-17.32
-72.71
-130.52
-183.07
-223
-244.96
-246.78
-229.75
-198.36
-159.35
-120.66
-89.79
-72.08
-69.34
-79.24
-96.36
-114.38
-128.67
-137.86
-143.62
-148.68
-154.59
-160.35
-163.06
-159.78
-149.39
-133.24
-114.19
-94.97
-76.93
-59.91
-43.33
-27.19
-12.69
-1.53
5.14
7.66
7.8
7.95
9.98
14.44
20.66
27.19
32.6
36.06
37.42
37.2
36.41
36.42
38.66
44.28
53.65
65.94
79.1
90.4
97.27
98.12
92.99
83.23
70.73
57.07
43
28.67
14.3
0.77
-10.46
-18.05
-21.69
-22.54
-22.75
-24.21
-27.34
-30.72
-31.73
-28.01
-18.94
-5.98
7.83
19.33
26.55
29.28
28.82
26.96
25.19
24.18
23.94
24.34
25.48
27.71
31.47
36.8
43.21
49.78
55.59
60.03
63.11
65.34
67.45
70.12
73.7
78.08
82.71
86.64
88.65
87.46
81.92
71.23
55.19
34.36
10.3
-14.48
-36.76
-53.35
-61.92
-61.79
-54.12
-41.46
-26.77
-12.27
1.15
13.9
27.02
41.17
56.09
70.49
82.58
90.82
94.53
94.21
91.36
87.93
85.52
84.73
84.96
84.6
81.88
75.54
65.49
52.79
39.28
26.84
16.71
9.15
3.44
-1.7
-7.67
-15.42
-25.19
-36.58
-48.76
-60.93
-72.54
-83.39
-93.34
-102.08
-108.9
-112.88
-113.26
-109.65
-102.26
-91.74
-79.06
-65.23
-51.22
-37.88
-25.83
-15.45
-6.83
0.15
5.82
10.69
15.49
21.14
28.35
37.29
47.11
56.11
62.13
63.51
59.79
52.02
42.39
33.33
26.63
22.92
21.8
22.18
22.95
23.17
21.95
18.33
11.13
-0.59
-16.89
-36.29
-55.87
-71.99
-81.64
-83.67
-79.25
-71.28
-63.08
-57.04
-53.91
-52.91
-52.59
-51.65
-49.45
-45.93
-41.31
-35.88
-29.9
-23.78
-18.14
-13.81
-11.55
-11.85
-14.73
-19.76
-26.16
-32.78
-38.41
-41.85
-42.23
-39.2
-33.18
-25.2
-16.72
-9.21
-3.72
-0.65
0.27
-0.19
-1.12
-1.76
-1.73
-1.06
-0.08
0.74
0.93
0.2
-1.56
-4.23
-7.43
-10.63
-13.3
-15
-15.55
-15.06
-13.81
-12.25
-10.92
-10.26
-10.63
-12.17
-14.73
-17.8
-20.71
-22.81
-23.67
-23.13
-21.18
-17.81
-12.99
-6.81
0.37
7.71
14.04
18.17
19.36
17.61
13.68
8.71
3.75
-0.63
-4.51
-8.28
-12.32
-16.61
-20.73
-23.98
-25.74
-25.72
-23.88
-20.34
-15.06
-7.92
1.08
11.49
22.23
31.88
39.14
43.45
45.14
45.19
44.59
43.87
42.93
41.33
38.88
35.92
33.38
32.23
33.15
36.01
40.05
44.22
47.65
49.96
51.24
51.81
51.91
51.55
50.38
48.06
44.43
39.75
34.61
29.86
26.27
24.35
24.16
25.38
27.27
28.99
29.82
29.38
27.81
25.71
23.89
23.01
23.2
23.97
24.51
23.98
22.04
18.9
15.23
11.73
9.07
7.91
9.11
13.82
23.08
37.27
55.66
76.55
98.23
119.97
142.52
167.51
195.91
226.47
254.93
275.08
280.73
268.24
237.81
193.29
140.46
85.11
31.45
-18.25
-63.01
-102.34
-135.59
-162.09
-181.63
-194.94
-203.55
-209.23
-213.09
-215.01
-213.94
-208.8
-199.5
-187.37
-174.85
-164.36
-157.08
-152.42
-148.26
-142.25
-133.01
-120.9
-107.81
-96.16
-87.74
-82.92
-80.72
-79.4
-77.36
-73.64
-68.04
-60.98
-53.12
-45.03
-37.03
-29.3
-21.98
-15.4
-10.13
-6.86
-6.21
-8.17
-11.78
-15.13
-16.1
-13.29
-6.81
1.69
9.87
15.88
19.34
21.36
23.81
28.04
34.23
41.33
47.88
52.92
56.42
59.03
61.5
64.03
66.27
67.59
67.58
66.21
63.68
60.12
55.37
49.12
41.3
32.28
22.9
14.15
6.91
1.95
-0.04
1.47
6.57
14.39
22.91
29.45
31.64
28.64
21.57
12.96
5.36
0.01
-3.72
-7.83
-14.34
-24.08
-36.25
-48.97
-60.33
-69.29
-75.85
-80.69
-84.51
-87.5
-89.38
-89.71
-88.45
-86.09
-83.47
-81.29
-79.62
-77.91
-75.2
-70.65
-63.88
-55.04
-44.56
-32.82
-19.9
-5.64
10.01
26.63
43.07
57.56
68.19
73.64
73.57
68.84
61.2
52.79
45.31
39.71
36.03
33.77
32.36
31.43
30.87
30.67
30.72
30.68
30.19
28.95
27.04
24.83
22.84
21.36
20.35
19.35
17.81
15.42
12.22
8.73
5.58
3.22
1.68
0.63
-0.48
-1.91
-3.64
-5.28
-6.41
-6.83
-6.76
-6.71
-7.32
-8.99
-11.79
-15.47
-19.56
-23.52
-26.79
-28.93
-29.59
-28.54
-25.78
-21.51
-16.18
-10.41
-4.86
-0.14
3.37
5.63
6.88
7.56
8.09
8.68
9.34
9.9
10.22
10.29
10.27
10.35
10.56
10.83
10.83
10.2
8.71
6.27
2.99
-0.91
-5.22
-9.84
-14.72
-19.94
-25.61
-31.8
-38.58
-45.97
-53.96
-62.39
-70.89
-78.65
-84.47
-87.06
-85.41
-79.32
-69.37
-56.66
-42.23
-26.76
-10.62
5.66
20.91
33.21
40.51
41.51
36.4
26.95
15.89
5.94
-1.02
-4.23
-3.85
-0.57
4.74
11.18
17.91
24.25
29.88
34.88
39.56
44.19
48.56
51.98
53.51
52.42
48.66
42.86
36.09
29.38
23.48
18.64
14.8
11.75
9.36
7.51
6.02
4.66
3.13
1.17
-1.2
-3.64
-5.48
-5.98
-4.52
-0.87
4.59
11.08
17.67
23.63
28.64
32.62
35.49
36.96
36.56
33.81
28.61
21.42
13.19
5.03
-2.1
-7.62
-11.31
-13.11
-12.92
-10.72
-6.49
-0.39
7.32
16.41
26.73
38.11
50.06
61.57
71.11
76.99
77.8
72.97
62.64
47.45
28.14
5.56
-18.98
-43.21
-64.06
-78.33
-83.93
-80.76
-70.9
-57.75
-44.64
-33.8
-25.9
-20.42
-16.35
-12.79
-9.09
-4.92
-0.2
4.67
8.64
10.08
7.35
-0.37
-12.45
-26.74
-40.14
-49.58
-53.06
-50.11
-41.77
-30.01
-17.07
-4.9
4.95
11.54
14.41
13.73
10.3
5.38
0.48
-3.07
-4.43
-3.42
-0.35
4.15
9.35
14.57
19.22
22.8
24.98
25.77
25.62
25.29
25.52
26.64
28.22
29.25
28.52
25.29
19.58
12.26
4.45
-2.92
-9.48
-15.26
-20.39
-24.86
-28.42
-30.94
-32.53
-33.57
-34.3
-34.59
-33.73
-30.87
-25.66
-18.58
-11.12
-5.12
-2.1
-2.59
-5.92
-10.52
-14.52
-16.49
-15.77
-12.74
-8.5
-4.47
-1.84
-1.1
-1.93
-3.5
-4.96
-5.58
-4.92
-2.46
2.26
9.34
17.95
26.01
30.7
29.58
22.06
9.84
-3.54
-14.41
-20.7
-22.58
-22.03
-21.31
-21.68
-22.81
-23.4
-22.23
-18.94
-14.24
-9.31
-5.18
-2.15
0.16
2.46
5.18
8.2
10.78
11.94
10.94
7.63
2.72
-2.53
-6.64
-8.58
-8.02
-5.47
-2.05
1.04
2.86
3.14
2.22
0.91
0.05
0.23
1.57
3.76
6.28
8.65
10.63
12.21
13.53
14.77
16.01
17.29
18.62
20.16
22.12
24.72
27.91
31.27
33.99
35.1
33.87
30.11
24.32
17.54
10.93
5.27
0.64
-3.74
-9.16
-16.82
-27.13
-39.21
-51
-59.8
-63.4
-60.9
-53.06
-41.9
-29.82
-18.65
-8.98
-0
10.1
23.37
41.13
63.09
86.65
107.05
118.17
114.41
92.65
53.95
3.79
-49.01
-94.89
-126.21
-139.43
-135.92
-121.27
-103.42
-90.07
-86.42
-93.64
-109.01
-127.3
-142.97
-152.34
-154.67
-152.02
-147.96
-145.71
-146.89
-151.16
-156.51
-160.13
-159.24
-151.65
-136.33
-113.58
-84.94
-52.75
-19.41
13.38
44.87
74.86
103.01
127.92
146.7
155.73
151.97
134.54
105.86
71.44
38.51
14.1
3.18
7.52
26.06
55.7
92.61
133.03
173.6
211.18
242.79
265.8
278.31
279.72
270.89
253.87
231.36
205.92
179.54
153.49
128.53
105.23
84.35
66.8
53.43
44.73
40.31
38.96
38.89
38.23
35.46
29.94
21.88
12.18
2.16
-7.05
-14.78
-20.96
-26.04
-30.74
-35.69
-41.32
-47.7
-54.58
-61.59
-68.27
-74.15
-78.88
-82.22
-84.08
-84.53
-83.73
-81.85
-79.07
-75.59
-71.67
-67.62
-63.77
-60.29
-57.11
-53.97
-50.54
-46.69
-42.6
-38.8
-35.8
-33.94
-33.02
-32.43
-31.52
-29.82
-27.35
-24.42
-21.49
-18.72
-16.01
-13.03
-9.62
-5.92
-2.35
0.57
2.5
3.42
3.55
3.1
2.17
0.71
-1.3
-3.68
-5.94
-7.58
-8.3
-8.18
-7.73
-7.53
-7.87
-8.58
-9.04
-8.55
-6.69
-3.52
0.48
4.76
8.9
12.79
16.43
19.76
22.56
24.56
25.63
25.91
25.83
25.86
26.3
27.11
28.01
28.59
28.64
28.07
26.98
25.43
23.49
21.2
18.6
15.82
13.02
10.35
7.89
5.62
3.46
1.35
-0.7
-2.64
-4.42
-5.94
-7.17
-8.17
-9.1
-10.21
-11.84
-14.3
-17.61
-21.46
-25.17
-27.82
-28.52
-26.7
-22.24
-15.5
-7.12
2.06
11.23
19.61
26.56
31.64
34.63
35.59
34.71
32.34
28.84
24.47
19.29
13.29
6.4
-1.36
-9.84
-18.66
-27.21
-34.73
-40.39
-43.4
-43.04
-38.71
-29.94
-16.57
1.01
21.68
43.54
64.19
81.31
93.21
99.3
100.16
97.27
92.57
88.02
85.22
85.23
88.44
94.38
101.88
109.42
115.61
119.64
121.25
120.53
117.34
111.14
101.02
86.11
65.94
40.64
10.95
-21.85
-55.82
-88.29
-116.18
-136.76
-148.62
-152.35
-150.18
-145.02
-139.03
-132.99
-126.37
-118.21
-108.15
-96.67
-84.86
-73.74
-63.81
-55.05
-47.19
-40.13
-34.01
-29
-24.99
-21.6
-18.16
-14.17
-9.38
-3.98
1.65
7.05
12.04
16.8
21.68
27.02
32.83
38.73
44.18
48.63
51.75
53.27
52.91
50.32
45.42
38.82
31.98
26.84
25.14
27.67
33.97
42.73
52.49
62.39
72.39
82.95
94.37
106.26
117.44
126.07
130.11
127.67
117.43
99.14
73.78
43.69
12.13
-17.46
-42.1
-59.77
-69.4
-70.87
-64.73
-52.41
-36.19
-19.06
-4.12
6.22
10.95
10.58
6.63
0.81
-5.63
-12.12
-18.53
-24.84
-30.93
-36.53
-41.43
-45.59
-49.06
-51.99
-54.37
-56.08
-56.97
-57.09
-56.77
-56.53
-56.83
-57.85
-59.43
-61.2
-62.73
-63.86
-64.58
-64.99
-65.17
-65.09
-64.63
-63.63
-61.98
-59.54
-56.18
-51.75
-46.25
-40.03
-33.91
-29.02
-26.33
-26.19
-27.89
-29.8
-29.76
-26.14
-18.56
-8.26
2.29
10.43
14.37
13.8
9.73
3.96
-1.63
-5.56
-6.66
-4.05
2.86
13.99
28.22
43.25
56.08
64.07
65.88
62.01
54.37
45.26
36.45
28.67
21.82
15.61
10.04
5.46
2.19
-0.11
-2.55
-6.56
-13.1
-22.1
-32.44
-42.56
-51.32
-58.44
-64.41
-69.87
-74.84
-78.42
-79.03
-74.88
-64.6
-47.61
-24.25
4.39
36.48
69.6
100.92
127.31
145.9
154.51
152.38
140.25
120.13
94.55
65.84
35.79
5.93
-21.96
-45.66
-62.6
-70.78
-69.58
-60.21
-45.39
-28.48
-12.39
1.05
11.03
17.33
19.75
17.9
11.44
0.5
-14.04
-30.51
-46.76
-60.68
-70.71
-76.19
-77.45
-75.52
-71.83
-67.9
-64.95
-63.56
-63.45
-63.6
-62.77
-60.18
-56.15
-52.11
-49.94
-50.88
-54.89
-60.72
-66.67
-71.65
-75.47
-78.47
-80.61
-80.9
-77.72
-69.92
-58.08
-44.65
-33.1
-26.11
-24.39
-26.41
-29.6
-31.77
-32.28
-31.93
-31.91
-32.71
-33.37
-31.96
-26.47
-15.96
-0.91
16.94
35.36
52.4
66.81
78.14
86.55
92.52
96.7
99.66
101.8
103.24
103.77
102.88
100.06
95.09
88.26
80.27
72.09
64.51
58.05
52.89
49.02
46.4
44.97
44.58
44.67
44.35
42.46
38.11
31.12
22.19
12.71
4.34
-1.63
-4.67
-5.09
-3.83
-1.96
-0.36
0.54
0.67
0.11
-0.98
-2.51
-4.26
-5.92
-6.99
-6.9
-5.33
-2.35
1.54
5.66
9.4
12.48
14.9
16.77
18.12
18.84
18.73
17.74
16.04
13.95
11.81
9.82
7.86
5.66
2.98
-0.24
-3.85
-7.51
-10.9
-13.83
-16.27
-18.31
-20.06
-21.58
-22.8
-23.56
-23.69
-23.1
-21.71
-19.49
-16.46
-12.7
-8.47
-4.2
-0.39
2.56
4.49
5.6
6.37
7.31
8.82
10.94
13.43
15.85
17.8
19.03
19.61
19.84
20.06
20.56
21.34
22.06
22.09
20.71
17.35
11.83
4.42
-4.16
-12.96
-20.96
-27.28
-31.35
-32.94
-32.16
-29.45
-25.5
-21.13
-17.23
-14.49
-13.29
-13.54
-14.77
-16.29
-17.43
-17.75
-17.12
-15.67
-13.6
-11.06
-8.15
-4.99
-1.79
1.22
3.86
6.16
8.38
10.91
14.05
17.93
22.45
27.23
31.7
35.02
36.24
34.49
29.4
21.35
11.57
1.82
-6.25
-11.52
-13.75
-13.52
-11.8
-9.68
-7.98
-7.28
-7.98
-10.31
-14.4
-20.19
-27.4
-35.55
-43.97
-51.87
-58.44
-62.88
-64.64
-63.54
-59.91
-54.5
-48.3
-42.15
-36.39
-30.78
-24.78
-18.06
-10.9
-4.29
0.53
2.76
2.57
1.15
0.21
1.23
4.91
11.1
19.08
28.09
37.61
47.35
57.14
66.85
76.3
85.36
93.74
100.94
106.18
108.5
107.14
101.93
93.46
82.95
71.87
61.59
53.11
47.08
43.71
42.81
43.78
45.62
47.12
47.18
45.15
40.96
35.11
28.35
21.41
14.85
9.03
4.1
0.1
-3.15
-6.05
-9.23
-13.42
-19.12
-26.32
-34.54
-42.89
-50.44
-56.61
-61.25
-64.53
-66.69
-67.77
-67.54
-65.67
-61.91
-56.22
-48.8
-39.99
-30.17
-19.7
-8.92
1.82
12.22
22.11
31.61
41.03
50.78
61.12
71.98
82.94
93.31
102.43
109.83
115.35
118.94
120.7
120.56
118.45
114.28
108.11
100.18
91
81.15
71.3
62.13
54.25
48.14
44.1
42.15
41.97
42.99
44.33
44.91
43.7
39.89
33.28
24.3
13.97
3.58
-5.88
-14.01
-21.15
-28.15
-35.89
-44.78
-54.52
-64.2
-72.57
-78.56
-81.63
-81.96
-80.38
-78.13
-76.33
-75.65
-76.15
-77.32
-78.4
-78.66
-77.56
-74.81
-70.37
-64.27
-56.71
-48.07
-38.87
-29.7
-21.15
-13.64
-7.44
-2.66
0.81
3.26
5.05
6.63
8.34
10.27
12.38
14.62
17.08
19.99
23.55
27.69
32
35.76
38.31
39.31
38.84
37.32
35.25
32.93
30.46
27.76
24.64
20.92
16.56
11.59
6.17
0.61
-4.73
-9.49
-13.52
-16.96
-20.21
-23.7
-27.75
-32.38
-37.31
-42.23
-46.94
-51.4
-55.7
-59.88
-63.81
-67.24
-69.89
-71.61
-72.46
-72.61
-72.14
-70.96
-68.73
-65.14
-60.07
-53.77
-46.72
-39.43
-32.27
-25.32
-18.55
-11.89
-5.35
0.99
7.13
13.13
19.16
25.21
31.05
36.13
39.79
41.47
40.93
38.3
33.99
28.53
22.39
15.92
9.31
2.54
-4.49
-12.02
-20.25
-29.18
-38.6
-47.92
-56.34
-62.98
-67.18
-68.68
-67.75
-65.14
-61.85
-58.83
-56.75
-55.81
-55.68
-55.73
-55.21
-53.46
-50.19
-45.48
-39.83
-33.97
-28.78
-25
-23.06
-22.91
-24.04
-25.67
-27.12
-28.13
-28.89
-29.87
-31.32
-32.95
-34.02
-33.68
-31.61
-28.3
-24.88
-22.51
-21.82
-22.64
-24.31
-26.19
-28.07
-30.14
-32.57
-35.09
-36.84
-36.67
-33.68
-27.71
-19.54
-10.62
-2.56
3.42
6.85
8.13
8.28
8.63
10.39
14.35
20.7
28.95
38.09
46.68
53.1
55.89
54.09
47.66
37.45
25.04
12.23
0.54
-9.13
-16.61
-22.28
-26.79
-30.79
-34.74
-38.62
-41.96
-43.83
-43.08
-38.73
-30.38
-18.39
-3.82
11.9
27.46
41.98
55.1
66.88
77.53
87.21
95.86
103.33
109.47
114.34
118.13
121.1
123.36
124.71
124.77
123.2
119.94
115.45
110.58
106.24
103.03
101.06
100.03
99.48
99.05
98.66
98.45
98.57
99.02
99.32
98.51
95.21
88.03
76.13
59.81
40.79
22.01
6.97
-1.6
-2.76
2.16
9.9
16.59
19.13
16.35
9.07
-0.54
-10.07
-17.83
-23.13
-25.98
-26.59
-25.15
-21.9
-17.63
-13.85
-12.52
-15.35
-23.07
-35.1
-49.69
-64.68
-78.12
-88.75
-96.1
-100.22
-101.51
-100.44
-97.64
-93.8
-89.61
-85.6
-81.91
-78.4
-74.73
-70.72
-66.41
-62.19
-58.59
-56.14
-55.17
-55.68
-57.52
-60.43
-64.18
-68.63
-73.65
-79.03
-84.36
-89.05
-92.42
-93.99
-93.59
-91.43
-87.95
-83.52
-78.25
-71.85
-63.94
-54.34
-43.42
-32.11
-21.73
-13.49
-8.01
-5.15
-4.1
-3.8
-3.34
-2.24
-0.37
2.17
5.2
8.57
12.05
15.29
17.85
19.35
19.58
18.54
16.47
13.6
10.16
6.26
2.04
-2.28
-6.43
-10.12
-13.22
-15.73
-17.86
-19.88
-22.08
-24.55
-27.2
-29.82
-32.19
-34.07
-35.27
-35.53
-34.68
-32.64
-29.6
-25.98
-22.46
-19.7
-18.17
-18.04
-19.18
-21.29
-24.05
-27.17
-30.26
-32.83
-34.27
-34.02
-31.83
-27.94
-23.06
-18.24
-14.52
-12.46
-11.99
-12.37
-12.56
-11.66
-9.17
-5.16
-0.13
5.26
10.55
15.55
20.49
25.93
32.5
40.8
51.01
62.66
74.6
85.4
93.87
99.71
103.67
107.07
111.07
115.97
121.03
124.91
126.48
125.46
122.56
119.1
116.28
114.88
115.13
117.08
120.74
126.1
132.71
139.4
144.18
144.58
138.38
124.24
102.22
73.58
40.33
4.74
-30.97
-64.65
-94.07
-116.99
-131.48
-136.61
-133.12
-123.68
-112.29
-102.97
-98.08
-97.38
-98.13
-96.58
-90.01
-78.2
-63.68
-50.24
-40.96
-36.43
-34.57
-31.73
-24.55
-11.51
6.68
27.82
49.51
70.09
89.16
107.27
125.62
145.89
170.2
200.62
238.35
282.53
329.23
371.45
400.45
408.3
390.5
347.82
286.35
215.74
146.39
86.64
40.96
9.76
-9.64
-21.14
-28.37
-33.71
-38.26
-42.51
-46.77
-51.55
-57.32
-64.17
-71.57
-78.45
-83.64
-86.43
-87.08
-86.83
-87.34
-89.83
-94.28
-99.24
-102.48
-102.05
-97.42
-89.88
-81.87
-75.68
-72.34
-71.18
-70.38
-68.2
-63.91
-58.08
-52
-46.75
-42.6
-38.97
-35.03
-30.28
-24.78
-19.12
-14
-10.01
-7.44
-6.35
-6.66
-8.19
-10.69
-13.77
-17.04
-20.19
-22.97
-25.31
-27.22
-28.82
-30.38
-32.22
-34.65
-37.87
-41.92
-46.62
-51.57
-56.22
-59.95
-62.23
-62.8
-61.81
-59.92
-58.07
-57.07
-57.27
-58.35
-59.52
-59.91
-59.1
-57.16
-54.6
-51.9
-49.25
-46.5
-43.28
-39.34
-34.69
-29.74
-25.03
-21.06
-18.05
-15.98
-14.91
-14.9
-15.97
-18.06
-20.99
-24.51
-28.36
-32.59
-37.3
-42.78
-48.91
-55.07
-60.1
-62.65
-61.67
-56.73
-48.26
-37.09
-24.71
-12.33
-0.68
10.19
20.75
31.67
43.65
56.7
70.37
82.64
91.71
96.75
98.44
98.66
99.41
102.5
107.81
114.14
117.14
112.44
96.88
69.56
31.68
-14.1
-62.84
-110.01
-150.1
-181.56
-204.2
-219.32
-229.28
-237.48
-248.63
-265.82
-293
-330.87
-381.7
-445.2
-518.42
-595.87
-670.89
-738.24
-792.95
-835.47
-834.56
-769.08
-635.5
-453.86
-257.39
-74.7
65.69
171.27
251.03
310.02
345.02
352.72
334.29
297.02
254.34
220.97
209.96
223.83
257.43
296.8
327.35
339.85
334
317.68
301.63
295.37
300
311.18
320.07
319.57
307.45
286.65
262.84
240.49
221.81
204.7
186.77
166.52
144.94
124.73
108.59
97.69
90.91
86.17
80.62
72.43
60.64
45.05
26.01
4.72
-16.44
-34.11
-44.57
-45.39
-36.31
-19.5
1.21
21.68
38.92
51.6
59.63
63.13
61.69
54.04
38.77
15.3
-15.16
-49.04
-80.87
-104.45
-114.68
-108.99
-88.15
-55.8
-17.03
23.01
60.2
91.8
116.31
133.07
142.07
143.59
137.91
125.16
105.6
80.33
51.97
24.63
2.54
-11.98
-20.19
-26.88
-38.16
-58.11
-86.29
-117.52
-144.27
-160.18
-162.69
-153.52
-136.97
-117.43
-97.53
-77.84
-58.05
-38.38
-20.37
-6.34
1.82
3.73
0.93
-3.93
-8.23
-10.53
-11.05
-11.3
-13.17
-17.65
-24.08
-29.97
-31.81
-26.48
-12.7
8.01
31.62
52.89
67.39
73.23
71.66
66.08
60.31
56.83
55.87
55.84
54.51
50.24
42.64
32.42
20.78
8.84
-2.44
-12.29
-19.83
-24.25
-25.11
-22.73
-18.32
-13.65
-10.53
-10.16
-12.74
-17.46
-22.76
-26.86
-28.34
-26.5
-21.48
-14.16
-5.8
2.37
9.57
15.53
20.47
24.88
29.29
34.15
39.74
46.24
53.72
62.18
71.46
81.3
91.41
101.44
110.88
118.99
124.73
126.93
124.49
116.74
103.63
85.77
64.28
40.54
16.03
-7.79
-29.53
-48.01
-62.49
-72.78
-79.1
-81.86
-81.33
-77.39
-69.86
-58.68
-44.3
-27.66
-10.12
6.94
22.25
34.75
43.68
48.61
49.8
48.28
45.78
44.2
44.93
48.32
53.82
60.56
68.08
76.74
87.17
99.4
111.83
120.96
122.32
111.85
87.32
49.09
-0.08
-55.8
-113.09
-167.12
-213.69
-249.41
-271.95
-280.36
-275.43
-259.55
-236.24
-209.31
-182.25
-157.92
-138.59
-125.84
-120.26
-120.88
-124.94
-128.06
-125.36
-112.8
-88.52
-53.44
-10.91
34.08
76.14
110.53
133.99
145.19
144.9
135.66
120.92
104.1
87.72
73.14
60.97
51.48
44.92
41.46
40.68
41.43
42.23
41.95
40.46
38.8
38.57
41.05
46.44
53.78
61.33
67.42
71.07
72.16
71.09
68.3
63.79
57.17
47.86
35.56
20.63
4.23
-11.87
-25.67
-35.36
-39.9
-39.12
-33.87
-25.67
-16.19
-6.81
1.71
9.3
16.28
22.97
29.47
35.51
40.67
44.62
47.27
48.76
49.24
48.71
47
44.09
40.36
36.79
34.75
35.31
38.74
44.18
49.94
54.11
55.35
53.29
48.46
41.85
34.36
26.55
18.69
10.84
3.07
-4.74
-12.79
-21.4
-30.68
-40.29
-49.34
-56.69
-61.51
-63.66
-63.73
-62.61
-60.86
-58.27
-53.95
-46.68
-35.54
-20.34
-1.65
19.22
40.42
59.72
74.74
83.38
84.59
79.15
69.84
60.66
55.08
54.05
54.87
51.9
38.98
12.22
-28.27
-78.66
-132.99
-184.86
-228.23
-257.39
-267.03
-253.33
-215.93
-159.38
-92.78
-27.03
29.03
71.51
101.7
123.71
141.18
155.01
163.44
164.03
155.82
140.34
120.98
101.29
83.39
67.3
51.45
34.08
14.78
-4.77
-21.16
-30.76
-31.42
-23.63
-10.35
4.35
17.08
26.41
32.98
38.38
43.76
48.86
52.07
51.47
46
36.26
24.28
12.62
3.32
-2.84
-6.36
-8.53
-10.71
-13.64
-17.2
-20.52
-22.36
-21.46
-16.72
-7.28
7.44
27.43
52.04
79.99
109.59
139.17
167.67
194.85
221.08
246.92
272.32
296.37
317.21
332.01
337.31
329.7
307.05
269.94
222.39
171.23
124.31
88.26
65.94
55.6
51.66
47.25
37.39
20.76
-0.72
-24
-47.03
-70.8
-98.85
-135.41
-183.07
-241.06
-305.53
-371.38
-434.46
-492.02
-539.94
-571.03
-577.99
-557.63
-512.88
-451.51
-383.1
-319.54
-266.06
-226.11
-200.97
-188.91
-184.8
-180.62
-168.82
-143.23
-102.44
-50.39
3.87
49.89
79.75
90.8
86.14
72.73
58.27
48.41
46.19
52.1
65.86
87.1
115.43
149.77
187.65
224.95
256.45
277.55
285.55
280.82
266.21
245.46
221.25
194.11
162.93
126.44
85.11
41.45
-0.56
-37.22
-66.5
-88.25
-103.3
-112.22
-114.76
-110.11
-97.95
-79.26
-56.4
-32.48
-10.54
7.34
20.38
28.92
33.94
36.23
35.9
32.55
26.03
17.17
7.87
0.44
-3.67
-4.64
-4.22
-4.74
-8.12
-15.2
-25.96
-39.99
-56.76
-75.4
-94.33
-111.32
-123.97
-130.64
-130.9
-125.57
-116.01
-103.55
-89.19
-73.85
-58.64
-44.9
-33.84
-25.84
-20.09
-14.7
-7.46
3.19
17.45
34.15
51.59
68.18
82.8
94.54
102.51
105.88
104.53
99.48
92.78
86.64
82.08
78.28
72.82
62.76
45.99
22.06
-7.76
-40.88
-73.97
-103.57
-126.73
-141.95
-149.84
-152.87
-154.25
-156.26
-159.12
-160.97
-159.01
-151.15
-136.97
-117.85
-96.13
-74.03
-53.02
-33.59
-15.37
2.57
21.19
40.87
60.8
78.97
92.83
100.57
102.15
99.56
95.89
94.02
95.33
99.29
104.08
107.68
108.83
107.31
103.6
98.19
91.15
82.16
70.87
57.5
43.04
29.14
17.45
9
3.85
1.22
0.06
-0.41
-0.34
0.6
2.77
6.14
10.17
13.89
16.37
16.99
15.67
12.81
9.09
5.25
1.82
-0.93
-3.12
-5.13
-7.43
-10.3
-13.78
-17.6
-21.2
-24.09
-25.91
-26.56
-26.28
-25.41
-24.32
-23.3
-22.52
-22.02
-21.78
-21.73
-21.64
-21.24
-20.13
-17.97
-14.63
-10.32
-5.54
-1.02
2.57
4.83
5.68
5.3
3.93
1.74
-1.12
-4.48
-8.08
-11.57
-14.59
-16.96
-18.63
-19.7
-20.23
-20.09
-19.02
-16.72
-13.07
-8.28
-2.86
2.55
7.39
11.28
14.06
15.71
16.23
15.53
13.6
10.52
6.58
2.24
-1.95
-5.52
-8.19
-9.8
-10.24
-9.45
-7.34
-3.97
0.4
5.31
10.13
14.32
17.58
19.88
21.45
22.53
23.31
23.86
24.24
24.49
24.69
24.93
25.12
25.11
24.68
23.59
21.8
19.45
16.79
14.06
11.39
8.72
5.93
3.03
0.16
-2.29
-3.85
-4.19
-3.24
-1.19
1.57
4.55
7.35
9.66
11.19
11.68
10.88
8.63
5.03
0.48
-4.38
-8.7
-11.65
-12.71
-11.66
-8.7
-4.22
1.24
7.24
13.43
19.57
25.46
30.77
35.14
38.17
39.55
39.21
37.33
34.31
30.65
26.72
22.68
18.63
14.6
10.65
7.01
3.91
1.5
-0.27
-1.58
-2.76
-4.05
-5.52
-7.13
-8.71
-10.11
-11.25
-12.09
-12.58
-12.68
-12.3
-11.31
-9.67
-7.39
-4.69
-1.97
0.29
1.68
1.97
1.19
-0.38
-2.32
-4.2
-5.74
-6.82
-7.45
-7.77
-7.95
-8.12
-8.38
-8.72
-9.03
-9.17
-8.97
-8.27
-7
-5.16
-2.81
-0.1
2.71
5.31
7.4
8.73
9.26
9.09
8.47
7.75
7.15
6.72
6.34
5.8
4.91
3.68
2.2
0.65
-0.91
-2.59
-4.67
-7.51
-11.42
-16.46
-22.37
-28.58
-34.4
-39.14
-42.34
-43.88
-43.92
-42.9
-41.3
-39.55
-37.96
-36.65
-35.69
-34.98
-34.41
-33.78
-32.85
-31.44
-29.5
-27.09
-24.36
-21.52
-18.68
-15.89
-13.11
-10.28
-7.4
-4.51
-1.77
0.7
2.77
4.35
5.38
5.93
6.15
6.23
6.4
6.78
7.4
8.12
8.79
9.23
9.36
9.18
8.65
7.71
6.24
4.11
1.26
-2.23
-6.15
-10.2
-14.1
-17.6
-20.54
-22.87
-24.6
-25.77
-26.44
-26.68
-26.51
-25.96
-25.01
-23.57
-21.56
-18.96
-15.76
-12.15
-8.32
-4.61
-1.27
1.51
3.73
5.47
6.91
8.27
9.69
11.22
12.82
14.35
15.62
16.47
16.82
16.65
16.07
15.23
14.37
13.68
13.36
13.55
14.29
15.57
17.29
19.25
21.14
22.65
23.5
23.5
22.63
20.96
18.68
15.92
12.83
9.49
5.99
2.42
-1.17
-4.8
-8.52
-12.4
-16.4
-20.32
-23.81
-26.53
-28.27
-29.09
-29.27
-29.17
-29.04
-28.93
-28.64
-27.88
-26.46
-24.26
-21.37
-17.88
-13.96
-9.73
-5.36
-1.04
3.01
6.5
9.29
11.33
12.75
13.8
14.73
15.76
16.98
18.37
19.85
21.35
22.78
24.09
25.2
26.05
26.59
26.79
26.73
26.46
26.11
25.71
25.32
24.99
24.76
24.63
24.53
24.28
23.64
22.39
20.38
17.63
14.25
10.4
6.29
2.09
-2.08
-6.13
-10.06
-13.96
-17.97
-22.16
-26.46
-30.63
-34.27
-36.99
-38.59
-39.1
-38.77
-37.94
-36.87
-35.68
-34.34
-32.74
-30.74
-28.24
-25.25
-21.83
-18.12
-14.31
-10.57
-7.06
-3.82
-0.87
1.83
4.27
6.46
8.42
10.21
11.97
13.85
15.93
18.19
20.46
22.61
24.47
25.98
27.18
28.16
28.98
29.76
30.55
31.29
31.92
32.29
32.3
31.88
31.11
30.05
28.85
27.54
26.06
24.26
21.96
19.02
15.41
11.23
6.63
1.8
-3.06
-7.87
-12.63
-17.39
-22.25
-27.25
-32.35
-37.42
-42.22
-46.44
-49.84
-52.17
-53.31
-53.25
-52.12
-50.13
-47.53
-44.48
-41.07
-37.33
-33.28
-29.01
-24.65
-20.37
-16.33
-12.63
-9.32
-6.39
-3.89
-1.8
-0.09
1.31
2.56
3.74
4.89
5.97
6.94
7.76
8.47
9.11
9.67
10.13
10.42
10.56
10.61
10.75
11.1
11.69
12.39
12.95
13.15
12.95
12.5
12.02
11.71
11.59
11.45
10.97
9.83
7.92
5.3
2.15
-1.4
-5.4
-10.09
-15.66
-22.1
-29.12
-36.07
-42.2
-46.82
-49.5
-50.13
-48.9
-46.18
-42.37
-37.82
-32.76
-27.34
-21.65
-15.88
-10.25
-5.06
-0.55
3.13
5.97
8.04
9.44
10.27
10.69
10.92
11.2
11.82
12.91
14.44
16.24
18.06
19.71
21.07
22.08
22.72
23.04
23.09
23
22.87
22.82
22.86
22.93
22.85
22.43
21.48
19.85
17.41
14.09
9.84
4.8
-0.72
-6.25
-11.26
-15.29
-18.14
-19.85
-20.69
-21.03
-21.16
-21.16
-20.9
-20.13
-18.52
-15.84
-12.03
-7.27
-1.99
3.21
7.72
11.06
13.1
14.04
14.33
14.46
14.77
15.33
16.08
16.91
17.84
19.08
20.85
23.29
26.33
29.64
32.81
35.49
37.53
38.94
39.89
40.55
40.98
41.14
40.95
40.31
39.24
37.87
36.29
34.64
32.86
30.86
28.55
26.02
23.45
21.14
19.32
18.01
16.99
15.88
14.31
11.96
8.66
4.35
-0.92
-6.88
-13.1
-18.96
-23.78
-27.03
-28.48
-28.28
-26.9
-24.99
-23.17
-21.87
-21.27
-21.24
-21.53
-21.81
-21.87
-21.62
-21.15
-20.61
-20.13
-19.67
-19
-17.9
-16.13
-13.63
-10.54
-7.1
-3.54
0.01
3.6
7.36
11.37
15.6
19.91
24.03
27.68
30.61
32.66
33.7
33.74
32.83
31.19
29.12
26.94
24.94
23.19
21.67
20.15
18.38
16.15
13.34
9.88
5.81
1.17
-3.99
-9.68
-15.96
-22.89
-30.38
-38.14
-45.64
-52.24
-57.27
-60.31
-61.29
-60.56
-58.72
-56.35
-53.87
-51.38
-48.67
-45.37
-41.19
-36.04
