46.99
47.11
46.18
43.67
40.03
36.44
34.38
34.9
38.11
43.05
48.06
51.51
52.35
50.27
45.49
38.43
29.49
19.08
7.74
-3.93
-15.36
-26.3
-36.77
-46.95
-56.69
-65.23
-71.25
-73.33
-70.57
-62.98
-51.48
-37.53
-22.61
-8
5.45
17.23
27.21
35.71
43.53
51.68
61.04
71.99
84.19
96.72
108.6
119.11
128.11
135.95
143.14
150.03
156.55
162.1
165.66
165.81
160.94
149.44
130.37
104.07
72.59
39.42
8.5
-17.18
-36.65
-51.06
-62.79
-74.13
-86.18
-98.53
-109.85
-118.77
-124.51
-126.94
-126.15
-122.17
-114.9
-104.55
-92.01
-78.74
-66.36
-55.74
-46.54
-37.44
-27.01
-14.76
-1.62
10.47
19.79
26.23
31.91
40.63
56.23
80.64
112.79
148.9
183.78
212.56
232.03
240.96
239.88
230.58
215.83
199.03
183.67
172.38
165.7
161.56
155.65
143.35
122.06
92.87
60.48
31.28
10.42
-0.32
-2.79
-0.95
1.68
3.78
6.52
12.29
23.03
39.16
59.46
81.6
102.56
118.72
125.88
119.56
96.33
55.19
-1.46
-68.3
-138.71
-206.94
-269.65
-326.04
-376.65
-421.48
-458.74
-484.6
-494.39
-484.42
-453.8
-405.31
-344.92
-280.22
-218.28
-164.05
-119.77
-85.42
-59.8
-41.48
-29.26
-22.03
-18.49
-17.1
-16.45
-15.76
-15.21
-16.09
-20.04
-28.25
-40.55
-55.29
-69.66
-80.74
-86.39
-85.99
-80.42
-71.55
-61.53
-52.09
-44.28
-38.49
-34.63
-32.32
-31.01
-30.1
-28.76
-26.15
-21.21
-12.89
-0.36
16.58
37.19
59.57
81.08
99.02
111.52
118.26
120.32
119.6
117.8
115.56
112.48
107.6
100.27
90.7
80.07
69.95
61.51
55.15
50.26
45.86
41
35.33
28.99
22.52
16.41
10.84
5.77
0.95
-3.84
-8.75
-13.88
-19.42
-25.58
-32.42
-39.7
-46.64
-52.14
-55.06
-54.83
-51.58
-46.13
-39.58
-32.74
-25.95
-19.03
-11.73
-3.86
4.49
13.08
21.52
29.35
36.08
41.09
43.96
44.52
43.12
40.57
37.78
35.51
34.08
33.51
33.53
33.93
34.53
35.17
35.73
36
35.82
35.15
34.1
32.8
31.38
29.84
28.19
26.46
24.7
22.9
20.85
18.12
14.21
8.82
2.15
-5.09
-11.85
-17.26
-20.97
-23.36
-25.32
-27.72
-31.01
-34.85
-38.3
-40.28
-40.01
-37.31
-32.59
-26.6
-20.01
-13.25
-6.51
0.1
6.34
11.84
16.21
19.23
20.97
21.75
22.02
22.17
22.43
22.84
23.33
23.87
24.41
24.93
25.43
25.8
25.96
25.8
25.15
23.94
22.08
19.55
16.44
12.88
9.08
5.27
1.64
-1.72
-4.83
-7.78
-10.71
-13.78
-17.07
-20.63
-24.31
-27.85
-30.9
-33.03
-33.87
-33.15
-30.71
-26.6
-20.99
-14.25
-6.85
0.65
7.69
13.8
18.7
22.24
24.39
25.18
24.67
22.99
20.31
16.87
13.04
9.2
5.76
3.06
1.33
0.71
1.17
2.58
4.65
7
9.26
11.1
12.31
12.81
12.5
11.37
9.38
6.57
3.11
-0.71
-4.5
-7.94
-10.84
-13.3
-15.55
-17.88
-20.53
-23.49
-26.6
-29.47
-31.61
-32.57
-31.98
-29.69
-25.78
-20.56
-14.49
-8.1
-1.86
3.9
8.9
13.02
16.16
18.3
19.45
19.66
19.1
17.98
16.59
15.2
14.04
13.19
12.68
12.33
11.99
11.48
10.76
9.87
8.92
7.99
7.05
6.01
4.62
2.76
0.37
-2.4
-5.27
-7.97
-10.34
-12.45
-14.41
-16.4
-18.48
-20.65
-22.85
-24.96
-26.9
-28.49
-29.51
-29.59
-28.41
-25.78
-21.8
-16.87
-11.55
-6.44
-1.96
1.7
4.6
6.87
8.66
9.99
10.76
10.91
10.49
9.7
8.87
8.31
8.22
8.52
9.03
9.48
9.66
9.53
9.18
8.73
8.25
7.69
6.85
5.5
3.49
0.92
-1.99
-4.87
-7.42
-9.52
-11.21
-12.7
-14.14
-15.67
-17.26
-18.92
-20.65
-22.38
-24.02
-25.28
-25.78
-25.15
-23.2
-19.96
-15.79
-11.23
-6.78
-2.82
0.54
3.35
5.71
7.62
9
9.67
9.51
8.65
7.41
6.26
5.54
5.42
5.78
6.4
7.08
7.73
8.42
9.14
9.83
10.32
10.45
10.09
9.21
7.86
6.09
3.96
1.51
-1.18
-3.98
-6.75
-9.42
-11.99
-14.45
-16.85
-19.16
-21.36
-23.48
-25.52
-27.48
-29.15
-30.13
-29.93
-28.13
-24.6
-19.66
-13.94
-8.21
-3.13
0.94
3.99
6.18
7.76
8.9
9.7
10.21
10.52
10.74
11.03
11.48
12.12
12.83
13.45
13.83
13.89
13.69
13.25
12.64
11.88
10.94
9.8
8.49
7.07
5.63
4.25
2.89
1.48
-0.04
-1.68
-3.33
-4.88
-6.33
-7.72
-9.25
-11.12
-13.4
-16.02
-18.77
-21.38
-23.5
-24.9
-25.29
-24.43
-22.16
-18.48
-13.64
-8.17
-2.73
2.11
6.01
8.93
11.07
12.67
13.89
14.72
15.08
14.95
14.45
13.86
13.43
13.34
13.59
14.03
14.46
14.74
14.85
14.82
14.65
14.31
13.71
12.73
11.38
9.72
7.91
6.11
4.41
2.8
1.17
-0.55
-2.45
-4.48
-6.51
-8.37
-9.96
-11.28
-12.46
-13.72
-15.3
-17.33
-19.75
-22.28
-24.45
-25.71
-25.65
-24.11
-21.22
-17.37
-13.04
-8.63
-4.45
-0.62
2.77
5.7
8.07
9.84
11.04
11.71
11.99
11.94
11.66
11.21
10.72
10.32
10.09
10.08
10.23
10.41
10.49
10.42
10.16
9.7
9.04
8.1
6.83
5.18
3.22
1.03
-1.2
-3.33
-5.23
-6.82
-8.18
-9.39
-10.65
-12.13
-13.86
-15.85
-17.93
-19.86
-21.36
-22.17
-22
-20.69
-18.21
-14.71
-10.56
-6.23
-2.16
1.36
4.21
6.45
8.2
9.49
10.32
10.62
10.39
9.72
8.8
7.83
7.06
6.59
6.44
6.56
6.82
7.13
7.44
7.67
7.73
7.47
6.72
5.37
3.48
1.17
-1.3
-3.75
-6.07
-8.3
-10.49
-12.69
-14.85
-16.87
-18.69
-20.28
-21.76
-23.29
-25.02
-26.96
-28.89
-30.45
-31.18
-30.68
-28.76
-25.52
-21.27
-16.43
-11.43
-6.58
-2.07
2.03
5.64
8.73
11.2
12.93
13.86
13.99
13.48
12.59
11.68
10.99
10.71
10.83
11.2
11.62
11.93
12.03
11.86
11.43
10.7
9.67
8.3
6.58
4.57
2.33
-0.03
-2.46
-4.92
-7.39
-9.86
-12.29
-14.63
-16.75
-18.61
-20.14
-21.38
-22.49
-23.69
-25.28
-27.45
-30.16
-33
-35.34
-36.4
-35.63
-32.91
-28.56
-23.29
-17.81
-12.67
-8.05
-3.84
0.16
4.08
7.88
11.32
14.09
16.05
17.2
17.74
17.89
17.87
17.8
17.65
17.45
17.19
16.97
16.84
16.8
16.73
16.41
15.66
14.34
12.45
10.12
7.56
5.07
2.92
1.3
0.2
-0.6
-1.48
-2.81
-4.73
-7.15
-9.79
-12.26
-14.31
-15.95
-17.4
-19.04
-21.25
-24.2
-27.77
-31.57
-34.93
-37.05
-37.27
-35.22
-31
-25.12
-18.32
-11.38
-4.85
1.01
6.2
10.79
14.76
18.02
20.37
21.75
22.23
22.1
21.75
21.58
21.84
22.63
23.84
25.23
26.54
27.5
27.92
27.76
27.05
25.88
24.34
22.49
20.32
17.92
15.37
12.88
10.64
8.77
7.23
5.86
4.46
2.84
0.95
-1.27
-3.81
-6.63
-9.72
-12.99
-16.33
-19.58
-22.67
-25.59
-28.52
-31.65
-35.15
-39.07
-43.17
-47.01
-49.95
-51.35
-50.69
-47.76
-42.75
-36.19
-28.91
-21.71
-15.19
-9.61
-4.95
-0.98
2.5
5.58
8.3
10.64
12.71
14.71
16.86
19.35
22.29
25.69
29.56
33.95
38.85
44.15
49.63
54.9
59.53
63.26
66.04
67.98
69.23
69.76
69.43
67.98
65.27
61.35
56.57
51.47
46.57
42.25
38.59
35.45
32.55
29.54
26.15
22.27
17.87
13.03
7.82
2.26
-3.64
-9.96
-16.72
-23.94
-31.63
-39.76
-48.22
-56.61
-64.24
-70.28
-73.96
-75.02
-73.86
-71.4
-68.6
-66.03
-63.44
-59.96
-54.62
-46.8
-36.64
-24.89
-12.59
-0.64
10.38
20.14
28.52
35.43
40.9
45.14
48.53
51.41
53.94
55.93
56.89
56.27
53.82
49.71
44.6
39.43
35.08
32.09
30.58
30.23
30.49
30.76
30.68
30.13
29.2
28.05
26.71
25.09
22.94
19.98
16.02
11.12
5.61
-0
-5.08
-9.12
-11.84
-13.24
-13.51
-12.88
-11.57
-9.7
-7.35
-4.62
-1.67
1.27
3.97
6.31
8.31
10.07
11.74
13.39
14.92
16.13
16.73
16.65
16.08
15.5
15.37
15.89
16.77
17.39
17.19
16.07
14.52
13.33
13.04
13.65
14.62
15.33
15.45
15.16
14.93
15.01
15.1
14.39
12.05
7.74
1.85
-4.86
-11.54
-17.63
-22.96
-27.56
-31.47
-34.59
-36.66
-37.54
-37.78
-38.17
-39.41
-41.91
-45.44
-49.34
-52.51
-53.77
-52.15
-47.86
-41.42
-33.42
-24.51
-15.39
-7.07
-0.52
3.63
5.27
3.64
-1.4
-9.41
-19.85
-32.27
-46.61
-62.94
-80.74
-98.9
-117.09
-134.12
-147.73
-155.54
-155.99
-149.45
-138.55
-126.88
-108.47
-81.02
-45.56
-5.42
36.07
77.2
117.12
154.65
188.93
219.46
244.92
264.84
279.99
291.1
298.53
304.22
307.55
308.54
307.64
304.38
298.61
290.95
281.89
272.05
261.89
251.58
241.65
232.36
222.31
209.4
194.22
176.66
156.39
132.87
105.44
74.24
39.95
2.13
-38.78
-81.03
-122.42
-160.9
-195.12
-224.44
-248.36
-266.66
-282.47
-298.29
-314.83
-331.3
-346.63
-360.22
-371.53
-379.42
-382.55
-384.26
-386.84
-390.06
-392.15
-392.02
-390.25
-388.87
-389.97
-394.78
-408.56
-431.76
-458.7
-480.32
-489.48
-483.93
-466.95
-444.75
-387.56
-287.57
-159.39
-30.99
75.09
149.64
193.72
212.45
212.37
200.6
178.19
147.35
112.47
79.06
48.41
23.69
6.03
-4.34
-7.82
-9.58
-12.83
-17.69
-21.9
-23.09
-19.73
-11.87
0.15
16.36
31.33
41.58
46.43
47.53
47.22
47.58
49.29
52.13
55.3
56.35
54.15
49.43
44.63
42.74
46.31
56.26
71.98
91.7
112.68
133.08
152.29
171.13
190.9
212.77
237.32
264.69
294.38
324.83
352.88
373.61
380.93
369.66
337.65
287.07
223.89
155.43
87.71
23.84
-35.64
-90.74
-139.96
-179.44
-204.23
-210.86
-199.65
-175.33
-145.45
-117.62
-97
-85.11
-80.43
-80.24
-82.27
-85.6
-90.26
-96.28
-102.86
-108.32
-110.71
-108.86
-103.21
-95.48
-88.3
-83.95
-83.65
-87.24
-93.42
-100.4
-106.6
-111.27
-114.48
-116.84
-118.92
-120.81
-121.96
-121.38
-118.12
-111.66
-102.24
-90.62
-77.89
-64.84
-51.65
-37.9
-22.7
-5.39
14.12
34.99
55.67
74.25
89.22
99.95
106.79
111.03
114.16
117.26
120.5
123.35
124.93
124.88
123.93
123.84
126.85
134.71
148.06
166.07
186.44
205.5
218.58
220.83
208.64
181.53
143.21
101.51
66.12
45.08
41.55
52.37
69.54
83.89
89.07
83.63
70.58
54.92
40.8
30.52
24.73
23.58
27.11
34.83
44.76
53.5
57.88
56.87
52.68
49.01
48.4
49.92
49.49
42.47
26.87
4.92
-18.32
-37.59
-49.89
-54.76
-52.92
-44.8
-30.23
-9.53
14.97
38.59
55.71
61.76
55.12
37.74
14.43
-8.45
-24.77
-30.49
-25.06
-11.73
3.53
14.36
16.68
10.26
-1.25
-12.15
-17.02
-12.59
1.6
23.57
50.08
77.75
103.76
126.29
144.56
158.78
169.96
179.34
187.7
194.97
200.13
201.73
198.63
190.45
177.71
161.45
142.7
122.2
100.36
77.65
54.83
33.07
13.68
-2.31
-14.33
-22.38
-26.83
-28.2
-27.08
-24.09
-19.68
-14.26
-8.15
-1.69
4.57
10.01
14.02
16.37
17.3
17.49
17.7
18.32
19.09
19.22
17.9
14.84
10.53
6.11
2.82
1.54
2.46
5.21
9.03
12.96
15.9
16.66
14.22
8.03
-1.67
-13.84
-26.89
-39.26
-49.89
-58.5
-65.37
-70.93
-75.52
-79.05
-81.2
-81.6
-80.16
-77.19
-73.41
-69.67
-66.59
-64.27
-62.12
-59.21
-54.71
-48.49
-41.31
-34.62
-29.91
-27.9
-28.12
-28.99
-28.38
-24.39
-15.92
-2.96
13.34
30.71
46.14
56.56
59.92
56.24
47.97
39.19
33.96
34.35
39.49
46.08
50.14
48.99
42.38
32.11
20.71
10.03
0.63
-7.88
-16.03
-23.84
-30.61
-35.37
-37.48
-37.01
-34.81
-32.03
-29.68
-28.2
-27.4
-26.56
-24.9
-22.03
-18.17
-14.19
-11.24
-10.14
-11.02
-13.13
-15.09
-15.54
-13.73
-9.84
-4.93
-0.36
2.8
4.19
4.2
3.68
3.34
3.49
3.89
3.97
3.15
1.19
-1.65
-4.8
-7.52
-9.29
-9.97
-9.84
-9.49
-9.53
-10.38
-12.09
-14.51
-17.21
-19.81
-21.98
-23.53
-24.33
-24.19
-22.98
-20.53
-16.8
-11.93
-6.31
-0.53
4.71
8.72
11.1
11.68
10.68
8.55
5.92
3.38
1.39
0.18
-0.31
-0.45
-0.94
-2.56
-5.93
-11.21
-17.89
-24.87
-30.91
-35.12
-37.34
-38.18
-38.71
-40.02
-42.65
-46.57
-51.26
-56.06
-60.49
-64.35
-67.67
-70.56
-73.03
-75.04
-76.5
-77.46
-78.21
-79.2
-80.77
-82.85
-84.84
-85.79
-84.74
-81.04
-74.55
-65.47
-54.11
-40.8
-25.96
-10.35
4.93
18.78
30.6
40.68
49.97
59.45
69.57
79.83
89.13
96.2
100.21
101.04
99.13
95.23
90.07
84.18
77.89
71.48
65.23
59.47
54.53
50.58
47.6
45.23
42.82
39.74
35.8
31.39
27.38
24.76
24.09
25.3
27.64
30.02
31.42
31.28
29.69
27.24
24.78
22.92
21.95
21.8
22.29
23.29
24.68
26.25
27.51
27.81
26.51
23.35
18.6
12.96
7.27
2.25
-1.66
-4.32
-5.79
-6.38
-6.6
-6.98
-7.73
-8.44
-8.05
-5.32
0.44
8.83
18.2
26.41
31.73
33.63
32.85
30.91
29.17
28.18
27.6
26.59
24.52
21.4
17.96
15.28
14.29
15.33
18.08
21.72
25.39
28.55
31.19
33.67
36.4
39.41
42.19
43.68
42.65
38.14
29.8
18.01
3.79
-11.54
-26.54
-39.9
-50.65
-58.27
-62.91
-65.49
-67.41
-70.21
-74.96
-81.66
-89.18
-95.5
-98.49
-96.69
-89.85
-78.95
-65.74
-52.02
-38.96
-26.85
-15.16
-3.11
9.81
23.39
36.75
48.66
58.13
64.82
69.08
71.75
73.63
75.22
76.63
77.79
78.76
79.74
81.03
82.65
84.15
84.48
82.22
76.02
65
49.1
29.1
6.44
-17.21
-40.36
-61.94
-81.32
-98.08
-111.9
-122.38
-129.14
-132.04
-131.21
-127.07
-120.26
-111.5
-101.54
-91.24
-81.4
-72.65
-65.24
-59.05
-53.68
-48.89
-44.67
-41.3
-39.21
-38.6
-39.28
-40.76
-42.45
-43.9
-44.92
-45.46
-45.47
-44.81
-43.29
-40.79
-37.47
-33.69
-29.9
-26.39
-23.18
-19.94
-16.25
-11.69
-6.17
0.04
6.44
12.52
17.92
22.57
26.49
29.62
31.74
32.32
30.82
26.97
21.02
13.78
6.46
0.28
-3.94
-5.96
-6.2
-5.45
-4.5
-3.82
-3.5
-3.21
-2.54
-1.32
0.28
1.61
1.93
0.67
-2.24
-6.25
-10.42
-13.85
-16
-16.98
-17.47
-18.33
-20.21
-23.41
-27.72
-32.76
-38.01
-42.96
-46.88
-48.91
-48.3
-44.81
-39.08
-32.64
-27.42
-24.96
-25.66
-28.5
-31.49
-32.54
-30.38
-24.93
-17.2
-8.58
-0.27
7.12
13.49
18.93
23.46
26.97
29.26
30.28
30.3
29.84
29.55
30.16
32.32
36.63
43.45
52.66
63.35
73.9
82.28
86.62
86.03
80.88
72.79
63.96
56.33
50.86
47.35
44.86
42.22
38.73
34.11
28.38
21.49
13.28
3.66
-7.08
-18.11
-28.29
-36.58
-42.52
-46.37
-48.86
-50.76
-52.41
-53.63
-53.97
-53.07
-51.07
-48.59
-46.54
-45.52
-45.44
-45.23
-43.19
-37.69
-28.12
-15.35
-1.74
9.7
16.45
17.34
12.96
5.34
-2.97
-9.73
-13.71
-14.75
-13.53
-10.96
-7.94
-5.15
-3.06
-2.2
-3.02
-5.84
-10.53
-16.48
-22.64
-27.99
-31.88
-34.24
-35.47
-36.13
-36.53
-36.74
-36.64
-36.09
-35.14
-33.91
-32.52
-31.08
-29.68
-28.4
-27.36
-26.62
-26.12
-25.74
-25.33
-24.83
-24.23
-23.39
-22.02
-19.8
-16.62
-12.75
-9.02
-6.43
-5.73
-7.02
-9.6
-12.27
-13.83
-13.47
-10.93
-6.45
-0.57
6.17
13.22
20.14
26.52
31.95
36.13
38.82
39.84
39.12
36.87
33.52
29.77
26.33
23.65
21.83
20.59
19.74
19.38
20.13
22.72
27.46
33.82
40.37
45.31
47.27
45.95
42.22
37.64
33.65
31.03
29.71
29.06
28.44
27.63
26.81
26.33
26.34
26.49
26.11
24.49
21.15
16.08
9.52
1.8
-6.78
-15.82
-24.56
-31.87
-36.41
-37.23
-34.15
-27.9
-19.75
-10.8
-1.56
8.1
18.4
29.25
40.02
49.76
57.83
64.14
69.11
72.96
75.21
74.75
70.81
63.91
56.41
51.71
52.76
60.28
72.03
83.6
90.34
89.52
81.47
69.29
57.25
48.81
45.31
45.7
47.34
47.42
44.12
37.14
27.5
16.9
6.69
-2.49
-10.74
-18.36
-25.48
-31.88
-37.26
-41.78
-46.06
-51.02
-57.46
-65.49
-74.55
-83.68
-91.91
-98.49
-103.03
-105.29
-105.19
-102.94
-99.14
-94.77
-90.93
-88.34
-87.07
-86.4
-85.22
-82.48
-77.73
-71.32
-64.38
-58.58
-55.68
-57.2
-64.02
-76.05
-91.94
-108.76
-122.06
-126.91
-119.46
-98.85
-68.39
-34.92
-6.64
10.15
13.64
7.4
-1.25
-4.57
2.36
19.85
44
68.81
88.81
100.74
104.05
100.06
90.98
78.84
65.19
51.39
38.85
28.92
22.34
18.71
16.45
13.61
9.02
3.01
-2.63
-5.76
-5.11
-1.19
3.81
7.04
6.32
1.1
-7.58
-17.57
-26.65
-33.29
-37.06
-38.65
-39.53
-41.38
-45.35
-51.59
-59.03
-65.93
-70.59
-72.1
-70.74
-67.6
-64.11
-61.41
-60
-59.68
-59.55
-58.07
-53.35
-43.62
-27.85
-6.25
19.69
47.68
75.16
99.87
120.07
134.47
142.25
143.23
138.15
128.59
116.61
103.99
91.72
79.88
68.19
56.56
45.4
35.59
27.92
22.73
19.77
18.47
18.2
18.62
19.67
21.42
23.83
26.6
29.11
30.53
30.18
27.68
23.16
17.06
9.88
1.99
-6.25
-14.37
-21.5
-26.54
-28.7
-27.98
-25.33
-22.23
-19.95
-18.8
-18.07
-16.47
-12.95
-7.36
-0.53
6.28
11.89
15.75
18.01
19.27
20.26
21.67
23.95
27.4
32.04
37.57
43.27
48.1
50.88
50.52
46.29
37.93
25.87
11.09
-4.93
-20.59
-34.51
-45.84
-54.49
-60.94
-65.89
-69.73
-72.34
-73
-70.8
-65.06
-55.81
-43.93
-30.94
-18.68
-8.71
-1.95
1.61
2.71
2.48
1.87
1.36
0.9
0.17
-1.11
-2.85
-4.61
-5.82
-6.16
-5.89
-5.72
-6.49
-8.72
-12.26
-16.38
-20.06
-22.37
-22.78
-21.12
-17.42
-11.75
-4.32
4.36
13.28
21.07
26.37
28.48
27.69
25.14
22.43
20.82
20.76
21.87
23.23
23.94
23.5
21.86
19.3
16.16
12.66
8.92
5.1
1.49
-1.54
-3.66
-4.77
-5.02
-4.82
-4.69
-5.07
-6.2
-8.02
-10.29
-12.63
-14.74
-16.49
-17.92
-19.06
-19.81
-19.81
-18.49
-15.39
-10.37
-3.79
3.45
10.29
15.75
19.26
20.72
20.43
18.86
16.53
13.91
11.33
9.04
7.27
6.15
5.75
6.05
6.8
7.66
8.23
8.23
7.6
6.54
5.32
4.15
2.99
1.64
-0.15
-2.45
-5.07
-7.57
-9.41
-10.27
-10.11
-9.14
-7.75
-6.36
-5.22
-4.51
-4.19
-4.06
-3.88
-3.36
-2.29
-0.56
1.78
4.66
7.9
11.4
15.07
18.77
22.29
25.4
27.89
29.67
30.79
31.39
31.55
31.28
30.44
28.89
26.62
23.84
21.04
18.75
17.35
16.84
16.88
16.93
16.55
15.6
14.23
12.73
11.27
9.74
7.82
5.21
1.84
-2.01
-5.73
-8.76
-10.81
-11.91
-12.45
-12.92
-13.66
-14.72
-15.98
-17.15
-18.09
-18.72
-19.09
-19.2
-19.04
-18.55
-17.71
-16.58
-15.32
-14.14
-13.18
-12.55
-12.2
-12.13
-12.24
-12.47
-12.71
-12.89
-12.91
-12.75
-12.38
-11.71
-10.66
-9.09
-7.03
-4.66
-2.33
-0.41
0.82
1.38
1.5
1.56
1.83
2.41
3.13
3.71
3.89
3.55
2.81
1.91
1.19
0.83
0.87
1.18
1.61
2.09
2.64
3.42
4.5
5.85
7.28
8.6
9.69
10.65
11.7
13.1
14.95
17.13
19.36
21.35
22.81
23.56
23.34
21.84
18.68
13.64
6.78
-1.34
-9.79
-17.41
-23.17
-26.38
-26.88
-25.03
-21.63
-17.68
-14.1
-11.49
-10.03
-9.44
-9.24
-8.9
-8.1
-6.67
-4.74
-2.48
-0.14
2.02
3.7
4.61
4.57
3.57
1.87
-0.13
-1.94
-3.14
-3.47
-2.89
-1.58
0.14
1.88
3.36
4.47
5.23
5.79
6.18
6.32
6.06
5.27
4.01
2.57
1.29
0.5
0.26
0.4
0.66
0.81
0.8
0.68
0.56
0.51
0.51
0.5
0.43
0.33
0.29
0.4
0.73
1.2
1.68
1.94
1.78
1.07
-0.14
-1.7
-3.4
-5.04
-6.54
-7.88
-9.14
-10.3
-11.32
-12.02
-12.29
-12.11
-11.66
-11.2
-10.97
-11.1
-11.47
-11.77
-11.73
-11.18
-10.16
-8.87
-7.51
-6.18
-4.88
-3.52
-2.04
-0.48
1
2.21
3.01
3.39
3.51
3.55
3.7
4.03
4.49
4.98
5.38
5.65
5.78
5.86
5.91
5.94
5.9
5.71
5.38
4.91
4.27
3.46
2.45
1.29
0.1
-0.96
-1.78
-2.33
-2.74
-3.18
-3.75
-4.47
-5.25
-5.91
-6.23
-6.09
-5.46
-4.52
-3.59
-3.1
-3.4
-4.61
-6.49
-8.52
-10.07
-10.62
-9.97
-8.2
-5.61
-2.6
0.49
3.36
5.75
7.46
8.33
8.36
7.69
6.61
5.46
4.56
4.12
4.22
4.85
5.87
7.03
8.05
8.59
8.49
7.68
6.27
4.5
2.64
0.97
-0.29
-1.04
-1.22
-0.96
-0.42
0.1
0.37
0.22
-0.42
-1.48
-2.88
-4.47
-6.11
-7.64
-8.93
-9.96
-10.79
-11.51
-12.17
-12.67
-12.85
-12.52
-11.56
-10.03
-8.1
-5.96
-3.7
-1.25
1.49
4.57
7.84
11.05
13.85
15.97
17.32
17.93
17.94
17.54
16.97
16.44
16.05
15.85
15.81
15.84
15.84
15.73
15.48
15.09
14.52
13.71
12.54
10.96
8.91
6.4
3.45
0.14
-3.42
-7.07
-10.58
-13.83
-16.75
-19.4
-21.82
-23.96
-25.64
-26.61
-26.68
-25.79
-24.07
-21.87
-19.59
-17.65
-16.38
-15.97
-16.31
-17.09
-17.73
-17.65
-16.45
-14.06
-10.68
-6.77
-2.8
0.89
3.96
6.14
7.22
7.16
6.13
4.63
3.23
2.36
2.23
2.69
3.54
4.56
5.67
6.83
7.96
8.87
9.3
9.1
8.26
6.99
5.49
3.88
2.07
-0.06
-2.52
-5.04
-7.13
-8.27
-8.14
-6.8
-4.73
-2.62
-1.2
-0.99
-2.21
-4.74
-8.21
-12.08
-15.83
-19.16
-21.94
-24.17
-25.8
-26.59
-26.19
-24.34
-21.07
-16.93
-12.67
-8.96
-6.03
-3.57
-1.04
1.97
5.37
8.56
10.8
11.53
10.72
8.86
6.66
4.74
3.44
2.68
2.24
1.79
1.11
0.12
-1.22
-2.86
-4.71
-6.64
-8.47
-10.05
-11.35
-12.41
-13.39
-14.43
-15.59
-16.76
-17.77
-18.44
-18.66
-18.43
-17.83
-16.9
-15.59
-13.68
-10.87
-6.9
-1.69
4.5
11.09
17.23
22.09
25.16
26.43
26.41
25.89
25.69
26.4
28.34
31.63
36.3
42.37
49.65
57.73
65.8
72.92
78.34
81.91
84.13
85.88
87.9
90.28
92.36
92.99
91.22
86.83
80.64
74.18
68.92
65.52
63.25
60.37
54.97
46.05
34.1
20.71
7.7
-3.92
-14.22
-23.96
-33.69
-43.04
-50.81
-55.65
-57.03
-55.63
-52.99
-50.66
-49.4
-48.94
-48.33
-46.73
-43.87
-40.17
-36.42
-33.34
-31.36
-30.39
-30
-29.6
-28.7
-27.08
-24.84
-22.23
-19.52
-16.86
-14.24
-11.66
-9.18
-6.95
-5.21
-4.11
-3.61
-3.53
-3.64
-3.74
-3.88
-4.16
-4.76
-5.85
-7.44
-9.46
-11.78
-14.24
-16.66
-18.9
-20.84
-22.37
-23.39
-23.81
-23.6
-22.76
-21.45
-19.82
-18.05
-16.19
-14.26
-12.22
-10.08
-7.94
-5.97
-4.35
-3.13
-2.26
-1.59
-0.93
-0.14
0.87
2.07
3.38
4.77
6.18
7.54
8.76
9.7
10.21
10.2
9.66
8.68
7.37
5.79
3.94
1.71
-0.96
-4.04
-7.34
-10.58
-13.45
-15.7
-17.27
-18.15
-18.46
-18.29
-17.73
-16.83
-15.63
-14.14
-12.35
-10.26
-7.89
-5.3
-2.64
-0.09
2.21
4.15
5.72
7
8.05
9.02
9.94
10.89
11.87
12.82
13.63
14.16
14.38
14.34
14.21
14.16
14.25
14.43
14.51
14.3
13.74
12.94
12.01
11.05
10
8.66
6.84
4.45
1.64
-1.31
-4.02
-6.2
-7.7
-8.55
-8.86
-8.78
-8.43
-7.85
-7.04
-5.94
-4.48
-2.61
-0.34
2.25
5
7.68
10.1
12.13
13.71
14.97
16.01
17.04
18.1
19.22
20.22
20.92
21.12
20.79
20.06
19.22
18.63
18.53
19
19.8
20.57
20.9
20.58
19.64
18.34
16.99
15.73
14.43
12.75
10.26
6.64
1.76
-4.32
-11.47
-19.47
-27.94
-36.14
-43.04
-47.49
-48.7
-46.67
-42.31
-37.07
-32.28
-28.7
-26.23
-24.32
-22.53
-20.78
-19.47
-18.94
-19.17
-19.6
-19.45
-18.17
-15.72
-12.63
-9.52
-6.84
-4.58
-2.5
-0.38
1.63
3.12
3.66
3.01
1.42
-0.53
-2.19
-3.09
-3.12
-2.49
-1.52
-0.51
0.33
0.87
1.03
0.76
0.12
-0.74
-1.61
-2.31
-2.77
-3.01
-3.17
-3.36
-3.65
-3.95
-4.18
-4.13
-3.73
-2.91
-1.71
-0.23
1.39
3.02
4.6
6.13
7.58
8.81
9.65
9.92
9.61
8.91
8.17
7.68
7.54
7.61
7.59
7.16
6.26
5.04
3.81
2.86
2.29
2.04
2
2.08
2.31
2.82
3.64
4.76
6.02
7.19
8.08
8.61
8.79
8.69
8.29
7.49
6.17
4.29
1.99
-0.37
-2.34
-3.59
-4
-3.74
-3.14
-2.52
-2.05
-1.7
-1.28
-0.55
0.62
2.28
4.4
6.94
9.78
12.8
15.77
18.4
20.41
21.6
21.94
21.6
20.94
20.44
20.54
21.49
23.31
25.67
27.97
29.5
29.69
28.31
25.73
22.7
20.11
18.53
17.84
17.23
15.46
11.47
4.92
-3.55
-12.61
-20.75
-26.99
-31.24
-34.26
-37.24
-41.37
-47.33
-55.2
-64.38
-73.6
-81.07
-84.77
-83.07
-75.44
-63.03
-48.41
-34.64
-24.04
-17.12
-12.57
-8.12
-1.9
6.51
15.94
24.38
30.18
32.91
33.5
33.58
34.52
36.72
39.46
41.51
41.74
39.73
35.95
31.46
27.36
24.35
22.6
21.76
21.33
21
20.64
20.37
20.3
20.41
20.44
19.98
18.51
15.71
11.63
6.79
2.11
-1.44
-3.2
-3.21
-2.12
-1.05
-1.08
-2.86
-6.46
-11.42
-17.03
-22.59
-27.55
-31.53
-34.33
-35.9
-36.36
-35.95
-34.96
-33.65
-32.17
-30.56
-28.79
-26.84
-24.75
-22.51
-20.15
-17.63
-14.94
-12.08
-9.17
-6.34
-3.73
-1.47
0.42
1.99
3.4
4.82
6.45
8.33
10.44
12.61
14.6
16.23
17.46
18.37
19.14
19.87
20.54
21.02
21.17
20.92
20.33
19.56
18.74
17.94
17.07
16.01
14.66
12.99
11.04
8.87
6.51
3.95
1.17
-1.8
-4.85
-7.74
-10.22
-12.13
-13.4
-14.18
-14.58
-14.65
-14.21
-13
-10.81
-7.76
-4.34
-1.27
0.86
1.9
2.25
2.64
3.65
5.46
7.74
9.83
11.06
11.06
9.79
7.5
4.59
1.57
-1.1
-3.01
-3.99
-4.17
-3.97
-3.92
-4.43
-5.55
-6.97
-8.34
-9.41
-10.29
-11.41
-13.25
-16.19
-20.37
-25.68
-31.9
-38.73
-45.69
-52.13
-57.17
-59.91
-59.83
-56.89
-51.63
-44.88
-37.48
-29.95
-22.55
-15.32
-8.29
-1.59
4.5
9.74
13.94
17.03
19.13
20.47
21.34
22.07
22.85
23.73
24.65
25.53
26.42
27.5
29
30.94
33.11
35.02
36.13
36.07
34.67
31.94
27.98
23.02
17.42
11.71
6.48
2.25
-0.8
-2.97
-4.97
-7.65
-11.68
-17.39
-24.65
-33
-41.87
-50.68
-58.97
-66.32
-72.26
-76.26
-77.75
-76.3
-71.83
-64.8
-56.18
-47.3
-39.46
-33.62
-30.13
-28.67
-28.43
-28.26
-26.99
-23.59
-17.54
-8.95
1.3
11.82
21.14
28.26
32.99
35.95
38.06
39.99
41.67
42.44
41.39
38.06
32.7
26.21
19.7
14.01
9.38
5.55
1.98
-1.76
-5.87
-10.24
-14.63
-18.79
-22.46
-25.38
-27.22
-27.56
-25.95
-22.04
-15.82
-7.63
1.77
11.39
20.26
27.65
33.21
36.92
39.01
39.8
39.64
38.87
37.79
36.66
35.74
35.21
35.21
35.74
36.73
37.99
39.3
40.37
40.91
40.6
39.22
36.7
33.1
28.71
23.81
18.66
13.35
7.95
2.47
-2.98
-8.17
-12.92
-17.23
-21.31
-25.47
-29.98
-34.83
-39.71
-44.14
-47.54
-49.45
-49.56
-47.7
-43.89
-38.34
-31.43
-23.69
-15.69
-7.93
-0.84
5.31
10.3
14.02
16.41
17.55
17.7
17.14
16.18
14.98
13.63
12.2
10.8
9.59
8.77
8.49
8.77
9.48
10.37
11.16
11.67
11.8
11.63
11.28
10.87
10.43
9.84
8.92
7.5
5.62
3.43
1.25
-0.65
-2.2
-3.53
-4.94
-6.71
-9.03
-11.84
-14.89
-17.83
-20.29
-21.92
-22.42
-21.48
-18.87
-14.5
-8.56
-1.52
5.89
12.91
18.97
23.81
27.48
30.16
32
33.03
33.08
32.03
29.89
26.9
23.52
20.3
17.67
15.83
14.71
14.02
13.42
12.57
11.33
9.71
7.83
5.84
3.86
1.92
-0.02
-1.98
-3.98
-6.07
-8.23
-10.51
-12.93
-15.47
-18.07
-20.58
-22.79
-24.51
-25.67
-26.29
-26.58
-26.83
-27.26
-27.94
-28.73
-29.23
-29.02
-27.8
-25.51
-22.35
-18.76
-15.11
-11.67
-8.51
-5.56
-2.76
-0.19
1.9
3.16
3.32
2.39
0.7
-1.16
-2.58
-3.22
-3.15
-2.85
-2.9
-3.75
-5.48
-7.81
-10.26
-12.34
-13.67
-14.02
-13.32
-11.63
-9.24
-6.59
-4.18
-2.18
-0.14
2.95
8.37
17.11
29.33
44.05
59.5
73.54
84.38
90.97
93.09
91.17
86.02
78.63
70.03
61.35
53.8
48.48
46.25
47.31
51.06
56.13
60.82
63.68
64.03
62.22
59.23
56.27
54.21
53.32
53.36
53.99
54.87
55.92
57.21
58.72
60.54
62.68
65.29
68.48
72.26
76.29
79.93
82.43
83.29
82.6
81.17
80.36
81.54
85.42
91.55
98.17
102.56
101.79
93.61
76.96
52.36
21.84
-11.23
-42.52
-67.66
-83.33
-88.67
-85.76
-79.24
-74.6
-75.92
-84.24
-97.11
-109.95
-118.05
-118.69
-111.8
-99.66
-85.68
-73.13
-64.47
-61.08
-63.34
-70.61
-81.23
-92.78
-102.64
-108.93
-111.13
-110.2
-108.05
-106.81
-108.04
-112.55
-120.66
-132.21
-146.8
-163.48
-180.83
-197.3
-212.13
-225.86
-239.91
-255.17
-270.26
-280.93
-280.92
-264.43
-228.66
-175.26
-109.77
-39.65
28.06
88.28
137.86
174.96
198.27
207.08
202.05
186
163.83
141.33
123.17
110.91
102.55
93.63
79.61
58.54
32.36
6.06
-14.7
-26.21
-28.42
-24.74
-20.23
-19.41
-24.64
-35.79
-51.03
-68.07
-85.15
-101.37
-116.47
-130.22
-142.12
-151.45
-157.57
-160.45
-160.67
-159.23
-157.06
-154.42
-150.76
-144.95
-135.8
-122.23
-103.3
-78.13
-45.94
-6.56
39.04
88.59
138.72
185
223.18
249.93
263.62
264.95
257.16
245.85
237.74
238.47
248.88
265.26
280.87
289.14
286.41
272.72
250.59
223.06
192.19
156.58
114.85
67.98
20.51
-21.02
-51.48
-70.03
-80.44
-89.45
-106.99
-140.78
-194.1
-264.67
-346.04
-430.52
-511.71
-585.27
-630.38
-629.93
-575.39
-473.44
-343.15
-205.88
-77.38
34.22
126.58
200.59
255.36
290.99
308.62
311.71
305.68
295.99
286.86
280.87
279.8
280.29
278.82
272.07
258.71
239.66
216.9
192.16
166.9
141.6
114.68
85.41
53.04
18.38
-15.93
-47
-72.96
-93.43
-106.19
-112.76
-115.39
-117.92
-123.26
-132.62
-145.92
-162.25
-179.42
-196.01
-210.86
-212.7
-194.06
-153.52
-97.09
-35.2
17.59
59.7
91.53
113.83
127.91
133.48
130.54
119.8
102.03
77.86
48.7
14.32
-25.4
-69.11
-113.98
-153.03
-176.57
-175.82
-146.5
-90.03
-15.17
65.73
140.25
192.22
211.93
201.61
171.94
134.1
96.04
61.35
32.12
9.93
-4.6
-10.91
-10.02
-5.04
-0.75
-0.96
-8.07
-21.94
-40.72
-61.9
-82.16
-99.06
-111.94
-121.79
-129.65
-137.09
-143.87
-149.24
-152.51
-152.78
-149.78
-144.43
-138.59
-133.58
-130.32
-128.98
-129.4
-131.31
-134.09
-137.34
-141.1
-145.78
-151.32
-157.52
-163.81
-169.54
-174
-176.07
-174.55
-168.13
-159.04
-148.21
-136.28
-123.51
-110.15
-96.45
-82.53
-68.57
-54.97
-42.55
-31.53
-22.09
-14.04
-7.14
-1.06
5.07
11.88
19.59
27.29
34.67
41.65
48.61
55.99
64.35
75.38
90.23
108.84
128.17
146.28
162.19
176.35
189.59
203.1
220.63
244.94
276.41
309.21
339.28
364.33
384.65
400.79
413.56
427.91
447.25
471.63
491.79
501.98
499.93
487.9
468.76
445.77
427.81
422.54
434.23
455.29
481.09
508.16
534.49
555.53
531.77
439.05
276.34
113.05
-20.53
-114.42
-184.59
-239.45
-285.37
-325.57
-354.57
-366.25
-358.18
-341.07
-323.37
-310.67
-303.62
-301.95
-303.91
-302.49
-291.67
-269.06
-242.41
-217.4
-197.55
-182.97
-173.71
-169.41
-166.6
-162.35
-155.59
-150.87
-150.59
-154.99
-161.95
-169.55
-176.2
-179.42
-177.26
-168.73
-155.6
-138.84
-119.09
-96.59
-72.05
-46.12
-18.48
11.56
44.02
76.59
105.37
125.32
131.71
121.62
95
54.83
5.95
-46.23
-96.43
-139.73
-171.33
-186.72
-182.63
-158.33
-116.5
-62.99
-5.28
49.83
98.05
138.16
170.9
197.13
216
224.8
220.23
200.57
167.72
127.12
85.99
50.31
22.57
1.44
-16.39
-33.62
-50.31
-63.77
-70.28
-67.21
-54.56
-35
-12.68
8.58
26.58
41.22
53.8
65.68
77.06
86.48
91.33
89.19
79.2
62.62
42.15
20.71
0.03
-19.42
-37.7
-54.25
-67.51
-75.42
-76.43
-70.38
-58.38
-42.38
-24.37
-6.04
11.16
25.93
37.09
44.03
46.85
46.32
43.48
39.32
34.47
28.86
21.57
10.89
-5.13
-27.61
-55.61
-85.67
-112.54
-131.31
-139.41
-137.36
-127.99
-114.63
-99.43
-82.93
-65.18
-47.16
-31.11
-19.74
-14.54
-14.86
-17.94
-20.38
-19.78
-16.17
-11.91
-10.19
-13.17
-20.6
-29.84
-37.13
-39.6
-36.97
-32.12
-29.73
-33.63
-44.51
-59.27
-72.68
-80.17
-80.62
-76.62
-73.02
-74.07
-80.73
-90.18
-97.61
-98.97
-93.08
-81.82
-68.02
-54.18
-41.02
-27.01
-8.94
16.74
52.36
98.2
152.04
210.51
268.5
320.45
362.08
391.71
410.35
420.91
427.09
431.99
438.18
444.8
447.23
438.47
411.78
363.49
294.92
212.64
118.99
25.44
-52.77
-103.17
-121.6
-112.4
-84.25
-46.03
-4.75
35.3
72.02
102.98
125.4
136.85
136.02
122.66
96.63
59.66
14.68
-33.55
-80.76
-123.81
-160.85
-190.82
-213.2
-228.11
-236.38
-239.97
-240.84
-240.71
-239.37
-233.74
-218.8
-190.5
-149.52
-102.68
-61.27
-35.8
-31.7
-46.7
-72.15
-97.45
-114.47
-120.18
-115.97
-105.01
-89.46
-69.93
-46.43
-19.57
8.07
32.69
50.24
57.69
53.31
37.09
10.82
-22.3
-57.81
-91.4
-119.54
-140.43
-153.97
-161.03
-162.2
-157.6
-147.85
-135.15
-123.91
-118.58
-120.95
-128.28
-134.14
-132.26
-120.41
-101.76
-82.52
-67.76
-57.79
-49
-37.67
-22.72
-6.77
6.28
14.53
19.74
25.21
32.48
39.39
40.79
32
11.47
-18.23
-51.77
-83.15
-108.19
-125.04
-133.84
-136.57
-136.21
-136.31
-139.93
-148.39
-160.64
-174.05
-185.77
-193.83
-197.79
-198.23
-196.56
-194.62
-194.36
-197.37
-204.2
-213.89
-224.22
-233.33
-240.47
-245.98
-250.24
-252.19
-248.73
-235.81
-210.41
-172.56
-126.03
-76.66
-29.97
10.83
45.46
75.39
102.01
125.44
144.6
157.95
164.63
164.89
159.64
150.01
136.76
120.17
100.33
77.61
52.96
28.03
4.86
-14.76
-29.62
-39.36
-44.3
-45
-41.95
-35.34
-25.16
-11.47
5.29
24.43
45.06
66.47
88.43
111.16
135.19
161.21
189.98
222.15
257.83
295.93
333.58
366.36
389.32
398.77
393.75
376.49
351.49
323.58
296.28
270.97
247.44
224.98
203.48
183.59
166.27
151.88
139.73
128.39
116.45
103.37
89.86
77.48
67.79
61.38
57.49
54.17
49.25
41.27
30.22
17.54
5.32
-4.62
-11.48
-15.65
-18.3
-20.71
-23.8
-27.78
-32.25
-36.4
-39.34
-40.39
-39.32
-36.47
-32.62
-28.75
-25.69
-23.76
-22.68
-21.6
-19.38
-15.07
-8.23
0.94
11.79
23.4
34.87
45.35
54.33
61.65
67.5
72.38
76.81
81.18
85.53
89.62
93.07
95.79
98.42
102.55
110.45
123.91
143.1
165.66
187.12
202.54
208.59
204.67
192.43
174.21
151.31
123.63
90.57
52.37
10.76
-31.54
-71.95
-109.01
-142.29
-171.83
-197.28
-217.94
-233.77
-245.94
-256.09
-264.22
-267.22
-259.34
-234.86
-191.49
-132.74
-67.85
-8.96
32.59
50.13
43.01
15.83
-24.23
-70.13
-117.07
-163.02
-207.69
-251.31
-293.31
-332.15
-365.41
-390.53
-405.23
-407.51
-395.53
-367.77
-324.57
-269.4
-209.48
-154.07
-111.53
-86.28
-76.94
-77.02
-77.51
-70.72
-52.74
-24.27
10.58
46.46
78.57
104.21
123.11
137.5
150.93
167.48
190.29
220.36
255.86
292.15
322.9
341.81
344.68
330.54
302.12
264.82
224.92
187.73
155.91
129.24
104.88
78.92
48.46
13.55
-21.77
-50.27
-63.94
-57.67
-31.83
7.19
49.58
86.25
112.37
128.47
138.51
146.44
153.38
157.26
154.74
143.98
126.07
104.26
81.8
59.87
37.38
12.44
-15.36
-43.93
-69.57
-89.14
-102.48
-112.59
-124.1
-140.13
-160.09
-179.74
-193.41
-197.24
-190.76
-176.39
-157.31
-135.53
-111.57
-85.7
-59.48
-35.78
-17.24
-4.12
6.37
18.66
36.01
58.09
81
99.32
109.39
111.03
107.42
102.87
100.67
101.85
105.44
109.71
113.19
115.75
118.45
123.21
131.93
145.27
161.99
178.66
190.65
193.86
186.42
169.38
146.06
120.24
94.06
67.33
37.97
3.93
-35.19
-77.78
-120.97
-162.03
-198.95
-230.19
-253.66
-266.94
-268.34
-258.96
-243.86
-230.95
-227.91
-238.29
-259.82
-285.56
-307.79
-322.09
-329.09
-333.12
-338.43
-346.04
-352.47
-351.53
-337.46
-307.68
-263.86
-211
-155.84
-104.87
-63.26
-33.91
-16.97
-9.87
-8.08
-6.73
-2.3
5.9
16.23
26.26
34.91
43.72
56.31
76.67
106.75
145.52
189.2
233.06
273.17
307.45
335.69
358.47
376.16
388.2
393.54
391.58
383.61
373.01
363.83
358.45
355.33
348.87
331.38
296.86
244.25
178.66
109.77
47.93
0.33
-31.48
-51.23
-65.37
-79.68
-97
-116.85
-136.64
-154.01
-168.02
-179.48
-189.54
-198.16
-203.12
-200.76
-188.04
-164.7
-134.12
-102.11
-74.52
-54.68
-42.12
-33.12
-22.57
-6.35
16.99
45.59
74.8
98.49
110.65
106.87
85.61
48.98
2.59
-45.65
-88.01
-119.73
-140.68
-155.05
-168.6
-185.15
-204.34
-222.06
-233.27
-235.52
-230.81
-224.79
-223.74
-230.95
-244.8
-259.41
-267.39
-263.04
-244.33
-212.95
-172.65
-127.28
-79.26
-29.58
21.35
72.54
121.78
166.09
202.82
231.09
252.23
269
283.73
296.95
307.04
311.45
308.52
298.76
284.94
270.72
258.99
250.71
244.96
239.97
234.42
228.33
223.07
220.66
222.86
230.37
242.34
256.06
267
269.48
258.26
230.46
187.1
133.31
76.77
25.1
-16.53
-46.56
-66.45
-78.82
-85.81
-88.36
-86.91
-82.61
-77.98
-76.41
-80.59
-91.03
-105.43
-119.67
-129.67
-133.52
-132.47
-130.34
-131.76
-139.91
-155.14
-175.03
-195.42
-212.07
-221.71
-222.54
-213.98
-196.36
-170.96
-140.05
-106.97
-75.47
-48.57
-27.52
-11.51
1.61
13.97
26.44
38.33
47.86
53.3
53.82
49.67
41.98
32.1
21.21
10.29
0.14
-8.81
-16.96
-26.01
-38.56
-57.12
-82.6
-113.31
-145.11
-172.59
-190.97
-197.57
-192.44
-177.88
-157.33
-134.23
-111.23
-90.07
-71.55
-55.97
-43.27
-33.1
-24.86
-17.67
-10.78
-3.76
2.98
8.17
10
7.13
-0.35
-10.49
-19.87
-24.93
-23.38
-15.18
-2.56
10.93
22.04
29.07
32.33
33.65
35.2
38.19
42.32
46.01
47.42
45.54
40.71
34.25
27.78
22.3
18.02
14.75
12.39
11.45
12.76
17.07
24.38
33.79
43.54
51.57
56.31
57.07
54.36
49.65
44.81
41.34
39.77
39.42
38.67
35.66
28.99
18.34
4.7
-9.81
-22.48
-30.69
-32.79
-28.74
-20.12
-9.67
-0.24
6.22
9.12
9.07
7.34
5.18
3.61
3.44
5.34
9.78
16.89
26.09
36.11
45.11
51.31
53.44
51.27
45.47
37.38
28.47
19.81
12.05
5.31
-0.46
-5.13
-8.23
-9.09
-7.16
-2.48
4.12
11.23
17.14
20.46
20.31
16.65
10.28
2.61
-4.74
-10.52
-14.08
-15.58
-15.75
-15.55
-15.86
-17.15
-19.42
-22.21
-24.78
-26.31
-26.16
-24.04
-20.1
-14.91
-9.25
-3.87
0.86
4.82
8.17
11
13.24
14.64
15.01
14.42
13.26
12.11
11.36
11.17
11.41
11.8
12.23
12.77
13.65
15
16.84
18.84
20.59
21.65
21.63
20.36
17.85
14.36
10.31
6.26
2.67
-0.19
-2.25
-3.59
-4.29
-4.39
-3.87
-2.73
-1
1.11
3.22
4.82
5.34
4.35
1.56
-2.97
-8.84
-15.34
-21.45
-26.08
-28.28
-27.58
-24.15
-18.85
-12.96
-7.72
-3.94
-1.75
-0.66
0.15
1.37
3.25
5.51
7.53
8.65
8.57
7.57
6.53
6.51
8.36
12.22
17.45
22.85
27.25
29.87
30.53
29.42
26.7
22.44
16.56
9.3
1.36
-6.08
-11.85
-15.35
-16.77
-17.05
-17.33
-18.4
-20.3
-22.53
-24.37
-25.35
-25.38
-24.66
-23.44
-21.81
-19.74
-17.09
-13.8
-9.97
-5.81
-1.61
2.36
5.83
8.61
10.64
12
12.83
13.23
13.28
12.93
12.12
10.92
9.5
8.04
6.65
5.27
3.78
2.15
0.48
-0.98
-1.97
-2.42
-2.53
-2.66
-3.13
-4.06
-5.31
-6.64
-7.91
-9.17
-10.62
-12.44
-14.64
-17.02
-19.35
-21.46
-23.3
-24.88
-26.05
-26.57
-26.02
-24.16
-21.02
-16.93
-12.47
-8.17
-4.37
-1.13
1.65
4.07
6.16
7.83
9.01
9.74
10.2
10.64
11.29
12.22
13.31
14.34
15.04
15.32
15.33
15.35
15.64
16.3
17.05
17.5
17.25
16.11
14.22
11.93
9.68
7.64
5.78
3.8
1.46
-1.33
-4.43
-7.56
-10.48
-13.06
-15.37
-17.56
-19.78
-22.19
-24.9
-27.93
-31.19
-34.44
-37.24
-39.06
-39.36
-37.83
-34.53
-29.8
-24.2
-18.22
-12.25
-6.4
-0.72
4.74
9.86
14.4
18.1
20.77
22.4
23.12
23.19
22.89
22.46
22.11
22.03
22.36
23.19
24.47
26.1
27.85
29.47
30.79
31.72
32.26
32.37
32.06
31.34
30.4
29.46
28.73
28.24
27.79
26.97
25.4
22.96
19.75
16.12
12.41
8.8
5.27
1.73
-1.84
-5.34
-8.47
-11.02
-12.96
-14.49
-15.92
-17.56
-19.6
-22.11
-25.01
-28.05
-30.95
-33.32
-34.77
-34.93
-33.58
-30.72
-26.63
-21.75
-16.6
-11.6
-6.93
-2.55
1.66
5.83
9.92
13.73
17.03
19.65
21.56
22.91
23.94
24.78
25.48
26
26.33
26.47
26.54
26.66
26.96
27.49
28.21
28.96
29.48
29.51
28.84
27.47
25.5
23.21
20.86
18.69
16.81
15.24
13.82
12.38
10.81
9.1
7.35
5.74
4.43
3.43
2.54
1.44
-0.11
-2.16
-4.47
-6.73
-8.71
-10.4
-11.97
-13.74
-15.92
-18.53
-21.41
-24.18
-26.4
-27.7
-27.77
-26.45
-23.76
-19.89
-15.16
-10.04
-4.94
-0.17
4.13
7.95
11.37
14.39
16.93
18.79
19.8
19.98
19.54
18.79
18.08
17.64
17.57
17.84
18.32
18.89
19.49
20.11
20.77
21.48
22.16
22.6
22.53
21.66
19.89
17.29
14.2
11.04
8.29
6.2
4.82
3.98
3.44
2.93
2.31
1.54
0.66
-0.28
-1.31
-2.58
-4.18
-6.07
-8.07
-9.86
-11.22
-12.14
-12.86
-13.76
-15.18
-17.18
-19.46
-21.55
-22.99
-23.42
-22.76
-21.11
-18.64
-15.58
-12.13
-8.54
-5.05
-1.87
0.92
3.33
5.44
7.33
8.93
10.17
10.88
11.05
10.78
10.31
9.9
9.71
9.77
9.94
10.12
10.17
10.09
9.93
9.76
9.61
9.47
9.32
9.08
8.72
8.22
7.56
6.8
5.93
5
4.07
3.2
2.44
1.84
1.41
1.08
0.77
0.33
-0.34
-1.28
-2.43
-3.69
-4.92
-5.98
-6.76
-7.25
-7.57
-7.88
-8.42
-9.37
-10.85
-12.81
-15.02
-17.13
-18.7
-19.39
-18.97
-17.47
-15.09
-12.19
-9.17
-6.38
-4.03
-2.23
-0.97
-0.15
0.41
0.87
1.35
1.94
2.66
3.44
4.23
4.92
5.39
5.54
5.35
4.9
4.38
4.03
3.99
4.23
4.5
4.46
3.93
2.91
1.74
0.84
0.54
0.82
1.44
2.02
2.23
1.97
1.31
0.43
-0.48
-1.33
-2.14
-2.93
-3.77
-4.71
-5.67
-6.62
-7.42
-8.03
-8.44
-8.77
-9.2
-9.92
-11.04
-12.44
-13.87
-14.99
-15.47
-15.09
-13.83
-11.84
-9.45
-7.02
-4.82
-3.03
-1.68
-0.72
-0.07
0.32
0.53
0.65
0.82
1.23
1.88
2.66
3.34
3.73
3.79
3.68
3.7
4.04
4.69
5.36
5.64
5.21
3.99
2.24
0.43
-1.04
-1.95
-2.29
-2.23
-1.93
-1.52
-1.06
-0.64
-0.42
-0.6
-1.35
-2.62
-4.26
-5.95
-7.42
-8.53
-9.29
-9.84
-10.31
-10.84
-11.43
-12.08
-12.74
-13.34
-13.81
-14.04
-13.89
-13.23
-12.05
-10.46
-8.66
-6.89
-5.29
-3.87
-2.53
-1.14
0.32
1.77
3.05
4.01
4.59
4.84
4.88
4.83
4.79
4.76
4.68
4.54
4.28
4.01
3.9
4.11
4.69
5.5
6.17
6.29
5.62
4.22
2.48
0.84
-0.34
-1.01
-1.32
-1.53
-1.83
-2.22
-2.61
-2.85
-2.94
-2.98
-3.18
-3.7
-4.56
-5.6
-6.53
-7.13
-7.39
-7.61
-8.15
-9.27
-10.97
-12.91
-14.61
-15.62
-15.85
-15.45
-14.71
-13.83
-12.79
-11.48
-9.8
-7.86
-5.88
-4.12
-2.74
-1.72
-0.92
-0.19
0.59
1.42
2.23
2.99
3.64
4.2
4.69
5.08
5.35
5.47
5.39
5.08
4.61
4.1
3.69
3.51
3.55
3.68
3.64
3.26
2.51
1.53
0.61
0.01
-0.2
-0.19
-0.32
-0.93
-2.18
-3.94
-5.88
-7.68
-9.16
-10.34
-11.42
-12.56
-13.84
-15.22
-16.59
-17.89
-19.08
-20.07
-20.72
-20.79
-20.07
-18.47
-16.16
-13.47
-10.82
-8.49
-6.59
-5.11
-3.86
-2.72
-1.59
-0.51
0.49
1.3
1.87
2.18
2.27
2.26
2.36
2.77
3.54
4.6
5.72
6.67
7.27
7.56
7.72
7.91
8.2
8.42
8.35
7.8
6.76
5.47
4.24
3.27
2.56
1.9
1.03
-0.22
-1.84
-3.63
-5.35
-6.79
-7.89
-8.79
-9.65
-10.65
-11.86
-13.29
-14.92
-16.71
-18.6
-20.45
-22.07
-23.13
-23.43
-22.76
-21.08
-18.54
-15.36
-11.85
-8.27
-4.9
-1.92
0.53
2.46
4
5.36
6.67
7.92
8.96
9.56
9.65
9.35
8.99
8.94
9.45
10.5
11.8
13.05
14.01
14.64
15.02
15.13
14.88
14.06
12.57
10.51
8.26
6.35
5.18
4.92
5.29
5.86
6.16
5.91
5.13
4.01
2.76
1.47
0.08
-1.62
-3.73
-6.27
-9.1
-12.04
-14.91
-17.66
-20.26
-22.63
-24.58
-25.77
-25.78
-24.33
-21.33
-17.09
-12.18
-7.31
-3.07
0.19
2.52
4.19
5.52
6.82
8.1
9.25
10.03
10.25
9.89
9.12
8.3
7.73
7.65
8
8.6
9.16
9.54
9.72
9.79
9.81
9.68
9.24
8.3
6.89
5.21
3.58
2.27
1.35
0.63
-0.17
-1.22
-2.58
-4.1
-5.54
-6.8
-7.93
-9.18
-10.83
-13.05
-15.71
-18.44
-20.65
-21.8
-21.58
-19.96
-17.2
-13.68
-9.82
-5.95
-2.3
0.98
3.88
6.43
8.77
10.9
12.8
14.29
15.23
15.58
15.49
15.19
14.95
14.93
15.1
15.38
15.68
15.97
16.34
16.86
17.55
18.32
18.98
19.3
19.1
18.25
16.69
14.58
12.13
9.66
7.48
5.78
4.6
3.78
2.99
1.86
0.2
-1.99
-4.5
-6.98
-9.13
-10.79
-11.96
-12.8
-13.56
-14.51
-15.9
-17.83
-20.15
-22.47
-24.15
-24.55
-23.24
-20.17
-15.77
-10.7
-5.74
-1.36
2.2
5.09
7.52
9.67
11.57
13.07
14.06
14.53
14.7
14.77
14.97
15.34
15.81
16.27
16.66
17.06
17.6
18.33
19.09
19.61
19.61
18.96
17.75
16.25
14.8
13.64
12.88
12.46
12.26
12.07
11.72
11.12
10.21
9.03
7.65
6.14
4.56
2.88
1.01
-1.13
-3.46
-5.83
-7.95
-9.66
-10.98
-12.17
-13.67
-15.86
-18.85
-22.34
-25.63
-27.91
-28.49
-27.06
-23.74
-19.09
-13.79
-8.52
-3.73
0.38
3.84
6.77
9.25
11.33
12.94
14.07
14.77
15.15
15.38
15.62
15.95
16.37
16.86
17.38
17.94
18.53
19.14
19.61
19.77
19.45
18.53
17.11
15.41
13.69
12.12
10.73
9.38
7.94
6.35
4.63
2.87
1.15
-0.53
-2.24
-4
-5.76
-7.35
-8.6
-9.4
-9.85
-10.18
-10.67
-11.53
-12.84
-14.58
-16.6
-18.68
-20.59
-22.05
-22.74
-22.4
-20.87
-18.21
-14.74
-10.93
-7.21
-3.91
-1.15
1.19
3.24
5.12
6.82
8.23
9.23
9.75
9.83
9.61
9.26
8.92
8.69
8.59
8.6
8.71
8.9
9.08
9.23
9.24
9.05
8.63
8.02
7.27
6.49
5.72
4.96
4.18
3.33
2.3
1.03
-0.48
-2.19
-3.92
-5.47
-6.68
-7.45
-7.83
-7.96
-8.03
-8.27
-8.89
-10.07
-11.92
-14.37
-17.14
-19.73
-21.59
-22.28
-21.61
-19.76
-17.13
-14.18
-11.27
-8.59
-6.16
-3.93
-1.83
0.17
2.03
3.68
5.08
6.16
6.97
7.57
8.07
8.49
8.82
8.99
9.02
9
9.03
9.26
9.71
10.34
11
11.59
12
12.22
12.22
11.87
11.09
9.81
8.07
6.06
4.09
2.47
1.38
0.88
0.8
0.84
0.66
-0.05
-1.42
-3.38
-5.67
-8.08
-10.36
-12.46
-14.39
-16.22
-18.03
-19.85
-21.68
-23.46
-25.05
-26.19
-26.56
-25.86
-24.01
-21.21
-17.8
-14.17
-10.62
-7.27
-4.16
-1.31
1.26
3.49
5.35
6.85
8
8.9
9.61
10.3
11.08
12.05
13.19
14.27
15.06
15.41
15.41
15.33
15.38
15.63
15.85
15.71
14.97
13.7
12.18
10.82
9.86
9.27
8.86
8.37
7.7
6.93
6.22
5.68
5.3
4.94
4.38
3.44
2.01
0.09
-2.19
-4.66
-7.09
-9.3
-11.17
-12.71
-13.96
-15.1
-16.24
-17.54
-19.09
-20.99
-23.21
-25.5
-27.43
-28.41
-27.97
-25.89
-22.42
-18.17
-13.82
-9.92
-6.62
-3.79
-1.14
1.54
4.14
6.39
8.02
8.95
9.35
9.59
10
10.71
11.63
12.48
13.08
13.35
13.48
13.64
13.98
14.46
14.9
15.09
14.87
14.18
13.06
11.59
9.88
8.12
6.5
5.22
4.35
3.73
3.02
1.83
-0.08
-2.65
-5.56
-8.31
-10.46
-11.86
-12.66
-13.28
-14.19
-15.67
-17.79
-20.35
-22.99
-25.36
-27.09
-27.97
-27.81
-26.53
-24.15
-20.79
-16.74
-12.36
-8.09
-4.24
-1.05
1.45
3.3
4.66
5.66
6.42
6.97
7.31
7.5
7.63
7.93
8.61
9.85
11.58
13.49
15.12
16.04
16.08
15.35
14.17
12.84
11.43
9.81
7.76
5.23
2.43
-0.21
-2.26
-3.56
-4.31
-4.98
-5.99
-7.54
-9.42
-11.23
-12.64
-13.57
-14.34
-15.45
-17.36
-20.17
-23.59
-27.09
-29.99
-31.77
-32.12
-31.04
-28.7
-25.35
-21.27
-16.73
-12.01
-7.37
-3.06
0.75
3.92
6.45
8.47
10.17
11.71
13.15
14.42
15.38
15.96
16.22
16.35
16.53
16.83
17.16
17.36
17.34
17.13
16.85
16.61
16.37
15.92
15.01
13.55
11.69
9.73
7.98
6.55
5.35
4.11
2.58
0.64
-1.69
-4.3
-7.04
-9.78
-12.34
-14.59
-16.45
-18
-19.46
-21.2
-23.53
-26.54
-29.91
-32.94
-34.8
-34.78
-32.6
-28.48
-23.09
-17.23
-11.64
-6.76
-2.73
0.63
3.66
6.66
9.84
13.09
16.13
18.59
20.2
21.02
21.29
21.46
21.84
22.52
23.34
24.07
24.53
24.69
24.64
24.44
24.13
23.6
22.81
21.77
20.56
19.27
17.87
16.36
14.66
12.84
10.93
9.06
7.18
5.23
3.11
0.79
-1.62
-3.97
-6.12
-8.06
-9.84
-11.61
-13.5
-15.61
-18
-20.68
-23.63
-26.73
-29.75
-32.36
-34.16
-34.76
-33.82
-31.24
-27.08
-21.78
-15.96
-10.27
-5.27
-1.12
2.31
5.32
8.11
10.69
12.88
14.48
15.51
16.2
16.92
17.94
19.3
20.75
21.94
22.66
22.91
22.94
23.03
23.32
23.63
23.66
23.08
21.79
19.94
17.83
15.79
13.98
12.41
10.94
9.43
7.78
5.98
4.01
1.83
-0.64
-3.41
-6.44
-9.59
-12.69
-15.66
-18.44
-21.12
-23.85
-26.71
-29.67
-32.47
-34.68
-35.73
-35.07
-32.38
-27.68
-21.49
-14.57
-7.8
-1.8
3.19
7.26
10.62
13.49
15.96
17.97
19.5
20.57
21.32
21.92
22.53
23.19
23.9
24.66
25.43
26.15
26.71
26.98
26.86
26.32
25.44
24.34
23.16
21.94
20.66
19.27
17.71
16.06
14.44
13.01
11.86
10.84
9.73
8.32
6.52
4.46
2.42
0.64
-0.89
-2.42
-4.31
-6.79
-9.73
-12.69
-15.24
-17.09
-18.36
-19.45
-20.83
-22.75
-25.16
-27.81
-30.33
-32.48
-34.03
-34.8
-34.55
-32.98
-29.89
-25.33
-19.69
-13.61
-7.76
-2.62
1.65
5.09
7.95
10.41
12.56
14.38
15.89
17.18
18.43
19.85
21.47
23.21
24.76
25.8
26.1
25.71
24.84
23.79
22.85
22.07
21.4
20.65
19.66
18.4
17
15.63
14.43
13.48
12.62
11.71
10.57
9.11
7.48
5.84
4.38
3.17
2.24
1.42
0.55
-0.53
-1.94
-3.73
-5.9
-8.4
-11.09
-13.74
-16.16
-18.22
-19.92
-21.45
-23.02
-24.83
-26.9
-29.01
-30.74
-31.65
-31.35
-29.65
-26.66
-22.61
-17.91
-12.99
-8.2
-3.84
-0.06
3.05
5.52
7.35
8.59
9.32
9.67
9.83
10.01
10.44
11.22
12.31
13.46
14.4
14.9
14.84
14.33
13.57
12.81
12.2
11.77
11.42
10.98
10.41
9.69
8.91
8.13
7.34
6.53
5.61
4.54
3.32
2.06
0.8
-0.46
-1.84
-3.51
-5.59
-8.07
-10.79
-13.47
-15.83
-17.74
-19.25
-20.62
-22.16
-24.11
-26.48
-28.98
-31.12
-32.33
-32.16
-30.42
-27.25
-23.02
-18.22
-13.41
-8.99
-5.22
-2.18
0.24
2.29
4.21
6.19
8.29
10.37
12.23
13.65
14.5
14.88
14.95
14.96
15.12
15.56
16.27
17.14
18.01
18.67
18.99
18.92
18.45
17.59
16.42
15
13.52
12.14
11
10.05
9.1
7.87
6.1
3.85
1.38
-0.86
-2.5
-3.44
-3.86
-4.15
-4.72
-5.82
-7.51
-9.65
-12.08
-14.64
-17.23
-19.8
-22.4
-25.03
-27.6
-29.93
-31.69
-32.51
-32.1
-30.39
-27.46
-23.57
-18.99
-13.98
-8.8
-3.74
0.86
4.74
7.74
9.93
11.54
12.85
14.02
15.04
15.87
16.44
16.8
16.99
17.03
16.87
16.46
15.85
15.22
14.87
14.96
15.35
15.69
15.49
14.49
12.72
10.52
8.34
6.53
5.15
4.02
2.95
1.78
0.59
-0.54
-1.59
-2.69
-4.02
-5.73
-7.81
-10.03
-12.17
-14.11
-16
-18.09
-20.65
-23.7
-26.94
-29.84
-31.77
-32.33
-31.32
-28.85
-25.13
-20.57
-15.62
-10.73
-6.33
-2.67
0.18
2.37
4.11
5.62
7
8.2
9.14
9.7
9.9
9.83
9.67
9.6
9.69
9.95
10.26
10.47
10.45
10.13
9.58
8.89
8.2
7.55
6.96
6.35
5.68
4.89
3.94
2.79
1.4
-0.22
-1.96
-3.7
-5.3
-6.65
-7.79
-8.88
-10.15
-11.85
-14.15
-17.03
-20.22
-23.28
-25.62
-26.71
-26.25
-24.19
-20.81
-16.53
-11.84
-7.12
-2.64
1.46
5.16
8.43
11.3
13.7
15.48
16.49
16.69
16.21
15.45
14.88
14.87
15.51
16.61
17.79
18.79
19.47
19.84
19.99
19.89
19.49
18.75
17.73
16.59
15.47
14.4
13.28
11.94
10.28
8.41
6.58
5.07
3.99
3.28
2.68
1.84
0.49
-1.46
-3.97
-6.75
-9.44
-11.73
-13.41
-14.59
-15.59
-16.85
-18.67
-21.05
-23.63
-25.82
-27.01
-26.75
-24.96
-21.88
-17.97
-13.75
-9.71
-6.19
-3.31
-1.03
0.88
2.72
4.78
7.12
9.6
11.91
13.7
14.72
14.99
14.76
14.39
14.22
14.39
14.82
15.28
15.58
15.61
15.38
14.93
14.29
13.42
12.34
11.11
9.85
8.75
7.86
7.16
6.53
5.8
4.87
3.72
2.37
0.89
-0.65
-2.17
-3.59
-4.85
-6
-7.09
-8.27
-9.67
-11.36
-13.35
-15.64
-18.11
-20.54
-22.58
-23.8
-23.82
-22.47
-19.92
-16.56
-12.98
-9.61
-6.63
-3.94
-1.29
1.47
4.31
7
9.3
10.94
11.91
12.29
12.24
12
11.76
11.71
11.99
12.64
13.59
14.7
15.74
16.5
16.83
16.65
15.94
14.79
13.33
11.74
10.24
8.97
7.96
7.11
6.31
5.42
4.47
3.56
2.81
2.2
1.63
0.87
-0.23
-1.73
-3.47
-5.23
-6.83
-8.19
-9.41
-10.6
-11.91
-13.36
-14.96
-16.65
-18.39
-20.17
-21.88
-23.25
-23.97
-23.68
-22.15
-19.47
-15.98
-12.16
-8.52
-5.34
-2.64
-0.27
1.95
4.11
6.11
7.76
8.97
9.71
10.15
10.47
10.8
11.16
11.49
11.76
11.92
12.08
12.3
12.68
13.21
13.78
14.26
14.48
14.36
13.89
13.22
12.47
11.74
10.99
10.11
8.96
7.4
5.49
3.44
1.52
-0.06
-1.22
-2.01
-2.61
-3.19
-3.86
-4.67
-5.61
-6.62
-7.66
-8.68
-9.6
-10.42
-11.17
-11.99
-13.09
-14.66
-16.71
-19.03
-21.15
-22.5
-22.67
-21.5
-19.16
-16.03
-12.61
-9.31
-6.33
-3.69
-1.33
0.83
2.79
4.47
5.76
6.6
6.97
6.97
6.69
6.26
5.78
5.39
5.17
5.2
5.52
6.04
6.65
7.17
7.48
7.53
7.33
6.9
6.23
5.31
4.21
3.11
2.21
1.74
1.78
2.15
2.56
2.61
2.03
0.72
-1.12
-3.13
-4.89
-6.1
-6.7
-6.83
-6.82
-6.99
-7.65
-8.83
-10.45
-12.28
-14.07
-15.65
-16.97
-18.14
-19.31
-20.58
-21.83
-22.69
-22.7
-21.49
-19.01
-15.57
-11.82
-8.39
-5.72
-3.82
-2.44
-1.26
-0.04
1.21
2.43
3.48
4.35
5.1
5.8
6.53
7.27
8.05
8.84
9.69
10.6
11.56
12.52
13.38
14.1
14.6
14.88
14.89
14.62
14.04
13.16
12.07
10.85
9.57
8.25
6.92
5.57
4.19
2.78
1.35
-0.07
-1.51
-2.9
-4.21
-5.35
-6.3
-7.08
-7.8
-8.59
-9.57
-10.75
-12.06
-13.35
-14.58
-15.77
-17.1
-18.7
-20.62
-22.63
-24.34
-25.26
-25.01
-23.45
-20.72
-17.23
-13.45
-9.84
-6.7
-4.17
-2.25
-0.9
-0.04
0.46
0.74
1.07
1.64
2.63
4.03
5.64
7.21
8.5
9.36
9.84
10.05
10.14
10.17
10.12
9.92
9.55
9.05
8.56
8.2
8.07
8.21
8.5
8.82
8.99
8.92
8.56
7.93
7.06
5.97
4.64
3.12
1.52
-0.03
-1.34
-2.34
-3.08
-3.69
-4.42
-5.45
-6.91
-8.78
-11.01
-13.55
-16.38
-19.46
-22.68
-25.84
-28.64
-30.79
-32.04
-32.24
-31.38
-29.55
-26.9
-23.57
-19.73
-15.52
-11.13
-6.78
-2.7
0.85
3.69
5.76
7.21
8.24
9.14
10.04
10.97
11.9
12.78
13.7
14.71
15.84
16.97
17.93
18.55
18.81
18.88
18.98
19.28
19.71
20.01
19.84
19.02
17.6
15.86
14.1
12.52
11.19
10.02
8.87
7.64
6.25
4.73
3.13
1.55
0.04
-1.35
-2.66
-3.99
-5.43
-7
-8.59
-10.06
-11.25
-12.21
-13.12
-14.24
-15.79
-17.76
-19.99
-22.22
-24.18
-25.66
-26.44
-26.32
-25.13
-22.8
-19.35
-15.11
-10.52
-6.09
-2.24
0.82
3.11
4.76
5.96
6.87
7.64
8.36
9.14
10.08
11.19
12.43
13.7
14.82
15.67
16.2
16.43
16.45
16.33
16.11
15.8
15.37
14.8
14.04
12.99
11.62
9.92
8
6.07
4.36
3.04
2.04
1.19
0.18
-1.19
-2.94
-4.92
-6.92
-8.81
-10.61
-12.48
-14.58
-16.97
-19.65
-22.46
-25.28
-27.88
-29.98
-31.23
-31.27
-29.8
-26.79
-22.54
-17.6
-12.67
-8.32
-4.84
-2.21
-0.12
1.8
3.84
6.06
8.39
10.6
12.51
14.03
15.17
15.99
16.57
16.95
17.17
17.27
17.29
17.28
17.28
17.28
17.25
17.15
16.85
16.27
15.32
13.97
12.33
10.59
8.99
7.69
6.67
5.79
4.84
3.59
1.96
-0.05
-2.31
-4.68
-7
-9.13
-11.04
-12.83
-14.75
-17.08
-20
-23.41
-26.94
-29.97
-31.9
-32.24
-30.87
-27.99
-23.97
-19.28
-14.32
-9.42
-4.81
-0.63
3.11
6.44
9.5
12.38
15.06
17.39
19.14
20.12
20.31
19.9
19.26
18.78
18.78
19.33
20.28
21.36
22.31
22.98
23.38
23.59
23.67
23.53
23.02
21.94
20.23
17.99
15.58
13.37
11.64
10.37
9.32
8.08
6.35
4.08
1.43
-1.26
-3.68
-5.66
-7.26
-8.63
-9.98
-11.49
-13.2
-15.12
-17.2
-19.43
-21.84
-24.43
-27.15
-29.78
-31.93
-33
-32.47
-30.02
-25.79
-20.29
-14.32
-8.61
-3.62
0.56
4.08
7.07
9.57
11.5
12.78
13.44
13.68
13.83
14.15
14.75
15.55
16.42
17.25
18.01
18.72
19.38
19.87
20.05
19.78
19.04
17.89
16.5
14.93
13.19
11.22
9.01
6.65
4.41
2.51
1.1
0.12
-0.66
-1.57
-2.87
-4.67
-6.92
-9.43
-12.01
-14.56
-17.11
-19.78
-22.65
-25.65
-28.52
-30.8
-31.97
-31.58
-29.49
-25.9
-21.23
-16.05
-10.81
-5.84
-1.21
3.04
6.89
10.31
13.19
15.46
17.1
18.15
18.66
18.81
18.76
18.73
18.96
19.59
20.6
21.76
22.77
23.3
23.16
22.35
21
19.35
17.56
15.71
13.81
11.88
9.92
7.96
6.02
4.12
2.33
0.71
-0.65
-1.76
-2.69
-3.61
-4.7
-6.08
-7.75
-9.56
-11.47
-13.48
-15.71
-18.35
-21.46
-24.93
-28.53
-31.9
-34.67
-36.51
-37.12
-36.26
-33.84
-29.98
-24.96
-19.27
-13.42
-7.84
-2.81
1.58
5.32
8.44
10.98
12.96
14.45
15.5
16.21
16.63
16.88
17.05
17.23
17.52
17.99
18.66
19.5
20.4
21.2
21.71
21.82
21.43
20.56
19.33
17.83
16.27
14.8
13.53
12.6
12.05
11.82
11.75
11.62
11.11
9.99
8.24
5.96
3.41
0.79
-1.79
-4.32
-6.86
-9.5
-12.26
-15.12
-18.06
-21.11
-24.29
-27.59
-30.82
-33.62
-35.57
-36.22
-35.25
-32.58
-28.31
-22.83
-16.7
-10.59
-5.15
-0.78
2.44
4.77
6.61
8.29
9.93
11.37
12.44
13.11
13.6
14.23
15.28
16.7
18.26
19.57
20.37
20.57
20.32
19.83
19.3
18.8
18.22
17.47
16.45
15.14
13.65
12.05
10.42
8.74
6.95
4.95
2.69
0.22
-2.29
-4.63
-6.63
-8.29
-9.74
-11.19
-12.81
-14.72
-16.99
-19.56
-22.36
-25.18
-27.74
-29.56
-30.13
-29.07
-26.27
-22.04
-16.97
-11.74
-6.92
-2.81
0.59
3.46
6.06
8.57
11.02
13.29
15.25
16.76
17.76
18.29
18.44
18.35
18.22
18.21
18.47
19.02
19.77
20.5
20.92
20.78
19.96
18.54
16.7
14.7
12.76
11.06
9.72
8.75
8.04
7.36
6.47
5.21
3.61
1.88
0.25
-1.1
-2.23
-3.35
-4.69
-6.36
-8.35
-10.58
-12.96
-15.41
-17.87
-20.28
-22.63
-24.99
-27.46
-30.06
-32.61
-34.64
-35.51
-34.67
-31.94
-27.55
-22.04
-16.07
-10.14
-4.57
0.45
4.77
8.25
10.89
12.83
14.33
15.68
17.03
18.35
19.5
20.29
20.64
20.69
20.61
20.64
20.89
21.36
21.94
22.47
22.81
22.86
22.59
22.02
21.19
20.12
18.84
17.36
15.77
14.23
12.82
11.57
10.31
8.83
6.93
4.61
2.07
-0.35
-2.33
-3.86
-5.13
-6.5
-8.21
-10.19
-12.23
-14.01
-15.42
-16.57
-17.85
-19.62
-22.09
-25.18
-28.54
-31.6
-33.75
-34.51
-33.58
-31.02
-27.18
-22.59
-17.84
-13.36
-9.39
-5.87
-2.74
0.07
2.55
4.59
6.1
7.03
7.5
7.71
7.99
8.64
9.91
11.9
14.4
17.04
19.33
20.87
21.45
21.1
20.08
18.68
17.14
15.56
13.91
12.11
10.22
8.38
6.79
5.6
4.82
4.25
3.56
2.52
0.99
-0.9
-2.94
-4.98
-6.96
-8.99
-11.2
-13.69
-16.42
-19.34
-22.4
-25.59
-28.86
-32.03
-34.71
-36.34
-36.42
-34.69
-31.23
-26.47
-21
-15.43
-10.25
-5.78
-2.14
0.71
2.97
4.93
6.82
8.77
10.74
12.62
14.29
15.65
16.71
17.48
17.95
18.02
17.67
16.95
16.1
15.49
15.39
15.91
16.85
17.78
18.22
17.87
16.72
15.05
13.28
11.74
10.49
9.39
8.21
6.85
5.36
3.93
2.67
1.54
0.36
-1.08
-2.9
-5.07
-7.5
-10.06
-12.66
-15.21
-17.62
-19.86
-21.95
-24.06
-26.41
-29.15
-32.2
-35.18
-37.54
-38.72
-38.38
-36.38
-32.81
-27.93
-22.09
-15.74
-9.4
-3.58
1.36
5.31
8.36
10.78
12.85
14.78
16.68
18.6
20.46
22.17
23.56
24.51
24.94
24.94
24.69
24.44
24.33
24.38
24.51
24.49
24.15
23.45
22.42
21.15
19.71
18.2
16.7
15.35
14.25
13.38
12.63
11.73
10.47
8.8
6.91
5.08
3.59
2.54
1.83
1.25
0.61
-0.18
-1.16
-2.37
-3.95
-6.02
-8.6
-11.54
-14.49
-17.16
-19.37
-21.24
-23.12
-25.41
-28.3
-31.67
-34.96
-37.37
-38.17
-36.88
-33.53
-28.57
-22.73
-16.83
-11.5
-7.06
-3.49
-0.57
2.01
4.44
6.76
8.87
10.63
11.93
12.75
13.21
13.46
13.69
14.02
14.43
14.91
15.36
15.76
16.07
16.32
16.56
16.79
16.9
16.68
15.96
14.62
12.78
10.69
8.67
6.98
5.66
4.66
3.78
2.93
2.01
0.94
-0.41
-2.23
-4.69
-7.82
-11.33
-14.81
-17.76
-19.97
-21.55
-22.89
-24.47
-26.55
-29.12
-31.75
-33.85
-34.82
-34.27
-32.05
-28.3
-23.34
-17.61
-11.68
-5.97
-0.85
3.48
7.01
9.83
12.11
13.99
15.53
16.71
17.53
17.98
18.12
18.11
18.11
18.34
18.91
19.8
20.81
21.71
22.25
22.24
21.73
20.82
19.68
18.47
17.26
16.08
14.88
13.61
12.21
10.68
9.04
7.29
5.47
3.61
1.81
0.09
-1.46
-2.91
-4.35
-5.95
-7.82
-10.01
-12.44
-14.92
-17.29
-19.46
-21.46
-23.41
-25.45
-27.67
-30.04
-32.44
-34.64
-36.3
-36.98
-36.25
-33.85
-29.79
-24.47
-18.51
-12.6
-7.27
-2.74
1.06
4.31
7.18
9.69
11.74
13.25
14.21
14.8
15.29
15.92
16.79
17.83
18.84
19.65
20.21
20.59
20.89
21.23
21.57
21.76
21.63
21.05
20.02
18.71
17.31
15.97
14.82
13.8
12.84
11.86
10.81
9.69
8.53
7.36
6.16
4.91
3.52
1.94
0.17
-1.81
-3.94
-6.25
-8.7
-11.27
-13.83
-16.22
-18.21
-19.73
-20.9
-22
-23.41
-25.4
-28
-30.95
-33.77
-35.84
-36.65
-35.85
-33.42
-29.63
-25.01
-20.17
-15.61
-11.65
-8.3
-5.39
-2.72
-0.15
2.32
4.63
6.69
8.45
9.9
11.01
11.82
12.43
12.99
13.61
14.35
15.12
15.82
16.32
16.63
16.81
16.97
17.1
17.02
16.53
15.41
13.61
11.25
8.61
5.99
3.63
1.6
-0.26
-2.18
-4.42
-7.1
-10.07
-13.02
-15.5
-17.15
-17.65
-16.82
-14.82
-12.13
-9.57
-7.92
-7.68
-8.66
-10.04
-10.6
-9.29
-5.7
-0.13
6.55
13.49
20.08
26.13
31.64
36.64
41.03
44.65
47.4
49.29
50.41
50.91
51.06
51.09
51.2
51.51
51.92
52.26
52.32
52
51.35
50.56
49.82
49.09
48.18
46.79
44.63
41.54
37.4
32.22
26.18
19.43
12.22
4.81
-2.43
-9.02
-14.41
-18.12
-19.83
-19.61
-18.44
-17.77
-19.09
-23.12
-29.31
-35.86
-40.49
-41.31
-37.58
-30.85
-23.92
-19.83
-20.42
-25.53
-33.13
-40.73
-46.57
-50.2
-53.37
-58.45
-67.67
-82.52
-103.83
-132.3
-168.7
-213.14
-257.31
-290.1
-300.02
-281
-236.08
-175.45
-111.13
-52.07
-2.26
38.62
72.01
99.03
119.42
132.38
138.01
136.8
129.76
118.46
105.31
92.42
82.01
75.65
74.01
76.33
80.43
82.95
80.2
69.25
48.25
16.99
-23.47
-70.69
-120.31
-165.73
-198.51
-209.82
-193.8
-151.21
-90.81
-27.17
24.49
54.03
59.23
44.41
17.09
-15.31
-47.24
-74.21
-91.75
-96.43
-87.58
-69.52
-50.25
-36.88
-31.53
-30.63
-27.32
-15.58
6.57
36.9
70.14
100.27
123.4
138.46
146.83
151.86
158.56
172.47
197.48
233.43
266.25
279.62
262.01
214.05
147.64
77.59
13.66
-41.18
-88.2
-127.34
-158.62
-179.83
-188.57
-185.32
-173.87
-160.19
-149.64
-145.16
-147.55
-153.52
-157.74
-155.56
-145.01
-127.15
-105.11
-82.09
-60.08
-39.41
-18.51
5.23
33.92
68.27
107.31
148.37
187.48
219.79
240.44
246.23
236.83
214.87
185.12
153.03
123.11
98.13
79.07
65.61
57.14
53
52.26
53.3
53.87
51.6
45.04
34.26
20.84
7.42
-3.22
-9.21
-10.16
-7.15
-2.39
1.61
2.83
0.2
-6.06
-14.78
-24.21
-32.78
-39.53
-44.32
-47.62
-49.89
-51.22
-51.05
-48.66
-43.63
-36.27
-27.64
-19.17
-11.99
-6.51
-2.37
1.23
4.84
8.53
11.91
14.4
15.67
15.82
15.3
14.65
14.29
14.34
14.66
14.98
15.07
14.86
14.38
13.77
13.2
12.78
12.54
12.31
11.78
10.62
8.62
5.88
2.81
-0.02
-2.14
-3.44
-4.17
-4.82
-5.84
-7.49
-9.76
-12.42
-15.11
-17.44
-19.02
-19.54
-18.84
-16.98
-14.22
-10.96
-7.6
-4.47
-1.81
0.28
1.84
2.99
3.89
4.65
5.27
5.62
5.6
5.2
4.61
4.08
3.86
4.03
4.53
5.25
6.07
6.91
7.61
7.92
7.49
6.08
3.74
0.79
-2.22
-4.88
-7.02
-8.81
-10.59
-12.63
-15.02
-17.63
-20.32
-22.95
-25.46
-27.77
-29.7
-31
-31.43
-30.96
-29.85
-28.51
-27.28
-26.16
-24.72
-22.3
-18.27
-12.3
-4.59
4.19
13.03
20.88
26.9
30.58
31.95
31.36
29.39
26.58
23.38
20.12
16.99
14.22
11.97
10.36
9.25
8.41
7.51
6.32
4.76
2.86
0.72
-1.55
-3.85
-6.07
-8.05
-9.67
-10.93
-11.92
-12.9
-14.13
-15.82
-18.01
-20.54
-23.12
-25.29
-26.67
-26.87
-25.78
-23.52
-20.45
-17.04
-13.72
-10.77
-8.25
-6.05
-4.01
-2.08
-0.28
1.2
2.24
2.8
2.99
3.06
3.26
3.74
4.43
5.17
5.74
6.03
6.05
5.9
5.69
5.48
5.24
4.87
4.25
3.31
2.02
0.49
-1.1
-2.54
-3.65
-4.39
-4.89
-5.42
-6.26
-7.62
-9.47
-11.61
-13.64
-15.18
-15.86
-15.44
-13.88
-11.32
-8.04
-4.39
-0.72
2.77
5.95
8.76
11.13
12.95
14.09
14.52
14.33
13.73
13.02
12.38
11.9
11.58
11.33
11.08
10.79
10.42
9.96
9.42
8.76
7.98
7.03
5.83
4.31
2.48
0.4
-1.65
-3.42
-4.79
-5.75
-6.5
-7.33
-8.39
-9.67
-11.05
-12.36
-13.5
-14.55
-15.58
-16.58
-17.39
-17.61
-16.88
-15.02
-12.19
-8.81
-5.47
-2.62
-0.47
1.05
2.23
3.34
4.53
5.81
7.06
8.13
8.91
9.38
9.58
9.64
9.65
9.65
9.64
9.56
9.38
9.14
8.97
8.97
9.14
9.28
9.1
8.35
6.98
5.25
3.61
2.43
1.85
1.6
1.2
0.17
-1.66
-4.12
-6.77
-9.11
-10.86
-12.02
-12.84
-13.66
-14.79
-16.34
-18.2
-20.11
-21.65
-22.4
-22.05
-20.48
-17.75
-14.17
-10.16
-6.19
-2.63
0.35
2.71
4.56
6.03
7.26
8.36
9.35
10.29
11.13
11.82
12.25
12.3
11.92
11.21
10.41
9.85
9.81
10.33
11.16
11.92
12.2
11.87
11.02
9.92
8.83
7.9
7.09
6.3
5.43
4.38
3.16
1.77
0.22
-1.46
-3.21
-4.92
-6.44
-7.64
-8.52
-9.1
-9.57
-10.11
-10.88
-12.02
-13.55
-15.39
-17.34
-19.12
-20.36
-20.77
-20.12
-18.29
-15.43
-11.87
-8.02
-4.29
-1.01
1.66
3.69
5.11
6.03
6.59
6.91
7.09
7.19
7.23
7.15
6.93
6.59
6.28
6.17
6.41
7.01
7.78
8.45
8.8
8.75
8.45
8.15
8.02
8.08
8.12
7.85
7.13
5.97
4.6
3.21
1.94
0.64
-0.83
-2.59
-4.58
-6.53
-8.09
-9.05
-9.44
-9.51
-9.68
-10.28
-11.53
-13.38
-15.59
-17.82
-19.65
-20.67
-20.56
-19.18
-16.61
-13.17
-9.32
-5.58
-2.41
-0.01
1.61
2.64
3.4
4.12
4.95
5.84
6.59
6.94
6.76
6.09
5.16
4.3
3.77
3.72
4.14
4.94
5.94
6.95
7.75
8.11
7.89
7.08
5.83
4.4
2.99
1.69
0.41
-1.01
-2.71
-4.6
-6.49
-8.11
-9.31
-10.07
-10.56
-11
-11.61
-12.57
-13.95
-15.71
-17.65
-19.41
-20.53
-20.6
-19.39
-16.9
-13.36
-9.15
-4.74
-0.61
2.83
5.34
6.86
7.55
7.71
7.62
7.52
7.52
7.68
8
8.45
8.93
9.28
9.44
9.39
9.29
9.31
9.55
9.91
10.16
10
9.33
8.23
6.9
5.51
4.08
2.48
0.55
-1.77
-4.37
-7.08
-9.64
-11.9
-13.83
-15.47
-16.99
-18.48
-19.99
-21.46
-22.85
-24.01
-24.82
-25.09
-24.58
-23.13
-20.64
-17.21
-13.07
-8.62
-4.28
-0.44
2.69
5.17
7.11
8.68
9.95
10.89
11.42
11.58
11.46
11.17
10.91
10.73
10.72
10.89
11.27
11.85
12.54
13.12
13.33
13.04
12.25
11.17
10.06
9.04
8.07
7.03
5.87
4.64
3.45
2.31
1.11
-0.46
-2.61
-5.31
-8.2
-10.79
-12.67
-13.82
-14.64
-15.64
-17.21
-19.41
-21.93
-24.29
-25.99
-26.72
-26.26
-24.54
-21.55
-17.42
-12.46
-7.16
-2.09
2.3
5.77
8.4
10.43
12.13
13.65
15.01
16.12
16.88
17.3
17.55
17.84
18.35
19.1
19.88
20.43
20.59
20.4
20.03
19.71
19.45
19.13
18.49
17.33
15.63
13.61
11.58
9.76
8.22
6.82
5.4
3.86
2.19
0.44
-1.29
-2.93
-4.46
-5.9
-7.25
-8.6
-9.99
-11.51
-13.23
-15.18
-17.35
-19.66
-21.91
-23.78
-24.91
-24.95
-23.69
-21.08
-17.31
-12.74
-7.83
-3.04
1.23
4.72
7.31
9.08
10.22
10.98
11.53
12
12.4
12.71
12.9
12.94
12.85
12.71
12.6
12.61
12.78
13.03
13.24
13.23
12.94
12.32
11.44
10.37
9.15
7.77
6.26
4.71
3.26
2.06
1.15
0.42
-0.33
-1.32
-2.63
-4.24
-5.99
-7.8
-9.67
-11.66
-13.87
-16.23
-18.57
-20.51
-21.66
-21.67
-20.37
-17.81
-14.24
-10.11
-5.9
-2.07
1.16
3.74
5.86
7.73
9.49
11.05
12.23
12.9
13.08
13.03
13.09
13.52
14.35
15.39
16.34
16.99
17.27
17.28
17.22
17.13
16.98
16.61
15.88
14.75
13.28
11.66
10.07
8.6
7.19
5.71
4.04
2.13
0.14
-1.78
-3.44
-4.81
-6
-7.17
-8.44
-9.78
-11.04
-12.07
-12.89
-13.68
-14.73
-16.27
-18.35
-20.74
-22.98
-24.48
-24.75
-23.51
-20.85
-17.06
-12.63
-8.06
-3.72
0.09
3.22
5.63
7.31
8.41
9.18
9.87
10.64
11.46
12.19
12.65
12.79
12.78
12.87
13.32
14.15
15.2
16.18
16.82
16.99
16.7
16.05
15.15
14.07
12.83
11.47
10.09
8.77
7.62
6.72
6.05
5.51
4.93
4.12
2.98
1.48
-0.28
-2.18
-4.11
-6.04
-8.03
-10.11
-12.22
-14.19
-15.87
-17.2
-18.33
-19.53
-21.08
-23.04
-25.14
-26.88
-27.64
-26.96
-24.69
-21.03
-16.45
-11.58
-6.96
-3
0.17
2.69
4.75
6.55
8.15
9.48
10.42
10.89
10.96
10.76
10.41
9.95
9.38
8.74
8.16
7.9
8.15
8.9
9.89
10.71
11
10.65
9.78
8.65
7.5
6.37
5.21
3.96
2.71
1.63
0.85
0.32
-0.2
-1.01
-2.32
-4.04
-5.86
-7.4
-8.5
-9.28
-10.09
-11.27
-13.02
-15.3
-17.83
-20.17
-21.87
-22.55
-22
-20.18
-17.22
-13.45
-9.31
-5.21
-1.54
1.5
3.87
5.66
6.98
7.95
8.56
8.82
8.74
8.43
8.12
8.03
8.3
8.87
9.52
10.01
10.14
9.91
9.43
8.93
8.6
8.52
8.63
8.8
8.84
8.53
7.81
6.68
5.26
3.7
2.08
0.36
-1.54
-3.73
-6.19
-8.75
-11.18
-13.25
-14.85
-16.08
-17.16
-18.36
-19.87
-21.71
-23.71
-25.53
-26.75
-26.99
-26.01
-23.75
-20.37
-16.21
-11.68
-7.17
-3.04
0.53
3.46
5.78
7.54
8.87
9.88
10.74
11.62
12.57
13.59
14.62
15.51
16.06
16.14
15.69
14.78
13.64
12.55
11.81
11.55
11.78
12.3
12.87
13.21
13.13
12.52
11.36
9.69
7.63
5.34
3.07
1.01
-0.67
-1.96
-2.96
-3.9
-5.02
-6.49
-8.26
-10.14
-11.85
-13.17
-14.02
-14.5
-14.86
-15.36
-16.26
-17.67
-19.63
-21.98
-24.4
-26.36
-27.26
-26.65
-24.34
-20.53
-15.7
-10.5
-5.52
-1.14
2.48
5.43
7.83
9.9
11.71
13.26
14.44
15.17
15.44
15.42
15.39
15.64
16.32
17.35
18.45
19.31
19.75
19.76
19.47
19.12
18.8
18.47
17.95
17.04
15.58
13.61
11.3
8.93
6.8
5.08
3.74
2.63
1.48
0.09
-1.6
-3.47
-5.33
-6.92
-8.14
-8.97
-9.59
-10.22
-11.12
-12.41
-14.1
-16.05
-18.03
-19.88
-21.42
-22.56
-23.14
-23.02
-21.94
-19.79
-16.61
-12.66
-8.36
-4.17
-0.44
2.68
5.16
7.13
8.75
10.14
11.43
12.6
13.58
14.26
14.59
14.66
14.56
14.47
14.37
14.25
14.06
13.79
13.52
13.25
12.94
12.42
11.54
10.19
8.43
6.42
4.32
2.33
0.61
-0.73
-1.59
-1.94
-1.96
-1.92
-2.17
-3
-4.44
-6.41
-8.68
-11.1
-13.57
-16.11
-18.69
-21.08
-22.93
-23.73
-23.14
-21.05
-17.71
-13.58
-9.28
-5.27
-1.77
1.19
3.79
6.17
8.44
10.64
12.65
14.28
15.35
15.75
15.44
14.66
13.67
12.81
12.33
12.34
12.85
13.76
14.96
16.19
17.24
17.78
17.55
16.43
14.49
12
9.27
6.63
4.27
2.34
0.89
-0.16
-0.91
-1.6
-2.49
-3.78
-5.52
-7.63
-9.81
-11.79
-13.39
-14.59
-15.58
-16.61
-17.85
-19.39
-21.25
-23.28
-25.19
-26.59
-26.97
-25.93
-23.33
-19.38
-14.65
-9.92
-5.82
-2.67
-0.38
1.49
3.35
5.52
7.97
10.43
12.49
13.89
14.54
14.61
14.41
14.18
14.04
13.93
13.73
13.37
12.95
12.65
12.66
13.01
13.53
13.92
13.84
13.15
11.84
10.07
8.04
5.9
3.78
1.78
0.02
-1.43
-2.48
-3.19
-3.73
-4.24
-4.84
-5.46
-5.94
-6.06
-5.78
-5.2
-4.56
-4.15
-4.14
-4.62
-5.64
-7.27
-9.67
-12.93
-16.9
-21.08
-24.69
-26.8
-26.82
-24.61
-20.63
-15.67
-10.55
-5.8
-1.59
2.21
5.81
9.23
12.32
14.78
16.39
17.1
17.11
16.7
16.16
15.63
15.1
14.51
13.81
13.02
12.26
11.65
11.24
10.99
10.77
10.42
9.82
8.96
7.91
6.78
5.66
4.58
3.55
2.54
1.61
0.82
0.23
-0.19
-0.5
-0.9
-1.57
-2.61
-4
-5.61
-7.24
-8.69
-9.87
-10.78
-11.57
-12.42
-13.55
-15.07
-16.97
-19.05
-20.96
-22.33
-22.73
-21.91
-19.78
-16.5
-12.46
-8.17
-4.11
-0.58
2.37
4.89
7.15
9.2
10.94
12.11
12.55
12.24
11.38
10.29
9.31
8.63
8.35
8.45
8.8
9.29
9.77
10.13
10.32
10.36
10.23
9.91
9.28
8.2
6.68
4.81
2.85
1.02
-0.58
-2
-3.4
-4.95
-6.68
-8.49
-10.22
-11.74
-13
-14.05
-14.99
-15.95
-17.08
-18.58
-20.55
-23
-25.69
-28.11
-29.58
-29.5
-27.53
-23.78
-18.82
-13.47
-8.56
-4.59
-1.64
0.6
2.61
4.77
7.2
9.73
12.04
13.86
15.08
15.76
16.08
16.12
15.94
15.53
14.98
14.46
14.12
14.07
14.22
14.38
14.33
13.99
13.42
12.84
12.34
11.79
10.88
9.32
7.05
4.37
1.82
-0.06
-1.08
-1.44
-1.7
-2.43
-3.94
-6.1
-8.55
-10.8
-12.59
-13.94
-15.05
-16.21
-17.66
-19.58
-21.98
-24.88
-28.1
-31.28
-33.89
-35.22
-34.67
-31.93
-27.22
-21.18
-14.74
-8.77
-3.8
0.03
3
5.51
7.88
10.18
12.27
13.92
15
15.58
15.86
16.1
16.4
16.78
17.16
17.53
17.9
18.32
18.79
19.14
19.18
18.73
17.72
16.21
14.33
12.23
10.09
8.12
6.44
5.15
4.21
3.45
2.64
1.61
0.36
-1.01
-2.4
-3.78
-5.24
-6.86
-8.65
-10.58
-12.51
-14.36
-16.11
-17.77
-19.41
-21.08
-22.83
-24.75
-26.84
-29.02
-31.02
-32.42
-32.72
-31.55
-28.75
-24.47
-19.17
-13.37
-7.63
-2.43
1.91
5.35
7.99
10.07
11.81
13.28
14.45
15.2
15.46
15.38
15.26
15.45
16.17
17.39
18.84
20.13
20.98
21.24
21
20.41
19.61
18.6
17.34
15.78
13.95
11.98
10.01
8.21
6.58
5.08
3.62
2.15
0.64
-0.91
-2.53
-4.33
-6.36
-8.71
-11.32
-14.03
-16.71
-19.24
-21.64
-23.99
-26.38
-28.9
-31.56
-34.3
-36.86
-38.83
-39.63
-38.73
-35.78
-30.93
-24.71
-17.97
-11.55
-5.97
-1.36
2.46
5.86
9.05
12.05
14.69
16.74
18.09
18.84
19.28
19.75
20.49
21.57
22.84
24.09
25.14
25.84
26.14
25.96
25.29
24.14
22.55
20.69
18.68
16.59
14.48
12.39
10.38
8.58
7.11
5.99
5.13
4.29
3.24
1.78
-0.14
-2.49
-5.18
-8.05
-10.96
-13.77
-16.41
-18.87
-21.3
-23.92
-26.95
-30.49
-34.28
-37.77
-40.21
-40.82
-39.09
-34.92
-28.75
-21.35
-13.69
-6.59
-0.61
4.12
7.78
10.74
13.34
15.69
17.77
19.42
20.55
21.18
21.5
21.66
21.81
21.94
21.99
21.93
21.83
21.79
21.87
22.05
22.16
21.94
21.23
19.92
18.09
15.9
13.55
11.21
9.05
7.15
5.47
3.93
2.34
0.57
-1.51
-3.89
-6.52
-9.32
-12.18
-14.97
-17.57
-19.9
-21.92
-23.79
-25.69
-27.8
-30.08
-32.22
-33.63
-33.63
-31.74
-27.86
-22.38
-16.05
-9.72
-4.08
0.58
4.3
7.43
10.34
13.24
16.14
18.89
21.3
23.23
24.71
25.81
26.69
27.44
28.08
28.56
28.75
28.57
28
27.16
26.17
25.19
24.26
23.28
22.19
20.93
19.59
18.31
17.19
16.16
15.03
13.59
11.74
9.64
7.56
5.73
4.16
2.65
0.8
-1.65
-4.7
-8.11
-11.42
-14.28
-16.45
-17.98
-19.04
-19.86
-20.74
-21.9
-23.55
-25.83
-28.68
-31.7
-34.19
-35.28
-34.22
-30.74
-25.17
-18.37
-11.32
-4.86
0.57
5.02
8.73
11.96
14.81
17.28
19.31
20.95
22.3
23.43
24.32
24.85
24.9
24.49
23.83
23.27
23.11
23.43
24.04
24.56
24.63
24.15
23.14
21.87
20.54
19.26
17.99
16.64
15.17
13.61
12.04
10.51
9.06
7.66
6.29
4.96
3.68
2.43
1.12
-0.39
-2.23
-4.37
-6.71
-9.07
-11.25
-13.14
-14.76
-16.24
-17.77
-19.61
-21.92
-24.72
-27.75
-30.48
-32.23
-32.38
-30.63
-27.1
-22.29
-16.85
-11.41
-6.38
-1.98
1.75
4.85
7.39
9.43
11.05
12.26
13.11
13.64
13.89
13.97
13.97
13.98
14
14.07
14.2
14.44
14.88
15.5
16.17
16.61
16.47
15.51
13.7
11.29
8.7
6.36
4.5
3.11
1.91
0.58
-1.06
-2.94
-4.79
-6.32
-7.36
-7.98
-8.44
-9.09
-10.23
-12.04
-14.51
-17.52
-20.83
-24.1
-26.91
-28.71
-29
-27.46
-24.03
-19.09
-13.34
-7.6
-2.54
1.47
4.46
6.71
8.49
10.06
11.45
12.61
13.44
13.92
14.1
14.07
14.02
14.06
14.32
14.75
15.24
15.57
15.57
15.16
14.44
13.6
12.82
12.09
11.23
10.02
8.35
6.34
4.32
2.65
1.47
0.66
-0.06
-0.97
-2.17
-3.54
-4.93
-6.29
-7.73
-9.39
-11.31
-13.36
-15.27
-16.83
-18.1
-19.33
-20.9
-23.07
-25.71
-28.35
-30.23
-30.65
-29.16
-25.78
-20.88
-15.16
-9.4
-4.2
0.05
3.27
5.53
7.05
8.11
9.01
10
11.21
12.56
13.82
14.81
15.42
15.75
15.98
16.36
16.98
17.73
18.48
19.02
19.28
19.21
18.75
17.78
16.22
14.11
11.69
9.37
7.48
6.22
5.49
5.03
4.49
3.62
2.33
0.71
-1.02
-2.62
-3.9
-4.78
-5.34
-5.78
-6.33
-7.2
-8.47
-10.12
-12.03
-14.05
-16.01
-17.86
-19.55
-21.12
-22.68
-24.32
-26.04
-27.73
-29.08
-29.56
-28.76
-26.41
-22.57
-17.69
-12.43
-7.41
-3.08
0.45
3.32
5.77
7.98
9.95
11.6
12.74
13.31
13.38
13.17
12.97
12.98
13.31
13.85
14.41
14.76
14.77
14.45
13.92
13.36
12.82
12.28
11.61
10.66
9.43
8.04
6.73
5.69
5.03
4.67
4.43
4.08
3.41
2.39
1.05
-0.48
-2.08
-3.58
-4.89
-6
-6.95
-7.9
-9.01
-10.41
-12.19
-14.4
-16.97
-19.75
-22.48
-24.73
-25.97
-25.67
-23.48
-19.4
-13.89
-7.75
-1.97
2.65
5.74
7.36
8.09
8.53
9.15
10.08
11.13
12.04
12.61
12.87
12.94
12.99
13
12.88
12.52
11.86
11.04
10.2
9.49
8.87
8.21
7.3
6.02
4.41
2.66
1.03
-0.3
-1.22
-1.82
-2.23
-2.59
-2.96
-3.28
-3.48
-3.52
-3.53
-3.66
-4.1
-4.91
-6.04
-7.35
-8.71
-10.01
-11.2
-12.32
-13.37
-14.37
-15.43
-16.67
-18.22
-20.2
-22.49
-24.81
-26.67
-27.58
-27.12
-25.12
-21.72
-17.29
-12.4
-7.66
-3.5
-0.14
2.43
4.36
5.87
7.19
8.5
9.89
11.35
12.83
14.14
15.13
15.64
15.67
15.39
15.06
14.93
15.13
15.61
16.15
16.54
16.61
16.27
15.53
14.44
13.11
11.66
10.2
8.88
7.8
7.03
6.48
5.98
5.33
4.39
3.12
1.6
-0.03
-1.68
-3.32
-5.06
-6.96
-8.96
-10.83
-12.27
-13.04
-13.2
-13.09
-13.31
-14.35
-16.43
-19.31
-22.36
-24.78
-25.87
-25.24
-22.83
-18.98
-14.31
-9.6
-5.51
-2.51
-0.6
0.47
1.17
1.97
3.11
4.56
6.15
7.65
8.93
9.99
10.84
11.49
11.93
12.13
12.1
11.87
11.48
10.97
10.46
10.08
9.86
9.76
9.55
9.01
7.96
6.46
4.74
3.2
2.12
1.53
1.28
1.02
0.51
-0.45
-1.89
-3.74
-5.84
-8.03
-10.19
-12.22
-14.1
-15.85
-17.5
-19.06
-20.5
-21.72
-22.51
-22.64
-21.8
-19.82
-16.77
-12.99
-9.01
-5.31
-2.2
0.39
2.61
4.62
6.4
7.74
8.43
8.45
8.03
7.56
7.42
7.76
8.51
9.41
10.2
10.74
11.01
11.14
11.18
11.21
11.14
10.84
10.18
9.07
7.49
5.57
3.52
1.58
-0.02
-1.19
-1.95
-2.43
-2.88
-3.48
-4.34
-5.45
-6.72
-8.01
-9.27
-10.57
-11.97
-13.6
-15.5
-17.63
-19.86
-22.02
-23.89
-25.29
-26
-25.79
-24.5
-22.09
-18.68
-14.64
-10.42
-6.47
-3.06
-0.26
2.09
4.19
6.24
8.33
10.38
12.26
13.85
15.06
15.89
16.43
16.73
16.86
16.86
16.7
16.38
15.94
15.36
14.63
13.74
12.72
11.68
10.79
10.21
10.01
10.08
10.17
9.97
9.25
8.06
6.59
5.13
3.82
2.64
1.39
-0.2
-2.26
-4.69
-7.25
-9.68
-11.82
-13.68
-15.41
-17.16
-18.99
-20.87
-22.72
-24.42
-25.83
-26.73
-26.83
-25.84
-23.55
-20.03
-15.57
-10.67
-5.85
-1.5
2.26
5.5
8.43
11.17
13.65
15.62
16.8
17.04
16.51
15.61
14.8
14.43
14.55
14.9
15.16
15.1
14.76
14.31
13.92
13.51
12.87
11.73
9.96
7.73
5.36
3.22
1.53
0.27
-0.77
-1.86
-3.18
-4.78
-6.54
-8.35
-10.09
-11.72
-13.35
-15.01
-16.76
-18.55
-20.3
-21.98
-23.57
-25.03
-26.18
-26.64
-25.87
-23.46
-19.34
-13.98
-8.21
-2.97
1.04
3.65
5.17
6.18
7.26
8.69
10.43
12.21
13.76
14.92
15.75
16.33
16.76
17.07
17.25
17.39
17.56
17.85
18.23
18.54
18.52
17.96
16.79
15.15
13.32
11.5
9.81
8.17
6.56
4.97
3.48
2.21
1.16
0.25
-0.75
-2.05
-3.79
-5.96
-8.47
-11.12
-13.77
-16.34
-18.78
-21.14
-23.48
-25.9
-28.38
-30.78
-32.75
-33.85
-33.65
-31.85
-28.46
-23.73
-18.17
-12.39
-6.96
-2.21
1.75
5.08
7.98
10.59
12.9
14.74
15.95
16.52
16.68
16.75
17.07
17.78
18.78
19.84
20.69
21.16
21.24
21.01
20.59
20.11
19.55
18.91
18.15
17.22
16.1
14.8
13.31
11.61
9.71
7.66
5.63
3.81
2.41
1.51
1.1
0.93
0.7
0.06
-1.2
-3.07
-5.36
-7.75
-9.97
-11.88
-13.55
-15.23
-17.18
-19.6
-22.52
-25.84
-29.27
-32.37
-34.57
-35.32
-34.23
-31.23
-26.69
-21.26
-15.69
-10.55
-6.09
-2.27
1.1
4.15
6.97
9.49
11.71
13.6
15.23
16.64
17.8
18.68
19.15
19.19
18.81
18.23
17.7
17.49
17.67
18.16
18.74
19.08
19.02
18.46
17.51
16.32
15.01
13.63
12.15
10.59
8.93
7.2
5.37
3.39
1.24
-1.07
-3.48
-5.88
-8.12
-10.15
-11.97
-13.71
-15.46
-17.3
-19.31
-21.52
-23.98
-26.69
-29.5
-32.06
-33.84
-34.23
-32.81
-29.55
-24.76
-19.05
-13.07
-7.36
-2.16
2.42
6.38
9.71
12.34
14.24
15.39
15.93
16.05
16.03
16.13
16.53
17.28
18.31
19.46
20.55
21.49
22.25
22.85
23.31
23.48
23.23
22.4
20.97
19.11
17.1
15.26
13.8
12.75
11.97
11.29
10.56
9.69
8.65
7.41
5.94
4.23
2.32
0.28
-1.78
-3.81
-5.88
-8.03
-10.3
-12.65
-14.93
-17
-18.79
-20.32
-21.75
-23.31
-25.21
-27.58
-30.4
-33.47
-36.33
-38.38
-38.97
-37.63
-34.34
-29.41
-23.5
-17.24
-11.14
-5.47
-0.3
4.38
8.58
12.22
15.26
17.63
19.31
20.33
20.82
21.03
21.25
21.74
22.57
23.64
24.63
25.3
25.57
25.63
25.8
26.34
27.23
28.18
28.74
28.46
27.2
25.11
22.67
20.37
18.58
17.41
16.69
16.13
15.43
14.42
13.09
11.49
9.64
7.46
4.79
1.55
-2.21
-6.28
-10.3
-13.98
-17.13
-19.77
-22.02
-24.07
-26.07
-28.15
-30.46
-33.09
-35.99
-38.84
-41.02
-41.75
-40.41
-36.74
-31.07
-24.17
-16.96
-10.32
-4.7
-0.21
3.39
6.37
8.91
10.99
12.44
13.13
13.12
12.66
12.16
11.94
12.09
12.43
12.69
12.73
12.69
12.81
13.33
14.18
14.97
15.2
14.49
12.78
10.35
7.58
4.78
2.04
-0.65
-3.35
-5.99
-8.41
-10.47
-12.14
-13.5
-14.7
-15.85
-16.99
-18.14
-19.32
-20.58
-21.96
-23.32
-24.35
-24.61
-23.69
-21.45
-18.02
-13.83
-9.39
-5.16
-1.39
1.84
4.51
6.65
8.24
9.27
9.81
9.95
9.74
9.26
8.59
7.87
7.28
7
7.1
7.5
8.03
8.47
8.68
8.65
8.35
7.75
6.72
5.17
3.06
0.5
-2.25
-4.85
-7
-8.58
-9.66
-10.52
-11.62
-13.32
-15.84
-19.09
-22.64
-25.85
-28.04
-28.66
-27.43
-24.37
-19.8
-14.23
-8.29
-2.6
2.4
6.46
9.58
11.96
13.79
15.21
16.22
16.75
16.79
16.41
15.83
15.28
15.06
15.32
16.13
17.36
18.76
20.04
20.89
21.1
20.62
19.48
17.77
15.62
13.13
10.45
7.86
5.63
3.95
2.81
1.98
1.04
-0.3
-2.15
-4.43
-6.91
-9.43
-12.02
-14.78
-17.77
-20.92
-23.96
-26.62
-28.8
-30.69
-32.74
-35.5
-39.21
-43.63
-48.03
-51.3
-52.39
-50.67
-46.15
-39.46
-31.61
-23.57
-16.07
-9.43
-3.58
1.66
6.48
10.96
15.03
18.59
21.59
24.04
25.97
27.43
28.45
29.06
29.34
29.41
29.4
29.42
29.5
29.62
29.75
29.84
29.85
29.7
29.27
28.41
27.07
25.33
23.38
21.49
19.82
18.37
17.04
15.64
14.05
12.25
10.3
8.3
6.32
4.37
2.44
0.52
-1.46
-3.63
-6.1
-8.99
-12.28
-15.83
-19.34
-22.54
-25.2
-27.31
-29.07
-30.82
-33.01
-35.99
-39.81
-44.13
-48.14
-50.78
-50.99
-48.14
-42.21
-33.85
-24.2
-14.5
-5.75
1.49
7.18
11.63
15.29
18.5
21.46
24.14
26.45
28.28
29.56
30.32
30.71
30.9
31.11
31.5
32.18
33.11
34.11
34.96
35.45
35.51
35.12
34.35
33.17
31.57
29.51
27.08
24.48
21.95
19.66
17.61
15.69
13.73
11.65
9.43
7.19
5.03
3.07
1.39
-0.01
-1.16
-2.27
-3.55
-5.25
-7.44
-10.05
-12.79
-15.38
-17.71
-19.8
-21.86
-24.17
-26.89
-30.04
-33.43
-36.63
-39.02
-39.94
-38.8
-35.4
-29.96
-23.11
-15.69
-8.46
-1.94
3.65
8.31
12.07
15
17.17
18.71
19.85
20.83
21.81
22.83
23.77
24.47
24.82
24.79
24.48
24.02
23.56
23.23
23.13
23.26
23.54
23.82
23.88
23.55
22.74
21.51
19.94
18.17
16.2
14.03
11.63
9.06
6.47
4.07
1.95
0.09
-1.66
-3.44
-5.34
-7.33
-9.36
-11.3
-13.1
-14.77
-16.34
-17.91
-19.64
-21.72
-24.22
-27.02
-29.66
-31.44
-31.64
-29.77
-25.82
-20.22
-13.69
-7.02
-0.85
4.39
8.49
11.42
13.3
14.34
14.89
15.26
15.68
16.23
16.78
17.17
17.28
17.17
17.02
17.03
17.23
17.52
17.7
17.55
17.05
16.22
15.23
14.15
12.95
11.55
9.92
8.15
6.41
4.9
3.68
2.74
1.97
1.21
0.33
-0.76
-2.09
-3.63
-5.26
-6.86
-8.34
-9.69
-11
-12.34
-13.74
-15.12
-16.35
-17.34
-18.16
-18.97
-20.02
-21.46
-23.21
-24.96
-26.21
-26.49
-25.51
-23.19
-19.75
-15.6
-11.2
-6.95
-3.14
0.17
2.97
5.33
7.28
8.85
10.06
10.93
11.49
11.75
11.77
11.59
11.32
11.06
10.9
10.89
11.03
11.25
11.48
11.69
11.84
11.89
11.79
11.46
10.83
9.87
8.62
7.18
5.65
4.16
2.78
1.62
0.69
0.01
-0.44
-0.74
-0.93
-1.1
-1.35
-1.84
-2.72
-4.12
-6.05
-8.33
-10.71
-12.82
-14.46
-15.6
-16.47
-17.37
-18.6
-20.27
-22.25
-24.27
-25.92
-26.82
-26.64
-25.19
-22.45
-18.6
-14.05
-9.35
-5.11
-1.74
0.6
2.06
2.97
3.63
4.22
4.74
5.13
5.37
5.55
5.8
6.23
6.9
7.78
8.77
9.79
10.69
11.35
11.69
11.68
11.36
10.82
10.16
9.44
8.69
7.87
6.95
5.94
4.9
3.91
3.03
2.24
1.5
0.7
-0.28
-1.47
-2.77
-4.01
-5
-5.67
-6.2
-6.82
-7.77
-9.14
-10.79
-12.48
-14
-15.29
-16.38
-17.38
-18.35
-19.3
-20.19
-21.07
-22.08
-23.34
-24.78
-26.04
-26.58
-25.79
-23.38
-19.52
-14.77
-9.93
-5.64
-2.22
0.4
2.46
4.27
5.95
7.49
8.77
