2023-01-28 09:18:50.046424,-0.03341635316610328
2023-01-28 09:18:50.051424,-0.03265902211522951
2023-01-28 09:18:50.056424,-0.03281533718109128
2023-01-28 09:18:50.061424,-0.03245534025175587
2023-01-28 09:18:50.066424,-0.03125270456075656
2023-01-28 09:18:50.071424,-0.03044659630365564
2023-01-28 09:18:50.076424,-0.030603608116507496
2023-01-28 09:18:50.081424,-0.030838089539842874
2023-01-28 09:18:50.086424,-0.03065168857574459
2023-01-28 09:18:50.091424,-0.030551149277320225
2023-01-28 09:18:50.096424,-0.03029108047485353
2023-01-28 09:18:50.101424,-0.02851485946895244
2023-01-28 09:18:50.106424,-0.024930041283369016
2023-01-28 09:18:50.111424,-0.0211040909463988
2023-01-28 09:18:50.116424,-0.01841505430638794
2023-01-28 09:18:50.121424,-0.016855769350733376
2023-01-28 09:18:50.126424,-0.016347568482160492
2023-01-28 09:18:50.131424,-0.017328465064419762
2023-01-28 09:18:50.136424,-0.01930455490946754
2023-01-28 09:18:50.141424,-0.020617430446426454
2023-01-28 09:18:50.146424,-0.020506581291556317
2023-01-28 09:18:50.151424,-0.019893076610675124
2023-01-28 09:18:50.156424,-0.019544959068298305
2023-01-28 09:18:50.161424,-0.019141250371683845
2023-01-28 09:18:50.166424,-0.01875162124633781
2023-01-28 09:18:50.171424,-0.01945345049913343
2023-01-28 09:18:50.176424,-0.0216605272144079
2023-01-28 09:18:50.181424,-0.024381286626187555
2023-01-28 09:18:50.186424,-0.026781162247061747
2023-01-28 09:18:50.191424,-0.028884310646383454
2023-01-28 09:18:50.196424,-0.030146837234497043
2023-01-28 09:18:50.201424,-0.029127917876011242
2023-01-28 09:18:50.206424,-0.0254589319229125
2023-01-28 09:18:50.211424,-0.020640049356694196
2023-01-28 09:18:50.216424,-0.016131203621625904
2023-01-28 09:18:50.221424,-0.012044632482587123
2023-01-28 09:18:50.226424,-0.008197824470698802
2023-01-28 09:18:50.231424,-0.00475140572519857
2023-01-28 09:18:50.236424,-0.0011539459228515222
2023-01-28 09:18:50.241424,0.00374021363929918
2023-01-28 09:18:50.246424,0.009496013633906808
2023-01-28 09:18:50.251424,0.013426097840033558
2023-01-28 09:18:50.256424,0.01290977001190178
2023-01-28 09:18:50.261424,0.007235333971115333
2023-01-28 09:18:50.266424,-0.0030771892052143574
2023-01-28 09:18:50.271424,-0.016893136165793673
2023-01-28 09:18:50.276424,-0.031637351959943695
2023-01-28 09:18:50.281424,-0.0436703927183818
2023-01-28 09:18:50.286424,-0.05074958130717268
2023-01-28 09:18:50.291424,-0.05316716482776764
2023-01-28 09:18:50.296424,-0.05202373117208477
2023-01-28 09:18:50.301424,-0.047785070125804414
2023-01-28 09:18:50.306424,-0.04091700166463853
2023-01-28 09:18:50.311424,-0.03208398681242571
2023-01-28 09:18:50.316424,-0.020843148231506306
2023-01-28 09:18:50.321424,-0.005860339791805444
2023-01-28 09:18:50.326424,0.012260675430297808
2023-01-28 09:18:50.331424,0.029225143080488417
2023-01-28 09:18:50.336424,0.03870527073740949
2023-01-28 09:18:50.341424,0.03495342769096334
2023-01-28 09:18:50.346424,0.01440028380602592
2023-01-28 09:18:50.351424,-0.022342608915757713
2023-01-28 09:18:50.356424,-0.06827513873577107
2023-01-28 09:18:50.361424,-0.11127334745144601
2023-01-28 09:18:50.366424,-0.13965150713920588
2023-01-28 09:18:50.371424,-0.14729545756036933
2023-01-28 09:18:50.376424,-0.13472318649291987
2023-01-28 09:18:50.381424,-0.10768021535119578
2023-01-28 09:18:50.386424,-0.0752709358930587
2023-01-28 09:18:50.391424,-0.04672994315098604
2023-01-28 09:18:50.396424,-0.027334094047546283
2023-01-28 09:18:50.401424,-0.017130722917027608
2023-01-28 09:18:50.406424,-0.013582905754446893
2023-01-28 09:18:50.411424,-0.014267120752893912
2023-01-28 09:18:50.416424,-0.016996663063764485
2023-01-28 09:18:50.421424,-0.019518297777517683
2023-01-28 09:18:50.426424,-0.020530622452497396
2023-01-28 09:18:50.431424,-0.020062099769355458
2023-01-28 09:18:50.436424,-0.018150608986616096
2023-01-28 09:18:50.441424,-0.014297135139978745
2023-01-28 09:18:50.446424,-0.008822878822684233
2023-01-28 09:18:50.451424,-0.00343710409303396
2023-01-28 09:18:50.456424,0.0003606081008910718
2023-01-28 09:18:50.461424,0.0024097224434515164
2023-01-28 09:18:50.466424,0.002956986427307072
2023-01-28 09:18:50.471424,0.0019463944332358191
2023-01-28 09:18:50.476424,-7.212162017819897e-05
2023-01-28 09:18:50.481424,-0.0016036531790980366
2023-01-28 09:18:50.486424,-0.0016107162227853753
2023-01-28 09:18:50.491424,-0.00031336324625347815
2023-01-28 09:18:50.496424,0.0018751621246337323
2023-01-28 09:18:50.501424,0.005036131258217835
2023-01-28 09:18:50.506424,0.008846919052302827
2023-01-28 09:18:50.511424,0.012253626588797653
2023-01-28 09:18:50.516424,0.014784932136535601
2023-01-28 09:18:50.521424,0.017264670052025973
2023-01-28 09:18:50.526424,0.02074698731303209
2023-01-28 09:18:50.531424,0.02571048603592767
2023-01-28 09:18:50.536424,0.0325749330222606
2023-01-28 09:18:50.541424,0.041734441599213475
2023-01-28 09:18:50.546424,0.052480500191450064
2023-01-28 09:18:50.551424,0.06286803435328757
2023-01-28 09:18:50.556424,0.07111191749572746
2023-01-28 09:18:50.561424,0.07638418343130594
2023-01-28 09:18:50.566424,0.07834812253713601
2023-01-28 09:18:50.571424,0.07719489823485286
2023-01-28 09:18:50.576424,0.0742371901869773
2023-01-28 09:18:50.581424,0.0710829509209545
2023-01-28 09:18:50.586424,0.06793856620788563
2023-01-28 09:18:50.591424,0.06387335708178907
2023-01-28 09:18:50.596424,0.05868295952677718
2023-01-28 09:18:50.601424,0.05298185342387857
2023-01-28 09:18:50.606424,0.046446323394775314
2023-01-28 09:18:50.611424,0.03773942808417273
2023-01-28 09:18:50.616424,0.026540756225585917
2023-01-28 09:18:50.621424,0.014086738760966262
2023-01-28 09:18:50.626424,0.0014183919411151962
2023-01-28 09:18:50.631424,-0.011267473521146269
2023-01-28 09:18:50.636424,-0.02322316169738759
2023-01-28 09:18:50.641424,-0.032897900777375734
2023-01-28 09:18:50.646424,-0.03966689109802234
2023-01-28 09:18:50.651424,-0.044289262616461045
2023-01-28 09:18:50.656424,-0.04719158262014382
2023-01-28 09:18:50.661424,-0.04786479238579908
2023-01-28 09:18:50.666424,-0.046422284096479395
2023-01-28 09:18:50.671424,-0.044126060728667246
2023-01-28 09:18:50.676424,-0.041782461106777066
2023-01-28 09:18:50.681424,-0.0391017602083404
2023-01-28 09:18:50.686424,-0.03610889241099346
2023-01-28 09:18:50.691424,-0.03360348577266907
2023-01-28 09:18:50.696424,-0.031709473580121876
2023-01-28 09:18:50.701424,-0.0295947431619023
2023-01-28 09:18:50.706424,-0.027261972427368084
2023-01-28 09:18:50.711424,-0.026107563210619578
2023-01-28 09:18:50.716424,-0.027093689888715668
2023-01-28 09:18:50.721424,-0.029770966922317878
2023-01-28 09:18:50.726424,-0.03351251408457744
2023-01-28 09:18:50.731424,-0.038060759736507216
2023-01-28 09:18:50.736424,-0.042287312448024666
2023-01-28 09:18:50.741424,-0.044121528485165276
2023-01-28 09:18:50.746424,-0.04257579892873759
2023-01-28 09:18:50.751424,-0.03857477239520116
2023-01-28 09:18:50.756424,-0.03332018852233876
2023-01-28 09:18:50.761424,-0.027329794711823882
2023-01-28 09:18:50.766424,-0.021516283974051427
2023-01-28 09:18:50.771424,-0.017423075647614205
2023-01-28 09:18:50.776424,-0.0155301894992589
2023-01-28 09:18:50.781424,-0.014731400353240796
2023-01-28 09:18:50.786424,-0.014159878715872693
2023-01-28 09:18:50.791424,-0.01416922204570497
2023-01-28 09:18:50.796424,-0.01504937838762996
2023-01-28 09:18:50.801424,-0.01640369005962078
2023-01-28 09:18:50.806424,-0.018439095467328998
2023-01-28 09:18:50.811424,-0.02222693181567762
2023-01-28 09:18:50.816424,-0.02783894538879391
2023-01-28 09:18:50.821424,-0.03360940564849007
2023-01-28 09:18:50.826424,-0.037935972213745124
2023-01-28 09:18:50.831424,-0.04047168753105189
2023-01-28 09:18:50.836424,-0.0410852842032909
2023-01-28 09:18:50.841424,-0.03934891749766486
2023-01-28 09:18:50.846424,-0.03584444522857663
2023-01-28 09:18:50.851424,-0.03240529843510893
2023-01-28 09:18:50.856424,-0.03012279793620094
2023-01-28 09:18:50.861424,-0.028321579183511966
2023-01-28 09:18:50.866424,-0.02605994604527951
2023-01-28 09:18:50.871424,-0.023186606851947678
2023-01-28 09:18:50.876424,-0.01935263536870471
2023-01-28 09:18:50.881424,-0.01368012877394509
2023-01-28 09:18:50.886424,-0.006370743270963406
2023-01-28 09:18:50.891424,0.0006845397986752839
2023-01-28 09:18:50.896424,0.0056735677644610145
2023-01-28 09:18:50.901424,0.008000807478184055
2023-01-28 09:18:50.906424,0.007212162017822156
2023-01-28 09:18:50.911424,0.0024803120537775386
2023-01-28 09:18:50.916424,-0.005938013549893995
2023-01-28 09:18:50.921424,-0.01613290529343155
2023-01-28 09:18:50.926424,-0.02627631090581406
2023-01-28 09:18:50.931424,-0.035701788258947355
2023-01-28 09:18:50.936424,-0.0437297448515892
2023-01-28 09:18:50.941424,-0.04903717028853094
2023-01-28 09:18:50.946424,-0.05111018940806376
2023-01-28 09:18:50.951424,-0.05095793232294162
2023-01-28 09:18:50.956424,-0.04947543144226069
2023-01-28 09:18:50.961424,-0.04621556348983266
2023-01-28 09:18:50.966424,-0.040315985679626375
2023-01-28 09:18:50.971424,-0.031228666260303507
2023-01-28 09:18:50.976424,-0.018030405044555574
2023-01-28 09:18:50.981424,2.6457077050492235e-05
2023-01-28 09:18:50.986424,0.020771026611328118
2023-01-28 09:18:50.991424,0.037841027510083614
2023-01-28 09:18:50.996424,0.043248932808637626
2023-01-28 09:18:51.001424,0.03110933072235104
2023-01-28 09:18:51.006424,-0.0001923243253257496
2023-01-28 09:18:51.011424,-0.04662195868211388
2023-01-28 09:18:51.016424,-0.09784500300884238
2023-01-28 09:18:51.021424,-0.14000383945281072
2023-01-28 09:18:51.026424,-0.1619611233472824
2023-01-28 09:18:51.031424,-0.1600768980075359
2023-01-28 09:18:51.036424,-0.13808886706829068
2023-01-28 09:18:51.041424,-0.10427221911547464
2023-01-28 09:18:51.046424,-0.06868382543325419
2023-01-28 09:18:51.051424,-0.0400411240355086
2023-01-28 09:18:51.056424,-0.0223817434161901
2023-01-28 09:18:51.061424,-0.014476068477031007
2023-01-28 09:18:51.066424,-0.012789567932486515
2023-01-28 09:18:51.071424,-0.014264490653385758
2023-01-28 09:18:51.076424,-0.016443729400634693
2023-01-28 09:18:51.081424,-0.0171587743326478
2023-01-28 09:18:51.086424,-0.015626352280378324
2023-01-28 09:18:51.091424,-0.012919682801873911
2023-01-28 09:18:51.096424,-0.010433594696223673
2023-01-28 09:18:51.101424,-0.008696776218705328
2023-01-28 09:18:51.106424,-0.008077621459960938
2023-01-28 09:18:51.111424,-0.009205749113665623
2023-01-28 09:18:51.116424,-0.011779865249991407
2023-01-28 09:18:51.121424,-0.014104980086272069
2023-01-28 09:18:51.126424,-0.014712810516357379
2023-01-28 09:18:51.131424,-0.01354845938024391
2023-01-28 09:18:51.136424,-0.011010567657649491
2023-01-28 09:18:51.141424,-0.007013425150455343
2023-01-28 09:18:51.146424,-0.0017309188842773058
2023-01-28 09:18:51.151424,0.0038665788178211167
2023-01-28 09:18:51.156424,0.009039243683218899
2023-01-28 09:18:51.161424,0.013929879462853118
2023-01-28 09:18:51.166424,0.018607378005981334
2023-01-28 09:18:51.171424,0.02250766726394824
2023-01-28 09:18:51.176424,0.025482973083853708
2023-01-28 09:18:51.181424,0.028425236040541244
2023-01-28 09:18:51.186424,0.032190285623073495
2023-01-28 09:18:51.191424,0.036741409087495715
2023-01-28 09:18:51.196424,0.04180650040507308
2023-01-28 09:18:51.201424,0.04741318008322131
2023-01-28 09:18:51.206424,0.05327383801341052
2023-01-28 09:18:51.211424,0.0585520061788363
2023-01-28 09:18:51.216424,0.06272177398204792
2023-01-28 09:18:51.221424,0.06591498205172215
2023-01-28 09:18:51.226424,0.06820301711559287
2023-01-28 09:18:51.231424,0.0693684277543234
2023-01-28 09:18:51.236424,0.06945312023162838
2023-01-28 09:18:51.241424,0.06860134614957922
2023-01-28 09:18:51.246424,0.06642401218414301
2023-01-28 09:18:51.251424,0.06255152199770596
2023-01-28 09:18:51.256424,0.05755305290222161
2023-01-28 09:18:51.261424,0.05198833063681196
2023-01-28 09:18:51.266424,0.0448596477508544
2023-01-28 09:18:51.271424,0.034683454161062256
2023-01-28 09:18:51.276424,0.022021135315298968
2023-01-28 09:18:51.281424,0.009197930881939749
2023-01-28 09:18:51.286424,-0.002500216243788459
2023-01-28 09:18:51.291424,-0.013506063543229644
2023-01-28 09:18:51.296424,-0.0238241758197546
2023-01-28 09:18:51.301424,-0.03234603902920595
2023-01-28 09:18:51.306424,-0.0387533530592918
2023-01-28 09:18:51.311424,-0.04409520379247504
2023-01-28 09:18:51.316424,-0.04882633686065668
2023-01-28 09:18:51.321424,-0.05206913521939672
2023-01-28 09:18:51.326424,-0.05341808125376696
2023-01-28 09:18:51.331424,-0.05366892251721542
2023-01-28 09:18:51.336424,-0.05310555547475803
2023-01-28 09:18:51.341424,-0.05086690843593578
2023-01-28 09:18:51.346424,-0.04678289219737051
2023-01-28 09:18:51.351424,-0.042168876313444036
2023-01-28 09:18:51.356424,-0.03805617615580547
2023-01-28 09:18:51.361424,-0.034233294512669946
2023-01-28 09:18:51.366424,-0.0306757297366857
2023-01-28 09:18:51.371424,-0.028188471717716972
2023-01-28 09:18:51.376424,-0.026853283867239848
2023-01-28 09:18:51.381424,-0.02552612611661195
2023-01-28 09:18:51.386424,-0.023752054199576333
2023-01-28 09:18:51.391424,-0.022664998555387086
2023-01-28 09:18:51.396424,-0.02322316169738757
2023-01-28 09:18:51.401424,-0.025048986612958752
2023-01-28 09:18:51.406424,-0.027646621689200426
2023-01-28 09:18:51.411424,-0.031058811038464477
2023-01-28 09:18:51.416424,-0.03449817746877666
2023-01-28 09:18:51.421424,-0.036015645785974215
2023-01-28 09:18:51.426424,-0.034570299088954856
2023-01-28 09:18:51.431424,-0.03113829846929677
2023-01-28 09:18:51.436424,-0.027117729187011705
2023-01-28 09:18:51.441424,-0.02314217920553211
2023-01-28 09:18:51.446424,-0.020073851570487012
2023-01-28 09:18:51.451424,-0.019330857257633983
2023-01-28 09:18:51.456424,-0.021131634712219228
2023-01-28 09:18:51.461424,-0.023803743599277092
2023-01-28 09:18:51.466424,-0.025723379105329507
2023-01-28 09:18:51.471424,-0.02666171858298863
2023-01-28 09:18:51.476424,-0.026684999465942317
2023-01-28 09:18:51.481424,-0.025469585178052933
2023-01-28 09:18:51.486424,-0.023607810959219922
2023-01-28 09:18:51.491424,-0.022950452479791925
2023-01-28 09:18:51.496424,-0.024545392021536782
2023-01-28 09:18:51.501424,-0.02747344998259781
2023-01-28 09:18:51.506424,-0.030435323715209895
2023-01-28 09:18:51.511424,-0.03302704059019757
2023-01-28 09:18:51.516424,-0.034762620925903306
2023-01-28 09:18:51.521424,-0.03456334613767606
2023-01-28 09:18:51.526424,-0.03226240724325177
2023-01-28 09:18:51.531424,-0.029157618343918664
2023-01-28 09:18:51.536424,-0.026083987206220613
2023-01-28 09:18:51.541424,-0.02227675863017282
2023-01-28 09:18:51.546424,-0.016972621902823396
2023-01-28 09:18:51.551424,-0.010722099672612789
2023-01-28 09:18:51.556424,-0.004351337905973115
2023-01-28 09:18:51.561424,0.001781080747644149
2023-01-28 09:18:51.566424,0.006563067436218229
2023-01-28 09:18:51.571424,0.007778049623133455
2023-01-28 09:18:51.576424,0.0041830539703368785
2023-01-28 09:18:51.581424,-0.0032011666824638637
2023-01-28 09:18:51.586424,-0.012621283531188934
2023-01-28 09:18:51.591424,-0.023007448965762244
2023-01-28 09:18:51.596424,-0.03315190598368638
2023-01-28 09:18:51.601424,-0.0412207076368549
2023-01-28 09:18:51.606424,-0.04632612317800518
2023-01-28 09:18:51.611424,-0.04933576672700411
2023-01-28 09:18:51.616424,-0.05111018940806381
2023-01-28 09:18:51.621424,-0.05107683198533359
2023-01-28 09:18:51.626424,-0.04820128530263901
2023-01-28 09:18:51.631424,-0.04184453090062526
2023-01-28 09:18:51.636424,-0.030892094597220355
2023-01-28 09:18:51.641424,-0.013975327236035657
2023-01-28 09:18:51.646424,0.007717013359069811
2023-01-28 09:18:51.651424,0.028631732252952437
2023-01-28 09:18:51.656424,0.04084488004446019
2023-01-28 09:18:51.661424,0.03742160626659739
2023-01-28 09:18:51.666424,0.014496445655822697
2023-01-28 09:18:51.671424,-0.02681478653593821
2023-01-28 09:18:51.676424,-0.07844428718090048
2023-01-28 09:18:51.681424,-0.12681140195538107
2023-01-28 09:18:51.686424,-0.15881180763244615
2023-01-28 09:18:51.691424,-0.16756481019087163
2023-01-28 09:18:51.696424,-0.15366713702678678
2023-01-28 09:18:51.701424,-0.1234492140293766
2023-01-28 09:18:51.706424,-0.08681039512157436
2023-01-28 09:18:51.711424,-0.05392411814088783
2023-01-28 09:18:51.716424,-0.030892094597220386
2023-01-28 09:18:51.721424,-0.018041178255469196
2023-01-28 09:18:51.726424,-0.01257320307195184
2023-01-28 09:18:51.731424,-0.011767913257638199
2023-01-28 09:18:51.736424,-0.013438662514090524
2023-01-28 09:18:51.741424,-0.0155318462007292
2023-01-28 09:18:51.746424,-0.017044743523001612
2023-01-28 09:18:51.751424,-0.018380519535867883
2023-01-28 09:18:51.756424,-0.019689202308654695
2023-01-28 09:18:51.761424,-0.019848109435049506
2023-01-28 09:18:51.766424,-0.017934244126081356
2023-01-28 09:18:51.771424,-0.014498594535461326
2023-01-28 09:18:51.776424,-0.010481676086783409
2023-01-28 09:18:51.781424,-0.006139018793389861
2023-01-28 09:18:51.786424,-0.0019953649025410223
2023-01-28 09:18:51.791424,0.0004957683696159355
2023-01-28 09:18:51.796424,0.0004808108205907141
2023-01-28 09:18:51.801424,-0.001063418509604586
2023-01-28 09:18:51.806424,-0.002524256706237678
2023-01-28 09:18:51.811424,-0.0030177417436528663
2023-01-28 09:18:51.816424,-0.0018270810833199936
2023-01-28 09:18:51.821424,0.0020930310864256574
2023-01-28 09:18:51.826424,0.008846919052302778
2023-01-28 09:18:51.831424,0.01684790060635115
2023-01-28 09:18:51.836424,0.024377107620239192
2023-01-28 09:18:51.841424,0.031055051421800366
2023-01-28 09:18:51.846424,0.03711859509348861
2023-01-28 09:18:51.851424,0.042465853531131616
2023-01-28 09:18:51.856424,0.047311782836913986
2023-01-28 09:18:51.861424,0.05263146131968691
2023-01-28 09:18:51.866424,0.058947406709194086
2023-01-28 09:18:51.871424,0.06555556274917279
2023-01-28 09:18:51.876424,0.07164081186056126
2023-01-28 09:18:51.881424,0.07715006006330857
2023-01-28 09:18:51.886424,0.08200228214263908
2023-01-28 09:18:51.891424,0.08562296668010212
2023-01-28 09:18:51.896424,0.0877960547804832
2023-01-28 09:18:51.901424,0.08861657829761026
2023-01-28 09:18:51.906424,0.08705079555511469
2023-01-28 09:18:51.911424,0.0811746618640632
2023-01-28 09:18:51.916424,0.07070323079824438
2023-01-28 09:18:51.921424,0.05776078370540391
2023-01-28 09:18:51.926424,0.04428267478942871
2023-01-28 09:18:51.931424,0.030316982022189232
2023-01-28 09:18:51.936424,0.015938878059387183
2023-01-28 09:18:51.941424,0.002993083782542551
2023-01-28 09:18:51.946424,-0.0067553920671342945
2023-01-28 09:18:51.951424,-0.013973884480205949
2023-01-28 09:18:51.956424,-0.020674865692853917
2023-01-28 09:18:51.961424,-0.027660041473466346
2023-01-28 09:18:51.966424,-0.03435393422842018
2023-01-28 09:18:51.971424,-0.04027248872456748
2023-01-28 09:18:51.976424,-0.04526833817362778
2023-01-28 09:18:51.981424,-0.0489019034531414
2023-01-28 09:18:51.986424,-0.05070149898529048
2023-01-28 09:18:51.991424,-0.05064605833253042
2023-01-28 09:18:51.996424,-0.048754215240478474
2023-01-28 09:18:52.001424,-0.04494543090545744
2023-01-28 09:18:52.006424,-0.039955377578735296
2023-01-28 09:18:52.011424,-0.03552664335959799
2023-01-28 09:18:52.016424,-0.03298362344503401
2023-01-28 09:18:52.021424,-0.03233762810201027
2023-01-28 09:18:52.026424,-0.03315190598368639
2023-01-28 09:18:52.031424,-0.035167671541221024
2023-01-28 09:18:52.036424,-0.03757536411285399
2023-01-28 09:18:52.041424,-0.038968850437489586
2023-01-28 09:18:52.046424,-0.03884951397776601
2023-01-28 09:18:52.051424,-0.03818902902891446
2023-01-28 09:18:52.056424,-0.037911932915449094
2023-01-28 09:18:52.061424,-0.037898872524858365
2023-01-28 09:18:52.066424,-0.037960015237331286
2023-01-28 09:18:52.071424,-0.03844677147039879
2023-01-28 09:18:52.076424,-0.0392101220786571
2023-01-28 09:18:52.081424,-0.039257996937313015
2023-01-28 09:18:52.086424,-0.038224458694458015
2023-01-28 09:18:52.091424,-0.03699535483366271
2023-01-28 09:18:52.096424,-0.03620505332946773
2023-01-28 09:18:52.101424,-0.03536427202880724
2023-01-28 09:18:52.106424,-0.03413756936788552
2023-01-28 09:18:52.111424,-0.03314041021099458
2023-01-28 09:18:52.116424,-0.03271917626261712
2023-01-28 09:18:52.121424,-0.03226700995912107
2023-01-28 09:18:52.126424,-0.03151714801788327
2023-01-28 09:18:52.131424,-0.031165259929063955
2023-01-28 09:18:52.136424,-0.031372904777526835
2023-01-28 09:18:52.141424,-0.030948305093419434
2023-01-28 09:18:52.146424,-0.028848648071289035
2023-01-28 09:18:52.151424,-0.025276129415673882
2023-01-28 09:18:52.156424,-0.020626783370971593
2023-01-28 09:18:52.161424,-0.014852567468276697
2023-01-28 09:18:52.166424,-0.008798837661743107
2023-01-28 09:18:52.171424,-0.004774425511880497
2023-01-28 09:18:52.176424,-0.004687905311584408
2023-01-28 09:18:52.181424,-0.008601176386783085
2023-01-28 09:18:52.186424,-0.015698473900556478
2023-01-28 09:18:52.191424,-0.02521095001099865
2023-01-28 09:18:52.196424,-0.035555958747863714
2023-01-28 09:18:52.201424,-0.0441644607356058
2023-01-28 09:18:52.206424,-0.04947543144226064
2023-01-28 09:18:52.211424,-0.052151023530482676
2023-01-28 09:18:52.216424,-0.05356232449412341
2023-01-28 09:18:52.221424,-0.054285895132786796
2023-01-28 09:18:52.226424,-0.05471627041697503
2023-01-28 09:18:52.231424,-0.05543751332417006
2023-01-28 09:18:52.236424,-0.05567789077758782
2023-01-28 09:18:52.241424,-0.052599617455974454
2023-01-28 09:18:52.246424,-0.04341721534728999
2023-01-28 09:18:52.251424,-0.02769916733456257
2023-01-28 09:18:52.256424,-0.0075487298890948434
2023-01-28 09:18:52.261424,0.012543525497003861
2023-01-28 09:18:52.266424,0.025122364982962584
2023-01-28 09:18:52.271424,0.021367998323162208
2023-01-28 09:18:52.276424,-0.003918608184903784
2023-01-28 09:18:52.281424,-0.048219930725701486
2023-01-28 09:18:52.286424,-0.10190784931182857
2023-01-28 09:18:52.291424,-0.15184177603643811
2023-01-28 09:18:52.296424,-0.1851121634244918
2023-01-28 09:18:52.301424,-0.1931823824804229
2023-01-28 09:18:52.306424,-0.17592868208885187
2023-01-28 09:18:52.311424,-0.14177190609500132
2023-01-28 09:18:52.316424,-0.10255694389343259
2023-01-28 09:18:52.321424,-0.0678423244042568
2023-01-28 09:18:52.326424,-0.042912364006042356
2023-01-28 09:18:52.331424,-0.029152880696065763
2023-01-28 09:18:52.336424,-0.024353068321943186
2023-01-28 09:18:52.341424,-0.02406149800775076
2023-01-28 09:18:52.346424,-0.024689635261893172
2023-01-28 09:18:52.351424,-0.025225601315538766
2023-01-28 09:18:52.356424,-0.02567529678344715
2023-01-28 09:18:52.361424,-0.025372312586507264
2023-01-28 09:18:52.366424,-0.02382417581975461
2023-01-28 09:18:52.371424,-0.021742688853823248
2023-01-28 09:18:52.376424,-0.01988152787089339
2023-01-28 09:18:52.381424,-0.017896295849751442
2023-01-28 09:18:52.386424,-0.015409986488520966
2023-01-28 09:18:52.391424,-0.013038549980739979
2023-01-28 09:18:52.396424,-0.011275013908743758
2023-01-28 09:18:52.401424,-0.009532480499733542
2023-01-28 09:18:52.406424,-0.0074044866487382845
2023-01-28 09:18:52.411424,-0.0057089407650609825
2023-01-28 09:18:52.416424,-0.005120635032653815
2023-01-28 09:18:52.421424,-0.004827985641654062
2023-01-28 09:18:52.426424,-0.0036060810089110946
2023-01-28 09:18:52.431424,-0.0011239525947149785
2023-01-28 09:18:52.436424,0.002812743186950596
2023-01-28 09:18:52.441424,0.009039729802841772
2023-01-28 09:18:52.446424,0.01779000088572502
2023-01-28 09:18:52.451424,0.02769427455906318
2023-01-28 09:18:52.456424,0.037166677415370886
2023-01-28 09:18:52.461424,0.045840590037280776
2023-01-28 09:18:52.466424,0.053706567734479876
2023-01-28 09:18:52.471424,0.06006629140639792
2023-01-28 09:18:52.476424,0.06454885005950918
2023-01-28 09:18:52.481424,0.06810028326478056
2023-01-28 09:18:52.486424,0.07176101207733149
2023-01-28 09:18:52.491424,0.07537226789596564
2023-01-28 09:18:52.496424,0.0784683227539062
2023-01-28 09:18:52.501424,0.08130720018611814
2023-01-28 09:18:52.506424,0.08385340869426713
2023-01-28 09:18:52.511424,0.08478711207542675
2023-01-28 09:18:52.516424,0.08272349834442125
2023-01-28 09:18:52.521424,0.07752247666787285
2023-01-28 09:18:52.526424,0.0694050416350364
2023-01-28 09:18:52.531424,0.05790537647317378
2023-01-28 09:18:52.536424,0.04293640702962873
2023-01-28 09:18:52.541424,0.025974176417199166
2023-01-28 09:18:52.546424,0.00903924368321888
2023-01-28 09:18:52.551424,-0.006661171701797883
2023-01-28 09:18:52.556424,-0.020194053649902326
2023-01-28 09:18:52.561424,-0.030257610243997486
2023-01-28 09:18:52.566424,-0.03644546121358867
2023-01-28 09:18:52.571424,-0.040308923303062044
2023-01-28 09:18:52.576424,-0.0439220666885375
2023-01-28 09:18:52.581424,-0.04801291066102959
2023-01-28 09:18:52.586424,-0.052288174629211426
2023-01-28 09:18:52.591424,-0.056450154344802494
2023-01-28 09:18:52.596424,-0.05971670150756832
2023-01-28 09:18:52.601424,-0.06042960646352679
2023-01-28 09:18:52.606424,-0.057673256844282074
2023-01-28 09:18:52.611424,-0.05278020565596163
2023-01-28 09:18:52.616424,-0.04815320298075671
2023-01-28 09:18:52.621424,-0.045170908744672826
2023-01-28 09:18:52.626424,-0.044090352952480275
2023-01-28 09:18:52.631424,-0.04503710203118112
2023-01-28 09:18:52.636424,-0.047768555581569616
2023-01-28 09:18:52.641424,-0.05098011377036116
2023-01-28 09:18:52.646424,-0.053009390830993604
2023-01-28 09:18:52.651424,-0.05304641023463499
2023-01-28 09:18:52.656424,-0.05113422870635977
2023-01-28 09:18:52.661424,-0.047665868466988996
2023-01-28 09:18:52.666424,-0.04353741928935049
2023-01-28 09:18:52.671424,-0.04001018688446971
2023-01-28 09:18:52.676424,-0.037599407136440194
2023-01-28 09:18:52.681424,-0.03563931374080806
2023-01-28 09:18:52.686424,-0.03344039246439931
2023-01-28 09:18:52.691424,-0.03113359512857556
2023-01-28 09:18:52.696424,-0.02899289131164548
2023-01-28 09:18:52.701424,-0.026990437322554205
2023-01-28 09:18:52.706424,-0.02562721632421005
2023-01-28 09:18:52.711424,-0.026115411953897123
2023-01-28 09:18:52.716424,-0.0289448108524084
2023-01-28 09:18:52.721424,-0.03311445693816264
2023-01-28 09:18:52.726424,-0.037334959954023264
2023-01-28 09:18:52.731424,-0.04099593931679025
2023-01-28 09:18:52.736424,-0.04346529766917223
2023-01-28 09:18:52.741424,-0.043726967158346494
2023-01-28 09:18:52.746424,-0.04154205322265623
2023-01-28 09:18:52.751424,-0.037891845518703615
2023-01-28 09:18:52.756424,-0.0334884747862815
2023-01-28 09:18:52.761424,-0.027855922679880307
2023-01-28 09:18:52.766424,-0.02055466175079338
2023-01-28 09:18:52.771424,-0.012237090536714205
2023-01-28 09:18:52.776424,-0.0038945674896240044
2023-01-28 09:18:52.781424,0.0036543617854306854
2023-01-28 09:18:52.786424,0.008774797432124604
2023-01-28 09:18:52.791424,0.008910484205098409
2023-01-28 09:18:52.796424,0.0026444594841449885
2023-01-28 09:18:52.801424,-0.008895686253951155
2023-01-28 09:18:52.806424,-0.023247202858328795
2023-01-28 09:18:52.811424,-0.03810241957343243
2023-01-28 09:18:52.816424,-0.05113422870635984
2023-01-28 09:18:52.821424,-0.06005483393002034
2023-01-28 09:18:52.826424,-0.06418824195861808
2023-01-28 09:18:52.831424,-0.0650525515470721
2023-01-28 09:18:52.836424,-0.0644046068191528
2023-01-28 09:18:52.841424,-0.06246283261621822
2023-01-28 09:18:52.846424,-0.05844255536794655
2023-01-28 09:18:52.851424,-0.05139100449693858
2023-01-28 09:18:52.856424,-0.039763055741786936
2023-01-28 09:18:52.861424,-0.02198801798014167
2023-01-28 09:18:52.866424,0.0007452567806466798
2023-01-28 09:18:52.871424,0.022750013511039762
2023-01-28 09:18:52.876424,0.03579636663198469
2023-01-28 09:18:52.881424,0.03260398415808179
2023-01-28 09:18:52.886424,0.009231567382812535
2023-01-28 09:18:52.891424,-0.03294500160774508
2023-01-28 09:18:52.896424,-0.08553624153137199
2023-01-28 09:18:52.901424,-0.13479050238999737
2023-01-28 09:18:52.906424,-0.16753852367401115
2023-01-28 09:18:52.911424,-0.17687225650524668
2023-01-28 09:18:52.916424,-0.16340355575084675
2023-01-28 09:18:52.921424,-0.13343563205761225
2023-01-28 09:18:52.926424,-0.0966910570859909
2023-01-28 09:18:52.931424,-0.06315560987826542
2023-01-28 09:18:52.936424,-0.039017796516418374
2023-01-28 09:18:52.941424,-0.02498709002538439
2023-01-28 09:18:52.946424,-0.018631419166922476
2023-01-28 09:18:52.951424,-0.017274688689261457
2023-01-28 09:18:52.956424,-0.018366973847150803
2023-01-28 09:18:52.961424,-0.019194997283905724
2023-01-28 09:18:52.966424,-0.018150608986616065
2023-01-28 09:18:52.971424,-0.015652953864660393
2023-01-28 09:18:52.976424,-0.01286168955266468
2023-01-28 09:18:52.981424,-0.010376612519603319
2023-01-28 09:18:52.986424,-0.008870959281921298
2023-01-28 09:18:52.991424,-0.009487210790492818
2023-01-28 09:18:52.996424,-0.012236635200679245
2023-01-28 09:18:53.001424,-0.01499258070945061
2023-01-28 09:18:53.006424,-0.015265743248164565
2023-01-28 09:18:53.011424,-0.012245370643445625
2023-01-28 09:18:53.016424,-0.006466905586421354
2023-01-28 09:18:53.021424,0.0011307492514136671
2023-01-28 09:18:53.026424,0.008726716041564898
2023-01-28 09:18:53.031424,0.013606406115837778
2023-01-28 09:18:53.036424,0.014232000336050883
2023-01-28 09:18:53.041424,0.011751134647353199
2023-01-28 09:18:53.046424,0.00860651396214961
2023-01-28 09:18:53.051424,0.0065913449733680084
2023-01-28 09:18:53.056424,0.006971756927668951
2023-01-28 09:18:53.061424,0.010997558117803313
2023-01-28 09:18:53.066424,0.018823742866516065
2023-01-28 09:18:53.071424,0.028829270752930777
2023-01-28 09:18:53.076424,0.03921012207865711
2023-01-28 09:18:53.081424,0.049476896125164045
2023-01-28 09:18:53.086424,0.059548418968915925
2023-01-28 09:18:53.091424,0.06856704740373863
2023-01-28 09:18:53.096424,0.07577578723430624
2023-01-28 09:18:53.101424,0.08151664725338707
2023-01-28 09:18:53.106424,0.08616130053997023
2023-01-28 09:18:53.111424,0.08897086643630699
2023-01-28 09:18:53.116424,0.08909424394369116
2023-01-28 09:18:53.121424,0.0867277563903236
2023-01-28 09:18:53.126424,0.08221864700317374
2023-01-28 09:18:53.131424,0.07504992486052099
2023-01-28 09:18:53.136424,0.06488542258739469
2023-01-28 09:18:53.141424,0.05270064430271783
2023-01-28 09:18:53.146424,0.03976305574178684
2023-01-28 09:18:53.151424,0.026391769552753543
2023-01-28 09:18:53.156424,0.012765526771545391
2023-01-28 09:18:53.161424,-5.7130400134743316e-05
2023-01-28 09:18:53.166424,-0.011106729507446185
2023-01-28 09:18:53.171424,-0.020614821368725274
2023-01-28 09:18:53.176424,-0.029065012931823692
2023-01-28 09:18:53.181424,-0.03601250287264753
2023-01-28 09:18:53.186424,-0.04089295864105217
2023-01-28 09:18:53.191424,-0.04405916730465979
2023-01-28 09:18:53.196424,-0.045893393456935806
2023-01-28 09:18:53.201424,-0.045795741029611606
2023-01-28 09:18:53.206424,-0.04322489351034157
2023-01-28 09:18:53.211424,-0.038976229806696704
2023-01-28 09:18:53.216424,-0.03440201282501221
2023-01-28 09:18:53.221424,-0.03019615011330046
2023-01-28 09:18:53.226424,-0.0269254054874181
2023-01-28 09:18:53.231424,-0.025747533593653327
2023-01-28 09:18:53.236424,-0.027310054749250398
2023-01-28 09:18:53.241424,-0.03058260446850402
2023-01-28 09:18:53.246424,-0.033825039863586405
2023-01-28 09:18:53.251424,-0.03608940580880265
2023-01-28 09:18:53.256424,-0.0369983911514282
2023-01-28 09:18:53.261424,-0.036061814096423665
2023-01-28 09:18:53.266424,-0.03336827084422106
2023-01-28 09:18:53.271424,-0.030206927405266856
2023-01-28 09:18:53.276424,-0.02791106700897205
2023-01-28 09:18:53.281424,-0.02661579101037985
2023-01-28 09:18:53.286424,-0.02584358118474477
2023-01-28 09:18:53.291424,-0.025408988767738998
2023-01-28 09:18:53.296424,-0.024906000122427878
2023-01-28 09:18:53.301424,-0.023316055410161112
2023-01-28 09:18:53.306424,-0.020218094810843433
2023-01-28 09:18:53.311424,-0.016634013548372385
2023-01-28 09:18:53.316424,-0.013751189224421893
2023-01-28 09:18:53.321424,-0.011608423726024933
2023-01-28 09:18:53.326424,-0.009928743354976089
2023-01-28 09:18:53.331424,-0.009351857810611666
2023-01-28 09:18:53.336424,-0.010794202797114785
2023-01-28 09:18:53.341424,-0.01425747354093304
2023-01-28 09:18:53.346424,-0.019088190048932977
2023-01-28 09:18:53.351424,-0.024621625050146083
2023-01-28 09:18:53.356424,-0.02976218983530991
2023-01-28 09:18:53.361424,-0.03283897534002803
2023-01-28 09:18:53.366424,-0.032911501824855825
2023-01-28 09:18:53.371424,-0.0306750924797817
2023-01-28 09:18:53.376424,-0.02745429798960679
2023-01-28 09:18:53.381424,-0.02405051795918926
2023-01-28 09:18:53.386424,-0.02101143263280385
2023-01-28 09:18:53.391424,-0.01878695058384458
2023-01-28 09:18:53.396424,-0.016684135422110453
2023-01-28 09:18:53.401424,-0.012674313688823645
2023-01-28 09:18:53.406424,-0.005288918968289958
2023-01-28 09:18:53.411424,0.0048269269277255375
2023-01-28 09:18:53.416424,0.015602311119437114
2023-01-28 09:18:53.421424,0.02464061355979711
2023-01-28 09:18:53.426424,0.02916117571294299
2023-01-28 09:18:53.431424,0.02652512045786804
2023-01-28 09:18:53.436424,0.016323527321219392
2023-01-28 09:18:53.441424,0.0013561290785127653
2023-01-28 09:18:53.446424,-0.014256040565669488
2023-01-28 09:18:53.451424,-0.0273085729691953
2023-01-28 09:18:53.456424,-0.03579636663198472
2023-01-28 09:18:53.461424,-0.03880309936986072
2023-01-28 09:18:53.466424,-0.037383042275905595
2023-01-28 09:18:53.471424,-0.03438246289687894
2023-01-28 09:18:53.476424,-0.03199796006083479
2023-01-28 09:18:53.481424,-0.0299178389771747
2023-01-28 09:18:53.486424,-0.02625226974487302
2023-01-28 09:18:53.491424,-0.019136542201144094
2023-01-28 09:18:53.496424,-0.006995797157287516
2023-01-28 09:18:53.501424,0.010778988296167505
2023-01-28 09:18:53.506424,0.031589269638061496
2023-01-28 09:18:53.511424,0.048748957349123885
2023-01-28 09:18:53.516424,0.05421141907572737
2023-01-28 09:18:53.521424,0.042392302580322394
2023-01-28 09:18:53.526424,0.012140473350882511
2023-01-28 09:18:53.531424,-0.03242064780829248
2023-01-28 09:18:53.536424,-0.0814733952283859
2023-01-28 09:18:53.541424,-0.12183800017068981
2023-01-28 09:18:53.546424,-0.1427046507596969
2023-01-28 09:18:53.551424,-0.14042226151207915
2023-01-28 09:18:53.556424,-0.11859198659658428
2023-01-28 09:18:53.561424,-0.0852261509529345
2023-01-28 09:18:53.566424,-0.05002836510539045
2023-01-28 09:18:53.571424,-0.021517536724227203
2023-01-28 09:18:53.576424,-0.003726283786818316
2023-01-28 09:18:53.581424,0.004648580905461877
2023-01-28 09:18:53.586424,0.007236202713102082
2023-01-28 09:18:53.591424,0.0067025061539513
2023-01-28 09:18:53.596424,0.004447500221431196
2023-01-28 09:18:53.601424,0.001505099090368508
2023-01-28 09:18:53.606424,-0.0018030405044554432
2023-01-28 09:18:53.611424,-0.00598084990986478
2023-01-28 09:18:53.616424,-0.010746121406555162
2023-01-28 09:18:53.621424,-0.01413163535532696
2023-01-28 09:18:53.626424,-0.01425604056566946
2023-01-28 09:18:53.631424,-0.011123899804461658
2023-01-28 09:18:53.636424,-0.005841851234436006
2023-01-28 09:18:53.641424,0.000756791355539716
2023-01-28 09:18:53.646424,0.007717013359069805
2023-01-28 09:18:53.651424,0.0135556720330518
2023-01-28 09:18:53.656424,0.017669796943664485
2023-01-28 09:18:53.661424,0.02125820069693186
2023-01-28 09:18:53.666424,0.02567529678344714
2023-01-28 09:18:53.671424,0.03071468589437118
2023-01-28 09:18:53.676424,0.03543575853109347
2023-01-28 09:18:53.681424,0.039540820025135655
2023-01-28 09:18:53.686424,0.04284024238586419
2023-01-28 09:18:53.691424,0.04455804744450464
2023-01-28 09:18:53.696424,0.044523082673549576
2023-01-28 09:18:53.701424,0.044147379145124434
2023-01-28 09:18:53.706424,0.045027934014797114
2023-01-28 09:18:53.711424,0.047419763517525644
2023-01-28 09:18:53.716424,0.05106210708618157
2023-01-28 09:18:53.721424,0.05638550751887349
2023-01-28 09:18:53.726424,0.06368339061737058
2023-01-28 09:18:53.731424,0.07208886532287498
2023-01-28 09:18:53.736424,0.08058389276266088
2023-01-28 09:18:53.741424,0.08907146149900283
2023-01-28 09:18:53.746424,0.0972680300474165
2023-01-28 09:18:53.751424,0.1035004340403692
2023-01-28 09:18:53.756424,0.10585050284862509
2023-01-28 09:18:53.761424,0.10371133232716558
2023-01-28 09:18:53.766424,0.09726803004741653
2023-01-28 09:18:53.771424,0.08659425733500196
2023-01-28 09:18:53.776424,0.07253031432628629
2023-01-28 09:18:53.781424,0.05741221959559443
2023-01-28 09:18:53.786424,0.043465297669172134
2023-01-28 09:18:53.791424,0.031066090039867694
2023-01-28 09:18:53.796424,0.019544959068298295
2023-01-28 09:18:53.801424,0.008750168160791888
2023-01-28 09:18:53.806424,-0.0012260675430297318
2023-01-28 09:18:53.811424,-0.010718820519493829
2023-01-28 09:18:53.816424,-0.019496878609061203
2023-01-28 09:18:53.821424,-0.025971550508088123
2023-01-28 09:18:53.826424,-0.02875248715281479
2023-01-28 09:18:53.831424,-0.028358215231220854
2023-01-28 09:18:53.836424,-0.026372473686933517
2023-01-28 09:18:53.841424,-0.02379481861388017
2023-01-28 09:18:53.846424,-0.021275877952575586
2023-01-28 09:18:53.851424,-0.019881608707129746
2023-01-28 09:18:53.856424,-0.020194053649902333
2023-01-28 09:18:53.861424,-0.021391000311392596
2023-01-28 09:18:53.866424,-0.022453865036368273
2023-01-28 09:18:53.871424,-0.023564437538968794
2023-01-28 09:18:53.876424,-0.02519448660314077
2023-01-28 09:18:53.881424,-0.02668083869374125
2023-01-28 09:18:53.886424,-0.026949446648359198
2023-01-28 09:18:53.891424,-0.025906121346690222
2023-01-28 09:18:53.896424,-0.023968419060111025
2023-01-28 09:18:53.901424,-0.02106330143833327
2023-01-28 09:18:53.906424,-0.01733323000371447
2023-01-28 09:18:53.911424,-0.014046822812517196
2023-01-28 09:18:53.916424,-0.012477040290832483
2023-01-28 09:18:53.921424,-0.012419125006979502
2023-01-28 09:18:53.926424,-0.012861689552664693
2023-01-28 09:18:53.931424,-0.013384277282458437
2023-01-28 09:18:53.936424,-0.013799270614981655
2023-01-28 09:18:53.941424,-0.013263478756013145
2023-01-28 09:18:53.946424,-0.011106729507446199
2023-01-28 09:18:53.951424,-0.008041715958422624
2023-01-28 09:18:53.956424,-0.005457202903926315
2023-01-28 09:18:53.961424,-0.004043413479480821
2023-01-28 09:18:53.966424,-0.004014770500361922
2023-01-28 09:18:53.971424,-0.005836849949752034
2023-01-28 09:18:53.976424,-0.00947197340428823
2023-01-28 09:18:53.981424,-0.013464207394716737
2023-01-28 09:18:53.986424,-0.015962919220328334
2023-01-28 09:18:53.991424,-0.016355719667220252
2023-01-28 09:18:53.996424,-0.015169581398367797
2023-01-28 09:18:54.001424,-0.01306608908185386
2023-01-28 09:18:54.006424,-0.010842284187674498
2023-01-28 09:18:54.011424,-0.0096901407776567
2023-01-28 09:18:54.016424,-0.010337432846426926
2023-01-28 09:18:54.021424,-0.012262086980668812
2023-01-28 09:18:54.026424,-0.014376243576407436
2023-01-28 09:18:54.031424,-0.015834777068260482
2023-01-28 09:18:54.036424,-0.01560231111943723
2023-01-28 09:18:54.041424,-0.012238612202333556
2023-01-28 09:18:54.046424,-0.0051446757279335715
2023-01-28 09:18:54.051424,0.004536508153891349
2023-01-28 09:18:54.056424,0.014857053756713746
2023-01-28 09:18:54.061424,0.02406578876764812
2023-01-28 09:18:54.066424,0.030170878395438108
2023-01-28 09:18:54.071424,0.030851824926228174
2023-01-28 09:18:54.076424,0.02507428452372551
2023-01-28 09:18:54.081424,0.014199298976110896
2023-01-28 09:18:54.086424,0.0007692973013035005
2023-01-28 09:18:54.091424,-0.013014753491499486
2023-01-28 09:18:54.096424,-0.02514640614390374
2023-01-28 09:18:54.101424,-0.03361445757225693
2023-01-28 09:18:54.106424,-0.037647485733032185
2023-01-28 09:18:54.111424,-0.038376418127756294
2023-01-28 09:18:54.116424,-0.03726283833384508
2023-01-28 09:18:54.121424,-0.0344922654817945
2023-01-28 09:18:54.126424,-0.02940158173441879
2023-01-28 09:18:54.131424,-0.021275444254676645
2023-01-28 09:18:54.136424,-0.008991162292659215
2023-01-28 09:18:54.141424,0.00848796403515857
2023-01-28 09:18:54.146424,0.029521783813834086
2023-01-28 09:18:54.151424,0.04818824646033755
2023-01-28 09:18:54.156424,0.056423150002956314
2023-01-28 09:18:54.161424,0.04786082097108354
2023-01-28 09:18:54.166424,0.020338296890258716
2023-01-28 09:18:54.171424,-0.022703282170266518
2023-01-28 09:18:54.176424,-0.07154464721679678
2023-01-28 09:18:54.181424,-0.11260295916486862
2023-01-28 09:18:54.186424,-0.13450682163238517
2023-01-28 09:18:54.191424,-0.1332979922383627
2023-01-28 09:18:54.196424,-0.11267801374196998
2023-01-28 09:18:54.201424,-0.08093380907134555
2023-01-28 09:18:54.206424,-0.04791279882192609
2023-01-28 09:18:54.211424,-0.022118025656740266
2023-01-28 09:18:54.216424,-0.007548729889094831
2023-01-28 09:18:54.221424,-0.002826394824497471
2023-01-28 09:18:54.226424,-0.003966689109802199
2023-01-28 09:18:54.231424,-0.007458893659398239
2023-01-28 09:18:54.236424,-0.010577837936580098
2023-01-28 09:18:54.241424,-0.010808946834978963
2023-01-28 09:18:54.246424,-0.00689963530749074
2023-01-28 09:18:54.251424,0.00016707971601866706
2023-01-28 09:18:54.256424,0.008414189331233468
2023-01-28 09:18:54.261424,0.01641283563513175
2023-01-28 09:18:54.266424,0.022934675216674784
2023-01-28 09:18:54.271424,0.026516977270787303
2023-01-28 09:18:54.276424,0.026805203408002777
2023-01-28 09:18:54.281424,0.025428960486279777
2023-01-28 09:18:54.286424,0.024304986000060987
2023-01-28 09:18:54.291424,0.023820102745907252
2023-01-28 09:18:54.296424,0.023559730499982813
2023-01-28 09:18:54.301424,0.023645235704711925
2023-01-28 09:18:54.306424,0.02416074275970451
2023-01-28 09:18:54.311424,0.024372629812234786
2023-01-28 09:18:54.316424,0.02387225627899158
2023-01-28 09:18:54.321424,0.023637258461031138
2023-01-28 09:18:54.326424,0.024809837341308504
2023-01-28 09:18:54.331424,0.02735554088867201
2023-01-28 09:18:54.336424,0.03103633783757678
2023-01-28 09:18:54.341424,0.03663711011077904
2023-01-28 09:18:54.346424,0.0449317693710327
2023-01-28 09:18:54.351424,0.0553275372072578
2023-01-28 09:18:54.356424,0.06668846309185018
2023-01-28 09:18:54.361424,0.0785057815840058
2023-01-28 09:18:54.366424,0.09005586802959442
2023-01-28 09:18:54.371424,0.09948156249266717
2023-01-28 09:18:54.376424,0.10515332221984855
2023-01-28 09:18:54.381424,0.10720714398218215
2023-01-28 09:18:54.386424,0.10661979764699926
2023-01-28 09:18:54.391424,0.10370721780928696
2023-01-28 09:18:54.396424,0.09868641942739478
2023-01-28 09:18:54.401424,0.09260958468288685
2023-01-28 09:18:54.406424,0.08628150075674047
2023-01-28 09:18:54.411424,0.07905422496449478
2023-01-28 09:18:54.416424,0.0699820145964622
2023-01-28 09:18:54.421424,0.05938030280713474
2023-01-28 09:18:54.426424,0.04810512065887446
2023-01-28 09:18:54.431424,0.036298183300799224
2023-01-28 09:18:54.436424,0.024184783920645686
2023-01-28 09:18:54.441424,0.01319097937829183
2023-01-28 09:18:54.446424,0.004832148551940899
2023-01-28 09:18:54.451424,-0.0008401140550936835
2023-01-28 09:18:54.456424,-0.004567702766507809
2023-01-28 09:18:54.461424,-0.006603380505335717
2023-01-28 09:18:54.466424,-0.007332365028560106
2023-01-28 09:18:54.471424,-0.0081548676717638
2023-01-28 09:18:54.476424,-0.010241270065307598
2023-01-28 09:18:54.481424,-0.013078722702413921
2023-01-28 09:18:54.486424,-0.015506148338317795
2023-01-28 09:18:54.491424,-0.017452463191305813
2023-01-28 09:18:54.496424,-0.019496878609061234
2023-01-28 09:18:54.501424,-0.021627501925436936
2023-01-28 09:18:54.506424,-0.02372801303863518
2023-01-28 09:18:54.511424,-0.026368542131999684
2023-01-28 09:18:54.516424,-0.029666027054190615
2023-01-28 09:18:54.521424,-0.03209759604084537
2023-01-28 09:18:54.526424,-0.03182967752218238
2023-01-28 09:18:54.531424,-0.028636386042898695
2023-01-28 09:18:54.536424,-0.023439526557922363
2023-01-28 09:18:54.541424,-0.016908262315238592
2023-01-28 09:18:54.546424,-0.009832581505179447
2023-01-28 09:18:54.551424,-0.003919051937714158
2023-01-28 09:18:54.556424,-0.0006010135402901919
2023-01-28 09:18:54.561424,0.00044223834489015226
2023-01-28 09:18:54.566424,0.00040868920041239437
2023-01-28 09:18:54.571424,-0.00022865813570874848
2023-01-28 09:18:54.576424,-0.0012981891632080362
2023-01-28 09:18:54.581424,-0.0019356625883080482
2023-01-28 09:18:54.586424,-0.001586675643920799
2023-01-28 09:18:54.591424,-0.001347734218951197
2023-01-28 09:18:54.596424,-0.0028848648071289036
2023-01-28 09:18:54.601424,-0.006544244235479334
2023-01-28 09:18:54.606424,-0.011635622009634848
2023-01-28 09:18:54.611424,-0.017662532826004024
2023-01-28 09:18:54.616424,-0.023848216980695714
2023-01-28 09:18:54.621424,-0.02829717919867634
2023-01-28 09:18:54.626424,-0.029305418953299484
2023-01-28 09:18:54.631424,-0.027122913160498953
2023-01-28 09:18:54.636424,-0.023223161697387557
2023-01-28 09:18:54.641424,-0.018523468428581755
2023-01-28 09:18:54.646424,-0.013582905754446902
2023-01-28 09:18:54.651424,-0.00963146282489105
2023-01-28 09:18:54.656424,-0.007692973129451213
2023-01-28 09:18:54.661424,-0.007154136341234713
2023-01-28 09:18:54.666424,-0.006635189056396418
2023-01-28 09:18:54.671424,-0.005743540247637715
2023-01-28 09:18:54.676424,-0.004591743461787701
2023-01-28 09:18:54.681424,-0.0023132940024475773
2023-01-28 09:18:54.686424,0.002187689300626507
2023-01-28 09:18:54.691424,0.008333930322590352
2023-01-28 09:18:54.696424,0.014280080795287958
2023-01-28 09:18:54.701424,0.018944289717090015
2023-01-28 09:18:54.706424,0.02214133739471427
2023-01-28 09:18:54.711424,0.022952068525102606
2023-01-28 09:18:54.716424,0.0196411218494176
2023-01-28 09:18:54.721424,0.01151706554590485
2023-01-28 09:18:54.726424,-0.0001202027051475909
2023-01-28 09:18:54.731424,-0.012886721935909633
2023-01-28 09:18:54.736424,-0.024329027161002093
2023-01-28 09:18:54.741424,-0.032409785462814235
2023-01-28 09:18:54.746424,-0.03627717494964588
2023-01-28 09:18:54.751424,-0.03679318933789174
2023-01-28 09:18:54.756424,-0.03565212339162819
2023-01-28 09:18:54.761424,-0.03395134492711286
2023-01-28 09:18:54.766424,-0.03178159520030019
2023-01-28 09:18:54.771424,-0.028350115691547672
2023-01-28 09:18:54.776424,-0.021708607673645023
2023-01-28 09:18:54.781424,-0.009288957301182236
2023-01-28 09:18:54.786424,0.00968833826482291
2023-01-28 09:18:54.791424,0.03192586406655193
2023-01-28 09:18:54.796424,0.05036493390798561
2023-01-28 09:18:54.801424,0.05655697232528218
2023-01-28 09:18:54.806424,0.04341721534729002
2023-01-28 09:18:54.811424,0.008397079570146624
2023-01-28 09:18:54.816424,-0.04339317604899399
2023-01-28 09:18:54.821424,-0.09918560619127917
2023-01-28 09:18:54.826424,-0.14344990253448475
2023-01-28 09:18:54.831424,-0.1645123680214971
2023-01-28 09:18:54.836424,-0.158475250005722
2023-01-28 09:18:54.841424,-0.12966974763533284
2023-01-28 09:18:54.846424,-0.08885383605957023
2023-01-28 09:18:54.851424,-0.04910514422085528
2023-01-28 09:18:54.856424,-0.020194053649902347
2023-01-28 09:18:54.861424,-0.005140637197346341
2023-01-28 09:18:54.866424,-0.001418391941115241
2023-01-28 09:18:54.871424,-0.004321546776451545
2023-01-28 09:18:54.876424,-0.00901520252227778
2023-01-28 09:18:54.881424,-0.01153324877851009
2023-01-28 09:18:54.886424,-0.01014510821551078
2023-01-28 09:18:54.891424,-0.005806730046196063
2023-01-28 09:18:54.896424,-0.00043272972106929804
2023-01-28 09:18:54.901424,0.004858367381810993
2023-01-28 09:18:54.906424,0.009375810623168888
2023-01-28 09:18:54.911424,0.012054160819201147
2023-01-28 09:18:54.916424,0.012308756820857506
2023-01-28 09:18:54.921424,0.010952500172876791
2023-01-28 09:18:54.926424,0.009183486923575401
2023-01-28 09:18:54.931424,0.007370176410929905
2023-01-28 09:18:54.936424,0.005769729614257798
2023-01-28 09:18:54.941424,0.00551617222981216
2023-01-28 09:18:54.946424,0.007692973129451171
2023-01-28 09:18:54.951424,0.012087887548584992
2023-01-28 09:18:54.956424,0.017838081344962082
2023-01-28 09:18:54.961424,0.024486613034329197
2023-01-28 09:18:54.966424,0.03139694780111306
2023-01-28 09:18:54.971424,0.037105397396622435
2023-01-28 09:18:54.976424,0.040604472160339314
2023-01-28 09:18:54.981424,0.04270844572169288
2023-01-28 09:18:54.986424,0.045148134231567265
2023-01-28 09:18:54.991424,0.04901878765341447
2023-01-28 09:18:54.996424,0.05498071759939189
2023-01-28 09:18:55.001424,0.06385708898688282
2023-01-28 09:18:55.006424,0.0755834579467773
2023-01-28 09:18:55.011424,0.08818925468546793
2023-01-28 09:18:55.016424,0.09904702752828587
2023-01-28 09:18:55.021424,0.10666677872330083
2023-01-28 09:18:55.026424,0.1105143651366233
2023-01-28 09:18:55.031424,0.11017059591358302
2023-01-28 09:18:55.036424,0.10599474608898157
2023-01-28 09:18:55.041424,0.09979303705881679
2023-01-28 09:18:55.046424,0.09339749813079826
2023-01-28 09:18:55.051424,0.0869923451748884
2023-01-28 09:18:55.056424,0.07976651191711417
2023-01-28 09:18:55.061424,0.07142409423135786
2023-01-28 09:18:55.066424,0.06200055405497549
2023-01-28 09:18:55.071424,0.05112957412301071
2023-01-28 09:18:55.076424,0.038849513977765995
2023-01-28 09:18:55.081424,0.026472889753631847
2023-01-28 09:18:55.086424,0.015409986488521028
2023-01-28 09:18:55.091424,0.0057133662582973185
2023-01-28 09:18:55.096424,-0.0031493108253926013
2023-01-28 09:18:55.101424,-0.010841001489716366
2023-01-28 09:18:55.106424,-0.01663605496287337
2023-01-28 09:18:55.111424,-0.02061423099289625
2023-01-28 09:18:55.116424,-0.023223161697387525
2023-01-28 09:18:55.121424,-0.024441654709955657
2023-01-28 09:18:55.126424,-0.024617513641714973
2023-01-28 09:18:55.131424,-0.025361454185869176
2023-01-28 09:18:55.136424,-0.028199553489685076
2023-01-28 09:18:55.141424,-0.032761809109429975
2023-01-28 09:18:55.146424,-0.03731092065572734
2023-01-28 09:18:55.151424,-0.0403694464457992
2023-01-28 09:18:55.156424,-0.04084488004446019
2023-01-28 09:18:55.161424,-0.03763611802899425
2023-01-28 09:18:55.166424,-0.030747851356863875
2023-01-28 09:18:55.171424,-0.022325149562921375
2023-01-28 09:18:55.176424,-0.015241703018546118
2023-01-28 09:18:55.181424,-0.010949582576274866
2023-01-28 09:18:55.186424,-0.009496013633906817
2023-01-28 09:18:55.191424,-0.010649371237236903
2023-01-28 09:18:55.196424,-0.013630986213683999
2023-01-28 09:18:55.201424,-0.016520741324165568
2023-01-28 09:18:55.206424,-0.017549594864249164
2023-01-28 09:18:55.211424,-0.016774828465986956
2023-01-28 09:18:55.216424,-0.015482108108699377
2023-01-28 09:18:55.221424,-0.014537707770016312
2023-01-28 09:18:55.226424,-0.01437624357640738
2023-01-28 09:18:55.231424,-0.0157236370322103
2023-01-28 09:18:55.236424,-0.0187997035682201
2023-01-28 09:18:55.241424,-0.022242893947849174
2023-01-28 09:18:55.246424,-0.024160742759704475
2023-01-28 09:18:55.251424,-0.02395643835791291
2023-01-28 09:18:55.256424,-0.02216537855565547
2023-01-28 09:18:55.261424,-0.019192183913499656
2023-01-28 09:18:55.266424,-0.015434026718139619
2023-01-28 09:18:55.271424,-0.01196322500602992
2023-01-28 09:18:55.276424,-0.00961621664464469
2023-01-28 09:18:55.281424,-0.007719644738363712
2023-01-28 09:18:55.286424,-0.004904270172119098
2023-01-28 09:18:55.291424,-0.000836054208685231
2023-01-28 09:18:55.296424,0.003822445869445777
2023-01-28 09:18:55.301424,0.00846994278153747
2023-01-28 09:18:55.306424,0.012308756820857487
2023-01-28 09:18:55.311424,0.013626292135174514
2023-01-28 09:18:55.316424,0.010818243026733294
2023-01-28 09:18:55.321424,0.00401709016065008
2023-01-28 09:18:55.326424,-0.0052408380433917046
2023-01-28 09:18:55.331424,-0.015490196940824793
2023-01-28 09:18:55.336424,-0.025458931922912483
2023-01-28 09:18:55.341424,-0.033433744647057805
2023-01-28 09:18:55.346424,-0.03803213685750956
2023-01-28 09:18:55.351424,-0.03953003332359775
2023-01-28 09:18:55.356424,-0.0393784046173095
2023-01-28 09:18:55.361424,-0.03857693674834373
2023-01-28 09:18:55.366424,-0.03728687763214106
2023-01-28 09:18:55.371424,-0.03538594469286279
2023-01-28 09:18:55.376424,-0.032118164002895286
2023-01-28 09:18:55.381424,-0.025495721941103083
2023-01-28 09:18:55.386424,-0.013438662514090456
2023-01-28 09:18:55.391424,0.003957702585904919
2023-01-28 09:18:55.396424,0.02327124401926993
2023-01-28 09:18:55.401424,0.038122835330303535
2023-01-28 09:18:55.406424,0.040436189621686915
2023-01-28 09:18:55.411424,0.023249107194298343
2023-01-28 09:18:55.416424,-0.014977256767451706
2023-01-28 09:18:55.421424,-0.06768061632855911
2023-01-28 09:18:55.426424,-0.12205382436513897
2023-01-28 09:18:55.431424,-0.16407507673690794
2023-01-28 09:18:55.436424,-0.18333315849304188
2023-01-28 09:18:55.441424,-0.17630734084386274
2023-01-28 09:18:55.446424,-0.14772912859916676
2023-01-28 09:18:55.451424,-0.10850213397774916
2023-01-28 09:18:55.456424,-0.0702224224805831
2023-01-28 09:18:55.461424,-0.040193233688225354
2023-01-28 09:18:55.466424,-0.02045850083231921
2023-01-28 09:18:55.471424,-0.009652682882630041
2023-01-28 09:18:55.476424,-0.004711946006864352
2023-01-28 09:18:55.481424,-0.0022444586808891527
2023-01-28 09:18:55.486424,-0.0002884864807127722
2023-01-28 09:18:55.491424,0.0010400024595645333
2023-01-28 09:18:55.496424,0.001129905460402218
2023-01-28 09:18:55.501424,0.00042938507576670775
2023-01-28 09:18:55.506424,-0.00021636486053460164
2023-01-28 09:18:55.511424,-0.0007735937241792166
2023-01-28 09:18:55.516424,-0.0015145540237426235
2023-01-28 09:18:55.521424,-0.0020826467412775477
2023-01-28 09:18:55.526424,-0.0020915269851684523
2023-01-28 09:18:55.531424,-0.0019313087928878995
2023-01-28 09:18:55.536424,-0.0019713244400918627
2023-01-28 09:18:55.541424,-0.0016648649037017216
2023-01-28 09:18:55.546424,-0.00040868920041241095
2023-01-28 09:18:55.551424,0.0014636655836961078
2023-01-28 09:18:55.556424,0.0035339593887328768
2023-01-28 09:18:55.561424,0.006369203079250468
2023-01-28 09:18:55.566424,0.010722081176936632
2023-01-28 09:18:55.571424,0.016417507634114818
2023-01-28 09:18:55.576424,0.023030837997794085
2023-01-28 09:18:55.581424,0.03085251572850973
2023-01-28 09:18:55.586424,0.04007558152079578
2023-01-28 09:18:55.591424,0.04976206580401997
2023-01-28 09:18:55.596424,0.058706998825073194
2023-01-28 09:18:55.601424,0.0666583745678619
2023-01-28 09:18:55.606424,0.07373233884572976
2023-01-28 09:18:55.611424,0.07949005494567773
2023-01-28 09:18:55.616424,0.08373320102691645
2023-01-28 09:18:55.621424,0.08742585819927304
2023-01-28 09:18:55.626424,0.09161850064992895
2023-01-28 09:18:55.631424,0.09605882795547505
2023-01-28 09:18:55.636424,0.09984036535024637
2023-01-28 09:18:55.641424,0.10260501975120503
2023-01-28 09:18:55.646424,0.10399937629699703
2023-01-28 09:18:55.651424,0.10278549091123731
2023-01-28 09:18:55.656424,0.09777288138866419
2023-01-28 09:18:55.661424,0.08904783152977408
2023-01-28 09:18:55.666424,0.0772662982344627
2023-01-28 09:18:55.671424,0.06255035287023794
2023-01-28 09:18:55.676424,0.045268338173627805
2023-01-28 09:18:55.681424,0.027131435996184734
2023-01-28 09:18:55.686424,0.010217229835688964
2023-01-28 09:18:55.691424,-0.004566570294327493
2023-01-28 09:18:55.696424,-0.017068784683942743
2023-01-28 09:18:55.701424,-0.026805573691062883
2023-01-28 09:18:55.706424,-0.03351251408457752
2023-01-28 09:18:55.711424,-0.03803184854217309
2023-01-28 09:18:55.716424,-0.041349731385707786
2023-01-28 09:18:55.721424,-0.04331951104068718
2023-01-28 09:18:55.726424,-0.04346529766917218
2023-01-28 09:18:55.731424,-0.0423811448492863
2023-01-28 09:18:55.736424,-0.04118144512176507
2023-01-28 09:18:55.741424,-0.040250999715625145
2023-01-28 09:18:55.746424,-0.039690934121608665
2023-01-28 09:18:55.751424,-0.04023307201709236
2023-01-28 09:18:55.756424,-0.04238347336649889
2023-01-28 09:18:55.761424,-0.0452355258842296
2023-01-28 09:18:55.766424,-0.04735986515879629
2023-01-28 09:18:55.771424,-0.04834318883028935
2023-01-28 09:18:55.776424,-0.04839360713958743
2023-01-28 09:18:55.781424,-0.04719275951902444
2023-01-28 09:18:55.786424,-0.04442691802978504
2023-01-28 09:18:55.791424,-0.04083104990423926
2023-01-28 09:18:55.796424,-0.03743112087249748
2023-01-28 09:18:55.801424,-0.0342805878312581
2023-01-28 09:18:55.806424,-0.03108441829681389
2023-01-28 09:18:55.811424,-0.028404234896551347
2023-01-28 09:18:55.816424,-0.026973485946655273
2023-01-28 09:18:55.821424,-0.026385802639401455
2023-01-28 09:18:55.826424,-0.025699337944388303
2023-01-28 09:18:55.831424,-0.024818164033764124
2023-01-28 09:18:55.836424,-0.02413670346140859
2023-01-28 09:18:55.841424,-0.023463362170878032
2023-01-28 09:18:55.846424,-0.022550027817487706
2023-01-28 09:18:55.851424,-0.022078049217238587
2023-01-28 09:18:55.856424,-0.022766392678022378
2023-01-28 09:18:55.861424,-0.023903729163573244
2023-01-28 09:18:55.866424,-0.02392033860087388
2023-01-28 09:18:55.871424,-0.021957193710448325
2023-01-28 09:18:55.876424,-0.017862122505903164
2023-01-28 09:18:55.881424,-0.011439543979677405
2023-01-28 09:18:55.886424,-0.003173351287841688
2023-01-28 09:18:55.891424,0.004732625013798634
2023-01-28 09:18:55.896424,0.009423892013728504
2023-01-28 09:18:55.901424,0.00940422804045023
2023-01-28 09:18:55.906424,0.00473598670214407
2023-01-28 09:18:55.911424,-0.003939420464698562
2023-01-28 09:18:55.916424,-0.01528978347778317
2023-01-28 09:18:55.921424,-0.02686375601559807
2023-01-28 09:18:55.926424,-0.03637333959341042
2023-01-28 09:18:55.931424,-0.0433978892833518
2023-01-28 09:18:55.936424,-0.04889845848083495
2023-01-28 09:18:55.941424,-0.053448953517556366
2023-01-28 09:18:55.946424,-0.056855879724025706
2023-01-28 09:18:55.951424,-0.05875600284180456
2023-01-28 09:18:55.956424,-0.05815406888723368
2023-01-28 09:18:55.961424,-0.05278006021527574
2023-01-28 09:18:55.966424,-0.04050831124186504
2023-01-28 09:18:55.971424,-0.021849829806776074
2023-01-28 09:18:55.976424,-0.0006971756811253395
2023-01-28 09:18:55.981424,0.016757757577406402
2023-01-28 09:18:55.986424,0.023247202858328774
2023-01-28 09:18:55.991424,0.012217298304642066
2023-01-28 09:18:55.996424,-0.018727581948041864
2023-01-28 09:18:56.001424,-0.06483155039849148
2023-01-28 09:18:56.006424,-0.11498590558767303
2023-01-28 09:18:56.011424,-0.15603855302753353
2023-01-28 09:18:56.016424,-0.1774432361125946
2023-01-28 09:18:56.021424,-0.1744766989017906
2023-01-28 09:18:56.026424,-0.14982065558433522
2023-01-28 09:18:56.031424,-0.11252114522738228
2023-01-28 09:18:56.036424,-0.07385253906249994
2023-01-28 09:18:56.041424,-0.04253472338292013
2023-01-28 09:18:56.046424,-0.022429823875427198
2023-01-28 09:18:56.051424,-0.012965992507926715
2023-01-28 09:18:56.056424,-0.010770162567496229
2023-01-28 09:18:56.061424,-0.011896217608878785
2023-01-28 09:18:56.066424,-0.013991594314575086
2023-01-28 09:18:56.071424,-0.016611325492529416
2023-01-28 09:18:56.076424,-0.01947283744812004
2023-01-28 09:18:56.081424,-0.02135198456148827
2023-01-28 09:18:56.086424,-0.021155675873160334
2023-01-28 09:18:56.091424,-0.01897287784237727
2023-01-28 09:18:56.096424,-0.015289783477783255
2023-01-28 09:18:56.101424,-0.010221062312396924
2023-01-28 09:18:56.106424,-0.004423459526151419
2023-01-28 09:18:56.111424,0.00030399073722966346
2023-01-28 09:18:56.116424,0.0025242567062376603
2023-01-28 09:18:56.121424,0.0026059577743534038
2023-01-28 09:18:56.126424,0.0018511216621844634
2023-01-28 09:18:56.131424,0.0010955023185597477
2023-01-28 09:18:56.136424,0.0010337432613595514
2023-01-28 09:18:56.141424,0.002771939764364423
2023-01-28 09:18:56.146424,0.006731351371854496
2023-01-28 09:18:56.151424,0.01173986850014819
2023-01-28 09:18:56.156424,0.016371607780456456
2023-01-28 09:18:56.161424,0.02057901637042816
2023-01-28 09:18:56.166424,0.025146406143903628
2023-01-28 09:18:56.171424,0.030467852281758676
2023-01-28 09:18:56.176424,0.03690223023295389
2023-01-28 09:18:56.181424,0.04531207574522101
2023-01-28 09:18:56.186424,0.05589425563812241
2023-01-28 09:18:56.191424,0.06713879743468355
2023-01-28 09:18:56.196424,0.07709801197051998
2023-01-28 09:18:56.201424,0.08507033573499655
2023-01-28 09:18:56.206424,0.09113769233226768
2023-01-28 09:18:56.211424,0.09502051983674753
2023-01-28 09:18:56.216424,0.09659489244222635
2023-01-28 09:18:56.221424,0.096669776694125
2023-01-28 09:18:56.226424,0.09592175483703608
2023-01-28 09:18:56.231424,0.09367711613055085
2023-01-28 09:18:56.236424,0.08885383605957026
2023-01-28 09:18:56.241424,0.0814086136495142
2023-01-28 09:18:56.246424,0.07183313369750968
2023-01-28 09:18:56.251424,0.06013395844922746
2023-01-28 09:18:56.256424,0.04656652733683576
2023-01-28 09:18:56.261424,0.03259272225095186
2023-01-28 09:18:56.266424,0.019809406250715218
2023-01-28 09:18:56.271424,0.008520432321969761
2023-01-28 09:18:56.276424,-0.001586675643920787
2023-01-28 09:18:56.281424,-0.010178918584092873
2023-01-28 09:18:56.286424,-0.016876459121704067
2023-01-28 09:18:56.291424,-0.022290116097699965
2023-01-28 09:18:56.296424,-0.027189850807189914
2023-01-28 09:18:56.301424,-0.03133887950986558
2023-01-28 09:18:56.306424,-0.03432989120483384
2023-01-28 09:18:56.311424,-0.036802173931163244
2023-01-28 09:18:56.316424,-0.03957073017954817
2023-01-28 09:18:56.321424,-0.04224951407888932
2023-01-28 09:18:56.326424,-0.043946109712123774
2023-01-28 09:18:56.331424,-0.044599849751273415
2023-01-28 09:18:56.336424,-0.0444509610533714
2023-01-28 09:18:56.341424,-0.04301025374774744
2023-01-28 09:18:56.346424,-0.03990729898214339
2023-01-28 09:18:56.351424,-0.036093144233939854
2023-01-28 09:18:56.356424,-0.032911501824855735
2023-01-28 09:18:56.361424,-0.0305780866676808
2023-01-28 09:18:56.366424,-0.02870440483093259
2023-01-28 09:18:56.371424,-0.027514808720434665
2023-01-28 09:18:56.376424,-0.027237933129072113
2023-01-28 09:18:56.381424,-0.027043641456467506
2023-01-28 09:18:56.386424,-0.025987824425101166
2023-01-28 09:18:56.391424,-0.024463421103113128
2023-01-28 09:18:56.396424,-0.02351164817810047
2023-01-28 09:18:56.401424,-0.023349555498257075
2023-01-28 09:18:56.406424,-0.023752054199576253
2023-01-28 09:18:56.411424,-0.025072351127656104
2023-01-28 09:18:56.416424,-0.027478337287902797
2023-01-28 09:18:56.421424,-0.029821443448191615
2023-01-28 09:18:56.426424,-0.030651688575744605
2023-01-28 09:18:56.431424,-0.029864615195855083
2023-01-28 09:18:56.436424,-0.028199553489685007
2023-01-28 09:18:56.441424,-0.02582881904082178
2023-01-28 09:18:56.446424,-0.022718310356140116
2023-01-28 09:18:56.451424,-0.0196387814205037
2023-01-28 09:18:56.456424,-0.017381310462951667
2023-01-28 09:18:56.461424,-0.01550337134848375
2023-01-28 09:18:56.466424,-0.013126134872436494
2023-01-28 09:18:56.471424,-0.01037231454538266
2023-01-28 09:18:56.476424,-0.0077650947496293934
2023-01-28 09:18:56.481424,-0.0049174519675033584
2023-01-28 09:18:56.486424,-0.0012501081218942336
2023-01-28 09:18:56.491424,0.0025086636678518844
2023-01-28 09:18:56.496424,0.004832148551940851
2023-01-28 09:18:56.501424,0.004855349083879715
2023-01-28 09:18:56.506424,0.0021636486053466107
2023-01-28 09:18:56.511424,-0.004037068856593521
2023-01-28 09:18:56.516424,-0.013967554084956584
2023-01-28 09:18:56.521424,-0.025957139084311947
2023-01-28 09:18:56.526424,-0.03747920319437975
2023-01-28 09:18:56.531424,-0.04714953751046354
2023-01-28 09:18:56.536424,-0.05462010949850081
2023-01-28 09:18:56.541424,-0.05925653051750297
2023-01-28 09:18:56.546424,-0.06036579608917229
2023-01-28 09:18:56.551424,-0.058140271731153735
2023-01-28 09:18:56.556424,-0.05284110829234118
2023-01-28 09:18:56.561424,-0.0434117748942272
2023-01-28 09:18:56.566424,-0.02834379673004153
2023-01-28 09:18:56.571424,-0.007839508648254528
2023-01-28 09:18:56.576424,0.015626352280378255
2023-01-28 09:18:56.581424,0.03793621917555734
2023-01-28 09:18:56.586424,0.05317767709493622
2023-01-28 09:18:56.591424,0.05404712090122922
2023-01-28 09:18:56.596424,0.03514727205038073
2023-01-28 09:18:56.601424,-0.0028701188240553865
2023-01-28 09:18:56.606424,-0.05250453948974599
2023-01-28 09:18:56.611424,-0.10216236596256219
2023-01-28 09:18:56.616424,-0.13965150713920588
2023-01-28 09:18:56.621424,-0.15564285009982456
2023-01-28 09:18:56.626424,-0.1474406421184538
2023-01-28 09:18:56.631424,-0.12061134051102881
2023-01-28 09:18:56.636424,-0.0858247280120849
2023-01-28 09:18:56.641424,-0.05321538520625285
2023-01-28 09:18:56.646424,-0.029016932472586545
2023-01-28 09:18:56.651424,-0.015311386191507504
2023-01-28 09:18:56.656424,-0.010553797706961698
2023-01-28 09:18:56.661424,-0.010539789796267327
2023-01-28 09:18:56.666424,-0.010914405807852702
2023-01-28 09:18:56.671424,-0.009643873963988862
2023-01-28 09:18:56.676424,-0.006851553916931114
2023-01-28 09:18:56.681424,-0.0030311449686025514
2023-01-28 09:18:56.686424,0.0014183919411151914
2023-01-28 09:18:56.691424,0.005513614302272948
2023-01-28 09:18:56.696424,0.00810166262090198
2023-01-28 09:18:56.701424,0.009013142459606546
2023-01-28 09:18:56.706424,0.00889500044286252
2023-01-28 09:18:56.711424,0.008166799835007647
2023-01-28 09:18:56.716424,0.007043878547847223
2023-01-28 09:18:56.721424,0.006188648063178713
2023-01-28 09:18:56.726424,0.006322662346064997
2023-01-28 09:18:56.731424,0.007462913765251815
2023-01-28 09:18:56.736424,0.009327730163931828
2023-01-28 09:18:56.741424,0.012008309644693028
2023-01-28 09:18:56.746424,0.015409986488520998
2023-01-28 09:18:56.751424,0.018652112496747978
2023-01-28 09:18:56.756424,0.02101143263280387
2023-01-28 09:18:56.761424,0.02296163598274768
2023-01-28 09:18:56.766424,0.025434892624616557
2023-01-28 09:18:56.771424,0.0287154399243513
2023-01-28 09:18:56.776424,0.032959580421447705
2023-01-28 09:18:56.781424,0.03900714299740141
2023-01-28 09:18:56.786424,0.047528147697448654
2023-01-28 09:18:56.791424,0.05793014444588163
2023-01-28 09:18:56.796424,0.06906847655773159
2023-01-28 09:18:56.801424,0.08032156606666378
2023-01-28 09:18:56.806424,0.09094536304473866
2023-01-28 09:18:56.811424,0.09919013648879002
2023-01-28 09:18:56.816424,0.10335028171539293
2023-01-28 09:18:56.821424,0.10322840602942826
2023-01-28 09:18:56.826424,0.09964804351329792
2023-01-28 09:18:56.831424,0.09329417207715279
2023-01-28 09:18:56.836424,0.08507947623729697
2023-01-28 09:18:56.841424,0.07672333089207754
2023-01-28 09:18:56.846424,0.06950120627880088
2023-01-28 09:18:56.851424,0.06282600198382668
2023-01-28 09:18:56.856424,0.05510091781616209
2023-01-28 09:18:56.861424,0.04540397778157603
2023-01-28 09:18:56.866424,0.033488474786281516
2023-01-28 09:18:56.871424,0.0192071261572187
2023-01-28 09:18:56.876424,0.003413756843656313
2023-01-28 09:18:56.881424,-0.011193451349234865
2023-01-28 09:18:56.886424,-0.021540325134992485
2023-01-28 09:18:56.891424,-0.02625790253781914
2023-01-28 09:18:56.896424,-0.0256512574851512
2023-01-28 09:18:56.901424,-0.020687555557997228
2023-01-28 09:18:56.906424,-0.013294419273733989
2023-01-28 09:18:56.911424,-0.006695536903251902
2023-01-28 09:18:56.916424,-0.0037262837868182715
2023-01-28 09:18:56.921424,-0.0049565136571786085
2023-01-28 09:18:56.926424,-0.009303689002990723
2023-01-28 09:18:56.931424,-0.01568698598491777
2023-01-28 09:18:56.936424,-0.023006796836852993
2023-01-28 09:18:56.941424,-0.029532847895571868
2023-01-28 09:18:56.946424,-0.03392120450735091
2023-01-28 09:18:56.951424,-0.036374216840883586
2023-01-28 09:18:56.956424,-0.03759940713644018
2023-01-28 09:18:56.961424,-0.03726142305108544
2023-01-28 09:18:56.966424,-0.03464242070913311
2023-01-28 09:18:56.971424,-0.030073347799017398
2023-01-28 09:18:56.976424,-0.024425189942121485
2023-01-28 09:18:56.981424,-0.017934652268095826
2023-01-28 09:18:56.986424,-0.010890364646911583
2023-01-28 09:18:56.991424,-0.004767466937438065
2023-01-28 09:18:56.996424,-0.0012260675430296904
2023-01-28 09:18:57.001424,-0.00045405148398691605
2023-01-28 09:18:57.006424,-0.0016347568016499186
2023-01-28 09:18:57.011424,-0.0042914487000133665
2023-01-28 09:18:57.016424,-0.007885297760367328
2023-01-28 09:18:57.021424,-0.010935409925883224
2023-01-28 09:18:57.026424,-0.012140473350882492
2023-01-28 09:18:57.031424,-0.01193698329147812
2023-01-28 09:18:57.036424,-0.011683702468871956
2023-01-28 09:18:57.041424,-0.01187633292473167
2023-01-28 09:18:57.046424,-0.012332797050476012
2023-01-28 09:18:57.051424,-0.013287586178913012
2023-01-28 09:18:57.056424,-0.014808973297476687
2023-01-28 09:18:57.061424,-0.015791329464062247
2023-01-28 09:18:57.066424,-0.015049378387629882
2023-01-28 09:18:57.071424,-0.01297467536413399
2023-01-28 09:18:57.076424,-0.010866324417292964
2023-01-28 09:18:57.081424,-0.009261251683167892
2023-01-28 09:18:57.086424,-0.008197824470698788
2023-01-28 09:18:57.091424,-0.008312151373589545
2023-01-28 09:18:57.096424,-0.010072986595332654
2023-01-28 09:18:57.101424,-0.0124153972765201
2023-01-28 09:18:57.106424,-0.0135348243638873
2023-01-28 09:18:57.111424,-0.01257057416800255
2023-01-28 09:18:57.116424,-0.009351770393550311
2023-01-28 09:18:57.121424,-0.0033807712223775347
2023-01-28 09:18:57.126424,0.005264878273010164
2023-01-28 09:18:57.131424,0.014522145388000939
2023-01-28 09:18:57.136424,0.021372040733694964
2023-01-28 09:18:57.141424,0.024011619714822473
2023-01-28 09:18:57.146424,0.022021135315299024
2023-01-28 09:18:57.151424,0.01535403336847835
2023-01-28 09:18:57.156424,0.004784067627042484
2023-01-28 09:18:57.161424,-0.007306277016771333
2023-01-28 09:18:57.166424,-0.018318891525268464
2023-01-28 09:18:57.171424,-0.027411768444530783
2023-01-28 09:18:57.176424,-0.034930907189846004
2023-01-28 09:18:57.181424,-0.04056871601429359
2023-01-28 09:18:57.186424,-0.04346529766917217
2023-01-28 09:18:57.191424,-0.04336889630151393
2023-01-28 09:18:57.196424,-0.04002749919891347
2023-01-28 09:18:57.201424,-0.031949851834554656
2023-01-28 09:18:57.206424,-0.017501514405012106
2023-01-28 09:18:57.211424,0.0027809483569045546
2023-01-28 09:18:57.216424,0.025819540023803673
2023-01-28 09:18:57.221424,0.046981738783522374
2023-01-28 09:18:57.226424,0.060101352632045725
2023-01-28 09:18:57.231424,0.05795454245685448
2023-01-28 09:18:57.236424,0.03574828431010236
2023-01-28 09:18:57.241424,-0.004720158072219822
2023-01-28 09:18:57.246424,-0.05481243133544918
2023-01-28 09:18:57.251424,-0.10256828807588264
2023-01-28 09:18:57.256424,-0.1364541053771972
2023-01-28 09:18:57.261424,-0.14848695330862213
2023-01-28 09:18:57.266424,-0.13751189410686487
2023-01-28 09:18:57.271424,-0.11029290276334905
2023-01-28 09:18:57.276424,-0.07772307097911829
2023-01-28 09:18:57.281424,-0.0489267120650693
2023-01-28 09:18:57.286424,-0.0284640006721019
2023-01-28 09:18:57.291424,-0.01699813966908569
2023-01-28 09:18:57.296424,-0.012260675430297815
2023-01-28 09:18:57.301424,-0.01003271207754701
2023-01-28 09:18:57.306424,-0.006731351371854488
2023-01-28 09:18:57.311424,-0.0017726638253947882
2023-01-28 09:18:57.316424,0.003341635223478023
2023-01-28 09:18:57.321424,0.0075968745853510445
2023-01-28 09:18:57.326424,0.010842284187674451
2023-01-28 09:18:57.331424,0.012549456639508433
2023-01-28 09:18:57.336424,0.012188553810119566
2023-01-28 09:18:57.341424,0.010576587861946993
2023-01-28 09:18:57.346424,0.009207527153193892
2023-01-28 09:18:57.351424,0.008514319112604878
2023-01-28 09:18:57.356424,0.008245905861258509
2023-01-28 09:18:57.361424,0.009000025467329264
2023-01-28 09:18:57.366424,0.011611580848693777
2023-01-28 09:18:57.371424,0.015374087915266822
2023-01-28 09:18:57.376424,0.018607378005981404
2023-01-28 09:18:57.381424,0.020733825992690906
2023-01-28 09:18:57.386424,0.02221345901489249
2023-01-28 09:18:57.391424,0.022944193261790834
2023-01-28 09:18:57.396424,0.022670229896903028
2023-01-28 09:18:57.401424,0.022673581601345336
2023-01-28 09:18:57.406424,0.024954080581664963
2023-01-28 09:18:57.411424,0.029632781062397848
2023-01-28 09:18:57.416424,0.03502706810832017
2023-01-28 09:18:57.421424,0.040416360260992726
2023-01-28 09:18:57.426424,0.04687905311584467
2023-01-28 09:18:57.431424,0.05511580752057135
2023-01-28 09:18:57.436424,0.06423632800579065
2023-01-28 09:18:57.441424,0.07320722547580337
2023-01-28 09:18:57.446424,0.08195420354604713
2023-01-28 09:18:57.451424,0.09040726428880043
2023-01-28 09:18:57.456424,0.09765267372131332
2023-01-28 09:18:57.461424,0.10255242805494492
2023-01-28 09:18:57.466424,0.10428786277770985
2023-01-28 09:18:57.471424,0.10209785550589258
2023-01-28 09:18:57.476424,0.09553711116313929
2023-01-28 09:18:57.481424,0.08530780844682986
2023-01-28 09:18:57.486424,0.07303516566753383
2023-01-28 09:18:57.491424,0.06008675822880476
2023-01-28 09:18:57.496424,0.04723966121673577
2023-01-28 09:18:57.501424,0.03521026458444474
2023-01-28 09:18:57.506424,0.024521350860595675
2023-01-28 09:18:57.511424,0.015007392597938027
2023-01-28 09:18:57.516424,0.006418824195861785
2023-01-28 09:18:57.521424,-0.0006456669873133905
2023-01-28 09:18:57.526424,-0.005336999893188391
2023-01-28 09:18:57.531424,-0.007882403265986625
2023-01-28 09:18:57.536424,-0.009447932243347161
2023-01-28 09:18:57.541424,-0.010994198415436227
2023-01-28 09:18:57.546424,-0.013126134872436494
2023-01-28 09:18:57.551424,-0.016530522974652347
2023-01-28 09:18:57.556424,-0.0213479995727539
2023-01-28 09:18:57.561424,-0.026359950368453684
2023-01-28 09:18:57.566424,-0.029882391914725293
2023-01-28 09:18:57.571424,-0.03130949884538082
2023-01-28 09:18:57.576424,-0.031012296676635714
2023-01-28 09:18:57.581424,-0.029312762244529476
2023-01-28 09:18:57.586424,-0.026660960167646408
2023-01-28 09:18:57.591424,-0.0242844150203093
2023-01-28 09:18:57.596424,-0.023343365639448086
2023-01-28 09:18:57.601424,-0.02362675195507657
2023-01-28 09:18:57.606424,-0.024040540680289182
2023-01-28 09:18:57.611424,-0.02396553289635536
2023-01-28 09:18:57.616424,-0.02317508123815056
2023-01-28 09:18:57.621424,-0.021083243730123748
2023-01-28 09:18:57.626424,-0.01740535162389267
2023-01-28 09:18:57.631424,-0.013192709515576306
2023-01-28 09:18:57.636424,-0.0100008649751543
2023-01-28 09:18:57.641424,-0.008319364131630562
2023-01-28 09:18:57.646424,-0.007789134979248029
2023-01-28 09:18:57.651424,-0.008368681532495181
2023-01-28 09:18:57.656424,-0.010072986595332628
2023-01-28 09:18:57.661424,-0.012099375952053478
2023-01-28 09:18:57.666424,-0.01353482436388731
2023-01-28 09:18:57.671424,-0.014574517030640633
2023-01-28 09:18:57.676424,-0.01589079760015007
2023-01-28 09:18:57.681424,-0.017262641411916215
2023-01-28 09:18:57.686424,-0.01800636574625958
2023-01-28 09:18:57.691424,-0.01824804828349521
2023-01-28 09:18:57.696424,-0.01853525638580321
2023-01-28 09:18:57.701424,-0.018701909219988017
2023-01-28 09:18:57.706424,-0.01839101314544669
2023-01-28 09:18:57.711424,-0.018197991284879554
2023-01-28 09:18:57.716424,-0.018967986106872507
2023-01-28 09:18:57.721424,-0.02037238019570323
2023-01-28 09:18:57.726424,-0.021420121192932115
2023-01-28 09:18:57.731424,-0.021911405605329826
2023-01-28 09:18:57.736424,-0.022165378555655414
2023-01-28 09:18:57.741424,-0.02189350611897636
2023-01-28 09:18:57.746424,-0.020722946152091023
2023-01-28 09:18:57.751424,-0.019341668561383918
2023-01-28 09:18:57.756424,-0.01870354078710072
2023-01-28 09:18:57.761424,-0.018453798724316867
2023-01-28 09:18:57.766424,-0.017405351623892704
2023-01-28 09:18:57.771424,-0.015117021954124272
2023-01-28 09:18:57.776424,-0.011755824089050236
2023-01-28 09:18:57.781424,-0.007031421216612908
2023-01-28 09:18:57.786424,-0.0007933378219603781
2023-01-28 09:18:57.791424,0.005700578281112827
2023-01-28 09:18:57.796424,0.010529756546020496
2023-01-28 09:18:57.801424,0.01280406298446675
2023-01-28 09:18:57.806424,0.012428959831595435
2023-01-28 09:18:57.811424,0.008854141333780489
2023-01-28 09:18:57.816424,0.0016347568016498997
2023-01-28 09:18:57.821424,-0.00812178766193971
2023-01-28 09:18:57.826424,-0.01831889152526846
2023-01-28 09:18:57.831424,-0.02759013486016974
2023-01-28 09:18:57.836424,-0.03526747226715078
2023-01-28 09:18:57.841424,-0.040329275281950704
2023-01-28 09:18:57.846424,-0.042022865265607834
2023-01-28 09:18:57.851424,-0.04115352107648528
2023-01-28 09:18:57.856424,-0.039113961160182925
2023-01-28 09:18:57.861424,-0.03570147941421257
2023-01-28 09:18:57.866424,-0.029113095253705902
2023-01-28 09:18:57.871424,-0.017813980558239066
2023-01-28 09:18:57.876424,-0.0014664729824289064
2023-01-28 09:18:57.881424,0.018847570303488683
2023-01-28 09:18:57.886424,0.03923416137695304
2023-01-28 09:18:57.891424,0.052167931223470264
2023-01-28 09:18:57.896424,0.04940330982208242
2023-01-28 09:18:57.901424,0.026971745710240726
2023-01-28 09:18:57.906424,-0.012404918670654195
2023-01-28 09:18:57.911424,-0.06041726585250627
2023-01-28 09:18:57.916424,-0.10541777312755576
2023-01-28 09:18:57.921424,-0.13553198348544804
2023-01-28 09:18:57.926424,-0.14342586696147905
2023-01-28 09:18:57.931424,-0.12989247168271661
2023-01-28 09:18:57.936424,-0.10243674367666239
2023-01-28 09:18:57.941424,-0.07041057223351731
2023-01-28 09:18:57.946424,-0.04156609624624247
2023-01-28 09:18:57.951424,-0.021054702176555123
2023-01-28 09:18:57.956424,-0.010577837936580129
2023-01-28 09:18:57.961424,-0.007978034679847893
2023-01-28 09:18:57.966424,-0.00927964877337214
2023-01-28 09:18:57.971424,-0.011565233831670772
2023-01-28 09:18:57.976424,-0.01329441927373404
2023-01-28 09:18:57.981424,-0.012972381680397159
2023-01-28 09:18:57.986424,-0.009568135254085001
2023-01-28 09:18:57.991424,-0.004021938148058662
2023-01-28 09:18:57.996424,0.0014424324035644152
2023-01-28 09:18:58.001424,0.005507440173625885
2023-01-28 09:18:58.006424,0.008029541000723815
2023-01-28 09:18:58.011424,0.008803046081980065
2023-01-28 09:18:58.016424,0.007909337989985887
2023-01-28 09:18:58.021424,0.006926261870361213
2023-01-28 09:18:58.026424,0.007837216369807706
2023-01-28 09:18:58.031424,0.01074692689628532
2023-01-28 09:18:58.036424,0.014207959175109773
2023-01-28 09:18:58.041424,0.01739625103429155
2023-01-28 09:18:58.046424,0.020170014351606317
2023-01-28 09:18:58.051424,0.021529016934521777
2023-01-28 09:18:58.056424,0.020386379212140995
2023-01-28 09:18:58.061424,0.017877595080425638
2023-01-28 09:18:58.066424,0.016636054962873396
2023-01-28 09:18:58.071424,0.017565181392304324
2023-01-28 09:18:58.076424,0.019569000229239332
2023-01-28 09:18:58.081424,0.0228047898701948
2023-01-28 09:18:58.086424,0.029641985893249425
2023-01-28 09:18:58.091424,0.04123050415594426
2023-01-28 09:18:58.096424,0.055076878517866
2023-01-28 09:18:58.101424,0.06745057282515099
2023-01-28 09:18:58.106424,0.07692973315715776
2023-01-28 09:18:58.111424,0.08441794196787171
2023-01-28 09:18:58.116424,0.09075304120779022
2023-01-28 09:18:58.121424,0.09552547226801103
2023-01-28 09:18:58.126424,0.09767671674489964
2023-01-28 09:18:58.131424,0.09637233415364964
2023-01-28 09:18:58.136424,0.09159445762634269
2023-01-28 09:18:58.141424,0.08433877006135061
2023-01-28 09:18:58.146424,0.07594406604766837
2023-01-28 09:18:58.151424,0.06709413076184337
2023-01-28 09:18:58.156424,0.05779346078634257
2023-01-28 09:18:58.161424,0.04805089624253319
2023-01-28 09:18:58.166424,0.03788789361715307
2023-01-28 09:18:58.171424,0.026941701378531073
2023-01-28 09:18:58.176424,0.015001296997070274
2023-01-28 09:18:58.181424,0.0028868103403039847
2023-01-28 09:18:58.186424,-0.008005499839782656
2023-01-28 09:18:58.191424,-0.016909481260744926
2023-01-28 09:18:58.196424,-0.023703973740339182
2023-01-28 09:18:58.201424,-0.028080941123865243
2023-01-28 09:18:58.206424,-0.02971410751342774
2023-01-28 09:18:58.211424,-0.02909168039706847
2023-01-28 09:18:58.216424,-0.027261972427368112
2023-01-28 09:18:58.221424,-0.02494860960421391
2023-01-28 09:18:58.226424,-0.022766392678022287
2023-01-28 09:18:58.231424,-0.021889550434961668
2023-01-28 09:18:58.236424,-0.023319324478507014
2023-01-28 09:18:58.241424,-0.026578332508639394
2023-01-28 09:18:58.246424,-0.03007471561431882
2023-01-28 09:18:58.251424,-0.03260313548141207
2023-01-28 09:18:58.256424,-0.03372887894511223
2023-01-28 09:18:58.261424,-0.03326194600944898
2023-01-28 09:18:58.266424,-0.0315652303397655
2023-01-28 09:18:58.271424,-0.03005987762150239
2023-01-28 09:18:58.276424,-0.030146837234496956
2023-01-28 09:18:58.281424,-0.03163154715969962
2023-01-28 09:18:58.286424,-0.03307978436350819
2023-01-28 09:18:58.291424,-0.03341830992000882
2023-01-28 09:18:58.296424,-0.032286446541547706
2023-01-28 09:18:58.301424,-0.029397659101837566
2023-01-28 09:18:58.306424,-0.024881958961486792
2023-01-28 09:18:58.311424,-0.020006102529251644
2023-01-28 09:18:58.316424,-0.016323527321219396
2023-01-28 09:18:58.321424,-0.01421650004173588
2023-01-28 09:18:58.326424,-0.013198256492614734
2023-01-28 09:18:58.331424,-0.013198674817514397
2023-01-28 09:18:58.336424,-0.014376243576407453
2023-01-28 09:18:58.341424,-0.01605459514478455
2023-01-28 09:18:58.346424,-0.017140906304121028
2023-01-28 09:18:58.351424,-0.017422372481364266
2023-01-28 09:18:58.356424,-0.017405351623892697
2023-01-28 09:18:58.361424,-0.01727563537816443
2023-01-28 09:18:58.366424,-0.017188986763358127
2023-01-28 09:18:58.371424,-0.018128728617349738
2023-01-28 09:18:58.376424,-0.021059513092041033
2023-01-28 09:18:58.381424,-0.025366315334171146
2023-01-28 09:18:58.386424,-0.029281377792358274
2023-01-28 09:18:58.391424,-0.03163800687962554
2023-01-28 09:18:58.396424,-0.03221432492136943
2023-01-28 09:18:58.401424,-0.030938606480448078
2023-01-28 09:18:58.406424,-0.028175514191389035
2023-01-28 09:18:58.411424,-0.025458921360383243
2023-01-28 09:18:58.416424,-0.02444922924041742
2023-01-28 09:18:58.421424,-0.02512631826268101
2023-01-28 09:18:58.426424,-0.025987824425101166
2023-01-28 09:18:58.431424,-0.025650963614244546
2023-01-28 09:18:58.436424,-0.02317508123815055
2023-01-28 09:18:58.441424,-0.01749366507693919
2023-01-28 09:18:58.446424,-0.008245905861258496
2023-01-28 09:18:58.451424,0.002830535109146789
2023-01-28 09:18:58.456424,0.012597243301570311
2023-01-28 09:18:58.461424,0.01857732936468923
2023-01-28 09:18:58.466424,0.01952091977000226
2023-01-28 09:18:58.471424,0.01474860769037412
2023-01-28 09:18:58.476424,0.004615783691406201
2023-01-28 09:18:58.481424,-0.00857229649961766
2023-01-28 09:18:58.486424,-0.021636486053466738
2023-01-28 09:18:58.491424,-0.03264208883470991
2023-01-28 09:18:58.496424,-0.04108528420329092
2023-01-28 09:18:58.501424,-0.04660336566511567
2023-01-28 09:18:58.506424,-0.04897058010101313
2023-01-28 09:18:58.511424,-0.04900645550426615
2023-01-28 09:18:58.516424,-0.047864716500043814
2023-01-28 09:18:58.521424,-0.04532432742604902
2023-01-28 09:18:58.526424,-0.03985921666026108
2023-01-28 09:18:58.531424,-0.030144785849591443
2023-01-28 09:18:58.536424,-0.015530189499258957
2023-01-28 09:18:58.541424,0.004018101922862748
2023-01-28 09:18:58.546424,0.026324391365051183
2023-01-28 09:18:58.551424,0.04522419371634364
2023-01-28 09:18:58.556424,0.05211989209055896
2023-01-28 09:18:58.561424,0.04034733639365695
2023-01-28 09:18:58.566424,0.008486310951411667
2023-01-28 09:18:58.571424,-0.0387525228002346
2023-01-28 09:18:58.576424,-0.090921327471733
2023-01-28 09:18:58.581424,-0.13423139542838017
2023-01-28 09:18:58.586424,-0.15712897479534135
2023-01-28 09:18:58.591424,-0.1559134357880094
2023-01-28 09:18:58.596424,-0.13546845316886894
2023-01-28 09:18:58.601424,-0.10522720612213318
2023-01-28 09:18:58.606424,-0.0747420415282249
2023-01-28 09:18:58.611424,-0.050892634611692904
2023-01-28 09:18:58.616424,-0.035916566848754786
2023-01-28 09:18:58.621424,-0.027164223492498005
2023-01-28 09:18:58.626424,-0.020194053649902323
2023-01-28 09:18:58.631424,-0.012798713810555914
2023-01-28 09:18:58.636424,-0.005721648689359379
2023-01-28 09:18:58.641424,-0.00042635315611986376
2023-01-28 09:18:58.646424,0.002259810920804689
2023-01-28 09:18:58.651424,0.0019239547278035237
2023-01-28 09:18:58.656424,-0.000985662220045943
2023-01-28 09:18:58.661424,-0.004412229691863437
2023-01-28 09:18:58.666424,-0.0059620542451739094
2023-01-28 09:18:58.671424,-0.005076054668807287
2023-01-28 09:18:58.676424,-0.00283678388223053
2023-01-28 09:18:58.681424,-2.4118059983948115e-05
2023-01-28 09:18:58.686424,0.0031973919831216097
2023-01-28 09:18:58.691424,0.006112248292690495
2023-01-28 09:18:58.696424,0.007765094749629358
2023-01-28 09:18:58.701424,0.008384341797450947
2023-01-28 09:18:58.706424,0.008991162292659187
2023-01-28 09:18:58.711424,0.009773033640194575
2023-01-28 09:18:58.716424,0.010361473076045475
2023-01-28 09:18:58.721424,0.01143624694001872
2023-01-28 09:18:58.726424,0.01435220241546627
2023-01-28 09:18:58.731424,0.019303650322645003
2023-01-28 09:18:58.736424,0.025458931922912483
2023-01-28 09:18:58.741424,0.03267008902949105
2023-01-28 09:18:58.746424,0.041325688362121436
2023-01-28 09:18:58.751424,0.05076242007795266
2023-01-28 09:18:58.756424,0.05971670150756827
2023-01-28 09:18:58.761424,0.06823548436859672
2023-01-28 09:18:58.766424,0.07721821963787066
2023-01-28 09:18:58.771424,0.08613253226168908
2023-01-28 09:18:58.776424,0.09318113327026353
2023-01-28 09:18:58.781424,0.0977142017571379
2023-01-28 09:18:58.786424,0.10034521669149389
2023-01-28 09:18:58.791424,0.10062091238642881
2023-01-28 09:18:58.796424,0.09702762216329563
2023-01-28 09:18:58.801424,0.08986466701286978
2023-01-28 09:18:58.806424,0.08176188170909877
2023-01-28 09:18:58.811424,0.07439132378861459
2023-01-28 09:18:58.816424,0.06666442006826395
2023-01-28 09:18:58.821424,0.05718636800897567
2023-01-28 09:18:58.826424,0.046566527336835764
2023-01-28 09:18:58.831424,0.036019817398464
2023-01-28 09:18:58.836424,0.025314688682556114
2023-01-28 09:18:58.841424,0.013599485929844958
2023-01-28 09:18:58.846424,0.0011779865017159754
2023-01-28 09:18:58.851424,-0.010797350000104861
2023-01-28 09:18:58.856424,-0.021564364433288494
2023-01-28 09:18:58.861424,-0.030678899801794116
2023-01-28 09:18:58.866424,-0.03750324249267572
2023-01-28 09:18:58.871424,-0.04174623146627507
2023-01-28 09:18:58.876424,-0.0439941883087158
2023-01-28 09:18:58.881424,-0.04504846294082234
2023-01-28 09:18:58.886424,-0.04524429887533184
2023-01-28 09:18:58.891424,-0.04480994870519669
2023-01-28 09:18:58.896424,-0.04418651387095455
2023-01-28 09:18:58.901424,-0.04355693981824873
2023-01-28 09:18:58.906424,-0.04272004216909399
2023-01-28 09:18:58.911424,-0.041775100692688256
2023-01-28 09:18:58.916424,-0.041253566741943325
2023-01-28 09:18:58.921424,-0.04128489054330406
2023-01-28 09:18:58.926424,-0.04130164906382558
2023-01-28 09:18:58.931424,-0.04077284448967673
2023-01-28 09:18:58.936424,-0.03954669088125225
2023-01-28 09:18:58.941424,-0.03740263562440257
2023-01-28 09:18:58.946424,-0.034137569367885486
2023-01-28 09:18:58.951424,-0.030297788118786126
2023-01-28 09:18:58.956424,-0.0270215682685375
2023-01-28 09:18:58.961424,-0.024944114677017702
2023-01-28 09:18:58.966424,-0.02392033860087391
2023-01-28 09:18:58.971424,-0.023795030610400742
2023-01-28 09:18:58.976424,-0.02456943318247793
2023-01-28 09:18:58.981424,-0.025781318725741582
2023-01-28 09:18:58.986424,-0.026684999465942306
2023-01-28 09:18:58.991424,-0.027225151346396803
2023-01-28 09:18:58.996424,-0.028031270951032628
2023-01-28 09:18:59.001424,-0.02938335517513434
2023-01-28 09:18:59.006424,-0.030988257378339715
2023-01-28 09:18:59.011424,-0.032732782108123956
2023-01-28 09:18:59.016424,-0.03471454232931133
2023-01-28 09:18:59.021424,-0.036512137517784975
2023-01-28 09:18:59.026424,-0.037407081574201535
2023-01-28 09:18:59.031424,-0.03744190793953842
2023-01-28 09:18:59.036424,-0.037383042275905616
2023-01-28 09:18:59.041424,-0.037583816856880115
2023-01-28 09:18:59.046424,-0.03771960735321043
2023-01-28 09:18:59.051424,-0.0375503577680106
2023-01-28 09:18:59.056424,-0.036926269531250056
2023-01-28 09:18:59.061424,-0.03503623570211765
2023-01-28 09:18:59.066424,-0.030723810195922813
2023-01-28 09:18:59.071424,-0.023759768395766323
2023-01-28 09:18:59.076424,-0.015049378387629934
2023-01-28 09:18:59.081424,-0.005712050354942187
2023-01-28 09:18:59.086424,0.0030531487427650555
2023-01-28 09:18:59.091424,0.009320746076970315
2023-01-28 09:18:59.096424,0.010938446037471183
2023-01-28 09:18:59.101424,0.007061263980159621
2023-01-28 09:18:59.106424,-0.0014664729824288992
2023-01-28 09:18:59.111424,-0.01310399157388458
2023-01-28 09:18:59.116424,-0.02605994604527948
2023-01-28 09:18:59.121424,-0.03802688476667017
2023-01-28 09:18:59.126424,-0.046903096139430896
2023-01-28 09:18:59.131424,-0.052205922317229425
2023-01-28 09:18:59.136424,-0.054980717599391896
2023-01-28 09:18:59.141424,-0.05623615714903469
2023-01-28 09:18:59.146424,-0.05620678514242168
2023-01-28 09:18:59.151424,-0.05479888863339621
2023-01-28 09:18:59.156424,-0.0513986758887767
2023-01-28 09:18:59.161424,-0.04413732797589478
2023-01-28 09:18:59.166424,-0.030771892517805013
2023-01-28 09:18:59.171424,-0.011133804094737059
2023-01-28 09:18:59.176424,0.011491378769278478
2023-01-28 09:18:59.181424,0.031039554844882526
2023-01-28 09:18:59.186424,0.04000345990061744
2023-01-28 09:18:59.191424,0.031236865444990707
2023-01-28 09:18:59.196424,0.001322229742072513
2023-01-28 09:18:59.201424,-0.04596261058210238
2023-01-28 09:18:59.206424,-0.09969612210988993
2023-01-28 09:18:59.211424,-0.14606430808360213
2023-01-28 09:18:59.216424,-0.17357270419597617
2023-01-28 09:18:59.221424,-0.17659454651960746
2023-01-28 09:18:59.226424,-0.15705685317516316
2023-01-28 09:18:59.231424,-0.12374865830838563
2023-01-28 09:18:59.236424,-0.08827686309814449
2023-01-28 09:18:59.241424,-0.05956707062653696
2023-01-28 09:18:59.246424,-0.04101316258311269
2023-01-28 09:18:59.251424,-0.031516743118652255
2023-01-28 09:18:59.256424,-0.027814906090497932
2023-01-28 09:18:59.261424,-0.02616900125839246
2023-01-28 09:18:59.266424,-0.02392033860087392
2023-01-28 09:18:59.271424,-0.020741400269386177
2023-01-28 09:18:59.276424,-0.018030405044555584
2023-01-28 09:18:59.281424,-0.016853211084597707
2023-01-28 09:18:59.286424,-0.017020702362060523
2023-01-28 09:18:59.291424,-0.017963292661516972
2023-01-28 09:18:59.296424,-0.01930455490946761
2023-01-28 09:18:59.301424,-0.020311787027023867
2023-01-28 09:18:59.306424,-0.019905567169189415
2023-01-28 09:18:59.311424,-0.01775930946060781
2023-01-28 09:18:59.316424,-0.01466473005712031
2023-01-28 09:18:59.321424,-0.011509786202850866
2023-01-28 09:18:59.326424,-0.008630554191768133
2023-01-28 09:18:59.331424,-0.006307264879292866
2023-01-28 09:18:59.336424,-0.004880229942500504
2023-01-28 09:18:59.341424,-0.003914618293043917
2023-01-28 09:18:59.346424,-0.002067486522719226
2023-01-28 09:18:59.351424,0.001703474929038516
2023-01-28 09:18:59.356424,0.0073564052581786684
2023-01-28 09:18:59.361424,0.014398080656794219
2023-01-28 09:18:59.366424,0.022501945495605313
2023-01-28 09:18:59.371424,0.031139920366155406
2023-01-28 09:18:59.376424,0.03942648693919174
2023-01-28 09:18:59.381424,0.046929129271905186
2023-01-28 09:18:59.386424,0.054091215133666846
2023-01-28 09:18:59.391424,0.0613520053431453
2023-01-28 09:18:59.396424,0.06832321733236305
2023-01-28 09:18:59.401424,0.0742794118324544
2023-01-28 09:18:59.406424,0.07897317409515373
2023-01-28 09:18:59.411424,0.08246139974214953
2023-01-28 09:18:59.416424,0.0845746248960493
2023-01-28 09:18:59.421424,0.08518167326531624
2023-01-28 09:18:59.426424,0.08467078208923322
2023-01-28 09:18:59.431424,0.08341446090656525
2023-01-28 09:18:59.436424,0.08075217902660353
2023-01-28 09:18:59.441424,0.07519670176170218
2023-01-28 09:18:59.446424,0.06594320386648163
2023-01-28 09:18:59.451424,0.05371510325124221
2023-01-28 09:18:59.456424,0.03983517736196509
2023-01-28 09:18:59.461424,0.025092651135273834
2023-01-28 09:18:59.466424,0.01024127006530763
2023-01-28 09:18:59.471424,-0.0030041052567092046
2023-01-28 09:18:59.476424,-0.013029973022639712
2023-01-28 09:18:59.481424,-0.020695768664911327
2023-01-28 09:18:59.486424,-0.02904097363352769
2023-01-28 09:18:59.491424,-0.03949427134039422
2023-01-28 09:18:59.496424,-0.04957159608602524
2023-01-28 09:18:59.501424,-0.055824683631588656
2023-01-28 09:18:59.506424,-0.058081947267055484
2023-01-28 09:18:59.511424,-0.058863333478121116
2023-01-28 09:18:59.516424,-0.05935609340667722
2023-01-28 09:18:59.521424,-0.05852374864329162
2023-01-28 09:18:59.526424,-0.0562308244407176
2023-01-28 09:18:59.531424,-0.054509810792771035
2023-01-28 09:18:59.536424,-0.05474030971527092
2023-01-28 09:18:59.541424,-0.05574454521866158
2023-01-28 09:18:59.546424,-0.05589425563812244
2023-01-28 09:18:59.551424,-0.0552436972257508
2023-01-28 09:18:59.556424,-0.05428354069590559
2023-01-28 09:18:59.561424,-0.052402154080580673
2023-01-28 09:18:59.566424,-0.049259066581725984
2023-01-28 09:18:59.571424,-0.04629669829261462
2023-01-28 09:18:59.576424,-0.04517217725515361
2023-01-28 09:18:59.581424,-0.045668091004925686
2023-01-28 09:18:59.586424,-0.046542488038539755
2023-01-28 09:18:59.591424,-0.04733143785432118
2023-01-28 09:18:59.596424,-0.04784067720174779
2023-01-28 09:18:59.601424,-0.046992165539790715
2023-01-28 09:18:59.606424,-0.04392206668853748
2023-01-28 09:18:59.611424,-0.039496145208138676
2023-01-28 09:18:59.616424,-0.03524343296885488
2023-01-28 09:18:59.621424,-0.03151502082253005
2023-01-28 09:18:59.626424,-0.028079351410269744
2023-01-28 09:18:59.631424,-0.025667382780938774
2023-01-28 09:18:59.636424,-0.02533872984349719
2023-01-28 09:18:59.641424,-0.026963966945615727
2023-01-28 09:18:59.646424,-0.02978622913360588
2023-01-28 09:18:59.651424,-0.0337902157868448
2023-01-28 09:18:59.656424,-0.03901779651641838
2023-01-28 09:18:59.661424,-0.04419449508463404
2023-01-28 09:18:59.666424,-0.0476243123412132
2023-01-28 09:18:59.671424,-0.049010678581478
2023-01-28 09:18:59.676424,-0.04906674474477761
2023-01-28 09:18:59.681424,-0.04796613209700109
2023-01-28 09:18:59.686424,-0.045628946274518925
2023-01-28 09:18:59.691424,-0.04289571756613981
2023-01-28 09:18:59.696424,-0.04079679772257799
2023-01-28 09:18:59.701424,-0.039023475550601296
2023-01-28 09:18:59.706424,-0.03649353981018061
2023-01-28 09:18:59.711424,-0.032940975554411056
2023-01-28 09:18:59.716424,-0.028584202751517185
2023-01-28 09:18:59.721424,-0.022860056532743006
2023-01-28 09:18:59.726424,-0.015145540237426761
2023-01-28 09:18:59.731424,-0.006467553387395677
2023-01-28 09:18:59.736424,0.0008654594421385581
2023-01-28 09:18:59.741424,0.004986066866524074
2023-01-28 09:18:59.746424,0.004687905311584363
2023-01-28 09:18:59.751424,-0.0011917778199609472
2023-01-28 09:18:59.756424,-0.012741486541926823
2023-01-28 09:18:59.761424,-0.027524377734068413
2023-01-28 09:18:59.766424,-0.04168629646301261
2023-01-28 09:18:59.771424,-0.05250117176581604
2023-01-28 09:18:59.776424,-0.05894740670919409
2023-01-28 09:18:59.781424,-0.06069472348351531
2023-01-28 09:18:59.786424,-0.05827426910400391
2023-01-28 09:18:59.791424,-0.05380918850352649
2023-01-28 09:18:59.796424,-0.049691796302795445
2023-01-28 09:18:59.801424,-0.046285264380850934
2023-01-28 09:18:59.806424,-0.041902661323547294
2023-01-28 09:18:59.811424,-0.03463947812235496
2023-01-28 09:18:59.816424,-0.023223161697387647
2023-01-28 09:18:59.821424,-0.007227983512051656
2023-01-28 09:18:59.826424,0.011226932518184095
2023-01-28 09:18:59.831424,0.025925804815146447
2023-01-28 09:18:59.836424,0.028632283210754266
2023-01-28 09:18:59.841424,0.013774905286795794
2023-01-28 09:18:59.846424,-0.01858333870768542
2023-01-28 09:18:59.851424,-0.06269110180960184
2023-01-28 09:18:59.856424,-0.1082064732909202
2023-01-28 09:18:59.861424,-0.14270700724092575
2023-01-28 09:18:59.866424,-0.15674433112144465
2023-01-28 09:18:59.871424,-0.1485667225809593
2023-01-28 09:18:59.876424,-0.12404918670654289
2023-01-28 09:18:59.881424,-0.09246008013892543
2023-01-28 09:18:59.886424,-0.06257753074169145
2023-01-28 09:18:59.891424,-0.04072932780180606
2023-01-28 09:18:59.896424,-0.029233297333121196
2023-01-28 09:18:59.901424,-0.02582771486125994
2023-01-28 09:18:59.906424,-0.026035904884338282
2023-01-28 09:18:59.911424,-0.02668349154121315
2023-01-28 09:18:59.916424,-0.026733081787824603
2023-01-28 09:18:59.921424,-0.025735272340831266
2023-01-28 09:18:59.926424,-0.023319324478506983
2023-01-28 09:18:59.931424,-0.019978338300577214
2023-01-28 09:18:59.936424,-0.016612013801932276
2023-01-28 09:18:59.941424,-0.013190778204531132
2023-01-28 09:18:59.946424,-0.009207527153193899
2023-01-28 09:18:59.951424,-0.005296829753963228
2023-01-28 09:18:59.956424,-0.00295698642730711
2023-01-28 09:18:59.961424,-0.002728161994288664
2023-01-28 09:18:59.966424,-0.003942648880183574
2023-01-28 09:18:59.971424,-0.0060244169695725085
2023-01-28 09:18:59.976424,-0.008582472801208415
2023-01-28 09:18:59.981424,-0.01046293702988035
2023-01-28 09:18:59.986424,-0.010361473076045489
2023-01-28 09:18:59.991424,-0.008468429418231371
2023-01-28 09:18:59.996424,-0.00615437841042872
2023-01-28 09:19:00.001424,-0.0040282159576197785
2023-01-28 09:19:00.006424,-0.0015145540237426142
2023-01-28 09:19:00.011424,0.00193859213089902
2023-01-28 09:19:00.016424,0.006707310676574655
2023-01-28 09:19:00.021424,0.013806753757205527
2023-01-28 09:19:00.026424,0.024160742759704493
2023-01-28 09:19:00.031424,0.03687200028973504
2023-01-28 09:19:00.036424,0.04952351376414287
2023-01-28 09:19:00.041424,0.06025175296728503
2023-01-28 09:19:00.046424,0.06841938197612757
2023-01-28 09:19:00.051424,0.07364394160421339
2023-01-28 09:19:00.056424,0.07579982280731201
2023-01-28 09:19:00.061424,0.07594318143868772
2023-01-28 09:19:00.066424,0.07563154399394975
2023-01-28 09:19:00.071424,0.07508366151039492
2023-01-28 09:19:00.076424,0.07320344448089589
2023-01-28 09:19:00.081424,0.06934853844563145
2023-01-28 09:19:00.086424,0.06377955526113512
2023-01-28 09:19:00.091424,0.056548553032820706
2023-01-28 09:19:00.096424,0.047480069100856684
2023-01-28 09:19:00.101424,0.037286170426789104
2023-01-28 09:19:00.106424,0.02723793312907209
2023-01-28 09:19:00.111424,0.017605083563476103
2023-01-28 09:19:00.116424,0.007717013359069772
2023-01-28 09:19:00.121424,-0.002430504430320956
2023-01-28 09:19:00.126424,-0.01197218894958489
2023-01-28 09:19:00.131424,-0.02053940378775591
2023-01-28 09:19:00.136424,-0.028415918350219706
2023-01-28 09:19:00.141424,-0.03529741229645482
2023-01-28 09:19:00.146424,-0.04031598567962641
2023-01-28 09:19:00.151424,-0.043438427093548095
2023-01-28 09:19:00.156424,-0.045556824654340654
2023-01-28 09:19:00.161424,-0.047144184585554
2023-01-28 09:19:00.166424,-0.04812916368246071
2023-01-28 09:19:00.171424,-0.04909329171973994
2023-01-28 09:19:00.176424,-0.051110189408063784
2023-01-28 09:19:00.181424,-0.054141598091617574
2023-01-28 09:19:00.186424,-0.0568318367004394
2023-01-28 09:19:00.191424,-0.05805415890810174
2023-01-28 09:19:00.196424,-0.05750497430562969
2023-01-28 09:19:00.201424,-0.05482793674653838
2023-01-28 09:19:00.206424,-0.049643717706203405
2023-01-28 09:19:00.211424,-0.04277167973269533
2023-01-28 09:19:00.216424,-0.03618101403117165
2023-01-28 09:19:00.221424,-0.0313436436814555
2023-01-28 09:19:00.226424,-0.028512081131339
2023-01-28 09:19:00.231424,-0.02757045432899769
2023-01-28 09:19:00.236424,-0.028391879051923676
2023-01-28 09:19:00.241424,-0.030230756573113287
2023-01-28 09:19:00.246424,-0.03192583844065661
2023-01-28 09:19:00.251424,-0.0329588662500608
2023-01-28 09:19:00.256424,-0.0334644317626953
2023-01-28 09:19:00.261424,-0.033310525682067556
2023-01-28 09:19:00.266424,-0.03226240724325178
2023-01-28 09:19:00.271424,-0.030988726294429083
2023-01-28 09:19:00.276424,-0.03072381019592283
2023-01-28 09:19:00.281424,-0.03182636563490166
2023-01-28 09:19:00.286424,-0.033608675003051695
2023-01-28 09:19:00.291424,-0.0354533320191209
2023-01-28 09:19:00.296424,-0.03704647347331043
2023-01-28 09:19:00.301424,-0.037733355244387395
2023-01-28 09:19:00.306424,-0.03692626953125001
2023-01-28 09:19:00.311424,-0.03516316356117
2023-01-28 09:19:00.316424,-0.03363271802663801
2023-01-28 09:19:00.321424,-0.03266373833955272
2023-01-28 09:19:00.326424,-0.0317094735801219
2023-01-28 09:19:00.331424,-0.030636039818227864
2023-01-28 09:19:00.336424,-0.029858350753784103
2023-01-28 09:19:00.341424,-0.02936598712529686
2023-01-28 09:19:00.346424,-0.028848648071289004
2023-01-28 09:19:00.351424,-0.028679623689990073
2023-01-28 09:19:00.356424,-0.029521783813834114
2023-01-28 09:19:00.361424,-0.030972415376956962
2023-01-28 09:19:00.366424,-0.03173351287841794
2023-01-28 09:19:00.371424,-0.031038701160907897
2023-01-28 09:19:00.376424,-0.02882460877299303
2023-01-28 09:19:00.381424,-0.02478379368361227
2023-01-28 09:19:00.386424,-0.01865546032786362
2023-01-28 09:19:00.391424,-0.01146319458387262
2023-01-28 09:19:00.396424,-0.005216797348111818
2023-01-28 09:19:00.401424,-0.0013289868611730735
2023-01-28 09:19:00.406424,-0.00031252703047351813
2023-01-28 09:19:00.411424,-0.0026793142660647266
2023-01-28 09:19:00.416424,-0.008678635582327818
2023-01-28 09:19:00.421424,-0.01714186995161306
2023-01-28 09:19:00.426424,-0.02591570280492299
2023-01-28 09:19:00.431424,-0.03359194356299656
2023-01-28 09:19:00.436424,-0.0398592166602611
2023-01-28 09:19:00.441424,-0.044481512775788115
2023-01-28 09:19:00.446424,-0.04731178283691397
2023-01-28 09:19:00.451424,-0.049169264687287065
2023-01-28 09:19:00.456424,-0.051158271729946095
2023-01-28 09:19:00.461424,-0.05279435660711312
2023-01-28 09:19:00.466424,-0.05178332328796377
2023-01-28 09:19:00.471424,-0.045644070655627235
2023-01-28 09:19:00.476424,-0.03279129788279533
2023-01-28 09:19:00.481424,-0.012945994478394316
2023-01-28 09:19:00.486424,0.011347135528921977
2023-01-28 09:19:00.491424,0.03322967122627077
2023-01-28 09:19:00.496424,0.043297015130519735
2023-01-28 09:19:00.501424,0.034248954655781254
2023-01-28 09:19:00.506424,0.004495581146329542
2023-01-28 09:19:00.511424,-0.04108709331404476
2023-01-28 09:19:00.516424,-0.09205123037099833
2023-01-28 09:19:00.521424,-0.13492112824218933
2023-01-28 09:19:00.526424,-0.15830695629119865
2023-01-28 09:19:00.531424,-0.15811628313662993
2023-01-28 09:19:00.536424,-0.13844947516918177
2023-01-28 09:19:00.541424,-0.10799738721230442
2023-01-28 09:19:00.546424,-0.07596810907125467
2023-01-28 09:19:00.551424,-0.04967619109413647
2023-01-28 09:19:00.556424,-0.03279129788279528
2023-01-28 09:19:00.561424,-0.024509948550678538
2023-01-28 09:19:00.566424,-0.02134799957275388
2023-01-28 09:19:00.571424,-0.02031230909723043
2023-01-28 09:19:00.576424,-0.020001729950308685
2023-01-28 09:19:00.581424,-0.019455359375823048
2023-01-28 09:19:00.586424,-0.0177419185638427
2023-01-28 09:19:00.591424,-0.014875169610526578
2023-01-28 09:19:00.596424,-0.011731783859431705
2023-01-28 09:19:00.601424,-0.008799447911496863
2023-01-28 09:19:00.606424,-0.006106297485530303
2023-01-28 09:19:00.611424,-0.0043252254485264
2023-01-28 09:19:00.616424,-0.004543662071228001
2023-01-28 09:19:00.621424,-0.006703365207584731
2023-01-28 09:19:00.626424,-0.009399851784109965
2023-01-28 09:19:00.631424,-0.011307974445743026
2023-01-28 09:19:00.636424,-0.011731783859431695
2023-01-28 09:19:00.641424,-0.009969954370567302
2023-01-28 09:19:00.646424,-0.005697607994079474
2023-01-28 09:19:00.651424,-0.00020818940146182286
2023-01-28 09:19:00.656424,0.004110932350158634
2023-01-28 09:19:00.661424,0.0060189480248065055
2023-01-28 09:19:00.666424,0.006346702575683527
2023-01-28 09:19:00.671424,0.006871573394381282
2023-01-28 09:19:00.676424,0.009471973404288207
2023-01-28 09:19:00.681424,0.016143200131916335
2023-01-28 09:19:00.686424,0.0280553102493286
2023-01-28 09:19:00.691424,0.043965320099711123
2023-01-28 09:19:00.696424,0.06060620397329329
2023-01-28 09:19:00.701424,0.07501548045784075
2023-01-28 09:19:00.706424,0.08575260639190668
2023-01-28 09:19:00.711424,0.09217000458374348
2023-01-28 09:19:00.716424,0.0940465927124023
2023-01-28 09:19:00.721424,0.09224167054495411
2023-01-28 09:19:00.726424,0.08839707076549534
2023-01-28 09:19:00.731424,0.08350676771048969
2023-01-28 09:19:00.736424,0.07765094935894007
2023-01-28 09:19:00.741424,0.07117628106481466
2023-01-28 09:19:00.746424,0.06493350118398661
2023-01-28 09:19:00.751424,0.05910670402954782
2023-01-28 09:19:00.756424,0.05293726921081539
2023-01-28 09:19:00.761424,0.045919325319089904
2023-01-28 09:19:00.766424,0.03829658031463618
2023-01-28 09:19:00.771424,0.03020057282445726
2023-01-28 09:19:00.776424,0.021372040733695023
2023-01-28 09:19:00.781424,0.012032622876477656
2023-01-28 09:19:00.786424,0.003053148742765065
2023-01-28 09:19:00.791424,-0.005097980227674812
2023-01-28 09:19:00.796424,-0.012789567932486449
2023-01-28 09:19:00.801424,-0.020383449316231424
2023-01-28 09:19:00.806424,-0.027670662850141525
2023-01-28 09:19:00.811424,-0.034277156994485664
2023-01-28 09:19:00.816424,-0.039955377578735275
2023-01-28 09:19:00.821424,-0.044416313180564666
2023-01-28 09:19:00.826424,-0.04745602607727051
2023-01-28 09:19:00.831424,-0.04912904835724619
2023-01-28 09:19:00.836424,-0.04923502728342998
2023-01-28 09:19:00.841424,-0.047032864663681645
2023-01-28 09:19:00.846424,-0.04228731244802471
2023-01-28 09:19:00.851424,-0.03623381653365019
2023-01-28 09:19:00.856424,-0.03060360811650752
2023-01-28 09:19:00.861424,-0.026041090654205137
2023-01-28 09:19:00.866424,-0.022357702255248996
2023-01-28 09:19:00.871424,-0.019782950506336473
2023-01-28 09:19:00.876424,-0.01875162124633782
2023-01-28 09:19:00.881424,-0.018835335431213348
2023-01-28 09:19:00.886424,-0.01918435096740717
2023-01-28 09:19:00.891424,-0.01984391263633617
2023-01-28 09:19:00.896424,-0.021444162353873163
2023-01-28 09:19:00.901424,-0.023760640935219374
2023-01-28 09:19:00.906424,-0.025723379105329486
2023-01-28 09:19:00.911424,-0.026657206429727357
2023-01-28 09:19:00.916424,-0.026420554146170568
2023-01-28 09:19:00.921424,-0.024666718058739406
2023-01-28 09:19:00.926424,-0.021299919113516745
2023-01-28 09:19:00.931424,-0.017513744111545715
2023-01-28 09:19:00.936424,-0.01507341861724848
2023-01-28 09:19:00.941424,-0.014530812413098398
2023-01-28 09:19:00.946424,-0.015121500007808186
2023-01-28 09:19:00.951424,-0.016131150480133798
2023-01-28 09:19:00.956424,-0.017213027924299244
2023-01-28 09:19:00.961424,-0.017733771225452936
2023-01-28 09:19:00.966424,-0.017261108383536308
2023-01-28 09:19:00.971424,-0.016663451596893277
2023-01-28 09:19:00.976424,-0.01745343208312981
2023-01-28 09:19:00.981424,-0.020005701785340526
2023-01-28 09:19:00.986424,-0.02341548725962631
2023-01-28 09:19:00.991424,-0.026816837250495534
2023-01-28 09:19:00.996424,-0.02964198589324949
2023-01-28 09:19:01.001424,-0.030946629709143
2023-01-28 09:19:01.006424,-0.030002593994140576
2023-01-28 09:19:01.011424,-0.02759286860823927
2023-01-28 09:19:01.016424,-0.025458931922912497
2023-01-28 09:19:01.021424,-0.0244221701829298
2023-01-28 09:19:01.026424,-0.024040540680289203
2023-01-28 09:19:01.031424,-0.02376057600584536
2023-01-28 09:19:01.036424,-0.023078918457031212
2023-01-28 09:19:01.041424,-0.020838409391038374
2023-01-28 09:19:01.046424,-0.015914838761091215
2023-01-28 09:19:01.051424,-0.008740769759971574
2023-01-28 09:19:01.056424,-0.0010097026824951337
2023-01-28 09:19:01.061424,0.006023774366459503
2023-01-28 09:19:01.066424,0.011803905479609881
2023-01-28 09:19:01.071424,0.01537415008335259
2023-01-28 09:19:01.076424,0.015530189499258858
2023-01-28 09:19:01.081424,0.012123215492342557
2023-01-28 09:19:01.086424,0.006010135170072327
2023-01-28 09:19:01.091424,-0.002154088966460847
2023-01-28 09:19:01.096424,-0.011803905479609926
2023-01-28 09:19:01.101424,-0.021370052345406
2023-01-28 09:19:01.106424,-0.028824608772993036
2023-01-28 09:19:01.111424,-0.03348122163635857
2023-01-28 09:19:01.116424,-0.03613293170928948
2023-01-28 09:19:01.121424,-0.037502043321843245
2023-01-28 09:19:01.126424,-0.037671528756618416
2023-01-28 09:19:01.131424,-0.036634431840427216
2023-01-28 09:19:01.136424,-0.033776961266994414
2023-01-28 09:19:01.141424,-0.026848366650394622
2023-01-28 09:19:01.146424,-0.013174216262996119
2023-01-28 09:19:01.151424,0.007365795028402757
2023-01-28 09:19:01.156424,0.031012296676635683
2023-01-28 09:19:01.161424,0.051246064228193874
2023-01-28 09:19:01.166424,0.0602936744689941
2023-01-28 09:19:01.171424,0.050922112479626205
2023-01-28 09:19:01.176424,0.020001729950308664
2023-01-28 09:19:01.181424,-0.027997117633947712
2023-01-28 09:19:01.186424,-0.08161763846874226
2023-01-28 09:19:01.191424,-0.12719299850702262
2023-01-28 09:19:01.196424,-0.15376329421997068
2023-01-28 09:19:01.201424,-0.1559692313398737
2023-01-28 09:19:01.206424,-0.13563673198223108
2023-01-28 09:19:01.211424,-0.10137875952927285
2023-01-28 09:19:01.216424,-0.06459693610668174
2023-01-28 09:19:01.221424,-0.03400596676558519
2023-01-28 09:19:01.226424,-0.013222297653555785
2023-01-28 09:19:01.231424,-0.002059050958633397
2023-01-28 09:19:01.236424,0.001779000042006326
2023-01-28 09:19:01.241424,0.001859070113534764
2023-01-28 09:19:01.246424,0.0014664729824288949
2023-01-28 09:19:01.251424,0.0017735382804048084
2023-01-28 09:19:01.256424,0.0021636486053466415
2023-01-28 09:19:01.261424,0.0021562307729140746
2023-01-28 09:19:01.266424,0.0018511216621844822
2023-01-28 09:19:01.271424,0.000838543787658215
2023-01-28 09:19:01.276424,-0.0016107162227853849
2023-01-28 09:19:01.281424,-0.005042567583582662
2023-01-28 09:19:01.286424,-0.007837216369807701
2023-01-28 09:19:01.291424,-0.008867194232149178
2023-01-28 09:19:01.296424,-0.007981459610164067
2023-01-28 09:19:01.301424,-0.005014414858281474
2023-01-28 09:19:01.306424,0.00019232432532581355
2023-01-28 09:19:01.311424,0.006727410885807899
2023-01-28 09:19:01.316424,0.013029973022639692
2023-01-28 09:19:01.321424,0.018580173243581608
2023-01-28 09:19:01.326424,0.023968419060111008
2023-01-28 09:19:01.331424,0.02931074482811255
2023-01-28 09:19:01.336424,0.03394524380564676
2023-01-28 09:19:01.341424,0.03771010704640642
2023-01-28 09:19:01.346424,0.04113336652517306
2023-01-28 09:19:01.351424,0.04430457579184807
2023-01-28 09:19:01.356424,0.04695117473602287
2023-01-28 09:19:01.361424,0.04970559479295665
2023-01-28 09:19:01.366424,0.05387485027313228
2023-01-28 09:19:01.371424,0.05976719778028147
2023-01-28 09:19:01.376424,0.06649613380432119
2023-01-28 09:19:01.381424,0.07345953815258605
2023-01-28 09:19:01.386424,0.08065601438283916
2023-01-28 09:19:01.391424,0.08751455532009218
2023-01-28 09:19:01.396424,0.09286861121654506
2023-01-28 09:19:01.401424,0.09626346913137372
2023-01-28 09:19:01.406424,0.09796520322561261
2023-01-28 09:19:01.411424,0.09758464822983573
2023-01-28 09:19:01.416424,0.09407063573598859
2023-01-28 09:19:01.421424,0.0872119802373348
2023-01-28 09:19:01.426424,0.07784327119588848
2023-01-28 09:19:01.431424,0.06651341856754485
2023-01-28 09:19:01.436424,0.053345959633588645
2023-01-28 09:19:01.441424,0.039299216077013935
2023-01-28 09:19:01.446424,0.026083987206220568
2023-01-28 09:19:01.451424,0.014547512204109101
2023-01-28 09:19:01.456424,0.004351337905973115
2023-01-28 09:19:01.461424,-0.004716994191243539
2023-01-28 09:19:01.466424,-0.012477040290832526
2023-01-28 09:19:01.471424,-0.019399300270148828
2023-01-28 09:19:01.476424,-0.02634843252599227
2023-01-28 09:19:01.481424,-0.03299927132562184
2023-01-28 09:19:01.486424,-0.0378638505935668
2023-01-28 09:19:01.491424,-0.040152300319006705
2023-01-28 09:19:01.496424,-0.04041215032339085
2023-01-28 09:19:01.501424,-0.03933891751400678
2023-01-28 09:19:01.506424,-0.03740708157420153
2023-01-28 09:19:01.511424,-0.035737377210948856
2023-01-28 09:19:01.516424,-0.03567616268992419
2023-01-28 09:19:01.521424,-0.03706837418573793
2023-01-28 09:19:01.526424,-0.03822445869445797
2023-01-28 09:19:01.531424,-0.03786403765213758
2023-01-28 09:19:01.536424,-0.035916566848754765
2023-01-28 09:19:01.541424,-0.03250499845348663
2023-01-28 09:19:01.546424,-0.027814906090497908
2023-01-28 09:19:01.551424,-0.02321458751075904
2023-01-28 09:19:01.556424,-0.020795067772269197
2023-01-28 09:19:01.561424,-0.02117850232740156
2023-01-28 09:19:01.566424,-0.023030837997794085
2023-01-28 09:19:01.571424,-0.02502925346738949
2023-01-28 09:19:01.576424,-0.026877325028180965
2023-01-28 09:19:01.581424,-0.028079234756467286
2023-01-28 09:19:01.586424,-0.02743025682866572
2023-01-28 09:19:01.591424,-0.02458089365921886
2023-01-28 09:19:01.596424,-0.0209152698516845
2023-01-28 09:19:01.601424,-0.018152552460124156
2023-01-28 09:19:01.606424,-0.01697262190282337
2023-01-28 09:19:01.611424,-0.01731005924328876
2023-01-28 09:19:01.616424,-0.018751621246337797
2023-01-28 09:19:01.621424,-0.02011778304836585
2023-01-28 09:19:01.626424,-0.019833445549011196
2023-01-28 09:19:01.631424,-0.017459948804465504
2023-01-28 09:19:01.636424,-0.0141839189454913
2023-01-28 09:19:01.641424,-0.01153532126658357
2023-01-28 09:19:01.646424,-0.010433594696223696
2023-01-28 09:19:01.651424,-0.011471106005481162
2023-01-28 09:19:01.656424,-0.014833013527095292
2023-01-28 09:19:01.661424,-0.019510004033411753
2023-01-28 09:19:01.666424,-0.02363185212016102
2023-01-28 09:19:01.671424,-0.02602401012003181
2023-01-28 09:19:01.676424,-0.02670904062688351
2023-01-28 09:19:01.681424,-0.025907022054407824
2023-01-28 09:19:01.686424,-0.023679932579398103
2023-01-28 09:19:01.691424,-0.020703105760030698
2023-01-28 09:19:01.696424,-0.01817464828491211
2023-01-28 09:19:01.701424,-0.016579140106376632
2023-01-28 09:19:01.706424,-0.015434026718139607
2023-01-28 09:19:01.711424,-0.014347202047649677
2023-01-28 09:19:01.716424,-0.013270378112792905
2023-01-28 09:19:01.721424,-0.011639404801759163
2023-01-28 09:19:01.726424,-0.008486310951411712
2023-01-28 09:19:01.731424,-0.003701812350559476
2023-01-28 09:19:01.736424,0.0018030405044554881
2023-01-28 09:19:01.741424,0.007305270055082602
2023-01-28 09:19:01.746424,0.012573203071951776
2023-01-28 09:19:01.751424,0.016905508341013488
2023-01-28 09:19:01.756424,0.019088190048932963
2023-01-28 09:19:01.761424,0.018570975846032383
2023-01-28 09:19:01.766424,0.015674432739615364
2023-01-28 09:19:01.771424,0.010551754295302649
2023-01-28 09:19:01.776424,0.0031012296676634792
2023-01-28 09:19:01.781424,-0.005933663090779248
2023-01-28 09:19:01.786424,-0.014929175376892033
2023-01-28 09:19:01.791424,-0.02267528223364444
2023-01-28 09:19:01.796424,-0.028728445991873713
2023-01-28 09:19:01.801424,-0.032496137588667935
2023-01-28 09:19:01.806424,-0.03319998830556864
2023-01-28 09:19:01.811424,-0.03087553439179854
2023-01-28 09:19:01.816424,-0.026156108826398836
2023-01-28 09:19:01.821424,-0.018796952287010366
2023-01-28 09:19:01.826424,-0.007572770118713338
2023-01-28 09:19:01.831424,0.007935351469836208
2023-01-28 09:19:01.836424,0.02608398720622056
2023-01-28 09:19:01.841424,0.04332941329985611
2023-01-28 09:19:01.846424,0.054379701614379786
2023-01-28 09:19:01.851424,0.05263532627441133
2023-01-28 09:19:01.856424,0.0329355411231517
2023-01-28 09:19:01.861424,-0.004378706950927009
2023-01-28 09:19:01.866424,-0.0520718097686767
2023-01-28 09:19:01.871424,-0.09864870938760631
2023-01-28 09:19:01.876424,-0.13239125907421107
2023-01-28 09:19:01.881424,-0.14482415522719383
2023-01-28 09:19:01.886424,-0.13373753428459154
2023-01-28 09:19:01.891424,-0.10456175207373848
2023-01-28 09:19:01.896424,-0.06779432296752916
2023-01-28 09:19:01.901424,-0.03367094851888593
2023-01-28 09:19:01.906424,-0.008462270721793109
2023-01-28 09:19:01.911424,0.00583962294099666
2023-01-28 09:19:01.916424,0.010577837936580056
2023-01-28 09:19:01.921424,0.009456898850634
2023-01-28 09:19:01.926424,0.006539027206599729
2023-01-28 09:19:01.931424,0.003901907068566312
2023-01-28 09:19:01.936424,0.0015385946026071147
2023-01-28 09:19:01.941424,-0.000672045685534755
2023-01-28 09:19:01.946424,-0.002043446060269981
2023-01-28 09:19:01.951424,-0.0020336235555189525
2023-01-28 09:19:01.956424,-0.0006971756811252873
2023-01-28 09:19:01.961424,0.0020562350860213975
2023-01-28 09:19:01.966424,0.0063947839662432055
2023-01-28 09:19:01.971424,0.011508434657742626
2023-01-28 09:19:01.976424,0.015866756439208936
2023-01-28 09:19:01.981424,0.018884849756542355
2023-01-28 09:19:01.986424,0.021299919113516745
2023-01-28 09:19:01.991424,0.023753776473202017
2023-01-28 09:19:01.996424,0.026156108826398784
2023-01-28 09:19:02.001424,0.028568388515232163
2023-01-28 09:19:02.006424,0.03142098709940906
2023-01-28 09:19:02.011424,0.034580388253863815
2023-01-28 09:19:02.016424,0.037431120872497545
2023-01-28 09:19:02.021424,0.040193715474847444
2023-01-28 09:19:02.026424,0.04399418830871577
2023-01-28 09:19:02.031424,0.04931743696350897
2023-01-28 09:19:02.036424,0.055485568940639364
2023-01-28 09:19:02.041424,0.06187615042958962
2023-01-28 09:19:02.046424,0.0684915035963058
2023-01-28 09:19:02.051424,0.07512391331668719
2023-01-28 09:19:02.056424,0.08123298734426487
2023-01-28 09:19:02.061424,0.08699924123593138
2023-01-28 09:19:02.066424,0.09330134093761439
2023-01-28 09:19:02.071424,0.10023284863323204
2023-01-28 09:19:02.076424,0.10666787624359127
2023-01-28 09:19:02.081424,0.11154801633515929
2023-01-28 09:19:02.086424,0.11450509727001186
2023-01-28 09:19:02.091424,0.11502348806496449
2023-01-28 09:19:02.096424,0.11226932704448689
2023-01-28 09:19:02.101424,0.10617685735383442
2023-01-28 09:19:02.106424,0.09760459512472144
2023-01-28 09:19:02.111424,0.08705065729537423
2023-01-28 09:19:02.116424,0.07428526878356925
2023-01-28 09:19:02.121424,0.05957451446450939
2023-01-28 09:19:02.126424,0.04416247457265844
2023-01-28 09:19:02.131424,0.029192848671181697
2023-01-28 09:19:02.136424,0.015217661857604885
2023-01-28 09:19:02.141424,0.003033259242428914
2023-01-28 09:19:02.146424,-0.0062505407258868165
2023-01-28 09:19:02.151424,-0.012498367649216222
2023-01-28 09:19:02.156424,-0.016876459121704115
2023-01-28 09:19:02.161424,-0.020427897654093426
2023-01-28 09:19:02.166424,-0.023223161697387584
2023-01-28 09:19:02.171424,-0.02515240546951114
2023-01-28 09:19:02.176424,-0.02637247368693349
2023-01-28 09:19:02.181424,-0.026530113823175997
2023-01-28 09:19:02.186424,-0.024761756882071377
2023-01-28 09:19:02.191424,-0.02118986926924266
2023-01-28 09:19:02.196424,-0.017501514405012103
2023-01-28 09:19:02.201424,-0.01539043301459019
2023-01-28 09:19:02.206424,-0.015241703018546108
2023-01-28 09:19:02.211424,-0.0169104266725409
2023-01-28 09:19:02.216424,-0.02079506777226919
2023-01-28 09:19:02.221424,-0.027090342277306566
2023-01-28 09:19:02.226424,-0.034377973526716205
2023-01-28 09:19:02.231424,-0.03989195070259831
2023-01-28 09:19:02.236424,-0.04139780998229978
2023-01-28 09:19:02.241424,-0.03870148347650875
2023-01-28 09:19:02.246424,-0.033488474786281475
2023-01-28 09:19:02.251424,-0.02782498389759697
2023-01-28 09:19:02.256424,-0.022742351517081195
2023-01-28 09:19:02.261424,-0.018282603343814232
2023-01-28 09:19:02.266424,-0.01468877028673882
2023-01-28 09:19:02.271424,-0.012750132573608429
2023-01-28 09:19:02.276424,-0.012597243301570415
2023-01-28 09:19:02.281424,-0.013036011666578905
2023-01-28 09:19:02.286424,-0.012909770011901784
2023-01-28 09:19:02.291424,-0.012456221082602827
2023-01-28 09:19:02.296424,-0.01238087844103571
2023-01-28 09:19:02.301424,-0.01223555760924629
2023-01-28 09:19:02.306424,-0.010866324417293034
2023-01-28 09:19:02.311424,-0.008009395493250191
2023-01-28 09:19:02.316424,-0.0043032569810748005
2023-01-28 09:19:02.321424,-0.00019190894869316346
2023-01-28 09:19:02.326424,0.0038945674896239805
2023-01-28 09:19:02.331424,0.00664919191349271
2023-01-28 09:19:02.336424,0.006659229751676302
2023-01-28 09:19:02.341424,0.004115548827654389
2023-01-28 09:19:02.346424,0.0006971756811253157
2023-01-28 09:19:02.351424,-0.002062044911800811
2023-01-28 09:19:02.356424,-0.003269513603299856
2023-01-28 09:19:02.361424,-0.0020832947923246177
2023-01-28 09:19:02.366424,0.0017309188842773153
2023-01-28 09:19:02.371424,0.006573404356213359
2023-01-28 09:19:02.376424,0.00968833826482286
2023-01-28 09:19:02.381424,0.009337027893263083
2023-01-28 09:19:02.386424,0.005529324524104524
2023-01-28 09:19:02.391424,-0.0009514350671588213
2023-01-28 09:19:02.396424,-0.008895000442862538
2023-01-28 09:19:02.401424,-0.01631018554221886
2023-01-28 09:19:02.406424,-0.021396081894636102
2023-01-28 09:19:02.411424,-0.024241953451781307
2023-01-28 09:19:02.416424,-0.02651671692728989
2023-01-28 09:19:02.421424,-0.029372554022706953
2023-01-28 09:19:02.426424,-0.0325028114020824
2023-01-28 09:19:02.431424,-0.03479858872423277
2023-01-28 09:19:02.436424,-0.03445009514689439
2023-01-28 09:19:02.441424,-0.028610663889323578
2023-01-28 09:19:02.446424,-0.014905135147273523
2023-01-28 09:19:02.451424,0.00575343647748294
2023-01-28 09:19:02.456424,0.0282716751098632
2023-01-28 09:19:02.461424,0.04510821386734587
2023-01-28 09:19:02.466424,0.04841765016317358
2023-01-28 09:19:02.471424,0.03212097115457553
2023-01-28 09:19:02.476424,-0.004880229942500478
2023-01-28 09:19:02.481424,-0.05597447800574852
2023-01-28 09:19:02.486424,-0.10825455188751215
