2023-01-28 09:05:30.057724,-0.006010135170072293
2023-01-28 09:05:30.062724,-0.003326722118364458
2023-01-28 09:05:30.067724,-0.012020270340144584
2023-01-28 09:05:30.072724,-0.017740378623467962
2023-01-28 09:05:30.077724,-0.016900500282645226
2023-01-28 09:05:30.082724,-0.016526172376007148
2023-01-28 09:05:30.087724,-0.018751621246337787
2023-01-28 09:05:30.092724,-0.016833598693293747
2023-01-28 09:05:30.097724,-0.005601446144282808
2023-01-28 09:05:30.102724,0.013683403262487426
2023-01-28 09:05:30.107724,0.03945052623748771
2023-01-28 09:05:30.112724,0.07231810992871943
2023-01-28 09:05:30.117724,0.10907193273305893
2023-01-28 09:05:30.122724,0.1403617118503327
2023-01-28 09:05:30.127724,0.15727321803569796
2023-01-28 09:05:30.132724,0.15655277625538833
2023-01-28 09:05:30.137724,0.13871392607688898
2023-01-28 09:05:30.142724,0.10616922556921662
2023-01-28 09:05:30.147724,0.06539027392864219
2023-01-28 09:05:30.152724,0.026582243866932722
2023-01-28 09:05:30.157724,-0.00211556768044818
2023-01-28 09:05:30.162724,-0.018673290123764463
2023-01-28 09:05:30.167724,-0.02495408058166498
2023-01-28 09:05:30.172724,-0.023576942464704757
2023-01-28 09:05:30.177724,-0.018102526664733772
2023-01-28 09:05:30.182724,-0.012902211824508734
2023-01-28 09:05:30.187724,-0.010265311226248684
2023-01-28 09:05:30.192724,-0.009068382866079881
2023-01-28 09:05:30.197724,-0.007524689193814879
2023-01-28 09:05:30.202724,-0.005573111108420221
2023-01-28 09:05:30.207724,-0.003702243324369121
2023-01-28 09:05:30.212724,-0.0015730195992528545
2023-01-28 09:05:30.217724,0.0008173784008249071
2023-01-28 09:05:30.222724,0.0023323088093259335
2023-01-28 09:05:30.227724,0.0024280946236103417
2023-01-28 09:05:30.232724,0.0023774460616605886
2023-01-28 09:05:30.237724,0.0037262837868183374
2023-01-28 09:05:30.242724,0.0067890330110467806
2023-01-28 09:05:30.247724,0.011467337608337383
2023-01-28 09:05:30.252724,0.018049848162923595
2023-01-28 09:05:30.257724,0.02610802650451661
2023-01-28 09:05:30.262724,0.03383318309745279
2023-01-28 09:05:30.267724,0.039570730179548194
2023-01-28 09:05:30.272724,0.04314627497916371
2023-01-28 09:05:30.277724,0.04502793401479719
2023-01-28 09:05:30.282724,0.045357481595939414
2023-01-28 09:05:30.287724,0.0446432828903198
2023-01-28 09:05:30.292724,0.04430459987244155
2023-01-28 09:05:30.297724,0.045556824654340654
2023-01-28 09:05:30.302724,0.04853518633010367
2023-01-28 09:05:30.307724,0.05320171639323229
2023-01-28 09:05:30.312724,0.06022040905214571
2023-01-28 09:05:30.317724,0.07019837945699686
2023-01-28 09:05:30.322724,0.08285884844816375
2023-01-28 09:05:30.327724,0.09760459512472143
2023-01-28 09:05:30.332724,0.11406238376904834
2023-01-28 09:05:30.337724,0.13140559196472157
2023-01-28 09:05:30.342724,0.14797711970928426
2023-01-28 09:05:30.347724,0.1623938530683517
2023-01-28 09:05:30.352724,0.17450271585007351
2023-01-28 09:05:30.357724,0.18475155532360069
2023-01-28 09:05:30.362724,0.193282022569102
2023-01-28 09:05:30.367724,0.20008942484855644
2023-01-28 09:05:30.372724,0.20522199158733734
2023-01-28 09:05:30.377724,0.20809492468833918
2023-01-28 09:05:30.382724,0.20721074496147115
2023-01-28 09:05:30.387724,0.20124337077140797
2023-01-28 09:05:30.392724,0.19003473059843357
2023-01-28 09:05:30.397724,0.17422179877758018
2023-01-28 09:05:30.402724,0.15459252481692537
2023-01-28 09:05:30.407724,0.13231913745403276
2023-01-28 09:05:30.412724,0.10913455815936071
2023-01-28 09:05:30.417724,0.08656998723745338
2023-01-28 09:05:30.422724,0.06535934241889307
2023-01-28 09:05:30.427724,0.045965515077114064
2023-01-28 09:05:30.432724,0.029139701220473373
2023-01-28 09:05:30.437724,0.015482108108699292
2023-01-28 09:05:30.442724,0.004942059521931888
2023-01-28 09:05:30.447724,-0.0027887027245014078
2023-01-28 09:05:30.452724,-0.00785464688424085
2023-01-28 09:05:30.457724,-0.01062591932713977
2023-01-28 09:05:30.462724,-0.011995646029349875
2023-01-28 09:05:30.467724,-0.012765526771545396
2023-01-28 09:05:30.472724,-0.013055617936074036
2023-01-28 09:05:30.477724,-0.012645324692129959
2023-01-28 09:05:30.482724,-0.01146319230573916
2023-01-28 09:05:30.487724,-0.0094238920137286
2023-01-28 09:05:30.492724,-0.006340421986509705
2023-01-28 09:05:30.497724,-0.0025242567062376932
2023-01-28 09:05:30.502724,0.0008773722692188528
2023-01-28 09:05:30.507724,0.002596378326415987
2023-01-28 09:05:30.512724,0.002105630370127457
2023-01-28 09:05:30.517724,-0.000336567580234193
2023-01-28 09:05:30.522724,-0.0039221722502228145
2023-01-28 09:05:30.527724,-0.00721216201782217
2023-01-28 09:05:30.532724,-0.00842292354746882
2023-01-28 09:05:30.537724,-0.0065149865113198185
2023-01-28 09:05:30.542724,-0.0019791416509143773
2023-01-28 09:05:30.547724,0.003630121704190908
2023-01-28 09:05:30.552724,0.008660398798277479
2023-01-28 09:05:30.557724,0.01182794570922846
2023-01-28 09:05:30.562724,0.012481423191420668
2023-01-28 09:05:30.567724,0.011058649048209133
2023-01-28 09:05:30.572724,0.009025470483348437
2023-01-28 09:05:30.577724,0.007861256599426193
2023-01-28 09:05:30.582724,0.008126664935464665
2023-01-28 09:05:30.587724,0.009568135254085034
2023-01-28 09:05:30.592724,0.011658782580692691
2023-01-28 09:05:30.597724,0.013727148994803358
2023-01-28 09:05:30.602724,0.015025013748466503
2023-01-28 09:05:30.607724,0.01519362162798635
2023-01-28 09:05:30.612724,0.014504178828797922
2023-01-28 09:05:30.617724,0.013366540893912286
2023-01-28 09:05:30.622724,0.011865183231386653
2023-01-28 09:05:30.627724,0.010024905204772892
2023-01-28 09:05:30.632724,0.00817063618106503
2023-01-28 09:05:30.637724,0.006659229751676283
2023-01-28 09:05:30.642724,0.005522683631203723
2023-01-28 09:05:30.647724,0.004711946006864309
2023-01-28 09:05:30.652724,0.004471871929410125
2023-01-28 09:05:30.657724,0.005216797348111792
2023-01-28 09:05:30.662724,0.007305777799590141
2023-01-28 09:05:30.667724,0.011178851127624475
2023-01-28 09:05:30.672724,0.017335255229676584
2023-01-28 09:05:30.677724,0.02574741840362537
2023-01-28 09:05:30.682724,0.0354653211695858
2023-01-28 09:05:30.687724,0.045100055634975385
2023-01-28 09:05:30.692724,0.053556875191201954
2023-01-28 09:05:30.697724,0.06017347425222388
2023-01-28 09:05:30.702724,0.0645482540402705
2023-01-28 09:05:30.707724,0.06661634147167196
2023-01-28 09:05:30.712724,0.06665161933505251
2023-01-28 09:05:30.717724,0.0648373365402221
2023-01-28 09:05:30.722724,0.0609951105884013
2023-01-28 09:05:30.727724,0.05498071759939186
2023-01-28 09:05:30.732724,0.04710753395806777
2023-01-28 09:05:30.737724,0.03791193291544909
2023-01-28 09:05:30.742724,0.027771141462212264
2023-01-28 09:05:30.747724,0.017092823982238693
2023-01-28 09:05:30.752724,0.006683199257125828
2023-01-28 09:05:30.757724,-0.0024040541611610967
2023-01-28 09:05:30.762724,-0.009278705752002226
2023-01-28 09:05:30.767724,-0.01334249973297111
2023-01-28 09:05:30.772724,-0.014391344326933508
2023-01-28 09:05:30.777724,-0.01300593279302121
2023-01-28 09:05:30.782724,-0.010612159165753369
2023-01-28 09:05:30.787724,-0.008606513962149594
2023-01-28 09:05:30.792724,-0.007189415593703659
2023-01-28 09:05:30.797724,-0.004952351562678835
2023-01-28 09:05:30.802724,0.0007474533708517547
2023-01-28 09:05:30.807724,0.013126134872436501
2023-01-28 09:05:30.812724,0.03492572718688018
2023-01-28 09:05:30.817724,0.0668086633086204
2023-01-28 09:05:30.822724,0.10601301865207247
2023-01-28 09:05:30.827724,0.14640688896179185
2023-01-28 09:05:30.832724,0.18002980222943082
2023-01-28 09:05:30.837724,0.1993441581726073
2023-01-28 09:05:30.842724,0.19955967543091324
2023-01-28 09:05:30.847724,0.18044829368591297
2023-01-28 09:05:30.852724,0.146689347407296
2023-01-28 09:05:30.857724,0.10621111094951614
2023-01-28 09:05:30.862724,0.06736166218715359
2023-01-28 09:05:30.867724,0.036397378891706446
2023-01-28 09:05:30.872724,0.016105535994449232
2023-01-28 09:05:30.877724,0.005673567764460964
2023-01-28 09:05:30.882724,0.0018006469829463943
2023-01-28 09:05:30.887724,0.0006490945816040417
2023-01-28 09:05:30.892724,-0.00047675878442824646
2023-01-28 09:05:30.897724,-0.0026204190216957955
2023-01-28 09:05:30.902724,-0.0055820479491434484
2023-01-28 09:05:30.907724,-0.008486310951411762
2023-01-28 09:05:30.912724,-0.010285340538248136
2023-01-28 09:05:30.917724,-0.010265311226248684
2023-01-28 09:05:30.922724,-0.008279700672835148
2023-01-28 09:05:30.927724,-0.004519621841609369
2023-01-28 09:05:30.932724,0.0007344896787984064
2023-01-28 09:05:30.937724,0.006971756927668984
2023-01-28 09:05:30.942724,0.013278687268817094
2023-01-28 09:05:30.947724,0.01860737800598142
2023-01-28 09:05:30.952724,0.022219024778663273
2023-01-28 09:05:30.957724,0.023824175819754646
2023-01-28 09:05:30.962724,0.023548400717750325
2023-01-28 09:05:30.967724,0.022021135315299038
2023-01-28 09:05:30.972724,0.02034867136750363
2023-01-28 09:05:30.977724,0.019689202308654705
2023-01-28 09:05:30.982724,0.02078849508581091
2023-01-28 09:05:30.987724,0.023920338600873902
2023-01-28 09:05:30.992724,0.029016799699506463
2023-01-28 09:05:30.997724,0.03562808036804187
2023-01-28 09:05:31.002724,0.04293845607864872
2023-01-28 09:05:31.007724,0.05014856904745093
2023-01-28 09:05:31.012724,0.056900558484834184
2023-01-28 09:05:31.017724,0.06329874694347377
2023-01-28 09:05:31.022724,0.06969410155160892
2023-01-28 09:05:31.027724,0.0765691250562667
2023-01-28 09:05:31.032724,0.0843735320186971
2023-01-28 09:05:31.037724,0.09315709769725784
2023-01-28 09:05:31.042724,0.1024222693559401
2023-01-28 09:05:31.047724,0.11154811084270469
2023-01-28 09:05:31.052724,0.12033741345560878
2023-01-28 09:05:31.057724,0.12907366454601277
2023-01-28 09:05:31.062724,0.13819343356650637
2023-01-28 09:05:31.067724,0.1479935646057128
2023-01-28 09:05:31.072724,0.1583699292818228
2023-01-28 09:05:31.077724,0.16852419078350056
2023-01-28 09:05:31.082724,0.17703143120893874
2023-01-28 09:05:31.087724,0.1824917495250701
2023-01-28 09:05:31.092724,0.1841761247566357
2023-01-28 09:05:31.097724,0.1820109337568283
2023-01-28 09:05:31.102724,0.17612481896338844
2023-01-28 09:05:31.107724,0.16657690703868858
2023-01-28 09:05:31.112724,0.1533533630527508
2023-01-28 09:05:31.117724,0.13643006980419148
2023-01-28 09:05:31.122724,0.11602436945725637
2023-01-28 09:05:31.127724,0.09308497607707973
2023-01-28 09:05:31.132724,0.06948236022588392
2023-01-28 09:05:31.137724,0.04745602607727049
2023-01-28 09:05:31.142724,0.028756708940527058
2023-01-28 09:05:31.147724,0.01420795917510983
2023-01-28 09:05:31.152724,0.003745355000515674
2023-01-28 09:05:31.157724,-0.0033897161483763868
2023-01-28 09:05:31.162724,-0.00829774875310795
2023-01-28 09:05:31.167724,-0.011876027099788118
2023-01-28 09:05:31.172724,-0.014507576264439624
2023-01-28 09:05:31.177724,-0.016299486160278324
2023-01-28 09:05:31.182724,-0.017446218773307588
2023-01-28 09:05:31.187724,-0.018198689445853206
2023-01-28 09:05:31.192724,-0.018640988586373072
2023-01-28 09:05:31.197724,-0.01870354078710064
2023-01-28 09:05:31.202724,-0.01828220278223249
2023-01-28 09:05:31.207724,-0.017188986763358127
2023-01-28 09:05:31.212724,-0.015176908140709178
2023-01-28 09:05:31.217724,-0.01228471659123888
2023-01-28 09:05:31.222724,-0.009089061516655825
2023-01-28 09:05:31.227724,-0.006418824195861795
2023-01-28 09:05:31.232724,-0.004860157972363684
2023-01-28 09:05:31.237724,-0.004591743461787667
2023-01-28 09:05:31.242724,-0.005435854937861317
2023-01-28 09:05:31.247724,-0.006803472992032715
2023-01-28 09:05:31.252724,-0.007769872229964168
2023-01-28 09:05:31.257724,-0.007572770118713279
2023-01-28 09:05:31.262724,-0.006112528742229567
2023-01-28 09:05:31.267724,-0.003894567489624016
2023-01-28 09:05:31.272724,-0.00161533651775328
2023-01-28 09:05:31.277724,9.61621626629044e-05
2023-01-28 09:05:31.282724,0.0008244279611271376
2023-01-28 09:05:31.287724,0.0006250540609470718
2023-01-28 09:05:31.292724,8.35504414737412e-05
2023-01-28 09:05:31.297724,-0.0001442432403563861
2023-01-28 09:05:31.302724,0.0001374360675705925
2023-01-28 09:05:31.307724,0.0006731351604684832
2023-01-28 09:05:31.312724,0.0011220358093251453
2023-01-28 09:05:31.317724,0.0012501081218942005
2023-01-28 09:05:31.322724,0.0009786571595955587
2023-01-28 09:05:31.327724,0.0005288919201120118
2023-01-28 09:05:31.332724,0.0003887334679473753
2023-01-28 09:05:31.337724,0.0008414189214818132
2023-01-28 09:05:31.342724,0.001563299095169981
2023-01-28 09:05:31.347724,0.0018751621246337227
2023-01-28 09:05:31.352724,0.0013126843330480184
2023-01-28 09:05:31.357724,-0.0001682837901171273
2023-01-28 09:05:31.362724,-0.0023118991057462968
2023-01-28 09:05:31.367724,-0.004615783691406212
2023-01-28 09:05:31.372724,-0.006458668499094675
2023-01-28 09:05:31.377724,-0.007524689193814893
2023-01-28 09:05:31.382724,-0.008040837318010707
2023-01-28 09:05:31.387724,-0.008342067711055202
2023-01-28 09:05:31.392724,-0.008284648982178889
2023-01-28 09:05:31.397724,-0.007308324333280291
2023-01-28 09:05:31.402724,-0.004963728468517293
2023-01-28 09:05:31.407724,-0.0012020270805805306
2023-01-28 09:05:31.412724,0.0036048629386964516
2023-01-28 09:05:31.417724,0.008606513962149582
2023-01-28 09:05:31.422724,0.012666179529016053
2023-01-28 09:05:31.427724,0.015097459778189591
2023-01-28 09:05:31.432724,0.016263713734298253
2023-01-28 09:05:31.437724,0.017237067222595208
2023-01-28 09:05:31.442724,0.018961283464980758
2023-01-28 09:05:31.447724,0.021900933235883713
2023-01-28 09:05:31.452724,0.02614665285281519
2023-01-28 09:05:31.457724,0.03137290477752678
2023-01-28 09:05:31.462724,0.03684648447424316
2023-01-28 09:05:31.467724,0.04195074364542954
2023-01-28 09:05:31.472724,0.04662479340709679
2023-01-28 09:05:31.477724,0.05089382454752919
2023-01-28 09:05:31.482724,0.05413737747512291
2023-01-28 09:05:31.487724,0.05531728267669666
2023-01-28 09:05:31.492724,0.053803950577148915
2023-01-28 09:05:31.497724,0.04949947446584697
2023-01-28 09:05:31.502724,0.04243397548304246
2023-01-28 09:05:31.507724,0.0330797843635082
2023-01-28 09:05:31.512724,0.023047342818046282
2023-01-28 09:05:31.517724,0.014496445655822714
2023-01-28 09:05:31.522724,0.00842555780638732
2023-01-28 09:05:31.527724,0.004134973045438513
2023-01-28 09:05:31.532724,0.0006531259363936902
2023-01-28 09:05:31.537724,-0.0020434460602700285
2023-01-28 09:05:31.542724,-0.0037202757057099825
2023-01-28 09:05:31.547724,-0.005096594803035209
2023-01-28 09:05:31.552724,-0.0075156477558143584
2023-01-28 09:05:31.557724,-0.011491378769278493
2023-01-28 09:05:31.562724,-0.015886739033764103
2023-01-28 09:05:31.567724,-0.018006365746259585
2023-01-28 09:05:31.572724,-0.013794215848102377
2023-01-28 09:05:31.577724,0.0016107162227854037
2023-01-28 09:05:31.582724,0.03201544955987846
2023-01-28 09:05:31.587724,0.07750670611858358
2023-01-28 09:05:31.592724,0.13287598829878158
2023-01-28 09:05:31.597724,0.18830955028533927
2023-01-28 09:05:31.602724,0.23196639895062124
2023-01-28 09:05:31.607724,0.25353154540061945
2023-01-28 09:05:31.612724,0.2477660862468958
2023-01-28 09:05:31.617724,0.21660527586936942
2023-01-28 09:05:31.622724,0.16846749761173246
2023-01-28 09:05:31.627724,0.11496186256408683
2023-01-28 09:05:31.632724,0.06677226182554437
2023-01-28 09:05:31.637724,0.030579566955566396
2023-01-28 09:05:31.642724,0.007916670466204541
2023-01-28 09:05:31.647724,-0.003966689109802179
2023-01-28 09:05:31.652724,-0.00977234582535967
2023-01-28 09:05:31.657724,-0.013582905754446888
2023-01-28 09:05:31.662724,-0.017387622293070858
2023-01-28 09:05:31.667724,-0.021131634712219217
2023-01-28 09:05:31.672724,-0.02367396679907417
2023-01-28 09:05:31.677724,-0.023848216980695686
2023-01-28 09:05:31.682724,-0.02119547082955143
2023-01-28 09:05:31.687724,-0.016179284080862867
2023-01-28 09:05:31.692724,-0.009854980306611343
2023-01-28 09:05:31.697724,-0.003293554065748978
2023-01-28 09:05:31.702724,0.0027949285270208197
2023-01-28 09:05:31.707724,0.00810166262090203
2023-01-28 09:05:31.712724,0.012604534533217965
2023-01-28 09:05:31.717724,0.0164196901023387
2023-01-28 09:05:31.722724,0.01961010709310818
2023-01-28 09:05:31.727724,0.0220451764762401
2023-01-28 09:05:31.732724,0.023462753054150482
2023-01-28 09:05:31.737724,0.023679932579398096
2023-01-28 09:05:31.742724,0.022751728317183535
2023-01-28 09:05:31.747724,0.02101143263280389
2023-01-28 09:05:31.752724,0.01905575465667968
2023-01-28 09:05:31.757724,0.01766979694366451
2023-01-28 09:05:31.762724,0.017663625740998834
2023-01-28 09:05:31.767724,0.01971324346959587
2023-01-28 09:05:31.772724,0.024290411264277775
2023-01-28 09:05:31.777724,0.031589269638061496
2023-01-28 09:05:31.782724,0.041362506584159374
2023-01-28 09:05:31.787724,0.052817068994045216
2023-01-28 09:05:31.792724,0.06478184715939106
2023-01-28 09:05:31.797724,0.07611235231161106
2023-01-28 09:05:31.802724,0.08610458553356028
2023-01-28 09:05:31.807724,0.0947437733411788
2023-01-28 09:05:31.812724,0.102689677245569
2023-01-28 09:05:31.817724,0.11092305183410639
2023-01-28 09:05:31.822724,0.1201558949750577
2023-01-28 09:05:31.827724,0.1303718537092208
2023-01-28 09:05:31.832724,0.1408266968041332
2023-01-28 09:05:31.837724,0.15046975016593925
2023-01-28 09:05:31.842724,0.15847016429763738
2023-01-28 09:05:31.847724,0.16455750167369837
2023-01-28 09:05:31.852724,0.16901279025742083
2023-01-28 09:05:31.857724,0.17227451503276817
2023-01-28 09:05:31.862724,0.17436229337196563
2023-01-28 09:05:31.867724,0.17453432083129874
2023-01-28 09:05:31.872724,0.17146314234824003
2023-01-28 09:05:31.877724,0.16381224989891047
2023-01-28 09:05:31.882724,0.15085785149217718
2023-01-28 09:05:31.887724,0.13287207484245292
2023-01-28 09:05:31.892724,0.11113044114550893
2023-01-28 09:05:31.897724,0.08753161132335655
2023-01-28 09:05:31.902724,0.06402137457921617
2023-01-28 09:05:31.907724,0.042167108505964224
2023-01-28 09:05:31.912724,0.023074072830563327
2023-01-28 09:05:31.917724,0.0075006484985351346
2023-01-28 09:05:31.922724,-0.004078890735796359
2023-01-28 09:05:31.927724,-0.0115394592285156
2023-01-28 09:05:31.932724,-0.01521625356296666
2023-01-28 09:05:31.937724,-0.01596291922032832
2023-01-28 09:05:31.942724,-0.015055344548040478
2023-01-28 09:05:31.947724,-0.01387139223515978
2023-01-28 09:05:31.952724,-0.013454608397898164
2023-01-28 09:05:31.957724,-0.014232000336050892
2023-01-28 09:05:31.962724,-0.016047882298766875
2023-01-28 09:05:31.967724,-0.01841505430638791
2023-01-28 09:05:31.972724,-0.020790751270270826
2023-01-28 09:05:31.977724,-0.02276639267802231
2023-01-28 09:05:31.982724,-0.024112732881026257
2023-01-28 09:05:31.987724,-0.024665594100952128
2023-01-28 09:05:31.992724,-0.02418555858933367
2023-01-28 09:05:31.997724,-0.02240578457713117
2023-01-28 09:05:32.002724,-0.019287320521436155
2023-01-28 09:05:32.007724,-0.015241703018546087
2023-01-28 09:05:32.012724,-0.011103369933892404
2023-01-28 09:05:32.017724,-0.007861256599426188
2023-01-28 09:05:32.022724,-0.006276454695561054
2023-01-28 09:05:32.027724,-0.006514986511319798
2023-01-28 09:05:32.032724,-0.007979258302781896
2023-01-28 09:05:32.037724,-0.009520053863525273
2023-01-28 09:05:32.042724,-0.009973636226925616
2023-01-28 09:05:32.047724,-0.008702675811946295
2023-01-28 09:05:32.052724,-0.00585387476234532
2023-01-28 09:05:32.057724,-0.0022838513832539025
2023-01-28 09:05:32.062724,0.0007705496596427294
2023-01-28 09:05:32.067724,0.0021876893006265025
2023-01-28 09:05:32.072724,0.0014425156190908694
2023-01-28 09:05:32.077724,-0.0011779865017160086
2023-01-28 09:05:32.082724,-0.004729387231577873
2023-01-28 09:05:32.087724,-0.008005499839782678
2023-01-28 09:05:32.092724,-0.009990661508819014
2023-01-28 09:05:32.097724,-0.010241270065307579
2023-01-28 09:05:32.102724,-0.009049947755943906
2023-01-28 09:05:32.107724,-0.00726024340838192
2023-01-28 09:05:32.112724,-0.005812972366800854
2023-01-28 09:05:32.117724,-0.005312959663569889
2023-01-28 09:05:32.122724,-0.005833920327044387
2023-01-28 09:05:32.127724,-0.006971756927668991
2023-01-28 09:05:32.132724,-0.008090987115761275
2023-01-28 09:05:32.137724,-0.008702675811946278
2023-01-28 09:05:32.142724,-0.008782906596731758
2023-01-28 09:05:32.147724,-0.008774797432124615
2023-01-28 09:05:32.152724,-0.00925045061546452
2023-01-28 09:05:32.157724,-0.010505716316401893
2023-01-28 09:05:32.162724,-0.012346889911649247
2023-01-28 09:05:32.167724,-0.01411179732531297
2023-01-28 09:05:32.172724,-0.014889323517904564
2023-01-28 09:05:32.177724,-0.013919472694396877
2023-01-28 09:05:32.182724,-0.011030168465910307
2023-01-28 09:05:32.187724,-0.006827513687312584
2023-01-28 09:05:32.192724,-0.002500752541869938
2023-01-28 09:05:32.197724,0.0006010135402902061
2023-01-28 09:05:32.202724,0.0013964967572701258
2023-01-28 09:05:32.207724,-0.0005769729614257173
2023-01-28 09:05:32.212724,-0.004946823143013788
2023-01-28 09:05:32.217724,-0.010577837936580091
2023-01-28 09:05:32.222724,-0.015998571923130707
2023-01-28 09:05:32.227724,-0.01995364949107173
2023-01-28 09:05:32.232724,-0.02172732780491837
2023-01-28 09:05:32.237724,-0.021107595413923177
2023-01-28 09:05:32.242724,-0.018179675002564077
2023-01-28 09:05:32.247724,-0.01322229765355575
2023-01-28 09:05:32.252724,-0.006779120483995025
2023-01-28 09:05:32.257724,0.00028848648071279587
2023-01-28 09:05:32.262724,0.007002757907099414
2023-01-28 09:05:32.267724,0.012693405151367087
2023-01-28 09:05:32.272724,0.017325302895579025
2023-01-28 09:05:32.277724,0.021468203514814287
2023-01-28 09:05:32.282724,0.02596840341527823
2023-01-28 09:05:32.287724,0.0315411910414695
2023-01-28 09:05:32.292724,0.03839545708907704
2023-01-28 09:05:32.297724,0.045965515077114064
2023-01-28 09:05:32.302724,0.0529566162019114
2023-01-28 09:05:32.307724,0.057841539382934494
2023-01-28 09:05:32.312724,0.05956119968491015
2023-01-28 09:05:32.317724,0.05796174332499499
2023-01-28 09:05:32.322724,0.05375896871750617
2023-01-28 09:05:32.327724,0.04817724227905269
2023-01-28 09:05:32.332724,0.04245211175960253
2023-01-28 09:05:32.337724,0.03731092065572726
2023-01-28 09:05:32.342724,0.03264415208504544
2023-01-28 09:05:32.347724,0.027622580528259187
2023-01-28 09:05:32.352724,0.021229844625124287
2023-01-28 09:05:32.357724,0.012861689552664724
2023-01-28 09:05:32.362724,0.0026828873241586753
2023-01-28 09:05:32.367724,-0.008342067711055235
2023-01-28 09:05:32.372724,-0.01875833402974234
2023-01-28 09:05:32.377724,-0.027237933129072113
2023-01-28 09:05:32.382724,-0.03321666609792517
2023-01-28 09:05:32.387724,-0.037070512771606404
2023-01-28 09:05:32.392724,-0.03959667146234544
2023-01-28 09:05:32.397724,-0.04103720188140859
2023-01-28 09:05:32.402724,-0.04013144829901537
2023-01-28 09:05:32.407724,-0.0337048396468162
2023-01-28 09:05:32.412724,-0.01728033071218219
2023-01-28 09:05:32.417724,0.013078054413199354
2023-01-28 09:05:32.422724,0.05822831748192572
2023-01-28 09:05:32.427724,0.11400024592876425
2023-01-28 09:05:32.432724,0.17109641649011245
2023-01-28 09:05:32.437724,0.2172784060239791
2023-01-28 09:05:32.442724,0.2412129012508733
2023-01-28 09:05:32.447724,0.23653487861156455
2023-01-28 09:05:32.452724,0.20435404714208805
2023-01-28 09:05:32.457724,0.15292188525199885
2023-01-28 09:05:32.462724,0.0945396516485863
2023-01-28 09:05:32.467724,0.0412295274436473
2023-01-28 09:05:32.472724,0.001153161220834164
2023-01-28 09:05:32.477724,-0.022934675216674794
2023-01-28 09:05:32.482724,-0.03303915493938608
2023-01-28 09:05:32.487724,-0.033825039863586384
2023-01-28 09:05:32.492724,-0.030254852470025875
2023-01-28 09:05:32.497724,-0.026035904884338292
2023-01-28 09:05:32.502724,-0.023240570577932346
2023-01-28 09:05:32.507724,-0.02267022989690299
2023-01-28 09:05:32.512724,-0.024314369538925712
2023-01-28 09:05:32.517724,-0.02762258052825921
2023-01-28 09:05:32.522724,-0.0316727784394809
2023-01-28 09:05:32.527724,-0.03536363691091526
2023-01-28 09:05:32.532724,-0.037678339283267547
2023-01-28 09:05:32.537724,-0.03800809383392329
2023-01-28 09:05:32.542724,-0.03640192707289008
2023-01-28 09:05:32.547724,-0.03351251408457745
2023-01-28 09:05:32.552724,-0.03018228477424807
2023-01-28 09:05:32.557724,-0.026949446648359167
2023-01-28 09:05:32.562724,-0.02382911960805685
2023-01-28 09:05:32.567724,-0.020458500832319156
2023-01-28 09:05:32.572724,-0.01644626424490335
2023-01-28 09:05:32.577724,-0.011731783859431692
2023-01-28 09:05:32.582724,-0.0067772166058895494
2023-01-28 09:05:32.587724,-0.002428094623610274
2023-01-28 09:05:32.592724,0.0005468273331384973
2023-01-28 09:05:32.597724,0.001947283744811957
2023-01-28 09:05:32.602724,0.002329711359580481
2023-01-28 09:05:32.607724,0.002812743186950579
2023-01-28 09:05:32.612724,0.0046532913037718796
2023-01-28 09:05:32.617724,0.008774797432124549
2023-01-28 09:05:32.622724,0.015419181944474662
2023-01-28 09:05:32.627724,0.02411266230046743
2023-01-28 09:05:32.632724,0.03399811045234955
2023-01-28 09:05:32.637724,0.044306717813014866
2023-01-28 09:05:32.642724,0.054650355174496484
2023-01-28 09:05:32.647724,0.06502966582775106
2023-01-28 09:05:32.652724,0.07566549553437373
2023-01-28 09:05:32.657724,0.08676230907440176
2023-01-28 09:05:32.662724,0.09827630672793511
2023-01-28 09:05:32.667724,0.10981719195842739
2023-01-28 09:05:32.672724,0.12077866435914872
2023-01-28 09:05:32.677724,0.13058821856975547
2023-01-28 09:05:32.682724,0.1388587003108729
2023-01-28 09:05:32.687724,0.14537315070629103
2023-01-28 09:05:32.692724,0.14999308848627882
2023-01-28 09:05:32.697724,0.15253722667694086
2023-01-28 09:05:32.702724,0.15261819715700653
2023-01-28 09:05:32.707724,0.14953216910362227
2023-01-28 09:05:32.712724,0.14237171426421674
2023-01-28 09:05:32.717724,0.13037185370922075
2023-01-28 09:05:32.722724,0.11330003333484577
2023-01-28 09:05:32.727724,0.09171466529369346
2023-01-28 09:05:32.732724,0.06702088207077414
2023-01-28 09:05:32.737724,0.04125356674194326
2023-01-28 09:05:32.742724,0.01656253252823297
2023-01-28 09:05:32.747724,-0.005385081283748115
2023-01-28 09:05:32.752724,-0.023711182223477845
2023-01-28 09:05:32.757724,-0.038200419396161985
2023-01-28 09:05:32.762724,-0.04898233455658209
2023-01-28 09:05:32.767724,-0.0563269853591918
2023-01-28 09:05:32.772724,-0.06062147785682023
2023-01-28 09:05:32.777724,-0.062433283776044804
2023-01-28 09:05:32.782724,-0.06256690019717202
2023-01-28 09:05:32.787724,-0.06200055405497549
2023-01-28 09:05:32.792724,-0.061603819073850166
2023-01-28 09:05:32.797724,-0.0617601498961448
2023-01-28 09:05:32.802724,-0.0622342497121623
2023-01-28 09:05:32.807724,-0.062457323074340765
2023-01-28 09:05:32.812724,-0.06200470377327569
2023-01-28 09:05:32.817724,-0.060918729752302045
2023-01-28 09:05:32.822724,-0.05974211467344692
2023-01-28 09:05:32.827724,-0.05928397178649898
2023-01-28 09:05:32.832724,-0.06016447556159588
2023-01-28 09:05:32.837724,-0.06233712285757059
2023-01-28 09:05:32.842724,-0.06496118367099767
2023-01-28 09:05:32.847724,-0.06678462028503405
2023-01-28 09:05:32.852724,-0.06673947230225671
2023-01-28 09:05:32.857724,-0.06435652822256077
2023-01-28 09:05:32.862724,-0.05991795469038309
2023-01-28 09:05:32.867724,-0.0544037446379661
2023-01-28 09:05:32.872724,-0.0491488817251774
2023-01-28 09:05:32.877724,-0.0452442988753318
2023-01-28 09:05:32.882724,-0.04308836517445087
2023-01-28 09:05:32.887724,-0.04243155568838113
2023-01-28 09:05:32.892724,-0.042704800450963414
2023-01-28 09:05:32.897724,-0.043248932808637564
2023-01-28 09:05:32.902724,-0.04349437650890437
2023-01-28 09:05:32.907724,-0.04327297210693345
2023-01-28 09:05:32.912724,-0.04296764996583255
2023-01-28 09:05:32.917724,-0.04312872886657708
2023-01-28 09:05:32.922724,-0.04392196824637291
2023-01-28 09:05:32.927724,-0.045100055634975364
2023-01-28 09:05:32.932724,-0.04637864520250804
2023-01-28 09:05:32.937724,-0.04748006910085671
2023-01-28 09:05:32.942724,-0.04783906568473325
2023-01-28 09:05:32.947724,-0.04678289219737051
2023-01-28 09:05:32.952724,-0.04430283642577005
2023-01-28 09:05:32.957724,-0.0413737706840038
2023-01-28 09:05:32.962724,-0.039221248189980684
2023-01-28 09:05:32.967724,-0.0384167842566967
2023-01-28 09:05:32.972724,-0.038834693859705054
2023-01-28 09:05:32.977724,-0.04017174243926999
2023-01-28 09:05:32.982724,-0.04213790777889957
2023-01-28 09:05:32.987724,-0.04430671781301491
2023-01-28 09:05:32.992724,-0.04619875510016299
2023-01-28 09:05:32.997724,-0.04755219072103498
2023-01-28 09:05:33.002724,-0.04829767118534617
2023-01-28 09:05:33.007724,-0.0483455285429954
2023-01-28 09:05:33.012724,-0.04766930663749242
2023-01-28 09:05:33.017724,-0.04654248803853981
2023-01-28 09:05:33.022724,-0.04539129688586736
2023-01-28 09:05:33.027724,-0.044402878731489105
2023-01-28 09:05:33.032724,-0.04352366486620515
2023-01-28 09:05:33.037724,-0.0428162030875681
2023-01-28 09:05:33.042724,-0.04251822290040272
2023-01-28 09:05:33.047724,-0.04272004216909397
2023-01-28 09:05:33.052724,-0.04326988507824319
2023-01-28 09:05:33.057724,-0.044042270630597985
2023-01-28 09:05:33.062724,-0.044981124683869146
2023-01-28 09:05:33.067724,-0.04574915021657941
2023-01-28 09:05:33.072724,-0.0456260534449291
2023-01-28 09:05:33.077724,-0.04399418830871574
2023-01-28 09:05:33.082724,-0.040832839419201794
2023-01-28 09:05:33.087724,-0.03666182607412328
2023-01-28 09:05:33.092724,-0.03216539252718876
2023-01-28 09:05:33.097724,-0.027911067008972102
2023-01-28 09:05:33.102724,-0.024119646213993054
2023-01-28 09:05:33.107724,-0.02043445967137811
2023-01-28 09:05:33.112724,-0.01603936036707267
2023-01-28 09:05:33.117724,-0.01026531122624867
2023-01-28 09:05:33.122724,-0.003137047157271804
2023-01-28 09:05:33.127724,0.00468790531158443
2023-01-28 09:05:33.132724,0.012387033716942596
2023-01-28 09:05:33.137724,0.019304554909467617
2023-01-28 09:05:33.142724,0.025000535362716476
2023-01-28 09:05:33.147724,0.029161175712942997
2023-01-28 09:05:33.152724,0.031390715967251424
2023-01-28 09:05:33.157724,0.030964216217398585
2023-01-28 09:05:33.162724,0.026909234623848276
2023-01-28 09:05:33.167724,0.018607378005981414
2023-01-28 09:05:33.172724,0.006477403864193834
2023-01-28 09:05:33.177724,-0.007885297760367269
2023-01-28 09:05:33.182724,-0.022223289792544405
2023-01-28 09:05:33.187724,-0.0344260558485984
2023-01-28 09:05:33.192724,-0.043268030293891306
2023-01-28 09:05:33.197724,-0.048802297562360666
2023-01-28 09:05:33.202724,-0.05217846237314572
2023-01-28 09:05:33.207724,-0.05495667457580559
2023-01-28 09:05:33.212724,-0.05840186323491427
2023-01-28 09:05:33.217724,-0.06315450370311729
2023-01-28 09:05:33.222724,-0.06914098994929979
2023-01-28 09:05:33.227724,-0.07536709308624259
2023-01-28 09:05:33.232724,-0.07957835387763441
2023-01-28 09:05:33.237724,-0.07813175767660137
2023-01-28 09:05:33.242724,-0.06646906938274334
2023-01-28 09:05:33.247724,-0.04046022891998288
2023-01-28 09:05:33.252724,0.001464050325360547
2023-01-28 09:05:33.257724,0.0562067851424217
2023-01-28 09:05:33.262724,0.11531782737750283
2023-01-28 09:05:33.267724,0.16667306423187245
2023-01-28 09:05:33.272724,0.19814155141675618
2023-01-28 09:05:33.277724,0.20174822211265556
2023-01-28 09:05:33.282724,0.1766045353015227
2023-01-28 09:05:33.287724,0.1293381154537199
2023-01-28 09:05:33.292724,0.07169181489237426
2023-01-28 09:05:33.297724,0.016275446861982273
2023-01-28 09:05:33.302724,-0.027542855089131103
2023-01-28 09:05:33.307724,-0.055822134017944294
2023-01-28 09:05:33.312724,-0.06979860268735551
2023-01-28 09:05:33.317724,-0.0739006251096725
2023-01-28 09:05:33.322724,-0.07319046726215678
2023-01-28 09:05:33.327724,-0.07132828235626217
2023-01-28 09:05:33.332724,-0.06980009779007426
2023-01-28 09:05:33.337724,-0.06844341754913333
2023-01-28 09:05:33.342724,-0.06655455894035951
2023-01-28 09:05:33.347724,-0.06373147666454307
2023-01-28 09:05:33.352724,-0.060127774494940465
2023-01-28 09:05:33.357724,-0.05627890676259993
2023-01-28 09:05:33.362724,-0.05274267413895808
2023-01-28 09:05:33.367724,-0.04976391792297359
2023-01-28 09:05:33.372724,-0.04719133886331815
2023-01-28 09:05:33.377724,-0.044715404510498
2023-01-28 09:05:33.382724,-0.04219470836042668
2023-01-28 09:05:33.387724,-0.03978709504008286
2023-01-28 09:05:33.392724,-0.0378448977644037
2023-01-28 09:05:33.397724,-0.03668586537241931
2023-01-28 09:05:33.402724,-0.036313785011722666
2023-01-28 09:05:33.407724,-0.03620505332946769
2023-01-28 09:05:33.412724,-0.035378833533539454
2023-01-28 09:05:33.417724,-0.0328153371810913
2023-01-28 09:05:33.422724,-0.02795997337227024
2023-01-28 09:05:33.427724,-0.02098739147186272
2023-01-28 09:05:33.432724,-0.012737738230787618
2023-01-28 09:05:33.437724,-0.004399418830871533
2023-01-28 09:05:33.442724,0.0029796928974535632
2023-01-28 09:05:33.447724,0.008967122063040709
2023-01-28 09:05:33.452724,0.013895107628147201
2023-01-28 09:05:33.457724,0.018559297546744295
2023-01-28 09:05:33.462724,0.02373138934291595
2023-01-28 09:05:33.467724,0.02985835075378413
2023-01-28 09:05:33.472724,0.03707009947491842
2023-01-28 09:05:33.477724,0.0453885421156883
2023-01-28 09:05:33.482724,0.05497451485766593
2023-01-28 09:05:33.487724,0.06620764732360825
2023-01-28 09:05:33.492724,0.07942513168983581
2023-01-28 09:05:33.497724,0.09443124383687969
2023-01-28 09:05:33.502724,0.11019110536647342
2023-01-28 09:05:33.507724,0.12501081824302662
2023-01-28 09:05:33.512724,0.13708978763413895
2023-01-28 09:05:33.517724,0.14510869979858385
2023-01-28 09:05:33.522724,0.1485987910092329
2023-01-28 09:05:33.527724,0.14794549345970143
2023-01-28 09:05:33.532724,0.1439772747531479
2023-01-28 09:05:33.537724,0.13734361529350272
2023-01-28 09:05:33.542724,0.12810842025631183
2023-01-28 09:05:33.547724,0.11582732200622549
2023-01-28 09:05:33.552724,0.0999834635550631
2023-01-28 09:05:33.557724,0.08048772811889637
2023-01-28 09:05:33.562724,0.05804980967116053
2023-01-28 09:05:33.567724,0.034281812608242014
2023-01-28 09:05:33.572724,0.011392554092440022
2023-01-28 09:05:33.577724,-0.008486310951411686
2023-01-28 09:05:33.582724,-0.024017321004413783
2023-01-28 09:05:33.587724,-0.035051107406616114
2023-01-28 09:05:33.592724,-0.0425505948146394
2023-01-28 09:05:33.597724,-0.04810512065887451
2023-01-28 09:05:33.602724,-0.05321548759906586
2023-01-28 09:05:33.607724,-0.05865892022848114
2023-01-28 09:05:33.612724,-0.06426148401938007
2023-01-28 09:05:33.617724,-0.06916463375091547
2023-01-28 09:05:33.622724,-0.07236543787196986
2023-01-28 09:05:33.627724,-0.07322748750448219
2023-01-28 09:05:33.632724,-0.07175958797259008
2023-01-28 09:05:33.637724,-0.06856362521648396
2023-01-28 09:05:33.642724,-0.06449397217420348
2023-01-28 09:05:33.647724,-0.06026963517069807
2023-01-28 09:05:33.652724,-0.05631397947632263
2023-01-28 09:05:33.657724,-0.05286514759063722
2023-01-28 09:05:33.662724,-0.050177632419806266
2023-01-28 09:05:33.667724,-0.048634015023708316
2023-01-28 09:05:33.672724,-0.04866686438364623
2023-01-28 09:05:33.677724,-0.05046109482645983
2023-01-28 09:05:33.682724,-0.05359043914918294
2023-01-28 09:05:33.687724,-0.0569280013442039
2023-01-28 09:05:33.692724,-0.05901624884831218
2023-01-28 09:05:33.697724,-0.05868295952677721
2023-01-28 09:05:33.702724,-0.055554799400851604
2023-01-28 09:05:33.707724,-0.05029281228780737
2023-01-28 09:05:33.712724,-0.04442393887719499
2023-01-28 09:05:33.717724,-0.039642851799726396
2023-01-28 09:05:33.722724,-0.036882643429312655
2023-01-28 09:05:33.727724,-0.03594060987234108
2023-01-28 09:05:33.732724,-0.036037322202525965
2023-01-28 09:05:33.737724,-0.03663778305053711
2023-01-28 09:05:33.742724,-0.03765215259835095
2023-01-28 09:05:33.747724,-0.0390899181365966
2023-01-28 09:05:33.752724,-0.040856681626757166
2023-01-28 09:05:33.757724,-0.04281620308756818
2023-01-28 09:05:33.762724,-0.04470161620321646
2023-01-28 09:05:33.767724,-0.04594147205352778
2023-01-28 09:05:33.772724,-0.045934941677187625
2023-01-28 09:05:33.777724,-0.044691365212201996
2023-01-28 09:05:33.782724,-0.04302627257358504
2023-01-28 09:05:33.787724,-0.041998825967311776
2023-01-28 09:05:33.792724,-0.04224126264496917
2023-01-28 09:05:33.797724,-0.043777823448181104
2023-01-28 09:05:33.802724,-0.046170910372525645
2023-01-28 09:05:33.807724,-0.048682093620300224
2023-01-28 09:05:33.812724,-0.05052342811283405
2023-01-28 09:05:33.817724,-0.05120635032653804
2023-01-28 09:05:33.822724,-0.05063707995986875
2023-01-28 09:05:33.827724,-0.04885037988424302
2023-01-28 09:05:33.832724,-0.04581528681856593
2023-01-28 09:05:33.837724,-0.041590135544538394
2023-01-28 09:05:33.842724,-0.03650456293994245
2023-01-28 09:05:33.847724,-0.0310603789985179
2023-01-28 09:05:33.852724,-0.025752747834177227
2023-01-28 09:05:33.857724,-0.021035473793745013
2023-01-28 09:05:33.862724,-0.017250980165834207
2023-01-28 09:05:33.867724,-0.014400283806025881
2023-01-28 09:05:33.872724,-0.012044478812859086
2023-01-28 09:05:33.877724,-0.009544095024466516
2023-01-28 09:05:33.882724,-0.006370351037933749
2023-01-28 09:05:33.887724,-0.0022357702255248997
2023-01-28 09:05:33.892724,0.0028008697431932284
2023-01-28 09:05:33.897724,0.008149743080139129
2023-01-28 09:05:33.902724,0.012724410916886003
2023-01-28 09:05:33.907724,0.015385946258902479
2023-01-28 09:05:33.912724,0.015450658709531905
2023-01-28 09:05:33.917724,0.012861689552664693
2023-01-28 09:05:33.922724,0.008083178159628026
2023-01-28 09:05:33.927724,0.001923243282362808
2023-01-28 09:05:33.932724,-0.004745230020810958
2023-01-28 09:05:33.937724,-0.011347135528921993
2023-01-28 09:05:33.942724,-0.017746040207076978
2023-01-28 09:05:33.947724,-0.024016499519348124
2023-01-28 09:05:33.952724,-0.03016606809335425
2023-01-28 09:05:33.957724,-0.03610889241099351
2023-01-28 09:05:33.962724,-0.041757277712297404
2023-01-28 09:05:33.967724,-0.04702329635620107
2023-01-28 09:05:33.972724,-0.05181209127923699
2023-01-28 09:05:33.977724,-0.05606254190206516
2023-01-28 09:05:33.982724,-0.059612812795288184
2023-01-28 09:05:33.987724,-0.06180822849273676
2023-01-28 09:05:33.992724,-0.061201178671731485
2023-01-28 09:05:33.997724,-0.05567789077758773
2023-01-28 09:05:34.002724,-0.042953564292003574
2023-01-28 09:05:34.007724,-0.021299919113516766
2023-01-28 09:05:34.012724,0.009474676002579523
2023-01-28 09:05:34.017724,0.047023296356201144
2023-01-28 09:05:34.022724,0.08611421426995278
2023-01-28 09:05:34.027724,0.11945744603872284
2023-01-28 09:05:34.032724,0.1395409084098301
2023-01-28 09:05:34.037724,0.14090161025524126
2023-01-28 09:05:34.042724,0.12218641588575606
2023-01-28 09:05:34.047724,0.08717100322246547
2023-01-28 09:05:34.052724,0.04391589617411973
2023-01-28 09:05:34.057724,0.002091526985168381
2023-01-28 09:05:34.062724,-0.030310730398977293
2023-01-28 09:05:34.067724,-0.04935523122549053
2023-01-28 09:05:34.072724,-0.05578789519474062
2023-01-28 09:05:34.077724,-0.05387485027313228
2023-01-28 09:05:34.082724,-0.049002259056877696
2023-01-28 09:05:34.087724,-0.045172177255153566
2023-01-28 09:05:34.092724,-0.04370516167444164
2023-01-28 09:05:34.097724,-0.043633580207824686
2023-01-28 09:05:34.102724,-0.043075761243028116
2023-01-28 09:05:34.107724,-0.04055639356374734
2023-01-28 09:05:34.112724,-0.035773552617754875
2023-01-28 09:05:34.117724,-0.02971410751342771
2023-01-28 09:05:34.122724,-0.024096621430073496
2023-01-28 09:05:34.127724,-0.020434459671378125
2023-01-28 09:05:34.132724,-0.019369564685207657
2023-01-28 09:05:34.137724,-0.02062678337097159
2023-01-28 09:05:34.142724,-0.02329071531376888
2023-01-28 09:05:34.147724,-0.026059946045279458
2023-01-28 09:05:34.152724,-0.027564487256508886
2023-01-28 09:05:34.157724,-0.02682924270629877
2023-01-28 09:05:34.162724,-0.023581719311328124
2023-01-28 09:05:34.167724,-0.018174648284912092
2023-01-28 09:05:34.172724,-0.01134826971193253
2023-01-28 09:05:34.177724,-0.004062851425260305
2023-01-28 09:05:34.182724,0.0027351598590524585
2023-01-28 09:05:34.187724,0.008486310951411731
2023-01-28 09:05:34.192724,0.013219521758680299
2023-01-28 09:05:34.197724,0.01738131046295157
2023-01-28 09:05:34.202724,0.021562859413192068
2023-01-28 09:05:34.207724,0.026372473686933497
2023-01-28 09:05:34.212724,0.032299350517211216
2023-01-28 09:05:34.217724,0.039474569261074
2023-01-28 09:05:34.222724,0.04762424973655525
2023-01-28 09:05:34.227724,0.056375067681074066
2023-01-28 09:05:34.232724,0.06557059755756617
2023-01-28 09:05:34.237724,0.07529497146606434
2023-01-28 09:05:34.242724,0.08576844827308763
2023-01-28 09:05:34.247724,0.09729206562042232
2023-01-28 09:05:34.252724,0.11007490982376708
2023-01-28 09:05:34.257724,0.12390494346618647
2023-01-28 09:05:34.262724,0.1380285766941904
2023-01-28 09:05:34.267724,0.15140733122825617
2023-01-28 09:05:34.272724,0.16297797978437378
2023-01-28 09:05:34.277724,0.17164945602416984
2023-01-28 09:05:34.282724,0.17631480836231345
2023-01-28 09:05:34.287724,0.17609696090221388
2023-01-28 09:05:34.292724,0.1705420187012188
2023-01-28 09:05:34.297724,0.15955707430839525
2023-01-28 09:05:34.302724,0.14339304590680738
2023-01-28 09:05:34.307724,0.12284716218709937
2023-01-28 09:05:34.312724,0.09930748508936874
2023-01-28 09:05:34.317724,0.07440547645092005
2023-01-28 09:05:34.322724,0.049679180917764756
2023-01-28 09:05:34.327724,0.026564797386526996
2023-01-28 09:05:34.332724,0.006376402264669435
2023-01-28 09:05:34.337724,-0.010024905204772897
2023-01-28 09:05:34.342724,-0.022508418304110007
2023-01-28 09:05:34.347724,-0.0315411910414695
2023-01-28 09:05:34.352724,-0.037938134657302315
2023-01-28 09:05:34.357724,-0.04279216378927229
2023-01-28 09:05:34.362724,-0.04727211625439493
2023-01-28 09:05:34.367724,-0.0520718097686767
2023-01-28 09:05:34.372724,-0.05703495475697246
2023-01-28 09:05:34.377724,-0.06142358109354969
2023-01-28 09:05:34.382724,-0.0644343997101399
2023-01-28 09:05:34.387724,-0.0654383525252342
2023-01-28 09:05:34.392724,-0.06415037606400308
2023-01-28 09:05:34.397724,-0.060990851372480274
2023-01-28 09:05:34.402724,-0.05714745511785226
2023-01-28 09:05:34.407724,-0.053922932595014496
2023-01-28 09:05:34.412724,-0.05200054079518973
2023-01-28 09:05:34.417724,-0.05139867588877663
2023-01-28 09:05:34.422724,-0.05177020952909622
2023-01-28 09:05:34.427724,-0.05236029624938957
2023-01-28 09:05:34.432724,-0.05199240059396111
2023-01-28 09:05:34.437724,-0.049787960946559864
2023-01-28 09:05:34.442724,-0.04603262773557828
2023-01-28 09:05:34.447724,-0.04195074364542961
2023-01-28 09:05:34.452724,-0.038577834773486606
2023-01-28 09:05:34.457724,-0.03620505332946769
2023-01-28 09:05:34.462724,-0.03485696837941545
2023-01-28 09:05:34.467724,-0.03466646000742911
2023-01-28 09:05:34.472724,-0.03546648977282023
2023-01-28 09:05:34.477724,-0.03649353981018059
2023-01-28 09:05:34.482724,-0.03703688708210517
2023-01-28 09:05:34.487724,-0.03731092065572727
2023-01-28 09:05:34.492724,-0.038358575963893644
2023-01-28 09:05:34.497724,-0.041061244904994895
2023-01-28 09:05:34.502724,-0.045319286435200334
2023-01-28 09:05:34.507724,-0.050004325807094505
2023-01-28 09:05:34.512724,-0.05347526278205015
2023-01-28 09:05:34.517724,-0.05433162301778791
2023-01-28 09:05:34.522724,-0.052180618689748354
2023-01-28 09:05:34.527724,-0.04800895974040033
2023-01-28 09:05:34.532724,-0.04377017877721731
2023-01-28 09:05:34.537724,-0.04137377068400379
2023-01-28 09:05:34.542724,-0.04177089123208444
2023-01-28 09:05:34.547724,-0.044667325913906
2023-01-28 09:05:34.552724,-0.048855936500300824
2023-01-28 09:05:34.557724,-0.052841108292341184
2023-01-28 09:05:34.562724,-0.05542763472685219
2023-01-28 09:05:34.567724,-0.05606254190206517
2023-01-28 09:05:34.572724,-0.054865623018087874
2023-01-28 09:05:34.577724,-0.05243241786956778
2023-01-28 09:05:34.582724,-0.0495509501653711
2023-01-28 09:05:34.587724,-0.0469271354377269
2023-01-28 09:05:34.592724,-0.044958589365419896
2023-01-28 09:05:34.597724,-0.0435855016112327
2023-01-28 09:05:34.602724,-0.042261494661997134
2023-01-28 09:05:34.607724,-0.04009962081909166
2023-01-28 09:05:34.612724,-0.03620725934789386
2023-01-28 09:05:34.617724,-0.030098756775259847
2023-01-28 09:05:34.622724,-0.021976719156191083
2023-01-28 09:05:34.627724,-0.012741486541926776
2023-01-28 09:05:34.632724,-0.003752068447210457
2023-01-28 09:05:34.637724,0.0035580000840127524
2023-01-28 09:05:34.642724,0.008096844261490115
2023-01-28 09:05:34.647724,0.00939985178411
2023-01-28 09:05:34.652724,0.0076230151084586
2023-01-28 09:05:34.657724,0.003269513603299818
2023-01-28 09:05:34.662724,-0.0031187024077964716
2023-01-28 09:05:34.667724,-0.011106729507446256
2023-01-28 09:05:34.672724,-0.02033694649493194
2023-01-28 09:05:34.677724,-0.03038724325597279
2023-01-28 09:05:34.682724,-0.04058237009668898
2023-01-28 09:05:34.687724,-0.04990816116332998
2023-01-28 09:05:34.692724,-0.05720915115075738
2023-01-28 09:05:34.697724,-0.0616399459540843
2023-01-28 09:05:34.702724,-0.06310236194848615
2023-01-28 09:05:34.707724,-0.062433283776044825
2023-01-28 09:05:34.712724,-0.061272567421442006
2023-01-28 09:05:34.717724,-0.061567824333906084
2023-01-28 09:05:34.722724,-0.06470963330067203
2023-01-28 09:05:34.727724,-0.07055898755788799
2023-01-28 09:05:34.732724,-0.07686989270403362
2023-01-28 09:05:34.737724,-0.07947802543640131
2023-01-28 09:05:34.742724,-0.07330557573004985
2023-01-28 09:05:34.747724,-0.054043136537075
2023-01-28 09:05:34.752724,-0.02015330765109645
2023-01-28 09:05:34.757724,0.025579135864972964
2023-01-28 09:05:34.762724,0.07589939572425736
2023-01-28 09:05:34.767724,0.12073159217834463
2023-01-28 09:05:34.772724,0.15009749077232737
2023-01-28 09:05:34.777724,0.15722513198852525
2023-01-28 09:05:34.782724,0.14072824981333876
2023-01-28 09:05:34.787724,0.10498504340648643
2023-01-28 09:05:34.792724,0.058462434750076536
2023-01-28 09:05:34.797724,0.010722081176936578
2023-01-28 09:05:34.802724,-0.030474724533983796
2023-01-28 09:05:34.807724,-0.060822568833827854
2023-01-28 09:05:34.812724,-0.07961667764583136
2023-01-28 09:05:34.817724,-0.08875767886638637
2023-01-28 09:05:34.822724,-0.09123570131235764
2023-01-28 09:05:34.827724,-0.08981546014547334
2023-01-28 09:05:34.832724,-0.08646095185266729
2023-01-28 09:05:34.837724,-0.08243501186370839
2023-01-28 09:05:34.842724,-0.07853995107087493
2023-01-28 09:05:34.847724,-0.0751747712492942
2023-01-28 09:05:34.852724,-0.07235172494198731
2023-01-28 09:05:34.857724,-0.06983777135610578
2023-01-28 09:05:34.862724,-0.06733054945032
2023-01-28 09:05:34.867724,-0.06459693610668177
2023-01-28 09:05:34.872724,-0.06164827920560882
2023-01-28 09:05:34.877724,-0.058875285089015884
2023-01-28 09:05:34.882724,-0.05689502888032585
2023-01-28 09:05:34.887724,-0.0561346635222434
2023-01-28 09:05:34.892724,-0.05652961979577617
2023-01-28 09:05:34.897724,-0.05755305290222161
2023-01-28 09:05:34.902724,-0.05840734203469356
2023-01-28 09:05:34.907724,-0.05822619050741189
2023-01-28 09:05:34.912724,-0.05635765598896237
2023-01-28 09:05:34.917724,-0.05267282575368882
2023-01-28 09:05:34.922724,-0.04761032689279383
2023-01-28 09:05:34.927724,-0.04187862202525131
2023-01-28 09:05:34.932724,-0.03612324713449399
2023-01-28 09:05:34.937724,-0.030795931816100977
2023-01-28 09:05:34.942724,-0.026126817464548664
2023-01-28 09:05:34.947724,-0.02209325693547717
2023-01-28 09:05:34.952724,-0.01845997074124995
2023-01-28 09:05:34.957724,-0.014857053756713786
2023-01-28 09:05:34.962724,-0.010701041146106935
2023-01-28 09:05:34.967724,-0.005024473182857004
2023-01-28 09:05:34.972724,0.003397385689781482
2023-01-28 09:05:34.977724,0.01548210810869929
2023-01-28 09:05:34.982724,0.0312244575175637
2023-01-28 09:05:34.987724,0.04947543144226069
2023-01-28 09:05:34.992724,0.06820520158359542
2023-01-28 09:05:34.997724,0.08512755483388892
2023-01-28 09:05:35.002724,0.09849559579913579
2023-01-28 09:05:35.007724,0.10767757892608644
2023-01-28 09:05:35.012724,0.11309097998569685
2023-01-28 09:05:35.017724,0.11556287854909887
2023-01-28 09:05:35.022724,0.11568646249159197
2023-01-28 09:05:35.027724,0.11359155178070057
2023-01-28 09:05:35.032724,0.10905220633660788
2023-01-28 09:05:35.037724,0.10171552747488018
2023-01-28 09:05:35.042724,0.0913648306104327
2023-01-28 09:05:35.047724,0.0780836790800094
2023-01-28 09:05:35.052724,0.062158772449433186
2023-01-28 09:05:35.057724,0.04387398809194561
2023-01-28 09:05:35.062724,0.023570557242105772
2023-01-28 09:05:35.067724,0.0019953649025410175
2023-01-28 09:05:35.072724,-0.019490796143480454
2023-01-28 09:05:35.077724,-0.03913800045847887
2023-01-28 09:05:35.082724,-0.05532114665917009
2023-01-28 09:05:35.087724,-0.06709714978933322
2023-01-28 09:05:35.092724,-0.07465260558529228
2023-01-28 09:05:35.097724,-0.07938186824321738
2023-01-28 09:05:35.102724,-0.08333080906939105
2023-01-28 09:05:35.107724,-0.08820474147796627
2023-01-28 09:05:35.112724,-0.09457149057541414
2023-01-28 09:05:35.117724,-0.1016914844512939
2023-01-28 09:05:35.122724,-0.10791923178270738
2023-01-28 09:05:35.127724,-0.11145194619894018
2023-01-28 09:05:35.132724,-0.11119977695711486
2023-01-28 09:05:35.137724,-0.10738909244537348
2023-01-28 09:05:35.142724,-0.10150687925620984
2023-01-28 09:05:35.147724,-0.09563326835632319
2023-01-28 09:05:35.152724,-0.09159970706900994
2023-01-28 09:05:35.157724,-0.09032031148672101
2023-01-28 09:05:35.162724,-0.09145121043568978
2023-01-28 09:05:35.167724,-0.093565784394741
2023-01-28 09:05:35.172724,-0.0949031889331877
2023-01-28 09:05:35.177724,-0.09428700059652324
2023-01-28 09:05:35.182724,-0.09163921743165825
2023-01-28 09:05:35.187724,-0.08791625499725342
2023-01-28 09:05:35.192724,-0.08464436452914541
2023-01-28 09:05:35.197724,-0.0832043141126632
2023-01-28 09:05:35.202724,-0.0841016354915468
2023-01-28 09:05:35.207724,-0.08671423047780992
2023-01-28 09:05:35.212724,-0.08974351919955403
2023-01-28 09:05:35.217724,-0.0919069871306419
2023-01-28 09:05:35.222724,-0.09234883727363846
2023-01-28 09:05:35.227724,-0.09084920585155479
2023-01-28 09:05:35.232724,-0.08798995149372311
2023-01-28 09:05:35.237724,-0.08491118997335428
2023-01-28 09:05:35.242724,-0.08251357958982389
2023-01-28 09:05:35.247724,-0.08092045783996582
2023-01-28 09:05:35.252724,-0.07990627263565102
2023-01-28 09:05:35.257724,-0.07959823310375211
2023-01-28 09:05:35.262724,-0.08033855927009623
2023-01-28 09:05:35.267724,-0.08200228214263909
2023-01-28 09:05:35.272724,-0.08394745401657823
2023-01-28 09:05:35.277724,-0.08563240617513641
2023-01-28 09:05:35.282724,-0.0868382577789464
2023-01-28 09:05:35.287724,-0.0872912034392356
2023-01-28 09:05:35.292724,-0.08661372874430633
2023-01-28 09:05:35.297724,-0.08486311137676229
2023-01-28 09:05:35.302724,-0.0827576181704128
2023-01-28 09:05:35.307724,-0.08118490874767299
2023-01-28 09:05:35.312724,-0.08073489993322171
2023-01-28 09:05:35.317724,-0.08171379566192617
2023-01-28 09:05:35.322724,-0.08412302605493513
2023-01-28 09:05:35.327724,-0.08736332505941385
2023-01-28 09:05:35.332724,-0.0902976500774835
2023-01-28 09:05:35.337724,-0.09193103015422817
2023-01-28 09:05:35.342724,-0.09196123351346151
2023-01-28 09:05:35.347724,-0.09068091958761207
2023-01-28 09:05:35.352724,-0.08868387421097268
2023-01-28 09:05:35.357724,-0.08676230907440177
2023-01-28 09:05:35.362724,-0.08565804211928421
2023-01-28 09:05:35.367724,-0.08556028455495829
2023-01-28 09:05:35.372724,-0.0859722964089486
2023-01-28 09:05:35.377724,-0.08620937913656232
2023-01-28 09:05:35.382724,-0.08586368223341283
2023-01-28 09:05:35.387724,-0.08476694673299784
2023-01-28 09:05:35.392724,-0.08287613583329052
2023-01-28 09:05:35.397724,-0.08041560649871822
2023-01-28 09:05:35.402724,-0.07785909089504688
2023-01-28 09:05:35.407724,-0.07551133632659907
2023-01-28 09:05:35.412724,-0.07321647691581688
2023-01-28 09:05:35.417724,-0.0705349445343017
2023-01-28 09:05:35.422724,-0.06695338454308256
2023-01-28 09:05:35.427724,-0.06185631081461901
2023-01-28 09:05:35.432724,-0.05471149413017626
2023-01-28 09:05:35.437724,-0.0456529855728149
2023-01-28 09:05:35.442724,-0.035791355199939166
2023-01-28 09:05:35.447724,-0.02678116224706167
2023-01-28 09:05:35.452724,-0.020132624549617627
2023-01-28 09:05:35.457724,-0.016828378662467055
2023-01-28 09:05:35.462724,-0.017137356821917863
2023-01-28 09:05:35.467724,-0.02053062245249742
2023-01-28 09:05:35.472724,-0.026060598495087347
2023-01-28 09:05:35.477724,-0.033151905983686315
2023-01-28 09:05:35.482724,-0.04196368279148656
2023-01-28 09:05:35.487724,-0.052865147590637186
2023-01-28 09:05:35.492724,-0.06566445842552028
2023-01-28 09:05:35.497724,-0.07930974662303916
2023-01-28 09:05:35.502724,-0.09199881424300002
2023-01-28 09:05:35.507724,-0.10152320563793177
2023-01-28 09:05:35.512724,-0.1060840591737285
2023-01-28 09:05:35.517724,-0.10541777312755575
2023-01-28 09:05:35.522724,-0.10128164406568045
2023-01-28 09:05:35.527724,-0.09671509265899653
2023-01-28 09:05:35.532724,-0.09462497714697722
2023-01-28 09:05:35.537724,-0.09645064920186985
2023-01-28 09:05:35.542724,-0.10108480853036052
2023-01-28 09:05:35.547724,-0.10433594882488248
2023-01-28 09:05:35.552724,-0.09974972345086884
2023-01-28 09:05:35.557724,-0.08104066550731652
2023-01-28 09:05:35.562724,-0.04505513525208837
2023-01-28 09:05:35.567724,0.006154378410428649
2023-01-28 09:05:35.572724,0.0648503152298011
2023-01-28 09:05:35.577724,0.11902471631765352
2023-01-28 09:05:35.582724,0.1558188056251475
2023-01-28 09:05:35.587724,0.16599993407726277
2023-01-28 09:05:35.592724,0.14733083272161063
2023-01-28 09:05:35.597724,0.10510524362325657
2023-01-28 09:05:35.602724,0.04992986994152887
2023-01-28 09:05:35.607724,-0.005986094474792438
2023-01-28 09:05:35.612724,-0.05269112167219221
2023-01-28 09:05:35.617724,-0.08515159785747514
2023-01-28 09:05:35.622724,-0.10355697037305024
2023-01-28 09:05:35.627724,-0.11140386760234822
2023-01-28 09:05:35.632724,-0.11297942565272198
2023-01-28 09:05:35.637724,-0.11174043267965308
2023-01-28 09:05:35.642724,-0.10974655323954301
2023-01-28 09:05:35.647724,-0.10770162194967256
2023-01-28 09:05:35.652724,-0.10548022152071791
2023-01-28 09:05:35.657724,-0.10291755199432369
2023-01-28 09:05:35.662724,-0.10018764520248125
2023-01-28 09:05:35.667724,-0.09750843048095703
2023-01-28 09:05:35.672724,-0.09479908217503664
2023-01-28 09:05:35.677724,-0.09178678691387168
2023-01-28 09:05:35.682724,-0.08822303630907262
2023-01-28 09:05:35.687724,-0.08387744426727291
2023-01-28 09:05:35.692724,-0.07863763360665615
2023-01-28 09:05:35.697724,-0.07289092242717743
2023-01-28 09:05:35.702724,-0.06763691049800369
2023-01-28 09:05:35.707724,-0.06397187709808337
2023-01-28 09:05:35.712724,-0.06246370362398882
2023-01-28 09:05:35.717724,-0.0629621744155883
2023-01-28 09:05:35.722724,-0.06467684091447241
2023-01-28 09:05:35.727724,-0.06630381196737273
2023-01-28 09:05:35.732724,-0.06644811489581033
2023-01-28 09:05:35.737724,-0.06430844962596885
2023-01-28 09:05:35.742724,-0.0599413791904041
2023-01-28 09:05:35.747724,-0.053802728652954004
2023-01-28 09:05:35.752724,-0.04623063157063809
2023-01-28 09:05:35.757724,-0.037455163896083776
2023-01-28 09:05:35.762724,-0.02781881332975354
2023-01-28 09:05:35.767724,-0.01776595972478376
2023-01-28 09:05:35.772724,-0.0077646422137536576
2023-01-28 09:05:35.777724,0.0016828378429636027
2023-01-28 09:05:35.782724,0.010251237293177964
2023-01-28 09:05:35.787724,0.01824676990509028
2023-01-28 09:05:35.792724,0.026668915231077624
2023-01-28 09:05:35.797724,0.03658970445394506
2023-01-28 09:05:35.802724,0.04848443082998796
2023-01-28 09:05:35.807724,0.06209671497344971
2023-01-28 09:05:35.812724,0.07660858520720701
2023-01-28 09:05:35.817724,0.09077708423137656
2023-01-28 09:05:35.822724,0.10320122815302746
2023-01-28 09:05:35.827724,0.11277417838573452
2023-01-28 09:05:35.832724,0.11888316630147032
2023-01-28 09:05:35.837724,0.12118836492300028
2023-01-28 09:05:35.842724,0.1194525372760687
2023-01-28 09:05:35.847724,0.11368771642446508
2023-01-28 09:05:35.852724,0.10423312460458388
2023-01-28 09:05:35.857724,0.09152233600616447
2023-01-28 09:05:35.862724,0.07589452968345704
2023-01-28 09:05:35.867724,0.0576972961425781
2023-01-28 09:05:35.872724,0.03743465710465013
2023-01-28 09:05:35.877724,0.01581867597997176
2023-01-28 09:05:35.882724,-0.006109258784487935
2023-01-28 09:05:35.887724,-0.026901364326477026
2023-01-28 09:05:35.892724,-0.04503349939132169
2023-01-28 09:05:35.897724,-0.059500336647033615
2023-01-28 09:05:35.902724,-0.07011534700559709
2023-01-28 09:05:35.907724,-0.07738649845123292
2023-01-28 09:05:35.912724,-0.08222693163480696
2023-01-28 09:05:35.917724,-0.08548816293478004
2023-01-28 09:05:35.922724,-0.08737479488434083
2023-01-28 09:05:35.927724,-0.0874354466795921
2023-01-28 09:05:35.932724,-0.08545065186416244
2023-01-28 09:05:35.937724,-0.08212248980998989
2023-01-28 09:05:35.942724,-0.0785213178656932
2023-01-28 09:05:35.947724,-0.0751988142728805
2023-01-28 09:05:35.952724,-0.07243659075763975
2023-01-28 09:05:35.957724,-0.07099171727895723
2023-01-28 09:05:35.962724,-0.07160830965979689
2023-01-28 09:05:35.967724,-0.07373233884572983
2023-01-28 09:05:35.972724,-0.07558403399473584
2023-01-28 09:05:35.977724,-0.07575174421071998
2023-01-28 09:05:35.982724,-0.07408478328664617
2023-01-28 09:05:35.987724,-0.07099171727895728
2023-01-28 09:05:35.992724,-0.06680736307750366
2023-01-28 09:05:35.997724,-0.06221691891551006
2023-01-28 09:05:36.002724,-0.058448718398070615
2023-01-28 09:05:36.007724,-0.05639910697937009
2023-01-28 09:05:36.012724,-0.055949004483713774
2023-01-28 09:05:36.017724,-0.056399106979370096
2023-01-28 09:05:36.022724,-0.056988855216341165
2023-01-28 09:05:36.027724,-0.05671163648366923
2023-01-28 09:05:36.032724,-0.05441470341102525
2023-01-28 09:05:36.037724,-0.049787960946559934
2023-01-28 09:05:36.042724,-0.04396115670581378
2023-01-28 09:05:36.047724,-0.03875335305929181
2023-01-28 09:05:36.052724,-0.03563564343413737
2023-01-28 09:05:36.057724,-0.03548383712768555
2023-01-28 09:05:36.062724,-0.03849943220101135
2023-01-28 09:05:36.067724,-0.04372974485158923
2023-01-28 09:05:36.072724,-0.049124381388629595
2023-01-28 09:05:36.077724,-0.05269686505198474
2023-01-28 09:05:36.082724,-0.0535538949018384
2023-01-28 09:05:36.087724,-0.05175928398966777
2023-01-28 09:05:36.092724,-0.04786238416038647
2023-01-28 09:05:36.097724,-0.04296044632792471
2023-01-28 09:05:36.102724,-0.03858515830971626
2023-01-28 09:05:36.107724,-0.03584444522857654
2023-01-28 09:05:36.112724,-0.034856702830078
2023-01-28 09:05:36.117724,-0.035267472267150775
2023-01-28 09:05:36.122724,-0.03685138029622257
2023-01-28 09:05:36.127724,-0.03928224369883525
2023-01-28 09:05:36.132724,-0.04186905238055372
2023-01-28 09:05:36.137724,-0.044018231332301976
2023-01-28 09:05:36.142724,-0.04558605934500152
2023-01-28 09:05:36.147724,-0.0464463233947753
2023-01-28 09:05:36.152724,-0.04624018034884554
2023-01-28 09:05:36.157724,-0.04502793401479716
2023-01-28 09:05:36.162724,-0.04375677484853615
2023-01-28 09:05:36.167724,-0.04360954090952874
2023-01-28 09:05:36.172724,-0.045176395263546436
2023-01-28 09:05:36.177724,-0.048441689461469595
2023-01-28 09:05:36.182724,-0.052914422527937384
2023-01-28 09:05:36.187724,-0.057288609445094965
2023-01-28 09:05:36.192724,-0.05959488122515854
2023-01-28 09:05:36.197724,-0.058442555367946555
2023-01-28 09:05:36.202724,-0.054004056753579235
2023-01-28 09:05:36.207724,-0.0475762300193309
2023-01-28 09:05:36.212724,-0.040658677795244624
2023-01-28 09:05:36.217724,-0.034690499305724945
2023-01-28 09:05:36.222724,-0.030846069223194213
2023-01-28 09:05:36.227724,-0.029257338494062396
2023-01-28 09:05:36.232724,-0.028691774923626946
2023-01-28 09:05:36.237724,-0.027478337287902773
2023-01-28 09:05:36.242724,-0.024505770515143584
2023-01-28 09:05:36.247724,-0.019184350967407227
2023-01-28 09:05:36.252724,-0.011239679140610368
2023-01-28 09:05:36.257724,-0.0012260675430297496
2023-01-28 09:05:36.262724,0.009247406105497591
2023-01-28 09:05:36.267724,0.018487175926566096
2023-01-28 09:05:36.272724,0.02571504885064621
2023-01-28 09:05:36.277724,0.03086805343627922
2023-01-28 09:05:36.282724,0.034020663430573916
2023-01-28 09:05:36.287724,0.035459797829389426
2023-01-28 09:05:36.292724,0.035658618902200165
2023-01-28 09:05:36.297724,0.03447413444519039
2023-01-28 09:05:36.302724,0.030805266694251352
2023-01-28 09:05:36.307724,0.023679932579398107
2023-01-28 09:05:36.312724,0.013396212038486434
2023-01-28 09:05:36.317724,0.0012501081218941577
2023-01-28 09:05:36.322724,-0.011294975894731161
2023-01-28 09:05:36.327724,-0.022742351517081212
2023-01-28 09:05:36.332724,-0.03165677921143462
2023-01-28 09:05:36.337724,-0.03750324249267566
2023-01-28 09:05:36.342724,-0.04111488987232211
2023-01-28 09:05:36.347724,-0.04382590577006333
2023-01-28 09:05:36.352724,-0.04651211725984843
2023-01-28 09:05:36.357724,-0.049715839326381586
2023-01-28 09:05:36.362724,-0.053702166910641225
2023-01-28 09:05:36.367724,-0.05731264874339098
2023-01-28 09:05:36.372724,-0.05701447446394673
2023-01-28 09:05:36.377724,-0.047816634178161566
2023-01-28 09:05:36.382724,-0.02525545302657669
2023-01-28 09:05:36.387724,0.012981891632080009
2023-01-28 09:05:36.392724,0.06550908675595624
2023-01-28 09:05:36.397724,0.12568394839763636
2023-01-28 09:05:36.402724,0.1820447655528599
2023-01-28 09:05:36.407724,0.22196631133556355
2023-01-28 09:05:36.412724,0.23628421988496764
2023-01-28 09:05:36.417724,0.22194227576255787
2023-01-28 09:05:36.422724,0.1824648383066604
2023-01-28 09:05:36.427724,0.12712638080120076
2023-01-28 09:05:36.432724,0.06827061822431707
2023-01-28 09:05:36.437724,0.016876459121704095
2023-01-28 09:05:36.442724,-0.020855659091903445
2023-01-28 09:05:36.447724,-0.04365762323141085
2023-01-28 09:05:36.452724,-0.053524748097544685
2023-01-28 09:05:36.457724,-0.05449990555644022
2023-01-28 09:05:36.462724,-0.0515068834129199
2023-01-28 09:05:36.467724,-0.048345528542995335
2023-01-28 09:05:36.472724,-0.046417448633995335
2023-01-28 09:05:36.477724,-0.045604906976222874
2023-01-28 09:05:36.482724,-0.045584576714912305
2023-01-28 09:05:36.487724,-0.045677028596401145
2023-01-28 09:05:36.492724,-0.04454703278898142
2023-01-28 09:05:36.497724,-0.041373770684003795
2023-01-28 09:05:36.502724,-0.03688297395046815
2023-01-28 09:05:36.507724,-0.03238260746002189
2023-01-28 09:05:36.512724,-0.028413859073437894
2023-01-28 09:05:36.517724,-0.025098323822021387
2023-01-28 09:05:36.522724,-0.022840873891099622
2023-01-28 09:05:36.527724,-0.021588405594229573
2023-01-28 09:05:36.532724,-0.020242514012660917
2023-01-28 09:05:36.537724,-0.018006365746259585
2023-01-28 09:05:36.542724,-0.01561984100238943
2023-01-28 09:05:36.547724,-0.014183918945491255
2023-01-28 09:05:36.552724,-0.013528135673184657
2023-01-28 09:05:36.557724,-0.012741486541926828
2023-01-28 09:05:36.562724,-0.0112820882816146
2023-01-28 09:05:36.567724,-0.00834206771105521
2023-01-28 09:05:36.572724,-0.0022957112850000186
2023-01-28 09:05:36.577724,0.007548729889094794
2023-01-28 09:05:36.582724,0.019397237672295314
2023-01-28 09:05:36.587724,0.03057956695556638
2023-01-28 09:05:36.592724,0.039884900965981546
2023-01-28 09:05:36.597724,0.047143500298261545
2023-01-28 09:05:36.602724,0.05202858524300809
2023-01-28 09:05:36.607724,0.05524516105651845
2023-01-28 09:05:36.612724,0.05966574695738192
2023-01-28 09:05:36.617724,0.06801068782806383
2023-01-28 09:05:36.622724,0.0801640540410795
2023-01-28 09:05:36.627724,0.09455144405364986
2023-01-28 09:05:36.632724,0.11067759525593836
2023-01-28 09:05:36.637724,0.12787163257598863
2023-01-28 09:05:36.642724,0.14315250620692258
2023-01-28 09:05:36.647724,0.15364310145378102
2023-01-28 09:05:36.652724,0.16009882114987112
2023-01-28 09:05:36.657724,0.1647498309612273
2023-01-28 09:05:36.662724,0.16686704796703195
2023-01-28 09:05:36.667724,0.16453346610069264
2023-01-28 09:05:36.672724,0.1597154001641742
2023-01-28 09:05:36.677724,0.1561673581600188
2023-01-28 09:05:36.682724,0.15203842486846655
2023-01-28 09:05:36.687724,0.14046888053417197
2023-01-28 09:05:36.692724,0.11945094132752243
2023-01-28 09:05:36.697724,0.09560923278331748
2023-01-28 09:05:36.702724,0.07514024481583992
2023-01-28 09:05:36.707724,0.05603849887847898
2023-01-28 09:05:36.712724,0.03359157868101736
2023-01-28 09:05:36.717724,0.009423892013728601
2023-01-28 09:05:36.722724,-0.010405288334767405
2023-01-28 09:05:36.727724,-0.023920338600873923
2023-01-28 09:05:36.732724,-0.03434941924362634
2023-01-28 09:05:36.737724,-0.043729744851589224
2023-01-28 09:05:36.742724,-0.05048048590709901
2023-01-28 09:05:36.747724,-0.05344212055206295
2023-01-28 09:05:36.752724,-0.053903145613293575
2023-01-28 09:05:36.757724,-0.052744947373866986
2023-01-28 09:05:36.762724,-0.049167936055627484
2023-01-28 09:05:36.767724,-0.043489336967468234
2023-01-28 09:05:36.772724,-0.03842090708201428
2023-01-28 09:05:36.777724,-0.0362771749496459
2023-01-28 09:05:36.782724,-0.036927884430484594
2023-01-28 09:05:36.787724,-0.039306282997131306
2023-01-28 09:05:36.792724,-0.04286849191433189
2023-01-28 09:05:36.797724,-0.04666268825530999
2023-01-28 09:05:36.802724,-0.048928461175844026
2023-01-28 09:05:36.807724,-0.04887441918253891
2023-01-28 09:05:36.812724,-0.04757371602514951
2023-01-28 09:05:36.817724,-0.046229958534240743
2023-01-28 09:05:36.822724,-0.044703392889030254
2023-01-28 09:05:36.827724,-0.04235943406820292
2023-01-28 09:05:36.832724,-0.03909126527763664
2023-01-28 09:05:36.837724,-0.03478666394948949
2023-01-28 09:05:36.842724,-0.02899910654541946
2023-01-28 09:05:36.847724,-0.022045176476240092
2023-01-28 09:05:36.852724,-0.015587444460057888
2023-01-28 09:05:36.857724,-0.011419257149100318
2023-01-28 09:05:36.862724,-0.010307439199449864
2023-01-28 09:05:36.867724,-0.01233279705047603
2023-01-28 09:05:36.872724,-0.017322997746270385
2023-01-28 09:05:36.877724,-0.024280946701765053
2023-01-28 09:05:36.882724,-0.03121101353460765
2023-01-28 09:05:36.887724,-0.036301217973232186
2023-01-28 09:05:36.892724,-0.038936606052698025
2023-01-28 09:05:36.897724,-0.039330326020717635
2023-01-28 09:05:36.902724,-0.03790700547456168
2023-01-28 09:05:36.907724,-0.035459797829389496
2023-01-28 09:05:36.912724,-0.03314006919280658
2023-01-28 09:05:36.917724,-0.03161331266164773
2023-01-28 09:05:36.922724,-0.030582331792487597
2023-01-28 09:05:36.927724,-0.02949774265289297
2023-01-28 09:05:36.932724,-0.028299829210742294
2023-01-28 09:05:36.937724,-0.027189850807189865
2023-01-28 09:05:36.942724,-0.026232732623222427
2023-01-28 09:05:36.947724,-0.025579135864973002
2023-01-28 09:05:36.952724,-0.025608229932556122
2023-01-28 09:05:36.957724,-0.026444595307111695
2023-01-28 09:05:36.962724,-0.027695889459171164
2023-01-28 09:05:36.967724,-0.028992891311645497
2023-01-28 09:05:36.972724,-0.030448412639022295
2023-01-28 09:05:36.977724,-0.03231048583984369
2023-01-28 09:05:36.982724,-0.034503812436208176
2023-01-28 09:05:36.987724,-0.036757986992597476
2023-01-28 09:05:36.992724,-0.03884104181407384
2023-01-28 09:05:36.997724,-0.04043618962168691
2023-01-28 09:05:37.002724,-0.04117024508932547
2023-01-28 09:05:37.007724,-0.041085284203290946
2023-01-28 09:05:37.012724,-0.04082592157029802
2023-01-28 09:05:37.017724,-0.04108528420329091
2023-01-28 09:05:37.022724,-0.042013167415681126
2023-01-28 09:05:37.027724,-0.04324893280863755
2023-01-28 09:05:37.032724,-0.044232304958302514
2023-01-28 09:05:37.037724,-0.04435479640960688
2023-01-28 09:05:37.042724,-0.04318723307282191
2023-01-28 09:05:37.047724,-0.0408689193427562
2023-01-28 09:05:37.052724,-0.03809115831099451
2023-01-28 09:05:37.057724,-0.03545979782938949
2023-01-28 09:05:37.062724,-0.03293644813002026
2023-01-28 09:05:37.067724,-0.029930472373962447
2023-01-28 09:05:37.072724,-0.025730592248294062
2023-01-28 09:05:37.077724,-0.019833445549011192
2023-01-28 09:05:37.082724,-0.012227273306742035
2023-01-28 09:05:37.087724,-0.003630121704190865
2023-01-28 09:05:37.092724,0.0046984699646361126
2023-01-28 09:05:37.097724,0.011611580848693796
2023-01-28 09:05:37.102724,0.016588206214633694
2023-01-28 09:05:37.107724,0.019689202308654674
2023-01-28 09:05:37.112724,0.02123214740282603
2023-01-28 09:05:37.117724,0.021540325134992502
2023-01-28 09:05:37.122724,0.02074349602723174
2023-01-28 09:05:37.127724,0.018631419166922493
2023-01-28 09:05:37.132724,0.014779922093138007
2023-01-28 09:05:37.137724,0.00891904067248095
2023-01-28 09:05:37.142724,0.001165752599255626
2023-01-28 09:05:37.147724,-0.008029541000723858
2023-01-28 09:05:37.152724,-0.017983194790253103
2023-01-28 09:05:37.157724,-0.027814906090497922
2023-01-28 09:05:37.162724,-0.03660968401290109
2023-01-28 09:05:37.167724,-0.0437537841498851
2023-01-28 09:05:37.172724,-0.049217038846169237
2023-01-28 09:05:37.177724,-0.053634446114301564
2023-01-28 09:05:37.182724,-0.05819141561194271
2023-01-28 09:05:37.187724,-0.06421228498220435
2023-01-28 09:05:37.192724,-0.07236655805675672
2023-01-28 09:05:37.197724,-0.08178591728210435
2023-01-28 09:05:37.202724,-0.08962364626630809
2023-01-28 09:05:37.207724,-0.09135405719280232
2023-01-28 09:05:37.212724,-0.08180801324584581
2023-01-28 09:05:37.217724,-0.05683183670043935
2023-01-28 09:05:37.222724,-0.015224019026058598
2023-01-28 09:05:37.227724,0.03978709504008292
2023-01-28 09:05:37.232724,0.10030793743008634
2023-01-28 09:05:37.237724,0.15513360500335688
2023-01-28 09:05:37.242724,0.19251493126197375
2023-01-28 09:05:37.247724,0.20367145538330061
2023-01-28 09:05:37.252724,0.18582518327568512
2023-01-28 09:05:37.257724,0.1433537453413009
2023-01-28 09:05:37.262724,0.08640601592888936
2023-01-28 09:05:37.267724,0.02755045890808099
2023-01-28 09:05:37.272724,-0.022196921510257338
2023-01-28 09:05:37.277724,-0.05649527162313459
2023-01-28 09:05:37.282724,-0.07476864273504967
2023-01-28 09:05:37.287724,-0.08092045783996579
2023-01-28 09:05:37.292724,-0.08061111057544522
2023-01-28 09:05:37.297724,-0.0787087306380271
2023-01-28 09:05:37.302724,-0.07792963014907264
2023-01-28 09:05:37.307724,-0.07870873063802704
2023-01-28 09:05:37.312724,-0.07997168847936728
2023-01-28 09:05:37.317724,-0.08036752790212627
2023-01-28 09:05:37.322724,-0.07921585993857519
2023-01-28 09:05:37.327724,-0.07659316062927235
2023-01-28 09:05:37.332724,-0.07288451074602392
2023-01-28 09:05:37.337724,-0.0685395821928977
2023-01-28 09:05:37.342724,-0.06408303439548284
2023-01-28 09:05:37.347724,-0.05995710939168928
2023-01-28 09:05:37.352724,-0.056328052472703734
2023-01-28 09:05:37.357724,-0.05327383801341048
2023-01-28 09:05:37.362724,-0.05103404506781004
2023-01-28 09:05:37.367724,-0.04973987862467758
2023-01-28 09:05:37.372724,-0.04901022963896711
2023-01-28 09:05:37.377724,-0.048177242279052665
2023-01-28 09:05:37.382724,-0.04678399621525328
2023-01-28 09:05:37.387724,-0.04449903964996328
2023-01-28 09:05:37.392724,-0.04082912977714137
2023-01-28 09:05:37.397724,-0.03555595874786365
2023-01-28 09:05:37.402724,-0.02933475359640631
2023-01-28 09:05:37.407724,-0.023199122399091693
2023-01-28 09:05:37.412724,-0.017531585989200682
2023-01-28 09:05:37.417724,-0.012116432189941396
2023-01-28 09:05:37.422724,-0.0068984922184948515
2023-01-28 09:05:37.427724,-0.0016828378429635791
2023-01-28 09:05:37.432724,0.00474557934317834
2023-01-28 09:05:37.437724,0.013799270614981585
2023-01-28 09:05:37.442724,0.025037489561113072
2023-01-28 09:05:37.447724,0.036277174949645885
2023-01-28 09:05:37.452724,0.046424751894217346
2023-01-28 09:05:37.457724,0.056976079940795725
2023-01-28 09:05:37.462724,0.06977291087008733
2023-01-28 09:05:37.467724,0.08435826003551478
2023-01-28 09:05:37.472724,0.09872604514518246
2023-01-28 09:05:37.477724,0.11176447570323933
2023-01-28 09:05:37.482724,0.12347696452008769
2023-01-28 09:05:37.487724,0.13332884013652788
2023-01-28 09:05:37.492724,0.14003029139444087
2023-01-28 09:05:37.497724,0.14301717281341542
2023-01-28 09:05:37.502724,0.14282084953183938
2023-01-28 09:05:37.507724,0.1396995782852171
2023-01-28 09:05:37.512724,0.1329434042428935
2023-01-28 09:05:37.517724,0.12186150252819053
2023-01-28 09:05:37.522724,0.10665405525907869
2023-01-28 09:05:37.527724,0.0880845412611961
2023-01-28 09:05:37.532724,0.06710076458036147
2023-01-28 09:05:37.537724,0.045076012611389084
2023-01-28 09:05:37.542724,0.023651744278160938
2023-01-28 09:05:37.547724,0.003846486564725571
2023-01-28 09:05:37.552724,-0.014266220711812935
2023-01-28 09:05:37.557724,-0.030747851356863892
2023-01-28 09:05:37.562724,-0.04510820483537071
2023-01-28 09:05:37.567724,-0.05661547183990467
2023-01-28 09:05:37.572724,-0.06482107579859478
2023-01-28 09:05:37.577724,-0.06959736347198478
2023-01-28 09:05:37.582724,-0.07118674219567925
2023-01-28 09:05:37.587724,-0.07053494453430172
2023-01-28 09:05:37.592724,-0.06916969959035903
2023-01-28 09:05:37.597724,-0.06837129592895497
2023-01-28 09:05:37.602724,-0.06859237325004365
2023-01-28 09:05:37.607724,-0.0697175711393356
2023-01-28 09:05:37.612724,-0.0714792221317485
2023-01-28 09:05:37.617724,-0.0734438523650169
2023-01-28 09:05:37.622724,-0.07501497560692248
2023-01-28 09:05:37.627724,-0.07579982280731196
2023-01-28 09:05:37.632724,-0.07581263913090551
2023-01-28 09:05:37.637724,-0.07517477124929417
2023-01-28 09:05:37.642724,-0.07385098248331264
2023-01-28 09:05:37.647724,-0.07180909812450398
2023-01-28 09:05:37.652724,-0.06916662129459734
2023-01-28 09:05:37.657724,-0.06601532548665998
2023-01-28 09:05:37.662724,-0.062351884623838894
2023-01-28 09:05:37.667724,-0.05837043374776838
2023-01-28 09:05:37.672724,-0.054635409604736195
2023-01-28 09:05:37.677724,-0.051807366311550085
2023-01-28 09:05:37.682724,-0.050329471471261794
2023-01-28 09:05:37.687724,-0.050413012504577616
2023-01-28 09:05:37.692724,-0.052042600810049786
2023-01-28 09:05:37.697724,-0.05481243133544913
2023-01-28 09:05:37.702724,-0.05793766019925408
2023-01-28 09:05:37.707724,-0.06060620397329326
2023-01-28 09:05:37.712724,-0.06226310512742471
2023-01-28 09:05:37.717724,-0.06257753074169153
2023-01-28 09:05:37.722724,-0.061414472989390255
2023-01-28 09:05:37.727724,-0.059019528329372406
2023-01-28 09:05:37.732724,-0.0561029383315343
2023-01-28 09:05:37.737724,-0.05361040681600566
2023-01-28 09:05:37.742724,-0.05244264395963768
2023-01-28 09:05:37.747724,-0.05329787731170649
2023-01-28 09:05:37.752724,-0.056435411059687246
2023-01-28 09:05:37.757724,-0.06135145947337148
2023-01-28 09:05:37.762724,-0.066773421332114
2023-01-28 09:05:37.767724,-0.07113596051931381
2023-01-28 09:05:37.772724,-0.07314898556255353
2023-01-28 09:05:37.777724,-0.07212162017822257
2023-01-28 09:05:37.782724,-0.06812827722900709
2023-01-28 09:05:37.787724,-0.06207267567515366
2023-01-28 09:05:37.792724,-0.0554378260850903
2023-01-28 09:05:37.797724,-0.049715839326381586
2023-01-28 09:05:37.802724,-0.04590835909485282
2023-01-28 09:05:37.807724,-0.044354796409606885
2023-01-28 09:05:37.812724,-0.044740069267840056
2023-01-28 09:05:37.817724,-0.0461578369140625
2023-01-28 09:05:37.822724,-0.04735884780441173
2023-01-28 09:05:37.827724,-0.04719158262014377
2023-01-28 09:05:37.832724,-0.04496242598985606
2023-01-28 09:05:37.837724,-0.04055639356374738
2023-01-28 09:05:37.842724,-0.03443430444818073
2023-01-28 09:05:37.847724,-0.027550458908080968
2023-01-28 09:05:37.852724,-0.02105757505961199
2023-01-28 09:05:37.857724,-0.01584271714091301
2023-01-28 09:05:37.862724,-0.012197759689561827
2023-01-28 09:05:37.867724,-0.009808540344238236
2023-01-28 09:05:37.872724,-0.007978385235025774
2023-01-28 09:05:37.877724,-0.005986094474792376
2023-01-28 09:05:37.882724,-0.003521465157469909
2023-01-28 09:05:37.887724,-0.0009856622200458483
2023-01-28 09:05:37.892724,0.0006025591667912522
2023-01-28 09:05:37.897724,4.8081081331427334e-05
2023-01-28 09:05:37.902724,-0.0035383067075698683
2023-01-28 09:05:37.907724,-0.01040955446660513
2023-01-28 09:05:37.912724,-0.0200330760630335
2023-01-28 09:05:37.917724,-0.031204622238874415
2023-01-28 09:05:37.922724,-0.04247065986485028
2023-01-28 09:05:37.927724,-0.05262474343180652
2023-01-28 09:05:37.932724,-0.06095421500235176
2023-01-28 09:05:37.937724,-0.06721735000610346
2023-01-28 09:05:37.942724,-0.07155366085644761
2023-01-28 09:05:37.947724,-0.07438143342733378
2023-01-28 09:05:37.952724,-0.07619982826850472
2023-01-28 09:05:37.957724,-0.0773384198546409
2023-01-28 09:05:37.962724,-0.07775324429925774
2023-01-28 09:05:37.967724,-0.07680952548980707
2023-01-28 09:05:37.972724,-0.07301305328426669
2023-01-28 09:05:37.977724,-0.06397187709808334
2023-01-28 09:05:37.982724,-0.04698243480804571
2023-01-28 09:05:37.987724,-0.020266175270080494
2023-01-28 09:05:37.992724,0.015581999695652063
2023-01-28 09:05:37.997724,0.056591432541608755
2023-01-28 09:05:38.002724,0.09553632024775424
2023-01-28 09:05:38.007724,0.1235924214124678
2023-01-28 09:05:38.012724,0.13319465917198733
2023-01-28 09:05:38.017724,0.12089987844228735
2023-01-28 09:05:38.022724,0.08887535931065121
2023-01-28 09:05:38.027724,0.044306717813014894
2023-01-28 09:05:38.032724,-0.003027608675307917
2023-01-28 09:05:38.037724,-0.04401823133230199
2023-01-28 09:05:38.042724,-0.07294382755426011
2023-01-28 09:05:38.047724,-0.08851727098226536
2023-01-28 09:05:38.052724,-0.09308113693487365
2023-01-28 09:05:38.057724,-0.09075304120779029
2023-01-28 09:05:38.062724,-0.08555076277145542
2023-01-28 09:05:38.067724,-0.08015116304159156
2023-01-28 09:05:38.072724,-0.07556093972904578
2023-01-28 09:05:38.077724,-0.07164081186056125
2023-01-28 09:05:38.082724,-0.06796833177573232
2023-01-28 09:05:38.087724,-0.06438057124614707
2023-01-28 09:05:38.092724,-0.06102899832238652
2023-01-28 09:05:38.097724,-0.05825022980570789
2023-01-28 09:05:38.102724,-0.0563928895144528
2023-01-28 09:05:38.107724,-0.05550960823893544
2023-01-28 09:05:38.112724,-0.05513501736899617
2023-01-28 09:05:38.117724,-0.054547987878322615
2023-01-28 09:05:38.122724,-0.05330584673339359
2023-01-28 09:05:38.127724,-0.05137463659048082
2023-01-28 09:05:38.132724,-0.048819445621288364
2023-01-28 09:05:38.137724,-0.04572510719299311
2023-01-28 09:05:38.142724,-0.04245601866158086
2023-01-28 09:05:38.147724,-0.039522647857665995
2023-01-28 09:05:38.152724,-0.036902037221406336
2023-01-28 09:05:38.157724,-0.03380100056529034
2023-01-28 09:05:38.162724,-0.02941552577057936
2023-01-28 09:05:38.167724,-0.02372801303863518
2023-01-28 09:05:38.172724,-0.01730797078658379
2023-01-28 09:05:38.177724,-0.01060187816619867
2023-01-28 09:05:38.182724,-0.003794673940519543
2023-01-28 09:05:38.187724,0.002836783882230474
2023-01-28 09:05:38.192724,0.008940411533447644
2023-01-28 09:05:38.197724,0.014520486816763782
2023-01-28 09:05:38.202724,0.02005767217918157
2023-01-28 09:05:38.207724,0.026180148124694765
2023-01-28 09:05:38.212724,0.033459080896901826
2023-01-28 09:05:38.217724,0.04247963428497308
2023-01-28 09:05:38.222724,0.05373937304879867
2023-01-28 09:05:38.227724,0.06728947162628167
2023-01-28 09:05:38.232724,0.08258518829212257
2023-01-28 09:05:38.237724,0.09871046245098108
2023-01-28 09:05:38.242724,0.11461869455356039
2023-01-28 09:05:38.247724,0.12921790778636927
2023-01-28 09:05:38.252724,0.14150681268534418
2023-01-28 09:05:38.257724,0.1507582366466521
2023-01-28 09:05:38.262724,0.156451571572702
2023-01-28 09:05:38.267724,0.15797039866447438
2023-01-28 09:05:38.272724,0.15447646137181442
2023-01-28 09:05:38.277724,0.14513275027275074
2023-01-28 09:05:38.282724,0.12942787388517013
2023-01-28 09:05:38.287724,0.10743717849254598
2023-01-28 09:05:38.292724,0.08009929960902318
2023-01-28 09:05:38.297724,0.04942735284566869
2023-01-28 09:05:38.302724,0.018357581754840823
2023-01-28 09:05:38.307724,-0.009832581505179386
2023-01-28 09:05:38.312724,-0.03227551550404535
2023-01-28 09:05:38.317724,-0.047215621918439823
2023-01-28 09:05:38.322724,-0.05456816545495456
2023-01-28 09:05:38.327724,-0.056086581200361176
2023-01-28 09:05:38.332724,-0.054834609552780515
2023-01-28 09:05:38.337724,-0.05406717583537097
2023-01-28 09:05:38.342724,-0.05606636704939101
2023-01-28 09:05:38.347724,-0.06144762039184568
2023-01-28 09:05:38.352724,-0.06914917650375331
2023-01-28 09:05:38.357724,-0.07709801197051994
2023-01-28 09:05:38.362724,-0.0832925570244271
2023-01-28 09:05:38.367724,-0.0867142304778099
2023-01-28 09:05:38.372724,-0.08751502658199799
2023-01-28 09:05:38.377724,-0.08649786561727515
2023-01-28 09:05:38.382724,-0.08442768391597294
2023-01-28 09:05:38.387724,-0.08166571706533429
2023-01-28 09:05:38.392724,-0.0782450111783683
2023-01-28 09:05:38.397724,-0.07423719018697733
2023-01-28 09:05:38.402724,-0.07012343075310105
2023-01-28 09:05:38.407724,-0.06683270633220668
2023-01-28 09:05:38.412724,-0.06532279141393808
2023-01-28 09:05:38.417724,-0.06599128246307365
2023-01-28 09:05:38.422724,-0.06836798963652985
2023-01-28 09:05:38.427724,-0.07128020375967017
2023-01-28 09:05:38.432724,-0.07335563307912354
2023-01-28 09:05:38.437724,-0.07361213862895956
2023-01-28 09:05:38.442724,-0.07186945147162718
2023-01-28 09:05:38.447724,-0.06875594705343235
2023-01-28 09:05:38.452724,-0.06531178341892302
2023-01-28 09:05:38.457724,-0.062481366097927
2023-01-28 09:05:38.462724,-0.060792484891755726
2023-01-28 09:05:38.467724,-0.06026963517069807
2023-01-28 09:05:38.472724,-0.060507893196316484
2023-01-28 09:05:38.477724,-0.06089469045400606
2023-01-28 09:05:38.482724,-0.060918637741200654
2023-01-28 09:05:38.487724,-0.060365796089172266
2023-01-28 09:05:38.492724,-0.059289210083476006
2023-01-28 09:05:38.497724,-0.05788962170481676
2023-01-28 09:05:38.502724,-0.056472457034224974
2023-01-28 09:05:38.507724,-0.05543748661875715
2023-01-28 09:05:38.512724,-0.0551888337305499
2023-01-28 09:05:38.517724,-0.05599042028188696
2023-01-28 09:05:38.522724,-0.057845689705331695
2023-01-28 09:05:38.527724,-0.06041387841105459
2023-01-28 09:05:38.532724,-0.06300824550020978
2023-01-28 09:05:38.537724,-0.06478925794363019
2023-01-28 09:05:38.542724,-0.0651198890795645
2023-01-28 09:05:38.547724,-0.06382763385772705
2023-01-28 09:05:38.552724,-0.061173836061125655
2023-01-28 09:05:38.557724,-0.057601135224103886
2023-01-28 09:05:38.562724,-0.053453550230503195
2023-01-28 09:05:38.567724,-0.048802297562360715
2023-01-28 09:05:38.572724,-0.04346794622442817
2023-01-28 09:05:38.577724,-0.037262838333845055
2023-01-28 09:05:38.582724,-0.03027652303582993
2023-01-28 09:05:38.587724,-0.022934675216674767
2023-01-28 09:05:38.592724,-0.01580786755777445
2023-01-28 09:05:38.597724,-0.009423892013728561
2023-01-28 09:05:38.602724,-0.004252094587796459
2023-01-28 09:05:38.607724,-0.0007692973013034721
2023-01-28 09:05:38.612724,0.000517630449372921
2023-01-28 09:05:38.617724,-0.0008895000210031014
2023-01-28 09:05:38.622724,-0.005344699376399454
2023-01-28 09:05:38.627724,-0.012789567932486496
2023-01-28 09:05:38.632724,-0.022523328100383773
2023-01-28 09:05:38.637724,-0.03329614922404273
2023-01-28 09:05:38.642724,-0.043735802886097
2023-01-28 09:05:38.647724,-0.05279302597045891
2023-01-28 09:05:38.652724,-0.059959111535965344
2023-01-28 09:05:38.657724,-0.06527006626129145
2023-01-28 09:05:38.662724,-0.06916147297724712
2023-01-28 09:05:38.667724,-0.07219374179840075
2023-01-28 09:05:38.672724,-0.07478283572800598
2023-01-28 09:05:38.677724,-0.07712205499410618
2023-01-28 09:05:38.682724,-0.0792290958594863
2023-01-28 09:05:38.687724,-0.08084833621978749
2023-01-28 09:05:38.692724,-0.0811475616198242
2023-01-28 09:05:38.697724,-0.07846832275390615
2023-01-28 09:05:38.702724,-0.07039482100590042
2023-01-28 09:05:38.707724,-0.05425950139760969
2023-01-28 09:05:38.712724,-0.028159088854899598
2023-01-28 09:05:38.717724,0.007644891738891606
2023-01-28 09:05:38.722724,0.04958028633432229
2023-01-28 09:05:38.727724,0.0907770842313766
2023-01-28 09:05:38.732724,0.12264092807529847
2023-01-28 09:05:38.737724,0.13751189410686482
2023-01-28 09:05:38.742724,0.13138595879811488
2023-01-28 09:05:38.747724,0.10558605194091786
2023-01-28 09:05:38.752724,0.06651730290330765
2023-01-28 09:05:38.757724,0.0233914460986852
2023-01-28 09:05:38.762724,-0.01507528020638389
2023-01-28 09:05:38.767724,-0.04336913675069799
2023-01-28 09:05:38.772724,-0.06017188789950332
2023-01-28 09:05:38.777724,-0.06760200113058085
2023-01-28 09:05:38.782724,-0.0694115012798435
2023-01-28 09:05:38.787724,-0.06906847655773153
2023-01-28 09:05:38.792724,-0.06856750434765577
2023-01-28 09:05:38.797724,-0.06834726035594936
2023-01-28 09:05:38.802724,-0.06795167787043298
2023-01-28 09:05:38.807724,-0.06671249866485587
2023-01-28 09:05:38.812724,-0.06411487958004695
2023-01-28 09:05:38.817724,-0.060005187988281174
2023-01-28 09:05:38.822724,-0.05475364745322183
2023-01-28 09:05:38.827724,-0.04921098798513405
2023-01-28 09:05:38.832724,-0.04438522522483028
2023-01-28 09:05:38.837724,-0.04103720188140861
2023-01-28 09:05:38.842724,-0.03938925753274855
2023-01-28 09:05:38.847724,-0.038993757218122434
2023-01-28 09:05:38.852724,-0.03884714454439636
2023-01-28 09:05:38.857724,-0.037863850593566804
2023-01-28 09:05:38.862724,-0.03555595228992995
2023-01-28 09:05:38.867724,-0.03247877210378637
2023-01-28 09:05:38.872724,-0.03009443471887841
2023-01-28 09:05:38.877724,-0.030050676316022786
2023-01-28 09:05:38.882724,-0.033174411939144645
2023-01-28 09:05:38.887724,-0.03870527073740947
2023-01-28 09:05:38.892724,-0.044333292887759584
2023-01-28 09:05:38.897724,-0.047167539596557596
2023-01-28 09:05:38.902724,-0.04505197233696524
2023-01-28 09:05:38.907724,-0.0374070815742015
2023-01-28 09:05:38.912724,-0.025245396793044612
2023-01-28 09:05:38.917724,-0.010553797706961653
2023-01-28 09:05:38.922724,0.004603002023549838
2023-01-28 09:05:38.927724,0.018871825188398337
2023-01-28 09:05:38.932724,0.0318708468212705
2023-01-28 09:05:38.937724,0.04380186647176731
2023-01-28 09:05:38.942724,0.05486912545427155
2023-01-28 09:05:38.947724,0.06507774442434303
2023-01-28 09:05:38.952724,0.07445463608250148
2023-01-28 09:05:38.957724,0.08330047130584699
2023-01-28 09:05:38.962724,0.09221092928283353
2023-01-28 09:05:38.967724,0.10185977071523651
2023-01-28 09:05:38.972724,0.11257417920406411
2023-01-28 09:05:38.977724,0.12385686486959446
2023-01-28 09:05:38.982724,0.13426029614247253
2023-01-28 09:05:38.987724,0.1418632268905638
2023-01-28 09:05:38.992724,0.14502218001092432
2023-01-28 09:05:38.997724,0.14284889400005335
2023-01-28 09:05:39.002724,0.13527059752577827
2023-01-28 09:05:39.007724,0.12287120521068563
2023-01-28 09:05:39.012724,0.10661226502303502
2023-01-28 09:05:39.017724,0.08748352527618398
2023-01-28 09:05:39.022724,0.06633336544598344
2023-01-28 09:05:39.027724,0.044042270630597964
2023-01-28 09:05:39.032724,0.021748428501549313
2023-01-28 09:05:39.037724,0.0007452567806466561
2023-01-28 09:05:39.042724,-0.01785861647087879
2023-01-28 09:05:39.047724,-0.03336827084422111
2023-01-28 09:05:39.052724,-0.04555976475389783
2023-01-28 09:05:39.057724,-0.05469223111867893
2023-01-28 09:05:39.062724,-0.06139389296336791
2023-01-28 09:05:39.067724,-0.06632785499095903
2023-01-28 09:05:39.072724,-0.06989787219294967
2023-01-28 09:05:39.077724,-0.07228990644216522
2023-01-28 09:05:39.082724,-0.07368635330726933
2023-01-28 09:05:39.087724,-0.07430931180715553
2023-01-28 09:05:39.092724,-0.07432315818195415
2023-01-28 09:05:39.097724,-0.07382850348949427
2023-01-28 09:05:39.102724,-0.07290657389469628
2023-01-28 09:05:39.107724,-0.07156869024038309
2023-01-28 09:05:39.112724,-0.06974757396065964
2023-01-28 09:05:39.117724,-0.06748180091381067
2023-01-28 09:05:39.122724,-0.06506054875459628
2023-01-28 09:05:39.127724,-0.06286601722240438
2023-01-28 09:05:39.132724,-0.061115934642671496
2023-01-28 09:05:39.137724,-0.059836905449628754
2023-01-28 09:05:39.142724,-0.05897555309802436
2023-01-28 09:05:39.147724,-0.05839447304606429
2023-01-28 09:05:39.152724,-0.05784798863654799
2023-01-28 09:05:39.157724,-0.057120323181152295
2023-01-28 09:05:39.162724,-0.05614393303492583
2023-01-28 09:05:39.167724,-0.05488455295562739
2023-01-28 09:05:39.172724,-0.05322471572887851
2023-01-28 09:05:39.177724,-0.05113422870635979
2023-01-28 09:05:39.182724,-0.048913385817013474
2023-01-28 09:05:39.187724,-0.04714350029826159
2023-01-28 09:05:39.192724,-0.046424734472237786
2023-01-28 09:05:39.197724,-0.04716753959655764
2023-01-28 09:05:39.202724,-0.049395550466539415
2023-01-28 09:05:39.207724,-0.05250453948974602
2023-01-28 09:05:39.212724,-0.055309686121955935
2023-01-28 09:05:39.217724,-0.056615471839904695
2023-01-28 09:05:39.222724,-0.05589495061855059
2023-01-28 09:05:39.227724,-0.05351424217224121
2023-01-28 09:05:39.232724,-0.0505019494088642
2023-01-28 09:05:39.237724,-0.04815320298075671
2023-01-28 09:05:39.242724,-0.04750431932403974
2023-01-28 09:05:39.247724,-0.04875421524047854
2023-01-28 09:05:39.252724,-0.0511085396919975
2023-01-28 09:05:39.257724,-0.05332192033529276
2023-01-28 09:05:39.262724,-0.054437823034697276
2023-01-28 09:05:39.267724,-0.05409121513366689
2023-01-28 09:05:39.272724,-0.05243119845886167
2023-01-28 09:05:39.277724,-0.05002836510539046
2023-01-28 09:05:39.282724,-0.047713015232872615
2023-01-28 09:05:39.287724,-0.046181879937648676
2023-01-28 09:05:39.292724,-0.045670614002806774
2023-01-28 09:05:39.297724,-0.04601359367370596
2023-01-28 09:05:39.302724,-0.04684602948341249
2023-01-28 09:05:39.307724,-0.04762431234121317
2023-01-28 09:05:39.312724,-0.04768715465965059
2023-01-28 09:05:39.317724,-0.046614609658718095
2023-01-28 09:05:39.322724,-0.04452421849304627
2023-01-28 09:05:39.327724,-0.041878622025251305
2023-01-28 09:05:39.332724,-0.039060872792889396
2023-01-28 09:05:39.337724,-0.036181014031171715
2023-01-28 09:05:39.342724,-0.033048469341964266
2023-01-28 09:05:39.347724,-0.029113095253705926
2023-01-28 09:05:39.352724,-0.023631267777681035
2023-01-28 09:05:39.357724,-0.016227364540099973
2023-01-28 09:05:39.362724,-0.007339684683037016
2023-01-28 09:05:39.367724,0.0019472837448119926
2023-01-28 09:05:39.372724,0.010373778308245454
2023-01-28 09:05:39.377724,0.016756257042288707
2023-01-28 09:05:39.382724,0.02012159280856728
2023-01-28 09:05:39.387724,0.019977688789367534
2023-01-28 09:05:39.392724,0.016432526362007545
2023-01-28 09:05:39.397724,0.009904703125357595
2023-01-28 09:05:39.402724,0.0008705923458419798
2023-01-28 09:05:39.407724,-0.009928743354976111
2023-01-28 09:05:39.412724,-0.021245895124603086
2023-01-28 09:05:39.417724,-0.0316133126616477
2023-01-28 09:05:39.422724,-0.039896734093552814
2023-01-28 09:05:39.427724,-0.04558086395263668
2023-01-28 09:05:39.432724,-0.04886536374552821
2023-01-28 09:05:39.437724,-0.05077362060546872
2023-01-28 09:05:39.442724,-0.05289656450832609
2023-01-28 09:05:39.447724,-0.05651931092143047
2023-01-28 09:05:39.452724,-0.06179382130359575
2023-01-28 09:05:39.457724,-0.0676741227507591
2023-01-28 09:05:39.462724,-0.07229651348864606
2023-01-28 09:05:39.467724,-0.07313132286071769
2023-01-28 09:05:39.472724,-0.06705653565592694
2023-01-28 09:05:39.477724,-0.05091786384582508
2023-01-28 09:05:39.482724,-0.022541022367340856
2023-01-28 09:05:39.487724,0.018174648284912113
2023-01-28 09:05:39.492724,0.06817024584011347
2023-01-28 09:05:39.497724,0.12051522731780995
2023-01-28 09:05:39.502724,0.16516390755560154
2023-01-28 09:05:39.507724,0.19177138805389388
2023-01-28 09:05:39.512724,0.19341705584852176
2023-01-28 09:05:39.517724,0.1692454069852827
2023-01-28 09:05:39.522724,0.12490737717183627
2023-01-28 09:05:39.527724,0.07077535241842257
2023-01-28 09:05:39.532724,0.018438483231128303
2023-01-28 09:05:39.537724,-0.0232472028583288
2023-01-28 09:05:39.542724,-0.05056623143305035
2023-01-28 09:05:39.547724,-0.06466905772685998
2023-01-28 09:05:39.552724,-0.06947433509476265
2023-01-28 09:05:39.557724,-0.06942908465862269
2023-01-28 09:05:39.562724,-0.06794616701435671
2023-01-28 09:05:39.567724,-0.06664037704467766
2023-01-28 09:05:39.572724,-0.06557800671933611
2023-01-28 09:05:39.577724,-0.0643565282225608
2023-01-28 09:05:39.582724,-0.06297126273220545
2023-01-28 09:05:39.587724,-0.06173610687255846
2023-01-28 09:05:39.592724,-0.06082269609036993
2023-01-28 09:05:39.597724,-0.060197513550519915
2023-01-28 09:05:39.602724,-0.0597301911316231
2023-01-28 09:05:39.607724,-0.059043567627668325
2023-01-28 09:05:39.612724,-0.0575135587344575
2023-01-28 09:05:39.617724,-0.0547883920371532
2023-01-28 09:05:39.622724,-0.051174062648910626
2023-01-28 09:05:39.627724,-0.04726370424032207
2023-01-28 09:05:39.632724,-0.04337960727695999
2023-01-28 09:05:39.637724,-0.0395707301795482
2023-01-28 09:05:39.642724,-0.03582418959849527
2023-01-28 09:05:39.647724,-0.031949877738952595
2023-01-28 09:05:39.652724,-0.02755035187493523
2023-01-28 09:05:39.657724,-0.022501945495605406
2023-01-28 09:05:39.662724,-0.017288236631637904
2023-01-28 09:05:39.667724,-0.012549161911010699
2023-01-28 09:05:39.672724,-0.008483006687494974
2023-01-28 09:05:39.677724,-0.0049042701721191215
2023-01-28 09:05:39.682724,-0.0015406730235797473
2023-01-28 09:05:39.687724,0.002091526985168412
2023-01-28 09:05:39.692724,0.006808104741932295
2023-01-28 09:05:39.697724,0.01331845950335258
2023-01-28 09:05:39.702724,0.021798655951478035
2023-01-28 09:05:39.707724,0.03211816400289534
2023-01-28 09:05:39.712724,0.04415052141103474
2023-01-28 09:05:39.717724,0.05750497430562969
2023-01-28 09:05:39.722724,0.07126896412937343
2023-01-28 09:05:39.727724,0.08445441722869869
2023-01-28 09:05:39.732724,0.09652881935862259
2023-01-28 09:05:39.737724,0.10724484920501699
2023-01-28 09:05:39.742724,0.11628528754460633
2023-01-28 09:05:39.747724,0.12344817817211148
2023-01-28 09:05:39.752724,0.12886661133636726
2023-01-28 09:05:39.757724,0.13263165950775138
2023-01-28 09:05:39.762724,0.13444308288652349
2023-01-28 09:05:39.767724,0.13395389914512626
2023-01-28 09:05:39.772724,0.13110254882731606
2023-01-28 09:05:39.777724,0.12568394839763636
2023-01-28 09:05:39.782724,0.11691200299593778
2023-01-28 09:05:39.787724,0.1038791760802268
2023-01-28 09:05:39.792724,0.08628990595749343
2023-01-28 09:05:39.797724,0.06454885005950922
2023-01-28 09:05:39.802724,0.03964097314987637
2023-01-28 09:05:39.807724,0.013414621353149362
2023-01-28 09:05:39.812724,-0.0114503662552413
2023-01-28 09:05:39.817724,-0.03245472908020009
2023-01-28 09:05:39.822724,-0.048299782106125434
2023-01-28 09:05:39.827724,-0.05882720276713369
2023-01-28 09:05:39.832724,-0.06449437033276234
2023-01-28 09:05:39.837724,-0.06632785499095911
2023-01-28 09:05:39.842724,-0.06583500048923709
2023-01-28 09:05:39.847724,-0.06423632800579068
2023-01-28 09:05:39.852724,-0.06192871310062196
2023-01-28 09:05:39.857724,-0.0590676069259643
2023-01-28 09:05:39.862724,-0.05631058200746232
2023-01-28 09:05:39.867724,-0.0545479878783226
2023-01-28 09:05:39.872724,-0.0542676739745671
2023-01-28 09:05:39.877724,-0.05558172985911359
2023-01-28 09:05:39.882724,-0.058379976997236654
2023-01-28 09:05:39.887724,-0.06192843243479719
2023-01-28 09:05:39.892724,-0.0648234683623551
2023-01-28 09:05:39.897724,-0.06606340408325193
2023-01-28 09:05:39.902724,-0.06596083321954899
2023-01-28 09:05:39.907724,-0.06555855274200428
2023-01-28 09:05:39.912724,-0.06548057083016263
2023-01-28 09:05:39.917724,-0.06570279598236081
2023-01-28 09:05:39.922724,-0.06586487790128817
2023-01-28 09:05:39.927724,-0.06524603068828577
2023-01-28 09:05:39.932724,-0.06301599335079264
2023-01-28 09:05:39.937724,-0.05925993248820301
2023-01-28 09:05:39.942724,-0.055402598894314564
2023-01-28 09:05:39.947724,-0.05298535153269758
2023-01-28 09:05:39.952724,-0.05229039164156552
2023-01-28 09:05:39.957724,-0.05252858251333231
2023-01-28 09:05:39.962724,-0.052796495849246006
2023-01-28 09:05:39.967724,-0.05236029624938956
2023-01-28 09:05:39.972724,-0.05076217205702943
2023-01-28 09:05:39.977724,-0.048489771783351746
2023-01-28 09:05:39.982724,-0.04705443859983614
2023-01-28 09:05:39.987724,-0.047624312341213206
2023-01-28 09:05:39.992724,-0.049903884436853584
2023-01-28 09:05:39.997724,-0.052841108292341205
2023-01-28 09:05:40.002724,-0.05581231487518822
2023-01-28 09:05:40.007724,-0.05851467698812476
2023-01-28 09:05:40.012724,-0.06045962545541856
2023-01-28 09:05:40.017724,-0.06142358109354969
2023-01-28 09:05:40.022724,-0.06180363757487149
2023-01-28 09:05:40.027724,-0.061736106872558524
2023-01-28 09:05:40.032724,-0.06048554382771525
2023-01-28 09:05:40.037724,-0.05752901360392569
2023-01-28 09:05:40.042724,-0.053654607240235075
2023-01-28 09:05:40.047724,-0.050220690667629186
2023-01-28 09:05:40.052724,-0.04798046864427274
2023-01-28 09:05:40.057724,-0.047335825860500336
2023-01-28 09:05:40.062724,-0.04880442247530362
2023-01-28 09:05:40.067724,-0.052143931388854925
2023-01-28 09:05:40.072724,-0.0557052810318096
2023-01-28 09:05:40.077724,-0.057721339166164294
2023-01-28 09:05:40.082724,-0.05773086032029686
2023-01-28 09:05:40.087724,-0.05603849887847896
2023-01-28 09:05:40.092724,-0.05277366900536611
2023-01-28 09:05:40.097724,-0.0485618934035301
2023-01-28 09:05:40.102724,-0.045166311631992126
2023-01-28 09:05:40.107724,-0.044114392250776235
2023-01-28 09:05:40.112724,-0.045241950268685965
2023-01-28 09:05:40.117724,-0.04750410839915268
2023-01-28 09:05:40.122724,-0.05027397735230191
2023-01-28 09:05:40.127724,-0.05276898667216299
2023-01-28 09:05:40.132724,-0.053365500448854596
2023-01-28 09:05:40.137724,-0.050989985466003376
2023-01-28 09:05:40.142724,-0.04638260514219998
2023-01-28 09:05:40.147724,-0.04070063680410381
2023-01-28 09:05:40.152724,-0.03382853387882054
2023-01-28 09:05:40.157724,-0.025362771004438456
2023-01-28 09:05:40.162724,-0.016110421217934857
2023-01-28 09:05:40.167724,-0.007116000168025408
2023-01-28 09:05:40.172724,0.0015961100754216583
2023-01-28 09:05:40.177724,0.00966429710388176
2023-01-28 09:05:40.182724,0.015020541953115581
2023-01-28 09:05:40.187724,0.015722513198852463
2023-01-28 09:05:40.192724,0.012079186172430137
2023-01-28 09:05:40.197724,0.005312959663569899
2023-01-28 09:05:40.202724,-0.004409655699683649
2023-01-28 09:05:40.207724,-0.016612013801932276
2023-01-28 09:05:40.212724,-0.02876154919330266
2023-01-28 09:05:40.217724,-0.038320623338222524
2023-01-28 09:05:40.222724,-0.045291314392823766
2023-01-28 09:05:40.227724,-0.050557255744934006
2023-01-28 09:05:40.232724,-0.053463969637597225
2023-01-28 09:05:40.237724,-0.05373060703277581
2023-01-28 09:05:40.242724,-0.053925809727268695
2023-01-28 09:05:40.247724,-0.056855879724025685
2023-01-28 09:05:40.252724,-0.062080329625991526
2023-01-28 09:05:40.257724,-0.06810685247182838
2023-01-28 09:05:40.262724,-0.07576620520051104
2023-01-28 09:05:40.267724,-0.08524775505065905
2023-01-28 09:05:40.272724,-0.09173887495300133
2023-01-28 09:05:40.277724,-0.08868555724620808
2023-01-28 09:05:40.282724,-0.0736717690623542
2023-01-28 09:05:40.287724,-0.04642228409647944
2023-01-28 09:05:40.292724,-0.00422787573445351
2023-01-28 09:05:40.297724,0.05279302597045886
2023-01-28 09:05:40.302724,0.11311717845632688
2023-01-28 09:05:40.307724,0.15948495268821705
2023-01-28 09:05:40.312724,0.18418214472340097
2023-01-28 09:05:40.317724,0.19042512774467452
2023-01-28 09:05:40.322724,0.17808768294879368
2023-01-28 09:05:40.327724,0.13998806476593006
2023-01-28 09:05:40.332724,0.07810795872272831
2023-01-28 09:05:40.337724,0.012957851402461477
2023-01-28 09:05:40.342724,-0.033173813838943626
2023-01-28 09:05:40.347724,-0.05692800134420387
2023-01-28 09:05:40.352724,-0.06980649365483921
2023-01-28 09:05:40.357724,-0.07914146035909647
2023-01-28 09:05:40.362724,-0.08322445120317983
2023-01-28 09:05:40.367724,-0.08193016052246084
2023-01-28 09:05:40.372724,-0.08051914477350373
2023-01-28 09:05:40.377724,-0.08156955242156978
2023-01-28 09:05:40.382724,-0.08176979091624453
2023-01-28 09:05:40.387724,-0.07899721711873994
2023-01-28 09:05:40.392724,-0.07595244149324994
2023-01-28 09:05:40.397724,-0.07457375526428213
2023-01-28 09:05:40.402724,-0.07257278659608944
2023-01-28 09:05:40.407724,-0.06796260923147199
2023-01-28 09:05:40.412724,-0.062336930397297215
2023-01-28 09:05:40.417724,-0.05740880966186519
2023-01-28 09:05:40.422724,-0.05243288947642439
2023-01-28 09:05:40.427724,-0.04723966121673577
2023-01-28 09:05:40.432724,-0.04408960694294776
2023-01-28 09:05:40.437724,-0.04418651387095447
2023-01-28 09:05:40.442724,-0.04534721405176889
2023-01-28 09:05:40.447724,-0.045100055634975385
2023-01-28 09:05:40.452724,-0.0434249290008826
2023-01-28 09:05:40.457724,-0.04084488004446019
2023-01-28 09:05:40.462724,-0.0366494555984798
2023-01-28 09:05:40.467724,-0.030868053436279172
2023-01-28 09:05:40.472724,-0.02551393673381299
2023-01-28 09:05:40.477724,-0.02194901369512075
2023-01-28 09:05:40.482724,-0.018963460831553352
2023-01-28 09:05:40.487724,-0.014929175376891922
2023-01-28 09:05:40.492724,-0.009843575843439414
2023-01-28 09:05:40.497724,-0.0038705270271747827
2023-01-28 09:05:40.502724,0.004048479817239401
2023-01-28 09:05:40.507724,0.014544527046382436
2023-01-28 09:05:40.512724,0.026538699023839363
2023-01-28 09:05:40.517724,0.03901779651641841
2023-01-28 09:05:40.522724,0.052450137628712944
2023-01-28 09:05:40.527724,0.06714522838592517
2023-01-28 09:05:40.532724,0.08183364584440114
2023-01-28 09:05:40.537724,0.09520053863525395
2023-01-28 09:05:40.542724,0.10737455786822284
2023-01-28 09:05:40.547724,0.11871218681335431
2023-01-28 09:05:40.552724,0.12856357760169873
2023-01-28 09:05:40.557724,0.1364060342311859
2023-01-28 09:05:40.562724,0.14274517954858132
2023-01-28 09:05:40.567724,0.1476329565048216
2023-01-28 09:05:40.572724,0.14954701592494815
2023-01-28 09:05:40.577724,0.14691174030303944
2023-01-28 09:05:40.582724,0.13963134390307663
2023-01-28 09:05:40.587724,0.12820820510387415
2023-01-28 09:05:40.592724,0.11265820030300339
2023-01-28 09:05:40.597724,0.09337346255779251
2023-01-28 09:05:40.602724,0.07185933171111204
2023-01-28 09:05:40.607724,0.049523513764142844
2023-01-28 09:05:40.612724,0.026781115399471655
2023-01-28 09:05:40.617724,0.004303256981074829
2023-01-28 09:05:40.622724,-0.01597056897292317
2023-01-28 09:05:40.627724,-0.032118164002895314
2023-01-28 09:05:40.632724,-0.0436520525841358
2023-01-28 09:05:40.637724,-0.05091786384582514
2023-01-28 09:05:40.642724,-0.054221272655826686
2023-01-28 09:05:40.647724,-0.05445182323455808
2023-01-28 09:05:40.652724,-0.05343711212642076
2023-01-28 09:05:40.657724,-0.052552621811628265
2023-01-28 09:05:40.662724,-0.051719295288250706
2023-01-28 09:05:40.667724,-0.05053321644663809
2023-01-28 09:05:40.672724,-0.049449093729418865
2023-01-28 09:05:40.677724,-0.049042701721191385
2023-01-28 09:05:40.682724,-0.049076072361414994
2023-01-28 09:05:40.687724,-0.04918694496154781
2023-01-28 09:05:40.692724,-0.04963461535988898
2023-01-28 09:05:40.697724,-0.05050917714834209
2023-01-28 09:05:40.702724,-0.05103717416555419
2023-01-28 09:05:40.707724,-0.05050917714834206
2023-01-28 09:05:40.712724,-0.04912874136136055
2023-01-28 09:05:40.717724,-0.04721562191843977
2023-01-28 09:05:40.722724,-0.04443457258734755
2023-01-28 09:05:40.727724,-0.0406285151839256
2023-01-28 09:05:40.732724,-0.03661157663496984
2023-01-28 09:05:40.737724,-0.03329614922404278
2023-01-28 09:05:40.742724,-0.030704244229894397
2023-01-28 09:05:40.747724,-0.028512081131338976
2023-01-28 09:05:40.752724,-0.026772564876508382
2023-01-28 09:05:40.757724,-0.025362771004438407
2023-01-28 09:05:40.762724,-0.023532671767587495
2023-01-28 09:05:40.767724,-0.020867189392447333
2023-01-28 09:05:40.772724,-0.018093798380886178
2023-01-28 09:05:40.777724,-0.0162514057010412
2023-01-28 09:05:40.782724,-0.01569619320733233
2023-01-28 09:05:40.787724,-0.016491811722517017
2023-01-28 09:05:40.792724,-0.01890949265614698
2023-01-28 09:05:40.797724,-0.022694271057844096
2023-01-28 09:05:40.802724,-0.026476911631661413
2023-01-28 09:05:40.807724,-0.02870440483093266
2023-01-28 09:05:40.812724,-0.028695526070604205
2023-01-28 09:05:40.817724,-0.026348432525992317
2023-01-28 09:05:40.822724,-0.021680989222623376
2023-01-28 09:05:40.827724,-0.015434026718139607
2023-01-28 09:05:40.832724,-0.00941030654466204
2023-01-28 09:05:40.837724,-0.0053369998931883985
2023-01-28 09:05:40.842724,-0.0037580869005479313
2023-01-28 09:05:40.847724,-0.004447500221431214
2023-01-28 09:05:40.852724,-0.007096855783344345
2023-01-28 09:05:40.857724,-0.010914405807852693
2023-01-28 09:05:40.862724,-0.014349012527646896
2023-01-28 09:05:40.867724,-0.016155242919921764
2023-01-28 09:05:40.872724,-0.016362595449555387
2023-01-28 09:05:40.877724,-0.015674432739615413
2023-01-28 09:05:40.882724,-0.014542863944077406
2023-01-28 09:05:40.887724,-0.013390581123530813
2023-01-28 09:05:40.892724,-0.012934596008558851
2023-01-28 09:05:40.897724,-0.013438662514090505
2023-01-28 09:05:40.902724,-0.014183956183378844
2023-01-28 09:05:40.907724,-0.014400283806025914
2023-01-28 09:05:40.912724,-0.014214743445120016
2023-01-28 09:05:40.917724,-0.01408775709569449
2023-01-28 09:05:40.922724,-0.013956773341468647
2023-01-28 09:05:40.927724,-0.013606945984065522
2023-01-28 09:05:40.932724,-0.013219604908874794
2023-01-28 09:05:40.937724,-0.012789567932486501
2023-01-28 09:05:40.942724,-0.01158353652671144
2023-01-28 09:05:40.947724,-0.00891904067248103
2023-01-28 09:05:40.952724,-0.004931967275274009
2023-01-28 09:05:40.957724,9.616216266286414e-05
2023-01-28 09:05:40.962724,0.006510007263846916
2023-01-28 09:05:40.967724,0.014592608436942087
2023-01-28 09:05:40.972724,0.023692718883060276
2023-01-28 09:05:40.977724,0.03279129788279524
2023-01-28 09:05:40.982724,0.04132711119457171
2023-01-28 09:05:40.987724,0.048730175942182485
2023-01-28 09:05:40.992724,0.05392431914346762
2023-01-28 09:05:40.997724,0.05632698535919182
2023-01-28 09:05:41.002724,0.056786717530955585
2023-01-28 09:05:41.007724,0.05654335021972656
2023-01-28 09:05:41.012724,0.05575893502150522
2023-01-28 09:05:41.017724,0.05394697189331049
2023-01-28 09:05:41.022724,0.05107542667723783
2023-01-28 09:05:41.027724,0.04699925705790512
2023-01-28 09:05:41.032724,0.04049809438344807
2023-01-28 09:05:41.037724,0.03055552765727042
2023-01-28 09:05:41.042724,0.018459871389483146
2023-01-28 09:05:41.047724,0.007091959472745567
2023-01-28 09:05:41.052724,-0.0020143325904806537
2023-01-28 09:05:41.057724,-0.009568135254084979
2023-01-28 09:05:41.062724,-0.01638528374262029
2023-01-28 09:05:41.067724,-0.02194901369512081
2023-01-28 09:05:41.072724,-0.02577576620982297
2023-01-28 09:05:41.077724,-0.02892076969146715
2023-01-28 09:05:41.082724,-0.032958197472576
2023-01-28 09:05:41.087724,-0.03779172897338855
2023-01-28 09:05:41.092724,-0.04087491881919162
2023-01-28 09:05:41.097724,-0.0379119329154491
2023-01-28 09:05:41.102724,-0.023849084375573638
2023-01-28 09:05:41.107724,0.005697607994079509
2023-01-28 09:05:41.112724,0.052036589676325136
2023-01-28 09:05:41.117724,0.11111538112163541
2023-01-28 09:05:41.122724,0.17324678349630934
2023-01-28 09:05:41.127724,0.22540411353111256
2023-01-28 09:05:41.132724,0.2551447084680526
2023-01-28 09:05:41.137724,0.25478166341781605
2023-01-28 09:05:41.142724,0.22428727299602522
2023-01-28 09:05:41.147724,0.17148117721080774
2023-01-28 09:05:41.152724,0.10917423056194915
2023-01-28 09:05:41.157724,0.05062937736511231
2023-01-28 09:05:41.162724,0.005433761377067014
2023-01-28 09:05:41.167724,-0.02267022989690298
2023-01-28 09:05:41.172724,-0.03544719382619806
2023-01-28 09:05:41.177724,-0.03783981129527089
2023-01-28 09:05:41.182724,-0.03510792261116705
2023-01-28 09:05:41.187724,-0.030964216217398616
2023-01-28 09:05:41.192724,-0.02719672159805946
2023-01-28 09:05:41.197724,-0.024232864379882754
2023-01-28 09:05:41.202724,-0.021964325290118523
2023-01-28 09:05:41.207724,-0.020410418510436963
2023-01-28 09:05:41.212724,-0.019880366124309233
2023-01-28 09:05:41.217724,-0.020578702911734505
2023-01-28 09:05:41.222724,-0.02215874922358098
2023-01-28 09:05:41.227724,-0.023752054199576253
2023-01-28 09:05:41.232724,-0.02435114671207529
2023-01-28 09:05:41.237724,-0.023127000778913345
2023-01-28 09:05:41.242724,-0.019661508496528313
2023-01-28 09:05:41.247724,-0.014232000336050892
2023-01-28 09:05:41.252724,-0.007886923115838471
2023-01-28 09:05:41.257724,-0.002019405364990192
2023-01-28 09:05:41.262724,0.002274656178160517
2023-01-28 09:05:41.267724,0.004567702766507816
2023-01-28 09:05:41.272724,0.005186861489517582
2023-01-28 09:05:41.277724,0.005192756652832031
2023-01-28 09:05:41.282724,0.006081750514792986
2023-01-28 09:05:41.287724,0.009087324142455978
2023-01-28 09:05:41.292724,0.014539262652049662
2023-01-28 09:05:41.297724,0.021804770454764325
2023-01-28 09:05:41.302724,0.029678482501736596
2023-01-28 09:05:41.307724,0.036806069314479786
2023-01-28 09:05:41.312724,0.04213371757127551
2023-01-28 09:05:41.317724,0.045484703034162466
2023-01-28 09:05:41.322724,0.047903715444779636
2023-01-28 09:05:41.327724,0.05135059356689449
2023-01-28 09:05:41.332724,0.057924287651361
2023-01-28 09:05:41.337724,0.06909251213073729
2023-01-28 09:05:41.342724,0.08509477030811383
2023-01-28 09:05:41.347724,0.10460039228200908
2023-01-28 09:05:41.352724,0.12498279248454316
2023-01-28 09:05:41.357724,0.14335374534130083
2023-01-28 09:05:41.362724,0.1577620678290058
2023-01-28 09:05:41.367724,0.16777893900871266
2023-01-28 09:05:41.372724,0.17430928296090561
2023-01-28 09:05:41.377724,0.17890970408916468
2023-01-28 09:05:41.382724,0.18281518045919506
2023-01-28 09:05:41.387724,0.1859776228666304
2023-01-28 09:05:41.392724,0.18675563497787728
2023-01-28 09:05:41.397724,0.18263599276542647
2023-01-28 09:05:41.402724,0.17152907494025224
2023-01-28 09:05:41.407724,0.15282571315765373
2023-01-28 09:05:41.412724,0.12782192252021662
2023-01-28 09:05:41.417724,0.09947975724935527
2023-01-28 09:05:41.422724,0.07151180863994855
2023-01-28 09:05:41.427724,0.04704733937978739
2023-01-28 09:05:41.432724,0.027619825762094364
2023-01-28 09:05:41.437724,0.013078054413199406
2023-01-28 09:05:41.442724,0.002246525876175677
2023-01-28 09:05:41.447724,-0.00627458095550529
2023-01-28 09:05:41.452724,-0.013533781097780473
2023-01-28 09:05:41.457724,-0.019977688789367544
2023-01-28 09:05:41.462724,-0.025612588982888755
2023-01-28 09:05:41.467724,-0.030459364876150974
2023-01-28 09:05:41.472724,-0.03483759188154687
2023-01-28 09:05:41.477724,-0.03916203975677488
2023-01-28 09:05:41.482724,-0.043511332763893976
2023-01-28 09:05:41.487724,-0.04743198677897448
2023-01-28 09:05:41.492724,-0.050091721313481254
2023-01-28 09:05:41.497724,-0.050629377365112235
2023-01-28 09:05:41.502724,-0.04859772553836979
2023-01-28 09:05:41.507724,-0.044354796409606885
2023-01-28 09:05:41.512724,-0.039095979496523124
2023-01-28 09:05:41.517724,-0.03437797352671618
2023-01-28 09:05:41.522724,-0.03142677409904518
2023-01-28 09:05:41.527724,-0.030675729736685715
2023-01-28 09:05:41.532724,-0.031715198427547546
2023-01-28 09:05:41.537724,-0.0335846357047557
2023-01-28 09:05:41.542724,-0.035275921539110244
2023-01-28 09:05:41.547724,-0.03622909635305396
2023-01-28 09:05:41.552724,-0.03651118860406009
2023-01-28 09:05:41.557724,-0.0365416221320629
2023-01-28 09:05:41.562724,-0.03659296738385648
2023-01-28 09:05:41.567724,-0.036469500511884564
2023-01-28 09:05:41.572724,-0.03560231020195601
2023-01-28 09:05:41.577724,-0.03348847478628149
2023-01-28 09:05:41.582724,-0.030158807922702587
2023-01-28 09:05:41.587724,-0.026324391365051204
2023-01-28 09:05:41.592724,-0.02307617108348675
2023-01-28 09:05:41.597724,-0.02132396027445789
2023-01-28 09:05:41.602724,-0.02130378669207655
2023-01-28 09:05:41.607724,-0.0224298238754272
2023-01-28 09:05:41.612724,-0.023624261750881278
2023-01-28 09:05:41.617724,-0.023992460221052142
2023-01-28 09:05:41.622724,-0.02339408149215411
2023-01-28 09:05:41.627724,-0.022477906197309456
2023-01-28 09:05:41.632724,-0.02221268982717543
2023-01-28 09:05:41.637724,-0.023319324478507052
2023-01-28 09:05:41.642724,-0.02589831803090928
2023-01-28 09:05:41.647724,-0.029329460114240608
2023-01-28 09:05:41.652724,-0.03252878672047463
2023-01-28 09:05:41.657724,-0.03452221676707261
2023-01-28 09:05:41.662724,-0.034915648437876076
2023-01-28 09:05:41.667724,-0.033873122185468604
2023-01-28 09:05:41.672724,-0.03181889682745457
2023-01-28 09:05:41.677724,-0.029305418953299522
2023-01-28 09:05:41.682724,-0.026971062133619852
2023-01-28 09:05:41.687724,-0.02529064938426013
2023-01-28 09:05:41.692724,-0.02435051396295992
2023-01-28 09:05:41.697724,-0.024016499519348106
2023-01-28 09:05:41.702724,-0.024167851470475538
2023-01-28 09:05:41.707724,-0.02452135086059572
2023-01-28 09:05:41.712724,-0.024441230465687823
2023-01-28 09:05:41.717724,-0.023319324478506976
2023-01-28 09:05:41.722724,-0.021028559352523245
2023-01-28 09:05:41.727724,-0.017669796943664502
2023-01-28 09:05:41.732724,-0.01313166080918025
2023-01-28 09:05:41.737724,-0.007404486648738289
2023-01-28 09:05:41.742724,-0.001077056217850791
2023-01-28 09:05:41.747724,0.005120635032653837
2023-01-28 09:05:41.752724,0.011084316572113038
2023-01-28 09:05:41.757724,0.016996663063764496
2023-01-28 09:05:41.762724,0.02254684244552501
2023-01-28 09:05:41.767724,0.027382176369428635
2023-01-28 09:05:41.772724,0.03197359941781957
2023-01-28 09:05:41.777724,0.03673394769430159
2023-01-28 09:05:41.782724,0.04040911296343604
2023-01-28 09:05:41.787724,0.04094104096293441
2023-01-28 09:05:41.792724,0.03814058093807808
2023-01-28 09:05:41.797724,0.03372887894511216
2023-01-28 09:05:41.802724,0.028181051116236696
2023-01-28 09:05:41.807724,0.01961708068847649
2023-01-28 09:05:41.812724,0.007180031509555221
2023-01-28 09:05:41.817724,-0.00629862165078525
2023-01-28 09:05:41.822724,-0.016956027915628103
2023-01-28 09:05:41.827724,-0.0240164995193481
2023-01-28 09:05:41.832724,-0.02924507894101369
2023-01-28 09:05:41.837724,-0.03329614922404278
2023-01-28 09:05:41.842724,-0.03508585446187329
2023-01-28 09:05:41.847724,-0.034570299088954926
2023-01-28 09:05:41.852724,-0.03374661384064922
2023-01-28 09:05:41.857724,-0.034377973526716205
2023-01-28 09:05:41.862724,-0.03637350664975472
2023-01-28 09:05:41.867724,-0.03860910981893531
2023-01-28 09:05:41.872724,-0.03938169864963992
2023-01-28 09:05:41.877724,-0.035315554589033106
2023-01-28 09:05:41.882724,-0.021614925721694614
2023-01-28 09:05:41.887724,0.005000432487577058
2023-01-28 09:05:41.892724,0.0436612945851609
2023-01-28 09:05:41.897724,0.08935868740081773
2023-01-28 09:05:41.902724,0.13418876989599055
2023-01-28 09:05:41.907724,0.1685241907835005
2023-01-28 09:05:41.912724,0.18341200207429822
2023-01-28 09:05:41.917724,0.17443816363811493
2023-01-28 09:05:41.922724,0.14405278352936618
2023-01-28 09:05:41.927724,0.10017693042755116
2023-01-28 09:05:41.932724,0.05280460468294457
2023-01-28 09:05:41.937724,0.011082689277827688
2023-01-28 09:05:41.942724,-0.018932169780932772
2023-01-28 09:05:41.947724,-0.03589252755045887
2023-01-28 09:05:41.952724,-0.04269277241699986
2023-01-28 09:05:41.957724,-0.04363358020782465
2023-01-28 09:05:41.962724,-0.04180735263090438
2023-01-28 09:05:41.967724,-0.03880143165588366
2023-01-28 09:05:41.972724,-0.0355940301307193
2023-01-28 09:05:41.977724,-0.032839380204677464
2023-01-28 09:05:41.982724,-0.030847094767863716
2023-01-28 09:05:41.987724,-0.02997855469584457
2023-01-28 09:05:41.992724,-0.030640545696010747
2023-01-28 09:05:41.997724,-0.03238260746002188
2023-01-28 09:05:42.002724,-0.03352582410542187
2023-01-28 09:05:42.007724,-0.032310485839843694
2023-01-28 09:05:42.012724,-0.028167666671336678
2023-01-28 09:05:42.017724,-0.021660527214407886
2023-01-28 09:05:42.022724,-0.01385674488407353
2023-01-28 09:05:42.027724,-0.006250540725886777
2023-01-28 09:05:42.032724,-0.000617620558184908
2023-01-28 09:05:42.037724,0.0018992027034982824
2023-01-28 09:05:42.042724,0.0014718616519823987
2023-01-28 09:05:42.047724,-0.0008895000210030825
2023-01-28 09:05:42.052724,-0.004036255250526826
2023-01-28 09:05:42.057724,-0.006611148826777904
2023-01-28 09:05:42.062724,-0.006989901420186069
2023-01-28 09:05:42.067724,-0.004062851425260279
2023-01-28 09:05:42.072724,0.0020763724897238235
2023-01-28 09:05:42.077724,0.010529756546020492
2023-01-28 09:05:42.082724,0.020298138577626464
2023-01-28 09:05:42.087724,0.03031512163579459
2023-01-28 09:05:42.092724,0.03943253497439044
2023-01-28 09:05:42.097724,0.04707137867808339
2023-01-28 09:05:42.102724,0.053694067564794425
2023-01-28 09:05:42.107724,0.060269635170698124
2023-01-28 09:05:42.112724,0.0675834278113226
2023-01-28 09:05:42.117724,0.07632871717214579
2023-01-28 09:05:42.122724,0.08727712253380082
2023-01-28 09:05:42.127724,0.1007058247923851
2023-01-28 09:05:42.132724,0.115860305315209
2023-01-28 09:05:42.137724,0.13135752081871033
2023-01-28 09:05:42.142724,0.14583770562524828
2023-01-28 09:05:42.147724,0.15797039866447438
2023-01-28 09:05:42.152724,0.166386725113863
2023-01-28 09:05:42.157724,0.17023107409477228
2023-01-28 09:05:42.162724,0.16957892015622522
2023-01-28 09:05:42.167724,0.16494214534759513
2023-01-28 09:05:42.172724,0.15665485185644928
2023-01-28 09:05:42.177724,0.14506062865257258
2023-01-28 09:05:42.182724,0.1308667523597302
2023-01-28 09:05:42.187724,0.11481761932373039
2023-01-28 09:05:42.192724,0.09728914938734425
2023-01-28 09:05:42.197724,0.07858853042125703
2023-01-28 09:05:42.202724,0.05933964614133123
2023-01-28 09:05:42.207724,0.04019578546285622
2023-01-28 09:05:42.212724,0.021517658656354615
2023-01-28 09:05:42.217724,0.0037503242492675187
2023-01-28 09:05:42.222724,-0.012203003506149324
2023-01-28 09:05:42.227724,-0.025410851463675384
2023-01-28 09:05:42.232724,-0.035463496364632745
2023-01-28 09:05:42.237724,-0.042287312448024694
2023-01-28 09:05:42.242724,-0.0458170800076497
2023-01-28 09:05:42.247724,-0.04632612317800515
2023-01-28 09:05:42.252724,-0.04481489883192062
2023-01-28 09:05:42.257724,-0.0426479205489158
2023-01-28 09:05:42.262724,-0.040980583953552696
2023-01-28 09:05:42.267724,-0.040724676102399826
2023-01-28 09:05:42.272724,-0.04254578231548029
2023-01-28 09:05:42.277724,-0.04632612317800522
2023-01-28 09:05:42.282724,-0.05086636986230311
2023-01-28 09:05:42.287724,-0.05459606647491451
2023-01-28 09:05:42.292724,-0.056520915114334
2023-01-28 09:05:42.297724,-0.05639910697937012
2023-01-28 09:05:42.302724,-0.054530063957704676
2023-01-28 09:05:42.307724,-0.0518073663115501
2023-01-28 09:05:42.312724,-0.04952289956411858
2023-01-28 09:05:42.317724,-0.04846572875976563
2023-01-28 09:05:42.322724,-0.0482668689640524
2023-01-28 09:05:42.327724,-0.04788875579833982
2023-01-28 09:05:42.332724,-0.04651042946536085
2023-01-28 09:05:42.337724,-0.04377782344818113
2023-01-28 09:05:42.342724,-0.03978486643291841
2023-01-28 09:05:42.347724,-0.03536363691091528
2023-01-28 09:05:42.352724,-0.03200859996700804
2023-01-28 09:05:42.357724,-0.03086805343627921
2023-01-28 09:05:42.362724,-0.03184095228673768
2023-01-28 09:05:42.367724,-0.0338731221854686
2023-01-28 09:05:42.372724,-0.03580123526804952
2023-01-28 09:05:42.377724,-0.03668586537241933
2023-01-28 09:05:42.382724,-0.035964324512728615
2023-01-28 09:05:42.387724,-0.03396928310394279
2023-01-28 09:05:42.392724,-0.03203747327772903
2023-01-28 09:05:42.397724,-0.031541191041469456
2023-01-28 09:05:42.402724,-0.0329046514248959
2023-01-28 09:05:42.407724,-0.03577232360839836
2023-01-28 09:05:42.412724,-0.039650107922785394
2023-01-28 09:05:42.417724,-0.04392206668853752
2023-01-28 09:05:42.422724,-0.047713031545817366
2023-01-28 09:05:42.427724,-0.05036493390798564
2023-01-28 09:05:42.432724,-0.05179374927164961
2023-01-28 09:05:42.437724,-0.051927566528320264
2023-01-28 09:05:42.442724,-0.05017115288426644
2023-01-28 09:05:42.447724,-0.045941472053527777
2023-01-28 09:05:42.452724,-0.03937615532926701
2023-01-28 09:05:42.457724,-0.03103633783757678
2023-01-28 09:05:42.462724,-0.021368453366014444
2023-01-28 09:05:42.467724,-0.011034607887268068
2023-01-28 09:05:42.472724,-0.001288830727940501
2023-01-28 09:05:42.477724,0.006707310676574674
2023-01-28 09:05:42.482724,0.012649190821289106
2023-01-28 09:05:42.487724,0.016636054962873372
2023-01-28 09:05:42.492724,0.018470227741246074
2023-01-28 09:05:42.497724,0.01810252666473379
2023-01-28 09:05:42.502724,0.016210391716408944
2023-01-28 09:05:42.507724,0.013414621353149421
2023-01-28 09:05:42.512724,0.009323943287094214
2023-01-28 09:05:42.517724,0.0032695136032997994
2023-01-28 09:05:42.522724,-0.004411532523178443
2023-01-28 09:05:42.527724,-0.012765526771545391
2023-01-28 09:05:42.532724,-0.02136326142765404
2023-01-28 09:05:42.537724,-0.02983431145548819
2023-01-28 09:05:42.542724,-0.03677292922441629
2023-01-28 09:05:42.547724,-0.04082083702087396
2023-01-28 09:05:42.552724,-0.04291567583424472
