2023-01-28 13:45:50.075740,-0.10782182216644283
2023-01-28 13:45:50.080740,-0.12229291160209066
2023-01-28 13:45:50.085740,-0.10964890569448471
2023-01-28 13:45:50.090740,-0.09824515888799581
2023-01-28 13:45:50.095740,-0.09371002763509746
2023-01-28 13:45:50.100740,-0.07749423317320134
2023-01-28 13:45:50.105740,-0.04175841808319089
2023-01-28 13:45:50.110740,-0.0001342618270032195
2023-01-28 13:45:50.115740,0.034930907189846
2023-01-28 13:45:50.120740,0.06310042071749315
2023-01-28 13:45:50.125740,0.0816897600889205
2023-01-28 13:45:50.130740,0.07980100970669482
2023-01-28 13:45:50.135740,0.05373060703277582
2023-01-28 13:45:50.140740,0.014773780305472134
2023-01-28 13:45:50.145740,-0.02401649951934813
2023-01-28 13:45:50.150740,-0.05811781023087699
2023-01-28 13:45:50.155740,-0.08495926856994619
2023-01-28 13:45:50.160740,-0.09888299502671544
2023-01-28 13:45:50.165740,-0.09885470569133747
2023-01-28 13:45:50.170740,-0.09249896165411131
2023-01-28 13:45:50.175740,-0.08681039512157437
2023-01-28 13:45:50.180740,-0.08144089232610986
2023-01-28 13:45:50.185740,-0.07486224174499512
2023-01-28 13:45:50.190740,-0.06980311533571966
2023-01-28 13:45:50.195740,-0.0681789740920066
2023-01-28 13:45:50.200740,-0.06710203170154794
2023-01-28 13:45:50.205740,-0.06438057124614713
2023-01-28 13:45:50.210740,-0.06256932362620296
2023-01-28 13:45:50.215740,-0.06373147666454311
2023-01-28 13:45:50.220740,-0.06528118097794135
2023-01-28 13:45:50.225740,-0.06462097167968751
2023-01-28 13:45:50.230740,-0.06313644277706126
2023-01-28 13:45:50.235740,-0.06219287961721418
2023-01-28 13:45:50.240740,-0.05970899970459415
2023-01-28 13:45:50.245740,-0.05409121513366689
2023-01-28 13:45:50.250740,-0.04746070234678011
2023-01-28 13:45:50.255740,-0.04180650040507308
2023-01-28 13:45:50.260740,-0.03576269816888444
2023-01-28 13:45:50.265740,-0.028151473030447884
2023-01-28 13:45:50.270740,-0.021018141258402522
2023-01-28 13:45:50.275740,-0.016203325241804095
2023-01-28 13:45:50.280740,-0.012259318771629182
2023-01-28 13:45:50.285740,-0.007452567573636694
2023-01-28 13:45:50.290740,-0.0025579044655685075
2023-01-28 13:45:50.295740,0.0018992027034982848
2023-01-28 13:45:50.300740,0.007944743829977223
2023-01-28 13:45:50.305740,0.017020702362060523
2023-01-28 13:45:50.310740,0.02737689420823465
2023-01-28 13:45:50.315740,0.036974351853132206
2023-01-28 13:45:50.320740,0.04623873465364634
2023-01-28 13:45:50.325740,0.05572597309947006
2023-01-28 13:45:50.330740,0.06389523344560452
2023-01-28 13:45:50.335740,0.0695733278989791
2023-01-28 13:45:50.340740,0.0740783203996988
2023-01-28 13:45:50.345740,0.07863660901784891
2023-01-28 13:45:50.350740,0.08203870119230296
2023-01-28 13:45:50.355740,0.08286774158477778
2023-01-28 13:45:50.360740,0.08162987136723779
2023-01-28 13:45:50.365740,0.07863660901784889
2023-01-28 13:45:50.370740,0.07214237361036338
2023-01-28 13:45:50.375740,0.06072640419006336
2023-01-28 13:45:50.380740,0.045501121227551726
2023-01-28 13:45:50.385740,0.02815147303044791
2023-01-28 13:45:50.390740,0.00892783900539257
2023-01-28 13:45:50.395740,-0.011611580848693797
2023-01-28 13:45:50.400740,-0.03105789349979986
2023-01-28 13:45:50.405740,-0.04735986515879629
2023-01-28 13:45:50.410740,-0.06079571286769035
2023-01-28 13:45:50.415740,-0.07212162017822261
2023-01-28 13:45:50.420740,-0.08069837983091924
2023-01-28 13:45:50.425740,-0.0861132144927978
2023-01-28 13:45:50.430740,-0.08971052408340295
2023-01-28 13:45:50.435740,-0.09272436797618858
2023-01-28 13:45:50.440740,-0.09457374618244194
2023-01-28 13:45:50.445740,-0.09457548707723608
2023-01-28 13:45:50.450740,-0.09361570407396429
2023-01-28 13:45:50.455740,-0.09258012473583221
2023-01-28 13:45:50.460740,-0.09085243790669029
2023-01-28 13:45:50.465740,-0.08794029802083958
2023-01-28 13:45:50.470740,-0.08497030054226377
2023-01-28 13:45:50.475740,-0.0830600708723068
2023-01-28 13:45:50.480740,-0.08175901844360567
2023-01-28 13:45:50.485740,-0.08051177114248266
2023-01-28 13:45:50.490740,-0.08007032367380618
2023-01-28 13:45:50.495740,-0.08099257946014399
2023-01-28 13:45:50.500740,-0.0822300390353677
2023-01-28 13:45:50.505740,-0.08260329812765113
2023-01-28 13:45:50.510740,-0.0822445039247249
2023-01-28 13:45:50.515740,-0.08128106594085686
2023-01-28 13:45:50.520740,-0.07861624545325152
2023-01-28 13:45:50.525740,-0.07346789538860317
2023-01-28 13:45:50.530740,-0.06684694342384953
2023-01-28 13:45:50.535740,-0.06029367446899405
2023-01-28 13:45:50.540740,-0.05450951699457126
2023-01-28 13:45:50.545740,-0.05041301250457759
2023-01-28 13:45:50.550740,-0.050022498534811756
2023-01-28 13:45:50.555740,-0.05476435273885718
2023-01-28 13:45:50.560740,-0.06390768186974402
2023-01-28 13:45:50.565740,-0.0757036656141281
2023-01-28 13:45:50.570740,-0.0888119078887539
2023-01-28 13:45:50.575740,-0.10159532725810996
2023-01-28 13:45:50.580740,-0.11156016177413262
2023-01-28 13:45:50.585740,-0.11705338954925533
2023-01-28 13:45:50.590740,-0.11866358692727796
2023-01-28 13:45:50.595740,-0.11796693503856649
2023-01-28 13:45:50.600740,-0.11597298228460655
2023-01-28 13:45:50.605740,-0.11366367340087888
2023-01-28 13:45:50.610740,-0.11260819853542922
2023-01-28 13:45:50.615740,-0.11363963782787313
2023-01-28 13:45:50.620740,-0.11577639730718399
2023-01-28 13:45:50.625740,-0.11741399765014639
2023-01-28 13:45:50.630740,-0.11760615814321095
2023-01-28 13:45:50.635740,-0.11534651368856426
2023-01-28 13:45:50.640740,-0.10885101193328038
2023-01-28 13:45:50.645740,-0.09681125730276102
2023-01-28 13:45:50.650740,-0.07969843756811745
2023-01-28 13:45:50.655740,-0.05921185016632078
2023-01-28 13:45:50.660740,-0.0375705159776824
2023-01-28 13:45:50.665740,-0.01815060898661606
2023-01-28 13:45:50.670740,-0.005509010597904068
2023-01-28 13:45:50.675740,-0.003293554065748959
2023-01-28 13:45:50.680740,-0.012241448528645825
2023-01-28 13:45:50.685740,-0.030339162796735677
2023-01-28 13:45:50.690740,-0.05383423887378361
2023-01-28 13:45:50.695740,-0.07772307097911826
2023-01-28 13:45:50.700740,-0.09687019295873002
2023-01-28 13:45:50.705740,-0.10815839469432825
2023-01-28 13:45:50.710740,-0.11147054859872464
2023-01-28 13:45:50.715740,-0.10856708139181127
2023-01-28 13:45:50.720740,-0.1019112194020171
2023-01-28 13:45:50.725740,-0.09440720081329337
2023-01-28 13:45:50.730740,-0.0884593272085359
2023-01-28 13:45:50.735740,-0.08445441722869863
2023-01-28 13:45:50.740740,-0.08126274098767818
2023-01-28 13:45:50.745740,-0.07858853042125699
2023-01-28 13:45:50.750740,-0.07745657544814605
2023-01-28 13:45:50.755740,-0.07805963605642305
2023-01-28 13:45:50.760740,-0.07886774851610497
2023-01-28 13:45:50.765740,-0.07861256599426254
2023-01-28 13:45:50.770740,-0.07757548898922605
2023-01-28 13:45:50.775740,-0.07611235231161108
2023-01-28 13:45:50.780740,-0.07352038538186989
2023-01-28 13:45:50.785740,-0.06940504163503639
2023-01-28 13:45:50.790740,-0.06474923492181994
2023-01-28 13:45:50.795740,-0.06053408235311495
2023-01-28 13:45:50.800740,-0.056515000528606474
2023-01-28 13:45:50.805740,-0.0523122176527976
2023-01-28 13:45:50.810740,-0.04842039735646132
2023-01-28 13:45:50.815740,-0.045076012611389014
2023-01-28 13:45:50.820740,-0.041310534791088975
2023-01-28 13:45:50.825740,-0.03622909635305405
2023-01-28 13:45:50.830740,-0.030230852362643487
2023-01-28 13:45:50.835740,-0.02404054068028919
2023-01-28 13:45:50.840740,-0.01760112122979549
2023-01-28 13:45:50.845740,-0.010842284187674531
2023-01-28 13:45:50.850740,-0.004416585743039012
2023-01-28 13:45:50.855740,0.0013703107833861546
2023-01-28 13:45:50.860740,0.007372890505735228
2023-01-28 13:45:50.865740,0.014352202415466284
2023-01-28 13:45:50.870740,0.021797564340043103
2023-01-28 13:45:50.875740,0.028848648071289014
2023-01-28 13:45:50.880740,0.03541046537316155
2023-01-28 13:45:50.885740,0.04146993160247797
2023-01-28 13:45:50.890740,0.046311011081892735
2023-01-28 13:45:50.895740,0.049379270523786524
2023-01-28 13:45:50.900740,0.0510243169825929
2023-01-28 13:45:50.905740,0.051446758210659
2023-01-28 13:45:50.910740,0.049757908369053534
2023-01-28 13:45:50.915740,0.044979851692914845
2023-01-28 13:45:50.920740,0.03718071846495281
2023-01-28 13:45:50.925740,0.026853283867239855
2023-01-28 13:45:50.930740,0.014118208492519987
2023-01-28 13:45:50.935740,-0.0005529324407689321
2023-01-28 13:45:50.940740,-0.015696212728126813
2023-01-28 13:45:50.945740,-0.02988239191472532
2023-01-28 13:45:50.950740,-0.04269840345813003
2023-01-28 13:45:50.955740,-0.054019093513488714
2023-01-28 13:45:50.960740,-0.06323071925458587
2023-01-28 13:45:50.965740,-0.07005413621664038
2023-01-28 13:45:50.970740,-0.07531581390169341
2023-01-28 13:45:50.975740,-0.08000691980123513
2023-01-28 13:45:50.980740,-0.08426098567273284
2023-01-28 13:45:50.985740,-0.08796434104442588
2023-01-28 13:45:50.990740,-0.09151386679969505
2023-01-28 13:45:50.995740,-0.09512841701507559
2023-01-28 13:45:51.000740,-0.09819580804922043
2023-01-28 13:45:51.005740,-0.10015289485454548
2023-01-28 13:45:51.010740,-0.10131105453145661
2023-01-28 13:45:51.015740,-0.102052092552185
2023-01-28 13:45:51.020740,-0.10196028234022407
2023-01-28 13:45:51.025740,-0.1005375385284423
2023-01-28 13:45:51.030740,-0.09806630368226535
2023-01-28 13:45:51.035740,-0.0950322598218917
2023-01-28 13:45:51.040740,-0.0914499293451851
2023-01-28 13:45:51.045740,-0.0875075682997703
2023-01-28 13:45:51.050740,-0.08407592102923056
2023-01-28 13:45:51.055740,-0.08168976008892054
2023-01-28 13:45:51.060740,-0.07962694675797452
2023-01-28 13:45:51.065740,-0.07673740386962895
2023-01-28 13:45:51.070740,-0.0726101782658795
2023-01-28 13:45:51.075740,-0.06740967929363248
2023-01-28 13:45:51.080740,-0.06149172575716113
2023-01-28 13:45:51.085740,-0.05603849887847902
2023-01-28 13:45:51.090740,-0.05328955341815654
2023-01-28 13:45:51.095740,-0.055100917816162116
2023-01-28 13:45:51.100740,-0.061539453368188425
2023-01-28 13:45:51.105740,-0.07128020375967017
2023-01-28 13:45:51.110740,-0.08259527689029927
2023-01-28 13:45:51.115740,-0.0933974981307983
2023-01-28 13:45:51.120740,-0.10138429632627156
2023-01-28 13:45:51.125740,-0.10534565150737754
2023-01-28 13:45:51.130740,-0.10604236841382182
2023-01-28 13:45:51.135740,-0.10520140826702107
2023-01-28 13:45:51.140740,-0.10414687885744837
2023-01-28 13:45:51.145740,-0.10378301143646237
2023-01-28 13:45:51.150740,-0.10486995354096007
2023-01-28 13:45:51.155740,-0.10729293525218961
2023-01-28 13:45:51.160740,-0.1095798342224741
2023-01-28 13:45:51.165740,-0.10991334915161127
2023-01-28 13:45:51.170740,-0.10716356095836689
2023-01-28 13:45:51.175740,-0.10044138133525843
2023-01-28 13:45:51.180740,-0.08850622152346939
2023-01-28 13:45:51.185740,-0.0705830305814743
2023-01-28 13:45:51.190740,-0.047427753285741336
2023-01-28 13:45:51.195740,-0.021155675873160303
2023-01-28 13:45:51.200740,0.005215911880175506
2023-01-28 13:45:51.205740,0.027478337287902766
2023-01-28 13:45:51.210740,0.04059055222018372
2023-01-28 13:45:51.215740,0.04082083702087403
2023-01-28 13:45:51.220740,0.027823446152175874
2023-01-28 13:45:51.225740,0.004591743461787682
2023-01-28 13:45:51.230740,-0.023852441041221632
2023-01-28 13:45:51.235740,-0.05149483680725085
2023-01-28 13:45:51.240740,-0.07266455328015699
2023-01-28 13:45:51.245740,-0.08418997377157209
2023-01-28 13:45:51.250740,-0.08652025436815876
2023-01-28 13:45:51.255740,-0.08238693326711646
2023-01-28 13:45:51.260740,-0.07476761648501636
2023-01-28 13:45:51.265740,-0.06625573337078085
2023-01-28 13:45:51.270740,-0.059058779046854304
2023-01-28 13:45:51.275740,-0.05428354069590551
2023-01-28 13:45:51.280740,-0.05154927455318891
2023-01-28 13:45:51.285740,-0.05005240440368642
2023-01-28 13:45:51.290740,-0.04956717746360059
2023-01-28 13:45:51.295740,-0.04986008256673807
2023-01-28 13:45:51.300740,-0.04994847195994064
2023-01-28 13:45:51.305740,-0.04887441918253889
2023-01-28 13:45:51.310740,-0.046656699831520494
2023-01-28 13:45:51.315740,-0.0436816625297069
2023-01-28 13:45:51.320740,-0.03981352711337733
2023-01-28 13:45:51.325740,-0.03500302881002418
2023-01-28 13:45:51.330740,-0.030085340224233783
2023-01-28 13:45:51.335740,-0.025867622345685844
2023-01-28 13:45:51.340740,-0.02190823495588018
2023-01-28 13:45:51.345740,-0.017285149544477386
2023-01-28 13:45:51.350740,-0.012147599223906853
2023-01-28 13:45:51.355740,-0.007332365028560126
2023-01-28 13:45:51.360740,-0.0027059642903154045
2023-01-28 13:45:51.365740,0.0028848648071288967
2023-01-28 13:45:51.370740,0.009989124914206313
2023-01-28 13:45:51.375740,0.017910202965140346
2023-01-28 13:45:51.380740,0.025803333166313436
2023-01-28 13:45:51.385740,0.033536553382873494
2023-01-28 13:45:51.390740,0.04128911205714184
2023-01-28 13:45:51.395740,0.04904270172119135
2023-01-28 13:45:51.400740,0.056711763724645876
2023-01-28 13:45:51.405740,0.06423632800579067
2023-01-28 13:45:51.410740,0.07135540620046946
2023-01-28 13:45:51.415740,0.07767498493194581
2023-01-28 13:45:51.420740,0.08304807161880266
2023-01-28 13:45:51.425740,0.08760373294353477
2023-01-28 13:45:51.430740,0.09146125741059598
2023-01-28 13:45:51.435740,0.0946956872940063
2023-01-28 13:45:51.440740,0.09738845492559123
2023-01-28 13:45:51.445740,0.09928743541240684
2023-01-28 13:45:51.450740,0.09950198425795048
2023-01-28 13:45:51.455740,0.0968833789229393
2023-01-28 13:45:51.460740,0.09066420877116729
2023-01-28 13:45:51.465740,0.08060793578624717
2023-01-28 13:45:51.470740,0.0669304841098503
2023-01-28 13:45:51.475740,0.05050917714834208
2023-01-28 13:45:51.480740,0.03292674854737092
2023-01-28 13:45:51.485740,0.015842717140913037
2023-01-28 13:45:51.490740,0.00034679819306635787
2023-01-28 13:45:51.495740,-0.01295785140246151
2023-01-28 13:45:51.500740,-0.023645570078840907
2023-01-28 13:45:51.505740,-0.0316373519599437
2023-01-28 13:45:51.510740,-0.03738280759356856
2023-01-28 13:45:51.515740,-0.041445892304181976
2023-01-28 13:45:51.520740,-0.04406486684992952
2023-01-28 13:45:51.525740,-0.04536449909210201
2023-01-28 13:45:51.530740,-0.0456815103470144
2023-01-28 13:45:51.535740,-0.045340459793806
2023-01-28 13:45:51.540740,-0.0444087873239583
2023-01-28 13:45:51.545740,-0.043032567948102896
2023-01-28 13:45:51.550740,-0.04172861732193645
2023-01-28 13:45:51.555740,-0.0409650802612304
2023-01-28 13:45:51.560740,-0.04067299319186444
2023-01-28 13:45:51.565740,-0.04046022891998287
2023-01-28 13:45:51.570740,-0.04001944446782043
2023-01-28 13:45:51.575740,-0.03904183954000469
2023-01-28 13:45:51.580740,-0.03711617805824656
2023-01-28 13:45:51.585740,-0.03416160866618148
2023-01-28 13:45:51.590740,-0.030733024315571667
2023-01-28 13:45:51.595740,-0.027526419609785
2023-01-28 13:45:51.600740,-0.024761486122063626
2023-01-28 13:45:51.605740,-0.02228558063507084
2023-01-28 13:45:51.610740,-0.019966161706413528
2023-01-28 13:45:51.615740,-0.017693838104605637
2023-01-28 13:45:51.620740,-0.015398994384517598
2023-01-28 13:45:51.625740,-0.013534824363887291
2023-01-28 13:45:51.630740,-0.013319085063483962
2023-01-28 13:45:51.635740,-0.0160590820014476
2023-01-28 13:45:51.640740,-0.02226551569614965
2023-01-28 13:45:51.645740,-0.0314931087195873
2023-01-28 13:45:51.650740,-0.042617530205237855
2023-01-28 13:45:51.655740,-0.0539469718933105
2023-01-28 13:45:51.660740,-0.06352055263180426
2023-01-28 13:45:51.665740,-0.06995797157287582
2023-01-28 13:45:51.670740,-0.07310542045044666
2023-01-28 13:45:51.675740,-0.07373233884572979
2023-01-28 13:45:51.680740,-0.07284139595963392
2023-01-28 13:45:51.685740,-0.07142444700002668
2023-01-28 13:45:51.690740,-0.07041512246948059
2023-01-28 13:45:51.695740,-0.07034262269735332
2023-01-28 13:45:51.700740,-0.0710899278966479
2023-01-28 13:45:51.705740,-0.07216970622539515
2023-01-28 13:45:51.710740,-0.07291386815244476
2023-01-28 13:45:51.715740,-0.07202546298503873
2023-01-28 13:45:51.720740,-0.067170426899387
2023-01-28 13:45:51.725740,-0.05548556894063938
2023-01-28 13:45:51.730740,-0.03474880424791914
2023-01-28 13:45:51.735740,-0.004519621841609416
2023-01-28 13:45:51.740740,0.03286556124924308
2023-01-28 13:45:51.745740,0.07168889045715326
2023-01-28 13:45:51.750740,0.10364639241102411
2023-01-28 13:45:51.755740,0.12049119174480423
2023-01-28 13:45:51.760740,0.11723908696381141
2023-01-28 13:45:51.765740,0.09411871433258046
2023-01-28 13:45:51.770740,0.05659105542120284
2023-01-28 13:45:51.775740,0.013679067604243665
2023-01-28 13:45:51.780740,-0.025013993492979385
2023-01-28 13:45:51.785740,-0.05262474343180647
2023-01-28 13:45:51.790740,-0.06694124527266909
2023-01-28 13:45:51.795740,-0.069909892976284
2023-01-28 13:45:51.800740,-0.06561934852777634
2023-01-28 13:45:51.805740,-0.05832235142588608
2023-01-28 13:45:51.810740,-0.051148255262600084
2023-01-28 13:45:51.815740,-0.0455087423324584
2023-01-28 13:45:51.820740,-0.04134295351431659
2023-01-28 13:45:51.825740,-0.03805617615580549
2023-01-28 13:45:51.830740,-0.03529561814319112
2023-01-28 13:45:51.835740,-0.032959580421447775
2023-01-28 13:45:51.840740,-0.03087605201875963
2023-01-28 13:45:51.845740,-0.02877652645111084
2023-01-28 13:45:51.850740,-0.026444392847044088
2023-01-28 13:45:51.855740,-0.02370397374033923
2023-01-28 13:45:51.860740,-0.020412367021619682
2023-01-28 13:45:51.865740,-0.0166360549628734
2023-01-28 13:45:51.870740,-0.012715677911066915
2023-01-28 13:45:51.875740,-0.009015202522277832
2023-01-28 13:45:51.880740,-0.005690343475532463
2023-01-28 13:45:51.885740,-0.0027406215667724137
2023-01-28 13:45:51.890740,-9.552206290532202e-05
2023-01-28 13:45:51.895740,0.0024761757813393783
2023-01-28 13:45:51.900740,0.005422947813800415
2023-01-28 13:45:51.905740,0.009279648773372126
2023-01-28 13:45:51.910740,0.01452559242303767
2023-01-28 13:45:51.915740,0.02151628397405139
2023-01-28 13:45:51.920740,0.030355242915645897
2023-01-28 13:45:51.925740,0.0407487154006958
2023-01-28 13:45:51.930740,0.05204083695183758
2023-01-28 13:45:51.935740,0.06339490413665776
2023-01-28 13:45:51.940740,0.07398536724373114
2023-01-28 13:45:51.945740,0.08325239270925519
2023-01-28 13:45:51.950740,0.09113091794044723
2023-01-28 13:45:51.955740,0.09789308160543442
2023-01-28 13:45:51.960740,0.1037013471078227
2023-01-28 13:45:51.965740,0.10854303836822499
2023-01-28 13:45:51.970740,0.11255916066503986
2023-01-28 13:45:51.975740,0.11587540805339809
2023-01-28 13:45:51.980740,0.11792144256514306
2023-01-28 13:45:51.985740,0.11760632693767542
2023-01-28 13:45:51.990740,0.1145979894115682
2023-01-28 13:45:51.995740,0.1096969842910766
2023-01-28 13:45:52.000740,0.10326678665938926
2023-01-28 13:45:52.005740,0.09404659271240226
2023-01-28 13:45:52.010740,0.08059450741519807
2023-01-28 13:45:52.015740,0.06349106878042221
2023-01-28 13:45:52.020740,0.045004280409129356
2023-01-28 13:45:52.025740,0.026853283867239893
2023-01-28 13:45:52.030740,0.009509664453278098
2023-01-28 13:45:52.035740,-0.006442864891141605
2023-01-28 13:45:52.040740,-0.019725986370061597
2023-01-28 13:45:52.045740,-0.0295458249747753
2023-01-28 13:45:52.050740,-0.036253606800371
2023-01-28 13:45:52.055740,-0.04038810729980462
2023-01-28 13:45:52.060740,-0.0420187932263866
2023-01-28 13:45:52.065740,-0.041518013924360185
2023-01-28 13:45:52.070740,-0.040091326765571596
2023-01-28 13:45:52.075740,-0.03892163559794421
2023-01-28 13:45:52.080740,-0.03839369206767567
2023-01-28 13:45:52.085740,-0.038561027497053105
2023-01-28 13:45:52.090740,-0.03964058631483756
2023-01-28 13:45:52.095740,-0.041518013924360206
2023-01-28 13:45:52.100740,-0.043410517545603614
2023-01-28 13:45:52.105740,-0.04461924359202378
2023-01-28 13:45:52.110740,-0.04519481910346496
2023-01-28 13:45:52.115740,-0.04548470303416253
2023-01-28 13:45:52.120740,-0.04557144721067353
2023-01-28 13:45:52.125740,-0.04558086395263667
2023-01-28 13:45:52.130740,-0.045972153261653007
2023-01-28 13:45:52.135740,-0.04697521775960921
2023-01-28 13:45:52.140740,-0.04812692632453384
2023-01-28 13:45:52.145740,-0.04877825826406469
2023-01-28 13:45:52.150740,-0.048659808629573795
2023-01-28 13:45:52.155740,-0.047600269317626856
2023-01-28 13:45:52.160740,-0.045190431117615726
2023-01-28 13:45:52.165740,-0.04120548814535137
2023-01-28 13:45:52.170740,-0.036003962284374615
2023-01-28 13:45:52.175740,-0.030146837234496942
2023-01-28 13:45:52.180740,-0.024045844801933332
2023-01-28 13:45:52.185740,-0.018391013145446673
2023-01-28 13:45:52.190740,-0.014505600747576815
2023-01-28 13:45:52.195740,-0.013775229454040498
2023-01-28 13:45:52.200740,-0.01689834480667969
2023-01-28 13:45:52.205740,-0.0238482169806957
2023-01-28 13:45:52.210740,-0.03403277120195941
2023-01-28 13:45:52.215740,-0.04606167599558832
2023-01-28 13:45:52.220740,-0.05781351257086322
2023-01-28 13:45:52.225740,-0.06736159324645986
2023-01-28 13:45:52.230740,-0.07383352259184216
2023-01-28 13:45:52.235740,-0.07729034125804893
2023-01-28 13:45:52.240740,-0.07822743706529948
2023-01-28 13:45:52.245740,-0.07750670611858354
2023-01-28 13:45:52.250740,-0.07628858582017498
2023-01-28 13:45:52.255740,-0.07546325773000712
2023-01-28 13:45:52.260740,-0.07525918825666199
2023-01-28 13:45:52.265740,-0.07560750097036359
2023-01-28 13:45:52.270740,-0.0764918541801064
2023-01-28 13:45:52.275740,-0.07750670611858358
2023-01-28 13:45:52.280740,-0.07722814991508047
2023-01-28 13:45:52.285740,-0.07322748750448217
2023-01-28 13:45:52.290740,-0.062482674362179226
2023-01-28 13:45:52.295740,-0.04187862202525132
2023-01-28 13:45:52.300740,-0.00938952997626991
2023-01-28 13:45:52.305740,0.03392120450735091
2023-01-28 13:45:52.310740,0.08253500701041849
2023-01-28 13:45:52.315740,0.12722253799438465
2023-01-28 13:45:52.320740,0.1576450283334325
2023-01-28 13:45:52.325740,0.16559123992919916
2023-01-28 13:45:52.330740,0.147966369319143
2023-01-28 13:45:52.335740,0.10854303836822495
2023-01-28 13:45:52.340740,0.05708985423768206
2023-01-28 13:45:52.345740,0.0057216486893593935
2023-01-28 13:45:52.350740,-0.0354873784959787
2023-01-28 13:45:52.355740,-0.061255298554897336
2023-01-28 13:45:52.360740,-0.07157152218826901
2023-01-28 13:45:52.365740,-0.07048686593770974
2023-01-28 13:45:52.370740,-0.06375754596765655
2023-01-28 13:45:52.375740,-0.05618274211883537
2023-01-28 13:45:52.380740,-0.05010403841972478
2023-01-28 13:45:52.385740,-0.045773189514875384
2023-01-28 13:45:52.390740,-0.04257900069330119
2023-01-28 13:45:52.395740,-0.039835177361965096
2023-01-28 13:45:52.400740,-0.03706594035302754
2023-01-28 13:45:52.405740,-0.03423373028635966
2023-01-28 13:45:52.410740,-0.03171167342789035
2023-01-28 13:45:52.415740,-0.02978622913360586
2023-01-28 13:45:52.420740,-0.028270776031609414
2023-01-28 13:45:52.425740,-0.02673308178782461
2023-01-28 13:45:52.430740,-0.024870470778756395
2023-01-28 13:45:52.435740,-0.022477906197309418
2023-01-28 13:45:52.440740,-0.019319186826188474
2023-01-28 13:45:52.445740,-0.015313824638724289
2023-01-28 13:45:52.450740,-0.010688916249283465
2023-01-28 13:45:52.455740,-0.005721648689359446
2023-01-28 13:45:52.460740,-0.00046967727914043656
2023-01-28 13:45:52.465740,0.005096594803035202
2023-01-28 13:45:52.470740,0.010911520783792667
2023-01-28 13:45:52.475740,0.016972621902823372
2023-01-28 13:45:52.480740,0.02351028132011741
2023-01-28 13:45:52.485740,0.03079593181610097
2023-01-28 13:45:52.490740,0.03889136771672539
2023-01-28 13:45:52.495740,0.047696433961391435
2023-01-28 13:45:52.500740,0.057053906168975176
2023-01-28 13:45:52.505740,0.0666403770446777
2023-01-28 13:45:52.510740,0.07590336218525842
2023-01-28 13:45:52.515740,0.08428613841533658
2023-01-28 13:45:52.520740,0.09146952961895244
2023-01-28 13:45:52.525740,0.0973641872406005
2023-01-28 13:45:52.530740,0.10201982390407124
2023-01-28 13:45:52.535740,0.1056100949645042
2023-01-28 13:45:52.540740,0.10834926334764236
2023-01-28 13:45:52.545740,0.11029800027608869
2023-01-28 13:45:52.550740,0.11125923197824189
2023-01-28 13:45:52.555740,0.11080285161733623
2023-01-28 13:45:52.560740,0.10828506033016659
2023-01-28 13:45:52.565740,0.10294159501790998
2023-01-28 13:45:52.570740,0.09418671619435513
2023-01-28 13:45:52.575740,0.08190612494945525
2023-01-28 13:45:52.580740,0.0665240824007609
2023-01-28 13:45:52.585740,0.04901866242289542
2023-01-28 13:45:52.590740,0.030928821752270158
2023-01-28 13:45:52.595740,0.013943513855337987
2023-01-28 13:45:52.600740,-0.0008621950255487268
2023-01-28 13:45:52.605740,-0.013222297653555804
2023-01-28 13:45:52.610740,-0.023040078607797283
2023-01-28 13:45:52.615740,-0.030098756775259874
2023-01-28 13:45:52.620740,-0.034763585512277276
2023-01-28 13:45:52.625740,-0.0382965803146362
2023-01-28 13:45:52.630740,-0.04167082763390881
2023-01-28 13:45:52.635740,-0.04442691802978511
2023-01-28 13:45:52.640740,-0.04552269801273321
2023-01-28 13:45:52.645740,-0.04505197331309314
2023-01-28 13:45:52.650740,-0.044225237957604614
2023-01-28 13:45:52.655740,-0.04382590577006333
2023-01-28 13:45:52.660740,-0.04372264165566875
2023-01-28 13:45:52.665740,-0.043946109712123795
2023-01-28 13:45:52.670740,-0.04514881327620304
2023-01-28 13:45:52.675740,-0.0476243123412132
2023-01-28 13:45:52.680740,-0.05071674690628525
2023-01-28 13:45:52.685740,-0.05361040681600571
2023-01-28 13:45:52.690740,-0.05601159154190278
2023-01-28 13:45:52.695740,-0.0577213391661643
2023-01-28 13:45:52.700740,-0.05830621250767155
2023-01-28 13:45:52.705740,-0.05772133916616431
2023-01-28 13:45:52.710740,-0.0567100273337021
2023-01-28 13:45:52.715740,-0.05611062049865723
2023-01-28 13:45:52.720740,-0.05618515065677307
2023-01-28 13:45:52.725740,-0.05692800134420393
2023-01-28 13:45:52.730740,-0.05846130678471702
2023-01-28 13:45:52.735740,-0.06067832559347153
2023-01-28 13:45:52.740740,-0.06296507332396312
2023-01-28 13:45:52.745740,-0.06474117934703819
2023-01-28 13:45:52.750740,-0.06594761884684104
2023-01-28 13:45:52.755740,-0.06668846309185018
2023-01-28 13:45:52.760740,-0.06681632509101351
2023-01-28 13:45:52.765740,-0.06623169034719456
2023-01-28 13:45:52.770740,-0.06516909653017658
2023-01-28 13:45:52.775740,-0.06375551223754872
2023-01-28 13:45:52.780740,-0.06158188854189322
2023-01-28 13:45:52.785740,-0.05805790424346916
2023-01-28 13:45:52.790740,-0.05292984683994892
2023-01-28 13:45:52.795740,-0.046254001557826864
2023-01-28 13:45:52.800740,-0.03833994072746315
2023-01-28 13:45:52.805740,-0.030146837234497004
2023-01-28 13:45:52.810740,-0.023406445632003624
2023-01-28 13:45:52.815740,-0.019881527870893385
2023-01-28 13:45:52.820740,-0.020535116514990893
2023-01-28 13:45:52.825740,-0.025434892624616602
2023-01-28 13:45:52.830740,-0.033961216717326256
2023-01-28 13:45:52.835740,-0.0447634868323802
2023-01-28 13:45:52.840740,-0.055934949260061685
2023-01-28 13:45:52.845740,-0.06577491760253898
2023-01-28 13:45:52.850740,-0.07338330613800015
2023-01-28 13:45:52.855740,-0.07846832275390621
2023-01-28 13:45:52.860740,-0.08099615995161837
2023-01-28 13:45:52.865740,-0.0813291519880294
2023-01-28 13:45:52.870740,-0.08035009190280677
2023-01-28 13:45:52.875740,-0.079045295715332
2023-01-28 13:45:52.880740,-0.07809764244891831
2023-01-28 13:45:52.885740,-0.07801155745983118
2023-01-28 13:45:52.890740,-0.0791853434705824
2023-01-28 13:45:52.895740,-0.0813531875610351
2023-01-28 13:45:52.900740,-0.08295518714916059
2023-01-28 13:45:52.905740,-0.0811368227005004
2023-01-28 13:45:52.910740,-0.072167114465682
2023-01-28 13:45:52.915740,-0.05204777047038069
2023-01-28 13:45:52.920740,-0.01785987110236864
2023-01-28 13:45:52.925740,0.030050676316022786
2023-01-28 13:45:52.930740,0.08641002730955206
2023-01-28 13:45:52.935740,0.1413824260234831
2023-01-28 13:45:52.940740,0.18301778257399332
2023-01-28 13:45:52.945740,0.20081064105033858
2023-01-28 13:45:52.950740,0.189360326490313
2023-01-28 13:45:52.955740,0.15083035826683033
2023-01-28 13:45:52.960740,0.09462808028845014
2023-01-28 13:45:52.965740,0.0339933261275291
2023-01-28 13:45:52.970740,-0.018679769977165566
2023-01-28 13:45:52.975740,-0.055413447320461176
2023-01-28 13:45:52.980740,-0.0740540621578749
2023-01-28 13:45:52.985740,-0.07762690633535381
2023-01-28 13:45:52.990740,-0.07206832770463098
2023-01-28 13:45:52.995740,-0.06329874694347377
2023-01-28 13:45:53.000740,-0.0551837624775705
2023-01-28 13:45:53.005740,-0.049235027283429954
2023-01-28 13:45:53.010740,-0.045395992397400456
2023-01-28 13:45:53.015740,-0.04286428540945046
2023-01-28 13:45:53.020740,-0.04071856454972068
2023-01-28 13:45:53.025740,-0.03846486657857893
2023-01-28 13:45:53.030740,-0.036210060076815306
2023-01-28 13:45:53.035740,-0.03428181260824196
2023-01-28 13:45:53.040740,-0.03278572489317357
2023-01-28 13:45:53.045740,-0.03156523033976545
2023-01-28 13:45:53.050740,-0.030342665660005954
2023-01-28 13:45:53.055740,-0.028728445991873665
2023-01-28 13:45:53.060740,-0.026290369619556674
2023-01-28 13:45:53.065740,-0.02283851429820057
2023-01-28 13:45:53.070740,-0.018568149200547356
2023-01-28 13:45:53.075740,-0.013799270614981585
2023-01-28 13:45:53.080740,-0.008646981350958611
2023-01-28 13:45:53.085740,-0.002981027122586899
2023-01-28 13:45:53.090740,0.0034561525689330683
2023-01-28 13:45:53.095740,0.010962486267089778
2023-01-28 13:45:53.100740,0.01970462291488007
2023-01-28 13:45:53.105740,0.029449662193655943
2023-01-28 13:45:53.110740,0.03951393777416687
2023-01-28 13:45:53.115740,0.0490667447447776
2023-01-28 13:45:53.120740,0.05749946946679829
2023-01-28 13:45:53.125740,0.06459693610668177
2023-01-28 13:45:53.130740,0.07054114641923838
2023-01-28 13:45:53.135740,0.07579982280731198
2023-01-28 13:45:53.140740,0.08088840801693539
2023-01-28 13:45:53.145740,0.08613725751638407
2023-01-28 13:45:53.150740,0.0916226682056265
2023-01-28 13:45:53.155740,0.09719590842723833
2023-01-28 13:45:53.160740,0.10251699322559046
2023-01-28 13:45:53.165740,0.10717272758483876
2023-01-28 13:45:53.170740,0.11082276387639405
2023-01-28 13:45:53.175740,0.11311074346303931
2023-01-28 13:45:53.180740,0.11343455043643515
2023-01-28 13:45:53.185740,0.11104325950145713
2023-01-28 13:45:53.190740,0.10542850544645435
2023-01-28 13:45:53.195740,0.09642660617828361
2023-01-28 13:45:53.200740,0.08404330303306837
2023-01-28 13:45:53.205740,0.06865978240966789
2023-01-28 13:45:53.210740,0.051442214351260646
2023-01-28 13:45:53.215740,0.03394524380564679
2023-01-28 13:45:53.220740,0.01713716715670237
2023-01-28 13:45:53.225740,0.001418391941115201
2023-01-28 13:45:53.230740,-0.012334556243713737
2023-01-28 13:45:53.235740,-0.022814473137259393
2023-01-28 13:45:53.240740,-0.029938476822369792
2023-01-28 13:45:53.245740,-0.03541171550750733
2023-01-28 13:45:53.250740,-0.04066215609497816
2023-01-28 13:45:53.255740,-0.04500389099121084
2023-01-28 13:45:53.260740,-0.04696562429373932
2023-01-28 13:45:53.265740,-0.046734809875488184
2023-01-28 13:45:53.270740,-0.04588874848287231
2023-01-28 13:45:53.275740,-0.045148134231567265
2023-01-28 13:45:53.280740,-0.044001945824263346
2023-01-28 13:45:53.285740,-0.04252771660685532
2023-01-28 13:45:53.290740,-0.04198293012441423
2023-01-28 13:45:53.295740,-0.04317681118845925
2023-01-28 13:45:53.300740,-0.04550613259564947
2023-01-28 13:45:53.305740,-0.04805704206228251
2023-01-28 13:45:53.310740,-0.05055085601951151
2023-01-28 13:45:53.315740,-0.05272090435028069
2023-01-28 13:45:53.320740,-0.0538561235620203
2023-01-28 13:45:53.325740,-0.05368252843618386
2023-01-28 13:45:53.330740,-0.05293083629091623
2023-01-28 13:45:53.335740,-0.05243241786956775
2023-01-28 13:45:53.340740,-0.052304517199623944
2023-01-28 13:45:53.345740,-0.05248050019145008
2023-01-28 13:45:53.350740,-0.053287111292553944
2023-01-28 13:45:53.355740,-0.054908595979213694
2023-01-28 13:45:53.360740,-0.056891700065913896
2023-01-28 13:45:53.365740,-0.058731041848659474
2023-01-28 13:45:53.370740,-0.06041404761795771
2023-01-28 13:45:53.375740,-0.06192843243479719
2023-01-28 13:45:53.380740,-0.06281581906898663
2023-01-28 13:45:53.385740,-0.06274580955505366
2023-01-28 13:45:53.390740,-0.06205503663453443
2023-01-28 13:45:53.395740,-0.06125529855489729
2023-01-28 13:45:53.400740,-0.06047698966175869
2023-01-28 13:45:53.405740,-0.05981286615133276
2023-01-28 13:45:53.410740,-0.05967599535775455
2023-01-28 13:45:53.415740,-0.06029367446899409
2023-01-28 13:45:53.420740,-0.061242437945031744
2023-01-28 13:45:53.425740,-0.06190439313650126
2023-01-28 13:45:53.430740,-0.061963747471969456
2023-01-28 13:45:53.435740,-0.061062972992658594
2023-01-28 13:45:53.440740,-0.058461027731500005
2023-01-28 13:45:53.445740,-0.05356232449412344
2023-01-28 13:45:53.450740,-0.046505723245103596
2023-01-28 13:45:53.455740,-0.0379359722137451
2023-01-28 13:45:53.460740,-0.028666493314177137
2023-01-28 13:45:53.465740,-0.019977688789367596
2023-01-28 13:45:53.470740,-0.013755876103576928
2023-01-28 13:45:53.475740,-0.011707743629813116
2023-01-28 13:45:53.480740,-0.014504563551787109
2023-01-28 13:45:53.485740,-0.021804770454764276
2023-01-28 13:45:53.490740,-0.03258516782166831
2023-01-28 13:45:53.495740,-0.04507601261138909
2023-01-28 13:45:53.500740,-0.05692517938991279
2023-01-28 13:45:53.505740,-0.06613552570343004
2023-01-28 13:45:53.510740,-0.07185537388786921
2023-01-28 13:45:53.515740,-0.07416506856679911
2023-01-28 13:45:53.520740,-0.07356492516339923
2023-01-28 13:45:53.525740,-0.07099171727895728
2023-01-28 13:45:53.530740,-0.06781367014963192
2023-01-28 13:45:53.535740,-0.0652219876646995
2023-01-28 13:45:53.540740,-0.06378089717070001
2023-01-28 13:45:53.545740,-0.06380359828472132
2023-01-28 13:45:53.550740,-0.0657012956552038
2023-01-28 13:45:53.555740,-0.06940504163503637
2023-01-28 13:45:53.560740,-0.07351104021881005
2023-01-28 13:45:53.565740,-0.07512669265270229
2023-01-28 13:45:53.570740,-0.07024499543016839
2023-01-28 13:45:53.575740,-0.054379701614379806
2023-01-28 13:45:53.580740,-0.024140470686592908
2023-01-28 13:45:53.585740,0.020170014351606272
2023-01-28 13:45:53.590740,0.07273446344456302
2023-01-28 13:45:53.595740,0.12301544845104206
2023-01-28 13:45:53.600740,0.15890391672019383
2023-01-28 13:45:53.605740,0.1706638038158415
2023-01-28 13:45:53.610740,0.15446035116997864
2023-01-28 13:45:53.615740,0.11428873240947719
2023-01-28 13:45:53.620740,0.06082696501410616
2023-01-28 13:45:53.625740,0.007188121788203697
2023-01-28 13:45:53.630740,-0.0359759870646181
2023-01-28 13:45:53.635740,-0.06329874694347376
2023-01-28 13:45:53.640740,-0.07489482819799498
2023-01-28 13:45:53.645740,-0.07486224174499516
2023-01-28 13:45:53.650740,-0.06882781921173946
2023-01-28 13:45:53.655740,-0.061351459473371506
2023-01-28 13:45:53.660740,-0.054609039966422905
2023-01-28 13:45:53.665740,-0.04897058010101303
2023-01-28 13:45:53.670740,-0.04425525012359131
2023-01-28 13:45:53.675740,-0.04026790708303444
2023-01-28 13:45:53.680740,-0.03678022768682584
2023-01-28 13:45:53.685740,-0.033680796623229876
2023-01-28 13:45:53.690740,-0.03107793738316201
2023-01-28 13:45:53.695740,-0.028968852013349457
2023-01-28 13:45:53.700740,-0.027027706154729148
2023-01-28 13:45:53.705740,-0.025002162903547145
2023-01-28 13:45:53.710740,-0.023060261693453214
2023-01-28 13:45:53.715740,-0.021444162353873187
2023-01-28 13:45:53.720740,-0.020024578274266545
2023-01-28 13:45:53.725740,-0.01846313476562497
2023-01-28 13:45:53.730740,-0.01652219674192942
2023-01-28 13:45:53.735740,-0.013919472694396877
2023-01-28 13:45:53.740740,-0.01019705193626906
2023-01-28 13:45:53.745740,-0.00512063503265378
2023-01-28 13:45:53.750740,0.0009957930009533555
2023-01-28 13:45:53.755740,0.007668932434171393
2023-01-28 13:45:53.760740,0.014744675104964666
2023-01-28 13:45:53.765740,0.02228558063507081
2023-01-28 13:45:53.770740,0.030264698738541946
2023-01-28 13:45:53.775740,0.03868123143911362
2023-01-28 13:45:53.780740,0.04769560077239887
2023-01-28 13:45:53.785740,0.05728860944509504
2023-01-28 13:45:53.790740,0.06698172001147025
2023-01-28 13:45:53.795740,0.0761844739317893
2023-01-28 13:45:53.800740,0.08461229734111246
2023-01-28 13:45:53.805740,0.09212335199117656
2023-01-28 13:45:53.810740,0.09844096988886175
2023-01-28 13:45:53.815740,0.10337432473897928
2023-01-28 13:45:53.820740,0.10708623505668656
2023-01-28 13:45:53.825740,0.10981719195842735
2023-01-28 13:45:53.830740,0.11151190856221141
2023-01-28 13:45:53.835740,0.11193275451660148
2023-01-28 13:45:53.840740,0.11085138950168397
2023-01-28 13:45:53.845740,0.10782182216644279
2023-01-28 13:45:53.850740,0.10203613346011703
2023-01-28 13:45:53.855740,0.09279648959636674
2023-01-28 13:45:53.860740,0.08004570499577987
2023-01-28 13:45:53.865740,0.06428440660238259
2023-01-28 13:45:53.870740,0.04627622012038925
2023-01-28 13:45:53.875740,0.027117729187011667
2023-01-28 13:45:53.880740,0.008278560255255807
2023-01-28 13:45:53.885740,-0.008870959281921272
2023-01-28 13:45:53.890740,-0.02351622311453434
2023-01-28 13:45:53.895740,-0.035243432968854876
2023-01-28 13:45:53.900740,-0.043760328568370664
2023-01-28 13:45:53.905740,-0.04911482334136959
2023-01-28 13:45:53.910740,-0.051950878314703304
2023-01-28 13:45:53.915740,-0.05315363407135001
2023-01-28 13:45:53.920740,-0.05331931337726528
2023-01-28 13:45:53.925740,-0.05276898667216301
2023-01-28 13:45:53.930740,-0.0518241781910671
2023-01-28 13:45:53.935740,-0.05072554200887677
2023-01-28 13:45:53.940740,-0.049438858985389814
2023-01-28 13:45:53.945740,-0.04786471650004379
2023-01-28 13:45:53.950740,-0.04615520343518767
2023-01-28 13:45:53.955740,-0.04461924359202375
2023-01-28 13:45:53.960740,-0.043485979410268
2023-01-28 13:45:53.965740,-0.042984485626220675
2023-01-28 13:45:53.970740,-0.043449958720494376
2023-01-28 13:45:53.975740,-0.04505197331309309
2023-01-28 13:45:53.980740,-0.047514981763729765
2023-01-28 13:45:53.985740,-0.05029281228780739
2023-01-28 13:45:53.990740,-0.052864533945878686
2023-01-28 13:45:53.995740,-0.05471627041697498
2023-01-28 13:45:54.000740,-0.05532834006912527
2023-01-28 13:45:54.005740,-0.0545239448547363
2023-01-28 13:45:54.010740,-0.05273884276108193
2023-01-28 13:45:54.015740,-0.05074958130717272
2023-01-28 13:45:54.020740,-0.04925453853444897
2023-01-28 13:45:54.025740,-0.048802297562360694
2023-01-28 13:45:54.030740,-0.04978020226054156
2023-01-28 13:45:54.035740,-0.052119892090558985
2023-01-28 13:45:54.040740,-0.05514442115797345
2023-01-28 13:45:54.045740,-0.057961743324994985
2023-01-28 13:45:54.050740,-0.05993127231170742
2023-01-28 13:45:54.055740,-0.06065428256988518
2023-01-28 13:45:54.060740,-0.059789880520220995
2023-01-28 13:45:54.065740,-0.057144366204738575
2023-01-28 13:45:54.070740,-0.052765096734546935
2023-01-28 13:45:54.075740,-0.04673480987548819
2023-01-28 13:45:54.080740,-0.03908941962511722
2023-01-28 13:45:54.085740,-0.030218958854675206
2023-01-28 13:45:54.090740,-0.021236429043393266
2023-01-28 13:45:54.095740,-0.013751189224421902
2023-01-28 13:45:54.100740,-0.009354923067052377
2023-01-28 13:45:54.105740,-0.009303689002990665
2023-01-28 13:45:54.110740,-0.014215799564379844
2023-01-28 13:45:54.115740,-0.023607810959219964
2023-01-28 13:45:54.120740,-0.035794394608354006
2023-01-28 13:45:54.125740,-0.04853785037994379
2023-01-28 13:45:54.130740,-0.05987651134536765
2023-01-28 13:45:54.135740,-0.06846746057271952
2023-01-28 13:45:54.140740,-0.07364615898272005
2023-01-28 13:45:54.145740,-0.07558345794677725
2023-01-28 13:45:54.150740,-0.07523493657225491
2023-01-28 13:45:54.155740,-0.0737804174423217
2023-01-28 13:45:54.160740,-0.07206356031390246
2023-01-28 13:45:54.165740,-0.07058303058147426
2023-01-28 13:45:54.170740,-0.06970671576778037
2023-01-28 13:45:54.175740,-0.06957332789897913
2023-01-28 13:45:54.180740,-0.0698679578443117
2023-01-28 13:45:54.185740,-0.06983777135610579
2023-01-28 13:45:54.190740,-0.0683165242995451
2023-01-28 13:45:54.195740,-0.06353914737701408
2023-01-28 13:45:54.200740,-0.053274786275719584
2023-01-28 13:45:54.205740,-0.03579636663198468
2023-01-28 13:45:54.210740,-0.011216216873129046
2023-01-28 13:45:54.215740,0.0177419185638427
2023-01-28 13:45:54.220740,0.045924017190306615
2023-01-28 13:45:54.225740,0.06685674190521244
2023-01-28 13:45:54.230740,0.07475803297311721
2023-01-28 13:45:54.235740,0.0669048279523849
2023-01-28 13:45:54.240740,0.04502779909199398
2023-01-28 13:45:54.245740,0.014736851677298516
2023-01-28 13:45:54.250740,-0.016615395480244557
2023-01-28 13:45:54.255740,-0.04240751266479492
2023-01-28 13:45:54.260740,-0.058656387037311
2023-01-28 13:45:54.265740,-0.06486137956380839
2023-01-28 13:45:54.270740,-0.06343754687300515
2023-01-28 13:45:54.275740,-0.058009825646877164
2023-01-28 13:45:54.280740,-0.05168857665669422
2023-01-28 13:45:54.285740,-0.046302080154418924
2023-01-28 13:45:54.290740,-0.04250485614892868
2023-01-28 13:45:54.295740,-0.04014770314097401
2023-01-28 13:45:54.300740,-0.038665460042638516
2023-01-28 13:45:54.305740,-0.037479203194379765
2023-01-28 13:45:54.310740,-0.03619726952554493
2023-01-28 13:45:54.315740,-0.0344981774687767
2023-01-28 13:45:54.320740,-0.03202691806903173
2023-01-28 13:45:54.325740,-0.02858420275151716
2023-01-28 13:45:54.330740,-0.024351721984392446
2023-01-28 13:45:54.335740,-0.019809406250715186
2023-01-28 13:45:54.340740,-0.015459117460335337
2023-01-28 13:45:54.345740,-0.01163562200963488
2023-01-28 13:45:54.350740,-0.00841079291650471
2023-01-28 13:45:54.355740,-0.0055293245241045215
2023-01-28 13:45:54.360740,-0.002505594211362296
2023-01-28 13:45:54.365740,0.001081824302673293
2023-01-28 13:45:54.370740,0.005356348705818154
2023-01-28 13:45:54.375740,0.010169148445129287
2023-01-28 13:45:54.380740,0.01526965511836124
2023-01-28 13:45:54.385740,0.02045850083231922
2023-01-28 13:45:54.390740,0.025710197236810093
2023-01-28 13:45:54.395740,0.0312286615371704
2023-01-28 13:45:54.400740,0.037340034976866575
2023-01-28 13:45:54.405740,0.04428267478942867
2023-01-28 13:45:54.410740,0.05206881008720978
2023-01-28 13:45:54.415740,0.060461960732936804
2023-01-28 13:45:54.420740,0.06902866828546052
2023-01-28 13:45:54.425740,0.07729034125804901
2023-01-28 13:45:54.430740,0.08491796730916001
2023-01-28 13:45:54.435740,0.0917627438902854
2023-01-28 13:45:54.440740,0.09770397735731536
2023-01-28 13:45:54.445740,0.10255694389343258
2023-01-28 13:45:54.450740,0.10607683280838348
2023-01-28 13:45:54.455740,0.1078458651900291
2023-01-28 13:45:54.460740,0.10717679919906122
2023-01-28 13:45:54.465740,0.10342240333557118
2023-01-28 13:45:54.470740,0.0964565769642311
2023-01-28 13:45:54.475740,0.08664210885763153
2023-01-28 13:45:54.480740,0.07443200412612795
2023-01-28 13:45:54.485740,0.060437917709350454
2023-01-28 13:45:54.490740,0.04577799292380132
2023-01-28 13:45:54.495740,0.03161331266164771
2023-01-28 13:45:54.500740,0.018189648039872768
2023-01-28 13:45:54.505740,0.005120635032653781
2023-01-28 13:45:54.510740,-0.007163755453744798
2023-01-28 13:45:54.515740,-0.017309188842773417
2023-01-28 13:45:54.520740,-0.024960417301315173
2023-01-28 13:45:54.525740,-0.031637351959943646
2023-01-28 13:45:54.530740,-0.03856789730132752
2023-01-28 13:45:54.535740,-0.0445230826735496
2023-01-28 13:45:54.540740,-0.047256962460445494
2023-01-28 13:45:54.545740,-0.046614609658718116
2023-01-28 13:45:54.550740,-0.044662778175307435
2023-01-28 13:45:54.555740,-0.042912364006042376
2023-01-28 13:45:54.560740,-0.04104839617178878
2023-01-28 13:45:54.565740,-0.03863314911723125
2023-01-28 13:45:54.570740,-0.03647578509166586
2023-01-28 13:45:54.575740,-0.03560404106974596
2023-01-28 13:45:54.580740,-0.036001172734923086
2023-01-28 13:45:54.585740,-0.037070512771606404
2023-01-28 13:45:54.590740,-0.0384595612522568
2023-01-28 13:45:54.595740,-0.03976305574178686
2023-01-28 13:45:54.600740,-0.04021984341979443
2023-01-28 13:45:54.605740,-0.039474569261073955
2023-01-28 13:45:54.610740,-0.03814863617504606
2023-01-28 13:45:54.615740,-0.03711859509348858
2023-01-28 13:45:54.620740,-0.03669554854930196
2023-01-28 13:45:54.625740,-0.03687819093465797
2023-01-28 13:45:54.630740,-0.03775182904696722
2023-01-28 13:45:54.635740,-0.03908991813659656
2023-01-28 13:45:54.640740,-0.040096004436671905
2023-01-28 13:45:54.645740,-0.04009962081909168
2023-01-28 13:45:54.650740,-0.03912501284661676
2023-01-28 13:45:54.655740,-0.037383042275905554
2023-01-28 13:45:54.660740,-0.03467899385142589
2023-01-28 13:45:54.665740,-0.03074785135686386
2023-01-28 13:45:54.670740,-0.02572286176712933
2023-01-28 13:45:54.675740,-0.019881527870893385
2023-01-28 13:45:54.680740,-0.013437662819542898
2023-01-28 13:45:54.685740,-0.007067918777465782
2023-01-28 13:45:54.690740,-0.0022105771254985977
2023-01-28 13:45:54.695740,-0.00031252703047347075
2023-01-28 13:45:54.700740,-0.0019836634433771606
2023-01-28 13:45:54.705740,-0.007067918777465815
2023-01-28 13:45:54.710740,-0.014980025002594459
2023-01-28 13:45:54.715740,-0.024545392021536834
2023-01-28 13:45:54.720740,-0.03403488244357918
2023-01-28 13:45:54.725740,-0.04199882596731181
2023-01-28 13:45:54.730740,-0.047948772557010994
2023-01-28 13:45:54.735740,-0.05202373117208479
2023-01-28 13:45:54.740740,-0.05443308730297913
2023-01-28 13:45:54.745740,-0.0555576905608177
2023-01-28 13:45:54.750740,-0.056096382588183696
2023-01-28 13:45:54.755740,-0.056591432541608755
2023-01-28 13:45:54.760740,-0.05706162563660031
2023-01-28 13:45:54.765740,-0.05738477036356918
2023-01-28 13:45:54.770740,-0.057589303665675856
2023-01-28 13:45:54.775740,-0.057312648743390995
2023-01-28 13:45:54.780740,-0.055271976019199205
2023-01-28 13:45:54.785740,-0.04964371770620342
2023-01-28 13:45:54.790740,-0.03875521448400758
2023-01-28 13:45:54.795740,-0.02139608189463609
2023-01-28 13:45:54.800740,0.0026560463518122395
2023-01-28 13:45:54.805740,0.03151714801788332
2023-01-28 13:45:54.810740,0.060684692779995615
2023-01-28 13:45:54.815740,0.08418997377157206
2023-01-28 13:45:54.820740,0.09660037674275891
2023-01-28 13:45:54.825740,0.09457548707723608
2023-01-28 13:45:54.830740,0.07789903203675816
2023-01-28 13:45:54.835740,0.05007644742727268
2023-01-28 13:45:54.840740,0.01760737115891719
2023-01-28 13:45:54.845740,-0.012404918670654196
2023-01-28 13:45:54.850740,-0.03477369386115309
2023-01-28 13:45:54.855740,-0.0472637042403221
2023-01-28 13:45:54.860740,-0.05035544650633614
2023-01-28 13:45:54.865740,-0.04661460965871814
2023-01-28 13:45:54.870740,-0.039590969393930614
2023-01-28 13:45:54.875740,-0.03221432492136951
2023-01-28 13:45:54.880740,-0.025815546280017674
2023-01-28 13:45:54.885740,-0.020554661750793436
2023-01-28 13:45:54.890740,-0.016303513834229295
2023-01-28 13:45:54.895740,-0.012861689552664661
2023-01-28 13:45:54.900740,-0.009900439028150116
2023-01-28 13:45:54.905740,-0.0073083243332803345
2023-01-28 13:45:54.910740,-0.0053835255713308924
2023-01-28 13:45:54.915740,-0.0043032569810748005
2023-01-28 13:45:54.920740,-0.003652975921373861
2023-01-28 13:45:54.925740,-0.002788702724501429
2023-01-28 13:45:54.930740,-0.0013444387494863104
2023-01-28 13:45:54.935740,0.0009135405416600287
2023-01-28 13:45:54.940740,0.004302912899833262
2023-01-28 13:45:54.945740,0.008846919052302806
2023-01-28 13:45:54.950740,0.01399384992683511
2023-01-28 13:45:54.955740,0.019136270508170107
2023-01-28 13:45:54.960740,0.024171103702884715
2023-01-28 13:45:54.965740,0.02925733849406239
2023-01-28 13:45:54.970740,0.03439798573728547
2023-01-28 13:45:54.975740,0.03964285179972644
2023-01-28 13:45:54.980740,0.04533561292777661
2023-01-28 13:45:54.985740,0.05171120166778563
2023-01-28 13:45:54.990740,0.058521065938619395
2023-01-28 13:45:54.995740,0.06543835252523417
2023-01-28 13:45:55.000740,0.0725535928291097
2023-01-28 13:45:55.005740,0.08012712001800527
2023-01-28 13:45:55.010740,0.08817518008410949
2023-01-28 13:45:55.015740,0.09664297103881828
2023-01-28 13:45:55.020740,0.10559134248455344
2023-01-28 13:45:55.025740,0.11474549770355222
2023-01-28 13:45:55.030740,0.12313787597064584
2023-01-28 13:45:55.035740,0.12962660193443287
2023-01-28 13:45:55.040740,0.13357261375785692
2023-01-28 13:45:55.045740,0.13477127254009236
2023-01-28 13:45:55.050740,0.1331504329728772
2023-01-28 13:45:55.055740,0.1289534568786621
2023-01-28 13:45:55.060740,0.12282754635124873
2023-01-28 13:45:55.065740,0.1152022704482078
2023-01-28 13:45:55.070740,0.10577651940170393
2023-01-28 13:45:55.075740,0.09397447109222404
2023-01-28 13:45:55.080740,0.07965945252495428
2023-01-28 13:45:55.085740,0.06315450370311727
2023-01-28 13:45:55.090740,0.04504713216801916
2023-01-28 13:45:55.095740,0.026468634605407687
2023-01-28 13:45:55.100740,0.009201239844841438
2023-01-28 13:45:55.105740,-0.0050725541077554035
2023-01-28 13:45:55.110740,-0.015552152701627117
2023-01-28 13:45:55.115740,-0.02218941971659662
2023-01-28 13:45:55.120740,-0.025266021074741643
2023-01-28 13:45:55.125740,-0.025531053543090813
2023-01-28 13:45:55.130740,-0.02431046600076636
2023-01-28 13:45:55.135740,-0.022862553596496495
2023-01-28 13:45:55.140740,-0.021749723045860855
2023-01-28 13:45:55.145740,-0.021107595413923215
2023-01-28 13:45:55.150740,-0.02110854689875735
2023-01-28 13:45:55.155740,-0.021732648834586102
2023-01-28 13:45:55.160740,-0.02250906683026497
2023-01-28 13:45:55.165740,-0.02303083799779406
2023-01-28 13:45:55.170740,-0.023445496578017852
2023-01-28 13:45:55.175740,-0.024016499519348106
2023-01-28 13:45:55.180740,-0.02457358596461365
2023-01-28 13:45:55.185740,-0.024857919663190776
2023-01-28 13:45:55.190740,-0.025008325399015263
2023-01-28 13:45:55.195740,-0.025194486603140772
2023-01-28 13:45:55.200740,-0.025172180698112497
2023-01-28 13:45:55.205740,-0.024761756882071353
2023-01-28 13:45:55.210740,-0.02439145435400685
2023-01-28 13:45:55.215740,-0.024593472480773867
2023-01-28 13:45:55.220740,-0.025323042801616666
2023-01-28 13:45:55.225740,-0.02632439136505119
2023-01-28 13:45:55.230740,-0.0277116240110993
2023-01-28 13:45:55.235740,-0.029497742652892987
2023-01-28 13:45:55.240740,-0.030952666136683404
2023-01-28 13:45:55.245740,-0.031180581077933284
2023-01-28 13:45:55.250740,-0.02998704595528954
2023-01-28 13:45:55.255740,-0.027430256828665674
2023-01-28 13:45:55.260740,-0.022979073476267677
2023-01-28 13:45:55.265740,-0.016179284080862905
2023-01-28 13:45:55.270740,-0.007983841982542013
2023-01-28 13:45:55.275740,-0.0003606081008911512
2023-01-28 13:45:55.280740,0.00544755688641797
2023-01-28 13:45:55.285740,0.009303689002990657
2023-01-28 13:45:55.290740,0.010781591354483927
2023-01-28 13:45:55.295740,0.008558432571589865
2023-01-28 13:45:55.300740,0.001771539279515442
2023-01-28 13:45:55.305740,-0.008678635582327777
2023-01-28 13:45:55.310740,-0.020623589620249197
2023-01-28 13:45:55.315740,-0.03192583844065658
2023-01-28 13:45:55.320740,-0.04102833947258961
2023-01-28 13:45:55.325740,-0.04695117473602291
2023-01-28 13:45:55.330740,-0.04951623412444392
2023-01-28 13:45:55.335740,-0.049523513764142914
2023-01-28 13:45:55.340740,-0.048349596897450345
2023-01-28 13:45:55.345740,-0.047311782836913986
2023-01-28 13:45:55.350740,-0.04732761570871967
2023-01-28 13:45:55.355740,-0.04877825826406471
2023-01-28 13:45:55.360740,-0.05140435720198301
2023-01-28 13:45:55.365740,-0.05440374463796611
2023-01-28 13:45:55.370740,-0.05666635230223321
2023-01-28 13:45:55.375740,-0.056735675781965235
2023-01-28 13:45:55.380740,-0.05252588197439912
2023-01-28 13:45:55.385740,-0.0413737706840038
2023-01-28 13:45:55.390740,-0.020728998468528183
2023-01-28 13:45:55.395740,0.010722081176936602
2023-01-28 13:45:55.400740,0.05174487447185329
2023-01-28 13:45:55.405740,0.09748439490795127
2023-01-28 13:45:55.410740,0.1396129531205571
2023-01-28 13:45:55.415740,0.1684280335903166
2023-01-28 13:45:55.420740,0.17621753453344233
2023-01-28 13:45:55.425740,0.16020616888999925
2023-01-28 13:45:55.430740,0.1238041861503882
2023-01-28 13:45:55.435740,0.07572770118713372
2023-01-28 13:45:55.440740,0.02711734632487883
2023-01-28 13:45:55.445740,-0.012356838211417063
2023-01-28 13:45:55.450740,-0.03747403506581353
2023-01-28 13:45:55.455740,-0.048057042062282444
2023-01-28 13:45:55.460740,-0.04751874094820056
2023-01-28 13:45:55.465740,-0.04074871540069577
2023-01-28 13:45:55.470740,-0.03223590376649959
2023-01-28 13:45:55.475740,-0.024785798043012598
2023-01-28 13:45:55.480740,-0.01928046458254378
2023-01-28 13:45:55.485740,-0.015506148338317803
2023-01-28 13:45:55.490740,-0.013093713171167611
2023-01-28 13:45:55.495740,-0.011707743629813118
2023-01-28 13:45:55.500740,-0.010840065424968903
2023-01-28 13:45:55.505740,-0.009928743354976101
2023-01-28 13:45:55.510740,-0.008620015007608008
2023-01-28 13:45:55.515740,-0.006683270446956148
2023-01-28 13:45:55.520740,-0.003866141262984238
2023-01-28 13:45:55.525740,-0.00012020270514764301
2023-01-28 13:45:55.530740,0.004212128790509126
2023-01-28 13:45:55.535740,0.00872671604156487
2023-01-28 13:45:55.540740,0.013326518450289043
2023-01-28 13:45:55.545740,0.01805444620549667
2023-01-28 13:45:55.550740,0.022814991894380608
2023-01-28 13:45:55.555740,0.02755045890808099
2023-01-28 13:45:55.560740,0.03245420529057932
2023-01-28 13:45:55.565740,0.037695568054914357
2023-01-28 13:45:55.570740,0.04314957129693153
2023-01-28 13:45:55.575740,0.04870613664388649
2023-01-28 13:45:55.580740,0.05463545001182633
2023-01-28 13:45:55.585740,0.06135145947337148
2023-01-28 13:45:55.590740,0.06902218446306632
2023-01-28 13:45:55.595740,0.07765094935894008
2023-01-28 13:45:55.600740,0.08720933759290422
2023-01-28 13:45:55.605740,0.09731610864400866
2023-01-28 13:45:55.610740,0.10704687033668012
2023-01-28 13:45:55.615740,0.11546671390533438
2023-01-28 13:45:55.620740,0.12222270755031998
2023-01-28 13:45:55.625740,0.12741486728191367
2023-01-28 13:45:55.630740,0.131225361410566
2023-01-28 13:45:55.635740,0.13397793471813194
2023-01-28 13:45:55.640740,0.13614824270156556
2023-01-28 13:45:55.645740,0.13780038058757774
2023-01-28 13:45:55.650740,0.1381830425446742
2023-01-28 13:45:55.655740,0.13621370494365687
2023-01-28 13:45:55.660740,0.1311385941416914
2023-01-28 13:45:55.665740,0.12251059710979459
2023-01-28 13:45:55.670740,0.1100325308106408
2023-01-28 13:45:55.675740,0.09397447109222404
2023-01-28 13:45:55.680740,0.07549446648370796
2023-01-28 13:45:55.685740,0.056110620498657206
2023-01-28 13:45:55.690740,0.037065856973762495
2023-01-28 13:45:55.695740,0.019448798149824083
2023-01-28 13:45:55.700740,0.004399155599195539
2023-01-28 13:45:55.705740,-0.007404486648738327
2023-01-28 13:45:55.710740,-0.016193312301593148
2023-01-28 13:45:55.715740,-0.022598108276724833
2023-01-28 13:45:55.720740,-0.02698485094215068
2023-01-28 13:45:55.725740,-0.02964198589324955
2023-01-28 13:45:55.730740,-0.031119167730529633
2023-01-28 13:45:55.735740,-0.031805634498596094
2023-01-28 13:45:55.740740,-0.03155196118865972
2023-01-28 13:45:55.745740,-0.030267041176557513
2023-01-28 13:45:55.750740,-0.028538394918639694
2023-01-28 13:45:55.755740,-0.027141770347952798
2023-01-28 13:45:55.760740,-0.026323353291743803
2023-01-28 13:45:55.765740,-0.026059946045279492
2023-01-28 13:45:55.770740,-0.026511458532227777
2023-01-28 13:45:55.775740,-0.02757450006902208
2023-01-28 13:45:55.780740,-0.028476922213329314
2023-01-28 13:45:55.785740,-0.028560161590576075
2023-01-28 13:45:55.790740,-0.028124832846664758
2023-01-28 13:45:55.795740,-0.027911067008972078
2023-01-28 13:45:55.800740,-0.02822571539017537
2023-01-28 13:45:55.805740,-0.0292092561721801
2023-01-28 13:45:55.810740,-0.03130748336487947
2023-01-28 13:45:55.815740,-0.034570299088954884
2023-01-28 13:45:55.820740,-0.037966826688061506
2023-01-28 13:45:55.825740,-0.04029194638133036
2023-01-28 13:45:55.830740,-0.04133085170558057
2023-01-28 13:45:55.835740,-0.04137377068400376
2023-01-28 13:45:55.840740,-0.04029012958342251
2023-01-28 13:45:55.845740,-0.038128297775983776
2023-01-28 13:45:55.850740,-0.035943892253803775
2023-01-28 13:45:55.855740,-0.034762620925903265
2023-01-28 13:45:55.860740,-0.034213157637662875
2023-01-28 13:45:55.865740,-0.03334423154592507
2023-01-28 13:45:55.870740,-0.032065371280015895
2023-01-28 13:45:55.875740,-0.030339162796735705
2023-01-28 13:45:55.880740,-0.02679664589943016
2023-01-28 13:45:55.885740,-0.020170014351606244
2023-01-28 13:45:55.890740,-0.011690553527121537
2023-01-28 13:45:55.895740,-0.00401477050036187
2023-01-28 13:45:55.900740,0.001851778381203874
2023-01-28 13:45:55.905740,0.00615437841042872
2023-01-28 13:45:55.910740,0.007191404986217349
2023-01-28 13:45:55.915740,0.0018030405044554669
2023-01-28 13:45:55.920740,-0.009898969286221415
2023-01-28 13:45:55.925740,-0.023151040077209445
2023-01-28 13:45:55.930740,-0.0335892107570352
2023-01-28 13:45:55.935740,-0.041397809982299805
2023-01-28 13:45:55.940740,-0.048596617704268215
2023-01-28 13:45:55.945740,-0.05452394485473631
2023-01-28 13:45:55.950740,-0.05678447085408672
2023-01-28 13:45:55.955740,-0.055365364998579
2023-01-28 13:45:55.960740,-0.0529364088994475
2023-01-28 13:45:55.965740,-0.051470797508955
2023-01-28 13:45:55.970740,-0.050986482037637025
2023-01-28 13:45:55.975740,-0.05149483680725092
2023-01-28 13:45:55.980740,-0.05379592120674246
2023-01-28 13:45:55.985740,-0.0577453784644603
2023-01-28 13:45:55.990740,-0.061317576830980026
2023-01-28 13:45:55.995740,-0.061784189194440786
2023-01-28 13:45:56.000740,-0.05643034330036446
2023-01-28 13:45:56.005740,-0.04187862202525128
2023-01-28 13:45:56.010740,-0.01455003516469433
2023-01-28 13:45:56.015740,0.02670904062688348
2023-01-28 13:45:56.020740,0.0784117783057071
2023-01-28 13:45:56.025740,0.13265570998191828
2023-01-28 13:45:56.030740,0.17890108725353382
2023-01-28 13:45:56.035740,0.20633995532989494
2023-01-28 13:45:56.040740,0.2072814022767775
2023-01-28 13:45:56.045740,0.1807367801666258
2023-01-28 13:45:56.050740,0.13343631730259872
2023-01-28 13:45:56.055740,0.0770739763975143
2023-01-28 13:45:56.060740,0.02388260200823536
2023-01-28 13:45:56.065740,-0.016924541443586277
2023-01-28 13:45:56.070740,-0.041177776215041074
2023-01-28 13:45:56.075740,-0.05014856904745102
2023-01-28 13:45:56.080740,-0.04885032380711988
2023-01-28 13:45:56.085740,-0.04293640702962868
2023-01-28 13:45:56.090740,-0.03637702280078641
2023-01-28 13:45:56.095740,-0.031108459457754988
2023-01-28 13:45:56.100740,-0.027668316217571567
2023-01-28 13:45:56.105740,-0.02567529678344718
2023-01-28 13:45:56.110740,-0.02431850068627546
2023-01-28 13:45:56.115740,-0.023054879158735216
2023-01-28 13:45:56.120740,-0.021843590125423407
2023-01-28 13:45:56.125740,-0.02067486569285391
2023-01-28 13:45:56.130740,-0.01924916114503035
2023-01-28 13:45:56.135740,-0.017285149544477404
2023-01-28 13:45:56.140740,-0.014774839360069033
2023-01-28 13:45:56.145740,-0.01173178385943171
2023-01-28 13:45:56.150740,-0.008021733492451017
2023-01-28 13:45:56.155740,-0.003654162166640134
2023-01-28 13:45:56.160740,0.0010605192561907752
2023-01-28 13:45:56.165740,0.005865891929715777
2023-01-28 13:45:56.170740,0.010840696181001025
2023-01-28 13:45:56.175740,0.016179284080862905
2023-01-28 13:45:56.180740,0.021954605586277143
2023-01-28 13:45:56.185740,0.028247635811567296
2023-01-28 13:45:56.190740,0.03522681094497592
2023-01-28 13:45:56.195740,0.04288832470774658
2023-01-28 13:45:56.200740,0.05092333963962958
2023-01-28 13:45:56.205740,0.05901952832937241
2023-01-28 13:45:56.210740,0.06712200721579861
2023-01-28 13:45:56.215740,0.0752709358930587
2023-01-28 13:45:56.220740,0.08337954823206332
2023-01-28 13:45:56.225740,0.09130597114562979
2023-01-28 13:45:56.230740,0.09895052677585975
2023-01-28 13:45:56.235740,0.10613898932933802
2023-01-28 13:45:56.240740,0.11258140290646083
2023-01-28 13:45:56.245740,0.1180871352553367
2023-01-28 13:45:56.250740,0.12267677691750668
2023-01-28 13:45:56.255740,0.12635707855224604
2023-01-28 13:45:56.260740,0.1288947864863917
2023-01-28 13:45:56.265740,0.12986700236797324
2023-01-28 13:45:56.270740,0.12876587872419534
2023-01-28 13:45:56.275740,0.12498676776885977
2023-01-28 13:45:56.280740,0.11794068082283951
2023-01-28 13:45:56.285740,0.10738909244537345
2023-01-28 13:45:56.290740,0.0936455726649622
2023-01-28 13:45:56.295740,0.07743458449840537
2023-01-28 13:45:56.300740,0.059691735575749465
2023-01-28 13:45:56.305740,0.04151801392436019
2023-01-28 13:45:56.310740,0.024076905462956436
2023-01-28 13:45:56.315740,0.008318027481436667
2023-01-28 13:45:56.320740,-0.005183637166779164
2023-01-28 13:45:56.325740,-0.01610716246068471
2023-01-28 13:45:56.330740,-0.02426180993696698
2023-01-28 13:45:56.335740,-0.029666027054190608
2023-01-28 13:45:56.340740,-0.03261793399567498
2023-01-28 13:45:56.345740,-0.03358463570475573
2023-01-28 13:45:56.350740,-0.033097452245533975
2023-01-28 13:45:56.355740,-0.03178159520030022
2023-01-28 13:45:56.360740,-0.030315270267215005
2023-01-28 13:45:56.365740,-0.029209256172180155
2023-01-28 13:45:56.370740,-0.028663417766823147
2023-01-28 13:45:56.375740,-0.028680365532636604
2023-01-28 13:45:56.380740,-0.02923044574183588
2023-01-28 13:45:56.385740,-0.030267041176557492
2023-01-28 13:45:56.390740,-0.03170997604659494
2023-01-28 13:45:56.395740,-0.03351251408457748
2023-01-28 13:45:56.400740,-0.035671650022624596
2023-01-28 13:45:56.405740,-0.038104258477687794
2023-01-28 13:45:56.410740,-0.040590486617997
2023-01-28 13:45:56.415740,-0.04291236400604236
2023-01-28 13:45:56.420740,-0.04499588070632265
2023-01-28 13:45:56.425740,-0.046879053115844685
2023-01-28 13:45:56.430740,-0.048618342332554146
2023-01-28 13:45:56.435740,-0.05026876926422107
2023-01-28 13:45:56.440740,-0.051855591152067566
2023-01-28 13:45:56.445740,-0.05327383801341047
2023-01-28 13:45:56.450740,-0.054261777128819466
2023-01-28 13:45:56.455740,-0.05454798787832256
2023-01-28 13:45:56.460740,-0.05402720446926067
2023-01-28 13:45:56.465740,-0.05281706899404519
2023-01-28 13:45:56.470740,-0.051245128548568324
2023-01-28 13:45:56.475740,-0.04981200024485578
2023-01-28 13:45:56.480740,-0.04902645855673636
2023-01-28 13:45:56.485740,-0.049090784043073585
2023-01-28 13:45:56.490740,-0.04965331941582053
2023-01-28 13:45:56.495740,-0.04983603954315178
2023-01-28 13:45:56.500740,-0.04851746084693902
2023-01-28 13:45:56.505740,-0.044763486832380135
2023-01-28 13:45:56.510740,-0.038333819080764504
2023-01-28 13:45:56.515740,-0.030074715614318744
2023-01-28 13:45:56.520740,-0.021870972662892188
2023-01-28 13:45:56.525740,-0.016035040840506467
2023-01-28 13:45:56.530740,-0.01443234721951064
2023-01-28 13:45:56.535740,-0.01779000088572501
2023-01-28 13:45:56.540740,-0.025434530427268155
2023-01-28 13:45:56.545740,-0.03550788015127177
2023-01-28 13:45:56.550740,-0.0456277264485736
2023-01-28 13:45:56.555740,-0.05377868935465806
2023-01-28 13:45:56.560740,-0.05899518251480697
2023-01-28 13:45:56.565740,-0.06147166341543188
2023-01-28 13:45:56.570740,-0.06214552229814786
2023-01-28 13:45:56.575740,-0.06212075799703594
2023-01-28 13:45:56.580740,-0.06224838040597033
2023-01-28 13:45:56.585740,-0.06293813884258269
2023-01-28 13:45:56.590740,-0.06415243068385387
2023-01-28 13:45:56.595740,-0.06555855274200427
2023-01-28 13:45:56.600740,-0.06681719262959668
2023-01-28 13:45:56.605740,-0.06786644458770749
2023-01-28 13:45:56.610740,-0.06892572307798386
2023-01-28 13:45:56.615740,-0.07000605762004848
2023-01-28 13:45:56.620740,-0.07005614722325522
2023-01-28 13:45:56.625740,-0.06627976894378657
2023-01-28 13:45:56.630740,-0.05427880000034662
2023-01-28 13:45:56.635740,-0.029377540573477717
2023-01-28 13:45:56.640740,0.01108022774632371
2023-01-28 13:45:56.645740,0.06529410928487764
2023-01-28 13:45:56.650740,0.12571430046715448
2023-01-28 13:45:56.655740,0.18006365001201619
2023-01-28 13:45:56.660740,0.2148812882904608
2023-01-28 13:45:56.665740,0.220355600118637
2023-01-28 13:45:56.670740,0.19426625480621154
2023-01-28 13:45:56.675740,0.1431133449077605
2023-01-28 13:45:56.680740,0.07982955641464877
2023-01-28 13:45:56.685740,0.019088190048932956
2023-01-28 13:45:56.690740,-0.027674971239311636
2023-01-28 13:45:56.695740,-0.05536536499857897
2023-01-28 13:45:56.700740,-0.06537948257373785
2023-01-28 13:45:56.705740,-0.06329874694347379
2023-01-28 13:45:56.710740,-0.05569878890523637
2023-01-28 13:45:56.715740,-0.04764835163950918
2023-01-28 13:45:56.720740,-0.04168166745272054
2023-01-28 13:45:56.725740,-0.0381282977759838
2023-01-28 13:45:56.730740,-0.03614371821182545
2023-01-28 13:45:56.735740,-0.034714542329311225
2023-01-28 13:45:56.740740,-0.03321071879693744
2023-01-28 13:45:56.745740,-0.03146906942129125
2023-01-28 13:45:56.750740,-0.029628223903200586
2023-01-28 13:45:56.755740,-0.02791106700897209
2023-01-28 13:45:56.760740,-0.026436292864362863
2023-01-28 13:45:56.765740,-0.025098323822021425
2023-01-28 13:45:56.770740,-0.02356292289079957
2023-01-28 13:45:56.775740,-0.021396081894636067
2023-01-28 13:45:56.780740,-0.018270767906148008
2023-01-28 13:45:56.785740,-0.014135837554931566
2023-01-28 13:45:56.790740,-0.009236420781610135
2023-01-28 13:45:56.795740,-0.003966689109802208
2023-01-28 13:45:56.800740,0.0013422550657076896
2023-01-28 13:45:56.805740,0.006563067436218176
2023-01-28 13:45:56.810740,0.011791596719177476
2023-01-28 13:45:56.815740,0.017285149544477404
2023-01-28 13:45:56.820740,0.023363026087437726
2023-01-28 13:45:56.825740,0.03029108047485349
2023-01-28 13:45:56.830740,0.03818932089042269
2023-01-28 13:45:56.835740,0.04699925705790512
2023-01-28 13:45:56.840740,0.05649171597857095
2023-01-28 13:45:56.845740,0.06627976894378658
2023-01-28 13:45:56.850740,0.07586282929276532
2023-01-28 13:45:56.855740,0.08474290370941162
2023-01-28 13:45:56.860740,0.09256349025493922
2023-01-28 13:45:56.865740,0.09916722774505611
2023-01-28 13:45:56.870740,0.10454511482150197
2023-01-28 13:45:56.875740,0.10873536765575399
2023-01-28 13:45:56.880740,0.11171786120322054
2023-01-28 13:45:56.885740,0.11332710832357398
2023-01-28 13:45:56.890740,0.11323385109098692
2023-01-28 13:45:56.895740,0.11101921647787086
2023-01-28 13:45:56.900740,0.10626597478844403
2023-01-28 13:45:56.905740,0.09859025478363029
2023-01-28 13:45:56.910740,0.08767520421226808
2023-01-28 13:45:56.915740,0.07341980934143061
2023-01-28 13:45:56.920740,0.056168658693928133
2023-01-28 13:45:56.925740,0.036854147911071715
2023-01-28 13:45:56.930740,0.016934499160601996
2023-01-28 13:45:56.935740,-0.001875162124633673
2023-01-28 13:45:56.940740,-0.018028666216932485
2023-01-28 13:45:56.945740,-0.030603608116507468
2023-01-28 13:45:56.950740,-0.039549240014833495
2023-01-28 13:45:56.955740,-0.04555682465434072
2023-01-28 13:45:56.960740,-0.04964494156515885
2023-01-28 13:45:56.965740,-0.05272090435028066
2023-01-28 13:45:56.970740,-0.055302069236605744
2023-01-28 13:45:56.975740,-0.05745689198374738
2023-01-28 13:45:56.980740,-0.05898064394146009
2023-01-28 13:45:56.985740,-0.05971670150756826
2023-01-28 13:45:56.990740,-0.05978502044149892
2023-01-28 13:45:56.995740,-0.059548418968915884
2023-01-28 13:45:57.000740,-0.05942064013968746
2023-01-28 13:45:57.005740,-0.05971670150756826
2023-01-28 13:45:57.010740,-0.0605725597870117
2023-01-28 13:45:57.015740,-0.06188035011291495
2023-01-28 13:45:57.020740,-0.0633152280122255
2023-01-28 13:45:57.025740,-0.06452481448650357
2023-01-28 13:45:57.030740,-0.06532987931478311
2023-01-28 13:45:57.035740,-0.06575088202953329
2023-01-28 13:45:57.040740,-0.0659305022894671
2023-01-28 13:45:57.045740,-0.06611149013042439
2023-01-28 13:45:57.050740,-0.06660825890118174
2023-01-28 13:45:57.055740,-0.06765007972717273
2023-01-28 13:45:57.060740,-0.06922760598437668
2023-01-28 13:45:57.065740,-0.07113596051931376
2023-01-28 13:45:57.070740,-0.07310900944222208
2023-01-28 13:45:57.075740,-0.07483820617198939
2023-01-28 13:45:57.080740,-0.07596305292866269
2023-01-28 13:45:57.085740,-0.07620851695537557
2023-01-28 13:45:57.090740,-0.07551240945358056
2023-01-28 13:45:57.095740,-0.0739006251096724
2023-01-28 13:45:57.100740,-0.07127828736388622
2023-01-28 13:45:57.105740,-0.06745775789022437
2023-01-28 13:45:57.110740,-0.06232748320227508
2023-01-28 13:45:57.115740,-0.05589425563812246
2023-01-28 13:45:57.120740,-0.048354093679524625
2023-01-28 13:45:57.125740,-0.040436189621686894
2023-01-28 13:45:57.130740,-0.0336351230716313
2023-01-28 13:45:57.135740,-0.029762189835309906
2023-01-28 13:45:57.140740,-0.030103313305366027
2023-01-28 13:45:57.145740,-0.03500302881002419
2023-01-28 13:45:57.150740,-0.04393510129295119
2023-01-28 13:45:57.155740,-0.055461525917053126
2023-01-28 13:45:57.160740,-0.067210481371048
2023-01-28 13:45:57.165740,-0.07668932527303692
2023-01-28 13:45:57.170740,-0.08269687960488019
2023-01-28 13:45:57.175740,-0.08580069243907924
2023-01-28 13:45:57.180740,-0.08725674895239972
2023-01-28 13:45:57.185740,-0.08779605478048319
2023-01-28 13:45:57.190740,-0.08768073043004726
2023-01-28 13:45:57.195740,-0.0873873680830001
2023-01-28 13:45:57.200740,-0.0875243170136881
2023-01-28 13:45:57.205740,-0.08815666288137428
2023-01-28 13:45:57.210740,-0.08876301782498164
2023-01-28 13:45:57.215740,-0.0888778790831565
2023-01-28 13:45:57.220740,-0.08824609563696222
2023-01-28 13:45:57.225740,-0.08608917891979209
2023-01-28 13:45:57.230740,-0.08044059920663238
2023-01-28 13:45:57.235740,-0.06837129592895498
2023-01-28 13:45:57.240740,-0.04696995685054236
2023-01-28 13:45:57.245740,-0.014760891906917028
2023-01-28 13:45:57.250740,0.026615191631647793
2023-01-28 13:45:57.255740,0.07125616073608389
2023-01-28 13:45:57.260740,0.10972066541145718
2023-01-28 13:45:57.265740,0.13198256492614738
2023-01-28 13:45:57.270740,0.13127059932141197
2023-01-28 13:45:57.275740,0.10686020553112026
2023-01-28 13:45:57.280740,0.06462969199297243
2023-01-28 13:45:57.285740,0.015145540237426694
2023-01-28 13:45:57.290740,-0.030107837125447255
2023-01-28 13:45:57.295740,-0.06274580955505367
2023-01-28 13:45:57.300740,-0.07975278951325922
2023-01-28 13:45:57.305740,-0.08310814946889868
2023-01-28 13:45:57.310740,-0.07761491993306026
2023-01-28 13:45:57.315740,-0.06846746057271948
2023-01-28 13:45:57.320740,-0.05954718389127103
2023-01-28 13:45:57.325740,-0.05276898667216299
2023-01-28 13:45:57.330740,-0.04843481314031897
2023-01-28 13:45:57.335740,-0.04610975831747046
2023-01-28 13:45:57.340740,-0.04525404780854156
2023-01-28 13:45:57.345740,-0.0452923774719238
2023-01-28 13:45:57.350740,-0.04551629704296162
2023-01-28 13:45:57.355740,-0.045220255851745585
2023-01-28 13:45:57.360740,-0.04393455577222402
2023-01-28 13:45:57.365740,-0.04149397462606431
2023-01-28 13:45:57.370740,-0.038011715081846385
2023-01-28 13:45:57.375740,-0.033873122185468556
2023-01-28 13:45:57.380740,-0.029616087815136936
2023-01-28 13:45:57.385740,-0.025651257485151173
2023-01-28 13:45:57.390740,-0.022085619459318407
2023-01-28 13:45:57.395740,-0.018799703568220118
2023-01-28 13:45:57.400740,-0.015551823186453024
2023-01-28 13:45:57.405740,-0.011948148719966445
2023-01-28 13:45:57.410740,-0.007482079480951144
2023-01-28 13:45:57.415740,-0.0017790000420062882
2023-01-28 13:45:57.420740,0.005204641890282708
2023-01-28 13:45:57.425740,0.013246337883174428
2023-01-28 13:45:57.430740,0.02202177647881348
2023-01-28 13:45:57.435740,0.031180581077933287
2023-01-28 13:45:57.440740,0.040435324272370475
2023-01-28 13:45:57.445740,0.049715839326381565
2023-01-28 13:45:57.450740,0.0591541478093647
2023-01-28 13:45:57.455740,0.06880402565002439
2023-01-28 13:45:57.460740,0.07841059756302898
2023-01-28 13:45:57.465740,0.08748352527618397
2023-01-28 13:45:57.470740,0.09549194879858702
2023-01-28 13:45:57.475740,0.10195593535900105
2023-01-28 13:45:57.480740,0.10652856180629942
2023-01-28 13:45:57.485740,0.10914405435323707
2023-01-28 13:45:57.490740,0.11000554280605433
2023-01-28 13:45:57.495740,0.10928829759359349
2023-01-28 13:45:57.500740,0.10684620279962524
2023-01-28 13:45:57.505740,0.1021963357925415
2023-01-28 13:45:57.510740,0.09467674693198402
2023-01-28 13:45:57.515740,0.08363704383373263
2023-01-28 13:45:57.520740,0.06876768799186714
2023-01-28 13:45:57.525740,0.05053321644663811
2023-01-28 13:45:57.530740,0.0303097620910802
2023-01-28 13:45:57.535740,0.010000864975154329
2023-01-28 13:45:57.540740,-0.00854868461125598
2023-01-28 13:45:57.545740,-0.023968419060110987
2023-01-28 13:45:57.550740,-0.035622159682776315
2023-01-28 13:45:57.555740,-0.043753784149885094
2023-01-28 13:45:57.560740,-0.049293377049263086
2023-01-28 13:45:57.565740,-0.05329787731170645
2023-01-28 13:45:57.570740,-0.0564812747811396
2023-01-28 13:45:57.575740,-0.05916377156972878
2023-01-28 13:45:57.580740,-0.06139948051817864
2023-01-28 13:45:57.585740,-0.0630102604627609
2023-01-28 13:45:57.590740,-0.06369273623087814
2023-01-28 13:45:57.595740,-0.06332278251647935
2023-01-28 13:45:57.600740,-0.062129242607638066
2023-01-28 13:45:57.605740,-0.06051003932952875
2023-01-28 13:45:57.610740,-0.05881259242312066
2023-01-28 13:45:57.615740,-0.05736073106527318
2023-01-28 13:45:57.620740,-0.05646942459239526
2023-01-28 13:45:57.625740,-0.056230824440717565
2023-01-28 13:45:57.630740,-0.056406555444689394
2023-01-28 13:45:57.635740,-0.05668759346008301
2023-01-28 13:45:57.640740,-0.05695158251990428
2023-01-28 13:45:57.645740,-0.05716840550303444
2023-01-28 13:45:57.650740,-0.05725419875922438
2023-01-28 13:45:57.655740,-0.057192444801330435
2023-01-28 13:45:57.660740,-0.057114286656087414
2023-01-28 13:45:57.665740,-0.057048201560974066
2023-01-28 13:45:57.670740,-0.05672492205138214
2023-01-28 13:45:57.675740,-0.05579809471964827
2023-01-28 13:45:57.680740,-0.05409200945452832
2023-01-28 13:45:57.685740,-0.05147079750895499
2023-01-28 13:45:57.690740,-0.047706754737111126
2023-01-28 13:45:57.695740,-0.042768120765685994
2023-01-28 13:45:57.700740,-0.03712440228101417
2023-01-28 13:45:57.705740,-0.031589269638061454
2023-01-28 13:45:57.710740,-0.027055090231940606
2023-01-28 13:45:57.715740,-0.02454539202153678
2023-01-28 13:45:57.720740,-0.025151326262073566
2023-01-28 13:45:57.725740,-0.029425621032714795
2023-01-28 13:45:57.730740,-0.036865188633552565
2023-01-28 13:45:57.735740,-0.04620591923594467
2023-01-28 13:45:57.740740,-0.05605814028208336
2023-01-28 13:45:57.745740,-0.0651017874479293
2023-01-28 13:45:57.750740,-0.07214587979573833
2023-01-28 13:45:57.755740,-0.0766172036528587
2023-01-28 13:45:57.760740,-0.07890748357235583
2023-01-28 13:45:57.765740,-0.07983863353729236
2023-01-28 13:45:57.770740,-0.07992079927492893
2023-01-28 13:45:57.775740,-0.07942994683980939
2023-01-28 13:45:57.780740,-0.07879662196617793
2023-01-28 13:45:57.785740,-0.07827600091695774
2023-01-28 13:45:57.790740,-0.0774445919246845
2023-01-28 13:45:57.795740,-0.07560750097036363
2023-01-28 13:45:57.800740,-0.07239294095584908
2023-01-28 13:45:57.805740,-0.0671933144330978
2023-01-28 13:45:57.810740,-0.05837800972854069
2023-01-28 13:45:57.815740,-0.044234596192836644
2023-01-28 13:45:57.820740,-0.024879819010989814
2023-01-28 13:45:57.825740,-0.0025002162437885145
2023-01-28 13:45:57.830740,0.02000041933909486
2023-01-28 13:45:57.835740,0.03921012207865707
2023-01-28 13:45:57.840740,0.050178335055926365
2023-01-28 13:45:57.845740,0.04760026931762688
2023-01-28 13:45:57.850740,0.030013521157088347
2023-01-28 13:45:57.855740,0.0023078918457030656
2023-01-28 13:45:57.860740,-0.02715963342141011
2023-01-28 13:45:57.865740,-0.051711201667785624
2023-01-28 13:45:57.870740,-0.068271365358522
2023-01-28 13:45:57.875740,-0.0759200304746627
2023-01-28 13:45:57.880740,-0.07506753315197108
2023-01-28 13:45:57.885740,-0.06827513873577107
2023-01-28 13:45:57.890740,-0.05982634803446397
2023-01-28 13:45:57.895740,-0.05308151245117178
2023-01-28 13:45:57.900740,-0.048619876870419826
2023-01-28 13:45:57.905740,-0.045292377471923786
2023-01-28 13:45:57.910740,-0.04229309493025787
2023-01-28 13:45:57.915740,-0.03966689109802238
2023-01-28 13:45:57.920740,-0.037558350138729324
2023-01-28 13:45:57.925740,-0.03586848825216288
2023-01-28 13:45:57.930740,-0.03446890037457322
2023-01-28 13:45:57.935740,-0.03315190598368634
2023-01-28 13:45:57.940740,-0.03142229592742523
2023-01-28 13:45:57.945740,-0.0287524871528148
2023-01-28 13:45:57.950740,-0.02506706178392823
2023-01-28 13:45:57.955740,-0.0207950677722692
2023-01-28 13:45:57.960740,-0.01654527517674857
2023-01-28 13:45:57.965740,-0.012861689552664713
2023-01-28 13:45:57.970740,-0.010064751851338455
2023-01-28 13:45:57.975740,-0.008029541000723795
2023-01-28 13:45:57.980740,-0.006162827107602003
2023-01-28 13:45:57.985740,-0.0037743649445474026
2023-01-28 13:45:57.990740,-0.0004501606709573842
2023-01-28 13:45:57.995740,0.00396668910980215
2023-01-28 13:45:58.000740,0.009564824231448955
2023-01-28 13:45:58.005740,0.01637160778045649
2023-01-28 13:45:58.010740,0.024294539015586356
2023-01-28 13:45:58.015740,0.03319998830556858
2023-01-28 13:45:58.020740,0.042951465890378564
2023-01-28 13:45:58.025740,0.05324979871511445
2023-01-28 13:45:58.030740,0.0635391395287761
2023-01-28 13:45:58.035740,0.07320344448089589
2023-01-28 13:45:58.040740,0.08180055501860606
2023-01-28 13:45:58.045740,0.08904616534709926
2023-01-28 13:45:58.050740,0.09470264491493742
2023-01-28 13:45:58.055740,0.09861429780721659
2023-01-28 13:45:58.060740,0.10077318203264697
2023-01-28 13:45:58.065740,0.10123471915721888
2023-01-28 13:45:58.070740,0.10001394489413631
2023-01-28 13:45:58.075740,0.09712378680706013
2023-01-28 13:45:58.080740,0.0926158841768262
2023-01-28 13:45:58.085740,0.08647382259368888
2023-01-28 13:45:58.090740,0.07852146075982636
2023-01-28 13:45:58.095740,0.06853958219289769
2023-01-28 13:45:58.100740,0.05647881513727869
2023-01-28 13:45:58.105740,0.04257579892873755
2023-01-28 13:45:58.110740,0.027394994931272378
2023-01-28 13:45:58.115740,0.011851986870169607
2023-01-28 13:45:58.120740,-0.0029020226347343495
2023-01-28 13:45:58.125740,-0.01579463481903067
2023-01-28 13:45:58.130740,-0.026133502168724086
2023-01-28 13:45:58.135740,-0.033680796623229876
2023-01-28 13:45:58.140740,-0.03856768482389637
2023-01-28 13:45:58.145740,-0.04120548814535138
2023-01-28 13:45:58.150740,-0.04218184299538637
2023-01-28 13:45:58.155740,-0.04209498688578595
2023-01-28 13:45:58.160740,-0.0414283449483582
2023-01-28 13:45:58.165740,-0.04055639356374737
2023-01-28 13:45:58.170740,-0.03978442551367959
2023-01-28 13:45:58.175740,-0.03930628299713129
2023-01-28 13:45:58.180740,-0.03914475145334785
2023-01-28 13:45:58.185740,-0.039186082780361085
2023-01-28 13:45:58.190740,-0.03927239908689645
2023-01-28 13:45:58.195740,-0.0392582044005393
2023-01-28 13:45:58.200740,-0.03904072001154182
2023-01-28 13:45:58.205740,-0.038609109818935325
2023-01-28 13:45:58.210740,-0.038068577075872884
2023-01-28 13:45:58.215740,-0.03757536411285398
2023-01-28 13:45:58.220740,-0.03721459688597687
2023-01-28 13:45:58.225740,-0.03690223023295403
2023-01-28 13:45:58.230740,-0.036348846584274785
2023-01-28 13:45:58.235740,-0.03509918972849839
2023-01-28 13:45:58.240740,-0.032671678486304576
2023-01-28 13:45:58.245740,-0.028776526451110788
2023-01-28 13:45:58.250740,-0.02350869083598232
2023-01-28 13:45:58.255740,-0.017405351623892704
2023-01-28 13:45:58.260740,-0.011341478289418148
2023-01-28 13:45:58.265740,-0.006322662346064976
2023-01-28 13:45:58.270740,-0.0032633519319938895
2023-01-28 13:45:58.275740,-0.002812743186950603
2023-01-28 13:45:58.280740,-0.005241633730049795
2023-01-28 13:45:58.285740,-0.010385513305663981
2023-01-28 13:45:58.290740,-0.017665164801212895
2023-01-28 13:45:58.295740,-0.02620418928563586
2023-01-28 13:45:58.300740,-0.0350003457474909
2023-01-28 13:45:58.305740,-0.04308065026998508
2023-01-28 13:45:58.310740,-0.04963257155179761
2023-01-28 13:45:58.315740,-0.054139297455549185
2023-01-28 13:45:58.320740,-0.05648362554101625
2023-01-28 13:45:58.325740,-0.05695204064249983
2023-01-28 13:45:58.330740,-0.05614760735272248
2023-01-28 13:45:58.335740,-0.0548605136573314
2023-01-28 13:45:58.340740,-0.05387156901882803
2023-01-28 13:45:58.345740,-0.05365848541259753
2023-01-28 13:45:58.350740,-0.054120176395547996
2023-01-28 13:45:58.355740,-0.0544999055564403
2023-01-28 13:45:58.360740,-0.053546674596867905
2023-01-28 13:45:58.365740,-0.0498360395431518
2023-01-28 13:45:58.370740,-0.04221447440847785
2023-01-28 13:45:58.375740,-0.030315121635794605
2023-01-28 13:45:58.380740,-0.01492936036023747
2023-01-28 13:45:58.385740,0.00199536490254098
2023-01-28 13:45:58.390740,0.017719746122050586
2023-01-28 13:45:58.395740,0.02928137779235826
2023-01-28 13:45:58.400740,0.034205491500561895
2023-01-28 13:45:58.405740,0.031276743859052575
2023-01-28 13:45:58.410740,0.021050554470480667
2023-01-28 13:45:58.415740,0.0057697296142577605
2023-01-28 13:45:58.420740,-0.01127189825300947
2023-01-28 13:45:58.425740,-0.02661287784576406
2023-01-28 13:45:58.430740,-0.03753972171105838
2023-01-28 13:45:58.435740,-0.04284024238586418
2023-01-28 13:45:58.440740,-0.04302210900542059
2023-01-28 13:45:58.445740,-0.03978709504008287
2023-01-28 13:45:58.450740,-0.035130552804074226
2023-01-28 13:45:58.455740,-0.030651688575744594
2023-01-28 13:45:58.460740,-0.027233864352207017
2023-01-28 13:45:58.465740,-0.024954080581664966
2023-01-28 13:45:58.470740,-0.023274465267366328
2023-01-28 13:45:58.475740,-0.02156436443328851
2023-01-28 13:45:58.480740,-0.019555965539642953
2023-01-28 13:45:58.485740,-0.017309188842773365
2023-01-28 13:45:58.490740,-0.014911992881317464
2023-01-28 13:45:58.495740,-0.012404918670654174
2023-01-28 13:45:58.500740,-0.009858992066976118
2023-01-28 13:45:58.505740,-0.007260243408381849
2023-01-28 13:45:58.510740,-0.004381597293402876
2023-01-28 13:45:58.515740,-0.0010097026824950816
2023-01-28 13:45:58.520740,0.002772514072805928
2023-01-28 13:45:58.525740,0.006755392067134293
2023-01-28 13:45:58.530740,0.010915412401966307
2023-01-28 13:45:58.535740,0.015265743248164597
2023-01-28 13:45:58.540740,0.019574350588001006
2023-01-28 13:45:58.545740,0.023655891418457007
2023-01-28 13:45:58.550740,0.027833600084686466
2023-01-28 13:45:58.555740,0.03264705464243879
2023-01-28 13:45:58.560740,0.03820663816668139
2023-01-28 13:45:58.565740,0.04437883943319316
2023-01-28 13:45:58.570740,0.05146328610088463
2023-01-28 13:45:58.575740,0.05986094474792479
2023-01-28 13:45:58.580740,0.0689591977569939
2023-01-28 13:45:58.585740,0.07726629823446265
2023-01-28 13:45:58.590740,0.0840961118634262
2023-01-28 13:45:58.595740,0.09034435451030728
2023-01-28 13:45:58.600740,0.09700937967165835
2023-01-28 13:45:58.605740,0.10363876819610587
2023-01-28 13:45:58.610740,0.1089967478904385
2023-01-28 13:45:58.615740,0.1127020567655563
2023-01-28 13:45:58.620740,0.11525671422607392
2023-01-28 13:45:58.625740,0.11674086749553675
2023-01-28 13:45:58.630740,0.1164588624964413
2023-01-28 13:45:58.635740,0.11388003826141346
2023-01-28 13:45:58.640740,0.10909603648241731
2023-01-28 13:45:58.645740,0.1022203788161277
2023-01-28 13:45:58.650740,0.0930713509336653
2023-01-28 13:45:58.655740,0.08171379566192613
2023-01-28 13:45:58.660740,0.06878072929893782
2023-01-28 13:45:58.665740,0.05502879619598378
2023-01-28 13:45:58.670740,0.04102170073107453
2023-01-28 13:45:58.675740,0.027430256828665657
2023-01-28 13:45:58.680740,0.015159645890126642
2023-01-28 13:45:58.685740,0.004856189247220741
2023-01-28 13:45:58.690740,-0.003453694238304005
2023-01-28 13:45:58.695740,-0.010072986595332513
2023-01-28 13:45:58.700740,-0.015272709204133775
2023-01-28 13:45:58.705740,-0.01932859420776357
2023-01-28 13:45:58.710740,-0.022525849903344795
2023-01-28 13:45:58.715740,-0.02485791966319079
2023-01-28 13:45:58.720740,-0.025953756976771387
2023-01-28 13:45:58.725740,-0.025531053543090754
2023-01-28 13:45:58.730740,-0.0237913114863767
2023-01-28 13:45:58.735740,-0.02129991911351682
2023-01-28 13:45:58.740740,-0.018723815077990244
2023-01-28 13:45:58.745740,-0.016780298203229883
2023-01-28 13:45:58.750740,-0.01610375204764604
2023-01-28 13:45:58.755740,-0.016852419823408033
2023-01-28 13:45:58.760740,-0.018514581284841913
2023-01-28 13:45:58.765740,-0.020218094810843388
2023-01-28 13:45:58.770740,-0.021144016949082328
2023-01-28 13:45:58.775740,-0.020674865692853872
2023-01-28 13:45:58.780740,-0.018485759715097458
2023-01-28 13:45:58.785740,-0.014736851677298468
2023-01-28 13:45:58.790740,-0.01004242026689369
2023-01-28 13:45:58.795740,-0.005072554107755384
2023-01-28 13:45:58.800740,-0.00023781448756442575
2023-01-28 13:45:58.805740,0.004207094665616666
2023-01-28 13:45:58.810740,0.007927306712472566
2023-01-28 13:45:58.815740,0.010457634925842185
2023-01-28 13:45:58.820740,0.01121243919515383
2023-01-28 13:45:58.825740,0.009471973404288158
2023-01-28 13:45:58.830740,0.004618242937154932
2023-01-28 13:45:58.835740,-0.003341635223477984
2023-01-28 13:45:58.840740,-0.01347579478653209
2023-01-28 13:45:58.845740,-0.024208825081586775
2023-01-28 13:45:58.850740,-0.033882005786714325
2023-01-28 13:45:58.855740,-0.04118144512176511
2023-01-28 13:45:58.860740,-0.04543582026815324
2023-01-28 13:45:58.865740,-0.04683097451925267
2023-01-28 13:45:58.870740,-0.046305071842047595
2023-01-28 13:45:58.875740,-0.04505197331309306
2023-01-28 13:45:58.880740,-0.044028841881054576
2023-01-28 13:45:58.885740,-0.04380186647176735
2023-01-28 13:45:58.890740,-0.04456938005546139
2023-01-28 13:45:58.895740,-0.0461097583174705
2023-01-28 13:45:58.900740,-0.04771771832926623
2023-01-28 13:45:58.905740,-0.048225324600934864
2023-01-28 13:45:58.910740,-0.04599435902408216
2023-01-28 13:45:58.915740,-0.03892163559794422
2023-01-28 13:45:58.920740,-0.024842438168895718
2023-01-28 13:45:58.925740,-0.0025242567062376932
2023-01-28 13:45:58.930740,0.02717685032721295
2023-01-28 13:45:58.935740,0.06067832559347145
2023-01-28 13:45:58.940740,0.09197116791001231
2023-01-28 13:45:58.945740,0.11397620290517793
2023-01-28 13:45:58.950740,0.12076571433039358
2023-01-28 13:45:58.955740,0.10988931357860551
2023-01-28 13:45:58.960740,0.08362520910369631
2023-01-28 13:45:58.965740,0.04839360713958739
2023-01-28 13:45:58.970740,0.01258642181884845
2023-01-28 13:45:58.975740,-0.01620332524180409
2023-01-28 13:45:58.980740,-0.03346458476099935
2023-01-28 13:45:58.985740,-0.03872931003570547
2023-01-28 13:45:58.990740,-0.03491087007646231
2023-01-28 13:45:58.995740,-0.02651671692728989
2023-01-28 13:45:59.000740,-0.017764555150626835
2023-01-28 13:45:59.005740,-0.011395215988159084
2023-01-28 13:45:59.010740,-0.008331710723453475
2023-01-28 13:45:59.015740,-0.00798145961016409
2023-01-28 13:45:59.020740,-0.008941788101495849
2023-01-28 13:45:59.025740,-0.0097845001146197
2023-01-28 13:45:59.030740,-0.009555051783258616
2023-01-28 13:45:59.035740,-0.007885297760367341
2023-01-28 13:45:59.040740,-0.004914386872135189
2023-01-28 13:45:59.045740,-0.0011539459228514914
2023-01-28 13:45:59.050740,0.0027505357635558073
2023-01-28 13:45:59.055740,0.006322662346064954
2023-01-28 13:45:59.060740,0.009417156129384248
2023-01-28 13:45:59.065740,0.01216451358050107
2023-01-28 13:45:59.070740,0.014853511078591442
2023-01-28 13:45:59.075740,0.017862122505903213
2023-01-28 13:45:59.080740,0.02157133060825548
2023-01-28 13:45:59.085740,0.026228230446577013
2023-01-28 13:45:59.090740,0.03185624213486062
2023-01-28 13:45:59.095740,0.03827254101634017
2023-01-28 13:45:59.100740,0.04516959033414091
2023-01-28 13:45:59.105740,0.05224009603261941
2023-01-28 13:45:59.110740,0.05934414450548265
2023-01-28 13:45:59.115740,0.06661634147167197
2023-01-28 13:45:59.120740,0.07438810836374768
2023-01-28 13:45:59.125740,0.0829639062285423
2023-01-28 13:45:59.130740,0.09240500969016342
2023-01-28 13:45:59.135740,0.10241270065307606
2023-01-28 13:45:59.140740,0.1123482875598291
2023-01-28 13:45:59.145740,0.12142877280712114
2023-01-28 13:45:59.150740,0.12902155729355652
2023-01-28 13:45:59.155740,0.1348193585872649
2023-01-28 13:45:59.160740,0.13879124317161187
2023-01-28 13:45:59.165740,0.14104585349559773
2023-01-28 13:45:59.170740,0.14172527732219165
2023-01-28 13:45:59.175740,0.14087757468223563
2023-01-28 13:45:59.180740,0.1383184638954749
2023-01-28 13:45:59.185740,0.13364136219024642
2023-01-28 13:45:59.190740,0.12638435902581485
2023-01-28 13:45:59.195740,0.11616389453411094
2023-01-28 13:45:59.200740,0.10277176952888203
2023-01-28 13:45:59.205740,0.08642574399709697
2023-01-28 13:45:59.210740,0.06804010651872501
2023-01-28 13:45:59.215740,0.049090784043073626
2023-01-28 13:45:59.220740,0.03111448370988175
2023-01-28 13:45:59.225740,0.015409986488520998
2023-01-28 13:45:59.230740,0.0030635239373899403
2023-01-28 13:45:59.235740,-0.005264878273010197
2023-01-28 13:45:59.240740,-0.009878101014183334
2023-01-28 13:45:59.245740,-0.012044310569763102
2023-01-28 13:45:59.250740,-0.013078798368212104
2023-01-28 13:45:59.255740,-0.01353482436388726
2023-01-28 13:45:59.260740,-0.013494926634857999
2023-01-28 13:45:59.265740,-0.013318459503352571
2023-01-28 13:45:59.270740,-0.0136038471553085
2023-01-28 13:45:59.275740,-0.014520486816763802
2023-01-28 13:45:59.280740,-0.015664077759769274
2023-01-28 13:45:59.285740,-0.016612013801932276
2023-01-28 13:45:59.290740,-0.017248632299979094
2023-01-28 13:45:59.295740,-0.01752555370330808
2023-01-28 13:45:59.300740,-0.017324569098353216
2023-01-28 13:45:59.305740,-0.016708176583051595
2023-01-28 13:45:59.310740,-0.015993360127914278
2023-01-28 13:45:59.315740,-0.015409986488520998
2023-01-28 13:45:59.320740,-0.014892453981171262
2023-01-28 13:45:59.325740,-0.014280080795287949
2023-01-28 13:45:59.330740,-0.013452633601380328
2023-01-28 13:45:59.335740,-0.012140473350882445
2023-01-28 13:45:59.340740,-0.009850597137399953
2023-01-28 13:45:59.345740,-0.0061784191057084855
2023-01-28 13:45:59.350740,-0.0011039336740626855
2023-01-28 13:45:59.355740,0.005024473182857015
2023-01-28 13:45:59.360740,0.011531633487913789
2023-01-28 13:45:59.365740,0.0173091888427734
2023-01-28 13:45:59.370740,0.020923326024934272
2023-01-28 13:45:59.375740,0.021131634712219204
2023-01-28 13:45:59.380740,0.01738439940115344
2023-01-28 13:45:59.385740,0.00992874335497614
2023-01-28 13:45:59.390740,-0.00031265402220856706
2023-01-28 13:45:59.395740,-0.011876027099788074
2023-01-28 13:45:59.400740,-0.023064094287959563
2023-01-28 13:45:59.405740,-0.03247877210378635
2023-01-28 13:45:59.410740,-0.0394003568971452
2023-01-28 13:45:59.415740,-0.043753784149885074
2023-01-28 13:45:59.420740,-0.04590538201801622
2023-01-28 13:45:59.425740,-0.046542488038539734
2023-01-28 13:45:59.430740,-0.046510585799963096
2023-01-28 13:45:59.435740,-0.04651844501495357
2023-01-28 13:45:59.440740,-0.04695662548941585
2023-01-28 13:45:59.445740,-0.047960877418517976
2023-01-28 13:45:59.450740,-0.04944020767512972
2023-01-28 13:45:59.455740,-0.05084574222564688
2023-01-28 13:45:59.460740,-0.05088094087662303
2023-01-28 13:45:59.465740,-0.04743198677897446
2023-01-28 13:45:59.470740,-0.037783510239660686
2023-01-28 13:45:59.475740,-0.019232433289289416
2023-01-28 13:45:59.480740,0.00970145628360874
2023-01-28 13:45:59.485740,0.0477445125579833
2023-01-28 13:45:59.490740,0.08995732629759436
2023-01-28 13:45:59.495740,0.12830436229705805
2023-01-28 13:45:59.500740,0.1537601185209366
2023-01-28 13:45:59.505740,0.15926858782768238
2023-01-28 13:45:59.510740,0.14249685591286826
2023-01-28 13:45:59.515740,0.10714869201183308
2023-01-28 13:45:59.520740,0.06193453118096731
2023-01-28 13:45:59.525740,0.01745343208312984
2023-01-28 13:45:59.530740,-0.01749849232172073
2023-01-28 13:45:59.535740,-0.038464866578578914
2023-01-28 13:45:59.540740,-0.04584947967131911
2023-01-28 13:45:59.545740,-0.04358550161123266
2023-01-28 13:45:59.550740,-0.0367828835737673
2023-01-28 13:45:59.555740,-0.029521783813834114
2023-01-28 13:45:59.560740,-0.02379529225856495
2023-01-28 13:45:59.565740,-0.019785365089774135
2023-01-28 13:45:59.570740,-0.01679848329670937
2023-01-28 13:45:59.575740,-0.014087757095694518
2023-01-28 13:45:59.580740,-0.011280954309054857
2023-01-28 13:45:59.585740,-0.008462270721793144
2023-01-28 13:45:59.590740,-0.0059713378395420185
2023-01-28 13:45:59.595740,-0.004062851425260321
2023-01-28 13:45:59.600740,-0.0026887678710496785
2023-01-28 13:45:59.605740,-0.0015145540237425715
2023-01-28 13:45:59.610740,-3.1883416046934344e-05
2023-01-28 13:45:59.615740,0.0023319325409828892
2023-01-28 13:45:59.620740,0.0060402180414535
2023-01-28 13:45:59.625740,0.011226932518184093
2023-01-28 13:45:59.630740,0.017623911768751915
2023-01-28 13:45:59.635740,0.024713676422834282
2023-01-28 13:45:59.640740,0.031945105908765155
2023-01-28 13:45:59.645740,0.03887355327606196
2023-01-28 13:45:59.650740,0.04525587552178353
2023-01-28 13:45:59.655740,0.051110189408063764
2023-01-28 13:45:59.660740,0.05666300669132915
2023-01-28 13:45:59.665740,0.06221691891551011
2023-01-28 13:45:59.670740,0.06808599899702014
2023-01-28 13:45:59.675740,0.07459779828786837
2023-01-28 13:45:59.680740,0.0820014478279418
2023-01-28 13:45:59.685740,0.09027223289012905
2023-01-28 13:45:59.690740,0.09902117928194483
2023-01-28 13:45:59.695740,0.10762950032949439
2023-01-28 13:45:59.700740,0.1154925725782756
2023-01-28 13:45:59.705740,0.12222211062908173
2023-01-28 13:45:59.710740,0.12774316938013663
2023-01-28 13:45:59.715740,0.1322229802608489
2023-01-28 13:45:59.720740,0.13580137635016437
2023-01-28 13:45:59.725740,0.13828119635581965
2023-01-28 13:45:59.730740,0.13903511505542018
2023-01-28 13:45:59.735740,0.1371993720531463
2023-01-28 13:45:59.740740,0.1319993766500976
2023-01-28 13:45:59.745740,0.12303948402404777
2023-01-28 13:45:59.750740,0.11046569806446126
2023-01-28 13:45:59.755740,0.0949360951781272
2023-01-28 13:45:59.760740,0.07741809533956832
2023-01-28 13:45:59.765740,0.058971446007490144
2023-01-28 13:45:59.770740,0.04064601940592383
2023-01-28 13:45:59.775740,0.023439526557922304
2023-01-28 13:45:59.780740,0.008217934191461414
2023-01-28 13:45:59.785740,-0.004375378601252966
2023-01-28 13:45:59.790740,-0.013976238997340847
2023-01-28 13:45:59.795740,-0.02055466175079342
2023-01-28 13:45:59.800740,-0.024443058764448872
2023-01-28 13:45:59.805740,-0.026228230446577006
2023-01-28 13:45:59.810740,-0.026544706017205422
2023-01-28 13:45:59.815740,-0.02596378326416007
2023-01-28 13:45:59.820740,-0.02500124658826301
2023-01-28 13:45:59.825740,-0.024064581841230292
2023-01-28 13:45:59.830740,-0.023344794312316026
2023-01-28 13:45:59.835740,-0.02286255359649653
2023-01-28 13:45:59.840740,-0.022622834633419662
2023-01-28 13:45:59.845740,-0.02259810827672483
2023-01-28 13:45:59.850740,-0.02262423000994405
2023-01-28 13:45:59.855740,-0.022598108276724777
2023-01-28 13:45:59.860740,-0.022831645567693078
2023-01-28 13:45:59.865740,-0.02389629743993284
2023-01-28 13:45:59.870740,-0.025961524052687764
2023-01-28 13:45:59.875740,-0.028560161590576113
2023-01-28 13:45:59.880740,-0.031166453754604265
2023-01-28 13:45:59.885740,-0.03365675732493399
2023-01-28 13:45:59.890740,-0.035913053501572915
2023-01-28 13:45:59.895740,-0.037334959954023285
2023-01-28 13:45:59.900740,-0.037253965916123746
2023-01-28 13:45:59.905740,-0.035700201988220145
2023-01-28 13:45:59.910740,-0.0332788423733996
2023-01-28 13:45:59.915740,-0.030291080474853502
2023-01-28 13:45:59.920740,-0.026376975958927778
2023-01-28 13:45:59.925740,-0.021059513092040988
2023-01-28 13:45:59.930740,-0.014309104007943219
2023-01-28 13:45:59.935740,-0.006611148826777864
2023-01-28 13:45:59.940740,0.0010416875246265912
2023-01-28 13:45:59.945740,0.007067918777465792
2023-01-28 13:45:59.950740,0.009651985087934101
2023-01-28 13:45:59.955740,0.007620851509273007
2023-01-28 13:45:59.960740,0.001059096232061402
2023-01-28 13:45:59.965740,-0.008846919052302756
2023-01-28 13:45:59.970740,-0.020331806822201766
2023-01-28 13:45:59.975740,-0.03149310871958726
2023-01-28 13:45:59.980740,-0.04076374858334242
2023-01-28 13:45:59.985740,-0.04743198677897446
2023-01-28 13:45:59.990740,-0.05175543268313761
2023-01-28 13:45:59.995740,-0.05449990555644026
2023-01-28 13:46:00.000740,-0.05641839057904483
2023-01-28 13:46:00.005740,-0.058081947267055456
2023-01-28 13:46:00.010740,-0.059843370851730165
2023-01-28 13:46:00.015740,-0.06171206757426259
2023-01-28 13:46:00.020740,-0.06338159378163781
2023-01-28 13:46:00.025740,-0.06452481448650357
2023-01-28 13:46:00.030740,-0.06492379898803896
2023-01-28 13:46:00.035740,-0.06409208476543418
2023-01-28 13:46:00.040740,-0.06070137030146563
2023-01-28 13:46:00.045740,-0.05233625695109358
2023-01-28 13:46:00.050740,-0.03579249847320223
2023-01-28 13:46:00.055740,-0.008029541000723811
2023-01-28 13:46:00.060740,0.032125339437136656
2023-01-28 13:46:00.065740,0.08202632516622539
2023-01-28 13:46:00.070740,0.13430525331692839
2023-01-28 13:46:00.075740,0.17811636626720417
2023-01-28 13:46:00.080740,0.20239601382728536
2023-01-28 13:46:00.085740,0.19984900951385481
2023-01-28 13:46:00.090740,0.16998483169098366
2023-01-28 13:46:00.095740,0.11976997554302204
2023-01-28 13:46:00.100740,0.061322884555452054
2023-01-28 13:46:00.105740,0.007548729889094791
2023-01-28 13:46:00.110740,-0.032175961978623706
2023-01-28 13:46:00.115740,-0.054307579994201605
2023-01-28 13:46:00.120740,-0.06081749288910463
2023-01-28 13:46:00.125740,-0.0569760799407958
2023-01-28 13:46:00.130740,-0.04855600756776209
2023-01-28 13:46:00.135740,-0.03973901271820061
2023-01-28 13:46:00.140740,-0.03247678084835998
2023-01-28 13:46:00.145740,-0.02711772918701169
2023-01-28 13:46:00.150740,-0.023392242801720118
2023-01-28 13:46:00.155740,-0.020987391471862706
2023-01-28 13:46:00.160740,-0.019621930109972267
2023-01-28 13:46:00.165740,-0.01891990564763538
2023-01-28 13:46:00.170740,-0.018309901872198116
2023-01-28 13:46:00.175740,-0.017068784683942694
2023-01-28 13:46:00.180740,-0.014573310210702269
2023-01-28 13:46:00.185740,-0.010625919327139797
2023-01-28 13:46:00.190740,-0.005566443259624804
2023-01-28 13:46:00.195740,-7.212162017823213e-05
2023-01-28 13:46:00.200740,0.005156414594470022
2023-01-28 13:46:00.205740,0.00964025687426321
2023-01-28 13:46:00.210740,0.013293313840342715
2023-01-28 13:46:00.215740,0.016491811722517024
2023-01-28 13:46:00.220740,0.01992990548161637
2023-01-28 13:46:00.225740,0.024304986000060997
2023-01-28 13:46:00.230740,0.03006784180033271
2023-01-28 13:46:00.235740,0.03735899925231928
2023-01-28 13:46:00.240740,0.046029852028960316
2023-01-28 13:46:00.245740,0.05567789077758782
2023-01-28 13:46:00.250740,0.06576318699555282
2023-01-28 13:46:00.255740,0.07579982280731196
2023-01-28 13:46:00.260740,0.08547426343340074
2023-01-28 13:46:00.265740,0.09462356567382807
2023-01-28 13:46:00.270740,0.10316844294003076
2023-01-28 13:46:00.275740,0.11106729507446278
2023-01-28 13:46:00.280740,0.11825549528941906
2023-01-28 13:46:00.285740,0.12457808107137676
2023-01-28 13:46:00.290740,0.12978762511989278
2023-01-28 13:46:00.295740,0.13359329104423517
2023-01-28 13:46:00.300740,0.13567121463078144
2023-01-28 13:46:00.305740,0.13563673198223106
2023-01-28 13:46:00.310740,0.13306545263792982
2023-01-28 13:46:00.315740,0.12758314609527577
2023-01-28 13:46:00.320740,0.11897400773904547
2023-01-28 13:46:00.325740,0.10729293525218954
2023-01-28 13:46:00.330740,0.09297144546938814
2023-01-28 13:46:00.335740,0.07683356851339336
2023-01-28 13:46:00.340740,0.059956875041914465
2023-01-28 13:46:00.345740,0.04344125837087629
2023-01-28 13:46:00.350740,0.02819386398856905
2023-01-28 13:46:00.355740,0.014784932136535582
2023-01-28 13:46:00.360740,0.0034202009150504815
2023-01-28 13:46:00.365740,-0.005938013549894004
2023-01-28 13:46:00.370740,-0.013396556978965682
2023-01-28 13:46:00.375740,-0.019064148887991877
2023-01-28 13:46:00.380740,-0.023089837973567517
2023-01-28 13:46:00.385740,-0.02567529678344718
2023-01-28 13:46:00.390740,-0.027056867477520816
2023-01-28 13:46:00.395740,-0.027550458908080968
2023-01-28 13:46:00.400740,-0.02758188902225933
2023-01-28 13:46:00.405740,-0.027550458908080982
2023-01-28 13:46:00.410740,-0.027644403831122037
2023-01-28 13:46:00.415740,-0.02786298654973501
2023-01-28 13:46:00.420740,-0.028180927965275007
2023-01-28 13:46:00.425740,-0.02858420275151722
2023-01-28 13:46:00.430740,-0.02901091837325096
2023-01-28 13:46:00.435740,-0.02942562103271474
2023-01-28 13:46:00.440740,-0.02991414702375661
2023-01-28 13:46:00.445740,-0.030531486496329308
2023-01-28 13:46:00.450740,-0.03110877751037107
2023-01-28 13:46:00.455740,-0.03142098709940904
2023-01-28 13:46:00.460740,-0.03150296840399969
2023-01-28 13:46:00.465740,-0.031589269638061475
2023-01-28 13:46:00.470740,-0.03183668237014956
2023-01-28 13:46:00.475740,-0.032382607460021896
2023-01-28 13:46:00.480740,-0.03353360778859049
2023-01-28 13:46:00.485740,-0.03545979782938947
2023-01-28 13:46:00.490740,-0.03774448482537222
2023-01-28 13:46:00.495740,-0.039690934121608686
2023-01-28 13:46:00.500740,-0.041018596302341365
2023-01-28 13:46:00.505740,-0.04168629646301259
2023-01-28 13:46:00.510740,-0.04108646956281057
2023-01-28 13:46:00.515740,-0.038272541016340186
2023-01-28 13:46:00.520740,-0.03324941098908842
2023-01-28 13:46:00.525740,-0.02718985080718992
2023-01-28 13:46:00.530740,-0.02091233335782119
2023-01-28 13:46:00.535740,-0.014039675705134792
2023-01-28 13:46:00.540740,-0.006481528751020685
2023-01-28 13:46:00.545740,-4.8081081331370494e-05
2023-01-28 13:46:00.550740,0.0025161950870244
2023-01-28 13:46:00.555740,-9.616216266286888e-05
2023-01-28 13:46:00.560740,-0.0071267129769262945
2023-01-28 13:46:00.565740,-0.017068784683942684
2023-01-28 13:46:00.570740,-0.028475467656002788
2023-01-28 13:46:00.575740,-0.03954669088125214
2023-01-28 13:46:00.580740,-0.04822662753953362
2023-01-28 13:46:00.585740,-0.05336999893188467
2023-01-28 13:46:00.590740,-0.05532412067400264
2023-01-28 13:46:00.595740,-0.0551490001380443
2023-01-28 13:46:00.600740,-0.05384077679897737
2023-01-28 13:46:00.605740,-0.05245646089315409
2023-01-28 13:46:00.610740,-0.05219325635142002
2023-01-28 13:46:00.615740,-0.053778689354658106
2023-01-28 13:46:00.620740,-0.057099372319978206
2023-01-28 13:46:00.625740,-0.06163994595408425
2023-01-28 13:46:00.630740,-0.0667343872374807
2023-01-28 13:46:00.635740,-0.07089555263519279
2023-01-28 13:46:00.640740,-0.07111537588234532
2023-01-28 13:46:00.645740,-0.06315450370311732
2023-01-28 13:46:00.650740,-0.04261568884621241
2023-01-28 13:46:00.655740,-0.006394783966243189
2023-01-28 13:46:00.660740,0.045324419670643795
2023-01-28 13:46:00.665740,0.10707657039165488
2023-01-28 13:46:00.670740,0.16794284178652572
2023-01-28 13:46:00.675740,0.21432141959667197
2023-01-28 13:46:00.680740,0.23449047219249305
2023-01-28 13:46:00.685740,0.22275964915752405
2023-01-28 13:46:00.690740,0.1816974344756425
2023-01-28 13:46:00.695740,0.12162109464406956
2023-01-28 13:46:00.700740,0.057077317229146364
2023-01-28 13:46:00.705740,0.0015626351814716556
2023-01-28 13:46:00.710740,-0.036764901713204234
2023-01-28 13:46:00.715740,-0.0563510283827781
2023-01-28 13:46:00.720740,-0.060793374170732106
2023-01-28 13:46:00.725740,-0.05620678514242167
2023-01-28 13:46:00.730740,-0.048524716543229825
2023-01-28 13:46:00.735740,-0.04151801392436023
2023-01-28 13:46:00.740740,-0.036337246727971735
2023-01-28 13:46:00.745740,-0.03255089372396462
2023-01-28 13:46:00.750740,-0.029443560780225878
2023-01-28 13:46:00.755740,-0.026540756225585917
2023-01-28 13:46:00.760740,-0.02360495836541345
2023-01-28 13:46:00.765740,-0.020674865692853914
2023-01-28 13:46:00.770740,-0.017998472122061692
2023-01-28 13:46:00.775740,-0.015650391578674316
2023-01-28 13:46:00.780740,-0.013302333358856012
2023-01-28 13:46:00.785740,-0.01050571631640191
2023-01-28 13:46:00.790740,-0.007025146924612547
2023-01-28 13:46:00.795740,-0.0027887027245013817
2023-01-28 13:46:00.800740,0.0022050188043799134
2023-01-28 13:46:00.805740,0.007717013359069834
2023-01-28 13:46:00.810740,0.013250242208210854
2023-01-28 13:46:00.815740,0.01846313476562501
2023-01-28 13:46:00.820740,0.023474763379000934
2023-01-28 13:46:00.825740,0.028632283210754297
2023-01-28 13:46:00.830740,0.03419503967621206
2023-01-28 13:46:00.835740,0.04038810729980459
2023-01-28 13:46:00.840740,0.047471551766926905
2023-01-28 13:46:00.845740,0.0554855689406394
2023-01-28 13:46:00.850740,0.06409953882490656
2023-01-28 13:46:00.855740,0.07291495800018306
2023-01-28 13:46:00.860740,0.08173890671752997
2023-01-28 13:46:00.865740,0.09039243310689915
2023-01-28 13:46:00.870740,0.09848241975692244
2023-01-28 13:46:00.875740,0.10558605194091786
2023-01-28 13:46:00.880740,0.11148019428837762
2023-01-28 13:46:00.885740,0.11601965129375444
2023-01-28 13:46:00.890740,0.11903256583535357
2023-01-28 13:46:00.895740,0.12056331336498255
2023-01-28 13:46:00.900740,0.12098967812770695
2023-01-28 13:46:00.905740,0.12061139196157447
2023-01-28 13:46:00.910740,0.11922047865755982
2023-01-28 13:46:00.915740,0.11621197313070286
2023-01-28 13:46:00.920740,0.1109130949199429
2023-01-28 13:46:00.925740,0.1026771515607833
2023-01-28 13:46:00.930740,0.09101904796573111
2023-01-28 13:46:00.935740,0.07606427371501916
2023-01-28 13:46:00.940740,0.05879619863129313
2023-01-28 13:46:00.945740,0.04065255448222159
2023-01-28 13:46:00.950740,0.02296455489147442
2023-01-28 13:46:00.955740,0.006827513687312632
2023-01-28 13:46:00.960740,-0.0068742250268655734
2023-01-28 13:46:00.965740,-0.01769383810460557
2023-01-28 13:46:00.970740,-0.025746519324175637
2023-01-28 13:46:00.975740,-0.03137290477752677
2023-01-28 13:46:00.980740,-0.03481840472191831
2023-01-28 13:46:00.985740,-0.0363973788917064
2023-01-28 13:46:00.990740,-0.03669722236390934
2023-01-28 13:46:00.995740,-0.03632525727152822
2023-01-28 13:46:01.000740,-0.035615123247650454
2023-01-28 13:46:01.005740,-0.03478666394948945
2023-01-28 13:46:01.010740,-0.03415490158140426
2023-01-28 13:46:01.015740,-0.033921204507350866
2023-01-28 13:46:01.020740,-0.033984592637537614
2023-01-28 13:46:01.025740,-0.03423373028635966
2023-01-28 13:46:01.030740,-0.034813601535764245
2023-01-28 13:46:01.035740,-0.035844445228576556
2023-01-28 13:46:01.040740,-0.03711915565549849
2023-01-28 13:46:01.045740,-0.03836870193481435
2023-01-28 13:46:01.050740,-0.03959327958451801
2023-01-28 13:46:01.055740,-0.04084488004446014
2023-01-28 13:46:01.060740,-0.04194363878266461
2023-01-28 13:46:01.065740,-0.042720042169094
2023-01-28 13:46:01.070740,-0.04325279457598503
2023-01-28 13:46:01.075740,-0.04351337999105445
2023-01-28 13:46:01.080740,-0.04307313574114083
2023-01-28 13:46:01.085740,-0.041590135544538415
2023-01-28 13:46:01.090740,-0.03936468865801281
2023-01-28 13:46:01.095740,-0.037046473473310366
2023-01-28 13:46:01.100740,-0.03506822898822899
2023-01-28 13:46:01.105740,-0.03370483964681618
2023-01-28 13:46:01.110740,-0.03319855687863892
2023-01-28 13:46:01.115740,-0.03317594528198241
2023-01-28 13:46:01.120740,-0.03227879813672112
2023-01-28 13:46:01.125740,-0.02913713455200188
2023-01-28 13:46:01.130740,-0.02363572693512802
2023-01-28 13:46:01.135740,-0.016780298203229908
2023-01-28 13:46:01.140740,-0.009811766886509213
2023-01-28 13:46:01.145740,-0.004279216285794897
2023-01-28 13:46:01.150740,-0.0024084053127569212
2023-01-28 13:46:01.155740,-0.005841851234435971
2023-01-28 13:46:01.160740,-0.01369912213785463
2023-01-28 13:46:01.165740,-0.023030837997794075
2023-01-28 13:46:01.170740,-0.03161619055750369
2023-01-28 13:46:01.175740,-0.03933032602071757
2023-01-28 13:46:01.180740,-0.046420031082404126
2023-01-28 13:46:01.185740,-0.051807366311550085
2023-01-28 13:46:01.190740,-0.05419317000040532
2023-01-28 13:46:01.195740,-0.05401909351348867
2023-01-28 13:46:01.200740,-0.05312604430935594
2023-01-28 13:46:01.205740,-0.052817068994045216
2023-01-28 13:46:01.210740,-0.053247968865333804
2023-01-28 13:46:01.215740,-0.05442778393626209
2023-01-28 13:46:01.220740,-0.05665943666348803
2023-01-28 13:46:01.225740,-0.05978882312774654
2023-01-28 13:46:01.230740,-0.06273563204154256
2023-01-28 13:46:01.235740,-0.06385167688131327
2023-01-28 13:46:01.240740,-0.06104585838238508
2023-01-28 13:46:01.245740,-0.05147079750895506
2023-01-28 13:46:01.250740,-0.03204685878746533
2023-01-28 13:46:01.255740,-0.0012741487007587957
2023-01-28 13:46:01.260740,0.03899620153680158
2023-01-28 13:46:01.265740,0.08310814946889869
2023-01-28 13:46:01.270740,0.12251465750673125
2023-01-28 13:46:01.275740,0.14782528579235063
2023-01-28 13:46:01.280740,0.15188740726763397
2023-01-28 13:46:01.285740,0.13287207484245298
2023-01-28 13:46:01.290740,0.09543064336516893
2023-01-28 13:46:01.295740,0.04899462312459943
2023-01-28 13:46:01.300740,0.004301758227624267
2023-01-28 13:46:01.305740,-0.030050676316022776
2023-01-28 13:46:01.310740,-0.049880532246682416
2023-01-28 13:46:01.315740,-0.055942337960004765
2023-01-28 13:46:01.320740,-0.052501530455846684
2023-01-28 13:46:01.325740,-0.04473944753408428
2023-01-28 13:46:01.330740,-0.03659763848458525
2023-01-28 13:46:01.335740,-0.03007471561431881
2023-01-28 13:46:01.340740,-0.025614292511715868
2023-01-28 13:46:01.345740,-0.02276639267802232
2023-01-28 13:46:01.350740,-0.020810752191267236
2023-01-28 13:46:01.355740,-0.019256472587585397
2023-01-28 13:46:01.360740,-0.017948036922167357
2023-01-28 13:46:01.365740,-0.01675625704228868
2023-01-28 13:46:01.370740,-0.015342017285012981
2023-01-28 13:46:01.375740,-0.013318459503352552
2023-01-28 13:46:01.380740,-0.010506017063878933
2023-01-28 13:46:01.385740,-0.006923675537109271
2023-01-28 13:46:01.390740,-0.0026649372585766003
2023-01-28 13:46:01.395740,0.0020915269851683907
2023-01-28 13:46:01.400740,0.007062118381950857
2023-01-28 13:46:01.405740,0.01199623011052602
2023-01-28 13:46:01.410740,0.016792729373912702
2023-01-28 13:46:01.415740,0.02142012119293212
2023-01-28 13:46:01.420740,0.025837480709446775
2023-01-28 13:46:01.425740,0.030122797936200915
2023-01-28 13:46:01.430740,0.03462505181485657
2023-01-28 13:46:01.435740,0.03988325595855708
2023-01-28 13:46:01.440740,0.04639975494051822
2023-01-28 13:46:01.445740,0.0544758662581443
2023-01-28 13:46:01.450740,0.06409303848989797
2023-01-28 13:46:01.455740,0.0747901201248168
2023-01-28 13:46:01.460740,0.08570552681751861
2023-01-28 13:46:01.465740,0.0958977192640304
2023-01-28 13:46:01.470740,0.10471265438583394
2023-01-28 13:46:01.475740,0.11190871894359578
2023-01-28 13:46:01.480740,0.11756326230873289
2023-01-28 13:46:01.485740,0.12193362414836878
2023-01-28 13:46:01.490740,0.1252901145608721
2023-01-28 13:46:01.495740,0.12770335376262654
2023-01-28 13:46:01.500740,0.12893162466479308
2023-01-28 13:46:01.505740,0.12852072715759272
2023-01-28 13:46:01.510740,0.12598359695994107
2023-01-28 13:46:01.515740,0.12089987844228736
2023-01-28 13:46:01.520740,0.11299020403376887
2023-01-28 13:46:01.525740,0.10224442183971395
2023-01-28 13:46:01.530740,0.08898796509667081
2023-01-28 13:46:01.535740,0.07378041744232164
2023-01-28 13:46:01.540740,0.057278200800690716
2023-01-28 13:46:01.545740,0.0402198247611522
2023-01-28 13:46:01.550740,0.023459196454658552
2023-01-28 13:46:01.555740,0.007909337989985877
2023-01-28 13:46:01.560740,-0.005561382434871997
2023-01-28 13:46:01.565740,-0.01620332524180407
2023-01-28 13:46:01.570740,-0.02351147529614576
2023-01-28 13:46:01.575740,-0.0274542979896068
2023-01-28 13:46:01.580740,-0.028617043137492828
2023-01-28 13:46:01.585740,-0.02805531024932862
2023-01-28 13:46:01.590740,-0.02693478140875759
2023-01-28 13:46:01.595740,-0.026180148124694796
2023-01-28 13:46:01.600740,-0.026230018550135334
2023-01-28 13:46:01.605740,-0.026925405487418123
2023-01-28 13:46:01.610740,-0.02763591153158808
2023-01-28 13:46:01.615740,-0.027646621689200415
2023-01-28 13:46:01.620740,-0.0265776263598817
2023-01-28 13:46:01.625740,-0.024569433182477902
2023-01-28 13:46:01.630740,-0.022206072719174297
2023-01-28 13:46:01.635740,-0.02029021643102159
2023-01-28 13:46:01.640740,-0.019523442768790488
2023-01-28 13:46:01.645740,-0.020170014351606303
2023-01-28 13:46:01.650740,-0.021917494703809992
2023-01-28 13:46:01.655740,-0.024064581841230268
2023-01-28 13:46:01.660740,-0.02587556908815562
2023-01-28 13:46:01.665740,-0.026853283867239872
2023-01-28 13:46:01.670740,-0.026871729419114594
2023-01-28 13:46:01.675740,-0.02620418928563589
2023-01-28 13:46:01.680740,-0.025393434198778778
2023-01-28 13:46:01.685740,-0.024954080581665025
2023-01-28 13:46:01.690740,-0.02509356820442942
2023-01-28 13:46:01.695740,-0.025627216324210087
2023-01-28 13:46:01.700740,-0.026031355540279234
2023-01-28 13:46:01.705740,-0.025531053543090838
2023-01-28 13:46:01.710740,-0.023297889165884527
2023-01-28 13:46:01.715740,-0.018823742866516086
2023-01-28 13:46:01.720740,-0.0122809571695787
2023-01-28 13:46:01.725740,-0.004615783691406212
2023-01-28 13:46:01.730740,0.00263970357434655
2023-01-28 13:46:01.735740,0.007717013359069824
2023-01-28 13:46:01.740740,0.009090136152187522
2023-01-28 13:46:01.745740,0.006010135170072298
2023-01-28 13:46:01.750740,-0.0011898183182429372
2023-01-28 13:46:01.755740,-0.011250972747802715
2023-01-28 13:46:01.760740,-0.022465253505178934
2023-01-28 13:46:01.765740,-0.033151905983686385
2023-01-28 13:46:01.770740,-0.0420172309804562
2023-01-28 13:46:01.775740,-0.04841765016317356
2023-01-28 13:46:01.780740,-0.05242186770485768
2023-01-28 13:46:01.785740,-0.05457202717661852
2023-01-28 13:46:01.790740,-0.05552078312554109
2023-01-28 13:46:01.795740,-0.05582213401794426
2023-01-28 13:46:01.800740,-0.05588278527384534
2023-01-28 13:46:01.805740,-0.05589425563812249
2023-01-28 13:46:01.810740,-0.055738202209833804
2023-01-28 13:46:01.815740,-0.05500475689768786
2023-01-28 13:46:01.820740,-0.05310560225318998
2023-01-28 13:46:01.825740,-0.04933118820190417
2023-01-28 13:46:01.830740,-0.04286302592100394
2023-01-28 13:46:01.835740,-0.03291150182485576
2023-01-28 13:46:01.840740,-0.019038595888671645
2023-01-28 13:46:01.845740,-0.0015626351814717195
2023-01-28 13:46:01.850740,0.018074195371303003
2023-01-28 13:46:01.855740,0.03714263439178462
2023-01-28 13:46:01.860740,0.05195628068613239
2023-01-28 13:46:01.865740,0.0588512420654296
2023-01-28 13:46:01.870740,0.055513283376167226
2023-01-28 13:46:01.875740,0.04202286526560781
2023-01-28 13:46:01.880740,0.021108612401675397
2023-01-28 13:46:01.885740,-0.0025482974015176626
2023-01-28 13:46:01.890740,-0.023771213692256543
2023-01-28 13:46:01.895740,-0.03856102749705308
2023-01-28 13:46:01.900740,-0.04522199446607877
2023-01-28 13:46:01.905740,-0.04445096105337135
2023-01-28 13:46:01.910740,-0.038550955513154045
2023-01-28 13:46:01.915740,-0.030339162796735705
2023-01-28 13:46:01.920740,-0.02222309436730515
2023-01-28 13:46:01.925740,-0.015674432739615423
2023-01-28 13:46:01.930740,-0.011183933789981866
2023-01-28 13:46:01.935740,-0.008582472801208389
2023-01-28 13:46:01.940740,-0.0074016458230510285
2023-01-28 13:46:01.945740,-0.007043878547847207
2023-01-28 13:46:01.950740,-0.006859480895847677
2023-01-28 13:46:01.955740,-0.006298621650785201
2023-01-28 13:46:01.960740,-0.005065832140541777
2023-01-28 13:46:01.965740,-0.0031252703629433896
2023-01-28 13:46:01.970740,-0.0006016804969973701
2023-01-28 13:46:01.975740,0.002307891845703087
2023-01-28 13:46:01.980740,0.005436848057021137
2023-01-28 13:46:01.985740,0.008774797432124568
2023-01-28 13:46:01.990740,0.012454843694431636
2023-01-28 13:46:01.995740,0.016539892181754105
2023-01-28 13:46:02.000740,0.020855913737379744
2023-01-28 13:46:02.005740,0.025098323822021425
2023-01-28 13:46:02.010740,0.029075511649337072
2023-01-28 13:46:02.015740,0.032839380204677505
2023-01-28 13:46:02.020740,0.03669151867385402
2023-01-28 13:46:02.025740,0.04113336652517309
2023-01-28 13:46:02.030740,0.046673345420747
2023-01-28 13:46:02.035740,0.053490202873945236
2023-01-28 13:46:02.040740,0.061251204158988826
2023-01-28 13:46:02.045740,0.06930887699127192
2023-01-28 13:46:02.050740,0.07706360912639658
2023-01-28 13:46:02.055740,0.08416593074798576
2023-01-28 13:46:02.060740,0.0905489142657539
2023-01-28 13:46:02.065740,0.09640257060527793
2023-01-28 13:46:02.070740,0.10200948113467143
2023-01-28 13:46:02.075740,0.10741313546895978
2023-01-28 13:46:02.080740,0.11220508298216542
2023-01-28 13:46:02.085740,0.11565904319286342
2023-01-28 13:46:02.090740,0.11701086511625045
2023-01-28 13:46:02.095740,0.11561095714569088
2023-01-28 13:46:02.100740,0.11102983635119826
2023-01-28 13:46:02.105740,0.10325412452220913
2023-01-28 13:46:02.110740,0.09278323334501476
2023-01-28 13:46:02.115740,0.08043964952230445
2023-01-28 13:46:02.120740,0.06709924494566855
2023-01-28 13:46:02.125740,0.05358636379241939
2023-01-28 13:46:02.130740,0.040604744696130075
2023-01-28 13:46:02.135740,0.02856016159057606
2023-01-28 13:46:02.140740,0.017510023316024637
2023-01-28 13:46:02.145740,0.007428526878356919
2023-01-28 13:46:02.150740,-0.001517345103014449
2023-01-28 13:46:02.155740,-0.00901520252227784
2023-01-28 13:46:02.160740,-0.014800207882602298
2023-01-28 13:46:02.165740,-0.018703540787100705
2023-01-28 13:46:02.170740,-0.020684616893968766
2023-01-28 13:46:02.175740,-0.021011432632803913
2023-01-28 13:46:02.180740,-0.02031463212395261
2023-01-28 13:46:02.185740,-0.019280513748526486
2023-01-28 13:46:02.190740,-0.018320811740094103
2023-01-28 13:46:02.195740,-0.017597675323486318
2023-01-28 13:46:02.200740,-0.01718094372113867
2023-01-28 13:46:02.205740,-0.016996663063764537
2023-01-28 13:46:02.210740,-0.01677285489234809
2023-01-28 13:46:02.215740,-0.01627544686198228
2023-01-28 13:46:02.220740,-0.015554383424545595
2023-01-28 13:46:02.225740,-0.014833013527095295
2023-01-28 13:46:02.230740,-0.014281594349494213
2023-01-28 13:46:02.235740,-0.014039675705134797
2023-01-28 13:46:02.240740,-0.014271140539912908
2023-01-28 13:46:02.245740,-0.014953216537833191
2023-01-28 13:46:02.250740,-0.01572007238564501
2023-01-28 13:46:02.255740,-0.016131203621625904
2023-01-28 13:46:02.260740,-0.016009548684610853
2023-01-28 13:46:02.265740,-0.01536190509796142
2023-01-28 13:46:02.270740,-0.01412631970163487
2023-01-28 13:46:02.275740,-0.01218855381011961
2023-01-28 13:46:02.280740,-0.009461704049083253
2023-01-28 13:46:02.285740,-0.005721648689359421
2023-01-28 13:46:02.290740,-0.000584963702225887
2023-01-28 13:46:02.295740,0.00598609447479239
2023-01-28 13:46:02.300740,0.013178862201963687
2023-01-28 13:46:02.305740,0.019496878609061193
2023-01-28 13:46:02.310740,0.023316450625507846
2023-01-28 13:46:02.315740,0.02324720285832877
2023-01-28 13:46:02.320740,0.01846773881907348
2023-01-28 13:46:02.325740,0.00930368900299067
2023-01-28 13:46:02.330740,-0.0025640491590860582
2023-01-28 13:46:02.335740,-0.01483301352709528
2023-01-28 13:46:02.340740,-0.025582211879921483
2023-01-28 13:46:02.345740,-0.0336086750030517
2023-01-28 13:46:02.350740,-0.03836247677431733
2023-01-28 13:46:02.355740,-0.040123663842677966
2023-01-28 13:46:02.360740,-0.04001176778264546
2023-01-28 13:46:02.365740,-0.03925820440053925
2023-01-28 13:46:02.370740,-0.03846396227829567
2023-01-28 13:46:02.375740,-0.03774365037679667
2023-01-28 13:46:02.380740,-0.037124574595755154
2023-01-28 13:46:02.385740,-0.03622909635305396
2023-01-28 13:46:02.390740,-0.03390182234855041
2023-01-28 13:46:02.395740,-0.02884864807128901
2023-01-28 13:46:02.400740,-0.020530235652796314
2023-01-28 13:46:02.405740,-0.009015202522277827
2023-01-28 13:46:02.410740,0.005491677180216338
2023-01-28 13:46:02.415740,0.02206921577453606
2023-01-28 13:46:02.420740,0.03835394191037039
2023-01-28 13:46:02.425740,0.051422715187072664
2023-01-28 13:46:02.430740,0.059330319397396775
2023-01-28 13:46:02.435740,0.061038933694362564
2023-01-28 13:46:02.440740,0.0555230476232926
2023-01-28 13:46:02.445740,0.042720042169093954
2023-01-28 13:46:02.450740,0.025487321524783786
2023-01-28 13:46:02.455740,0.008750757202505975
2023-01-28 13:46:02.460740,-0.004206325559617686
2023-01-28 13:46:02.465740,-0.01346270274370903
2023-01-28 13:46:02.470740,-0.019981042964125815
2023-01-28 13:46:02.475740,-0.023127000778913418
2023-01-28 13:46:02.480740,-0.021987479872869097
2023-01-28 13:46:02.485740,-0.017838081344962082
2023-01-28 13:46:02.490740,-0.013418312554810205
2023-01-28 13:46:02.495740,-0.010145108215510807
2023-01-28 13:46:02.500740,-0.007494515554880452
2023-01-28 13:46:02.505740,-0.004832148551940903
2023-01-28 13:46:02.510740,-0.0023482564432260773
2023-01-28 13:46:02.515740,-0.00014424324035642162
2023-01-28 13:46:02.520740,0.0022212965222776545
2023-01-28 13:46:02.525740,0.004880229942500476
2023-01-28 13:46:02.530740,0.007317881857319996
2023-01-28 13:46:02.535740,0.009255608543753593
2023-01-28 13:46:02.540740,0.01112580299080795
2023-01-28 13:46:02.545740,0.013390581123530775
2023-01-28 13:46:02.550740,0.016057746455474534
2023-01-28 13:46:02.555740,0.019112229347229014
2023-01-28 13:46:02.560740,0.022766679514103227
2023-01-28 13:46:02.565740,0.026973485946655173
2023-01-28 13:46:02.570740,0.031238238719991637
2023-01-28 13:46:02.575740,0.03524343296885488
