-20.41
-25.78
-29.59
-31.9
-33.03
-33.36
-33.12
-32.38
-31.02
-28.91
-26.05
-22.6
-18.85
-15.12
-11.63
-8.49
-5.71
-3.22
-0.97
1.04
2.8
4.32
5.7
7.08
8.61
10.29
11.94
13.2
13.66
13.07
11.46
9.15
6.64
4.34
2.43
0.8
-0.82
-2.64
-4.64
-6.53
-7.97
-8.71
-8.77
-8.41
-8.03
-7.98
-8.46
-9.46
-10.9
-12.7
-14.85
-17.4
-20.38
-23.72
-27.29
-30.91
-34.38
-37.5
-40.13
-42.1
-43.27
-43.51
-42.74
-40.96
-38.17
-34.38
-29.57
-23.79
-17.22
-10.25
-3.51
2.24
6.32
8.4
8.7
8.03
7.67
8.98
12.88
19.59
28.42
38.1
47.19
54.57
59.67
62.45
63.22
62.33
60
56.33
51.4
45.43
38.82
32.23
26.49
22.47
20.78
21.53
24.17
27.49
30
30.39
27.99
22.96
16.02
8.15
0.15
-7.46
-14.46
-20.66
-25.8
-29.56
-31.65
-32.08
-31.13
-29.42
-27.63
-26.35
-25.87
-26.06
-26.41
-26.24
-24.98
-22.4
-18.82
-14.92
-11.5
-9.19
-8.22
-8.47
-9.56
-11.03
-12.47
-13.53
-13.93
-13.54
-12.39
-10.69
-8.86
-7.37
-6.64
-6.85
-7.85
-9.28
-10.65
-11.52
-11.59
-10.75
-9.02
-6.52
-3.35
0.41
4.76
9.72
15.3
21.42
27.86
34.21
39.95
44.54
47.63
49.12
49.17
48.08
46.11
43.28
39.44
34.38
27.94
20.19
11.42
2.12
-7.1
-15.6
-22.87
-28.56
-32.59
-35.08
-36.37
-36.83
-36.74
-36.28
-35.56
-34.91
-34.9
-36.2
-39.39
-44.59
-51.33
-58.52
-64.73
-68.63
-69.64
-67.72
-63.31
-57.02
-49.47
-41.26
-32.94
-24.96
-17.62
-11.66
-7.53
-5.23
-4.3
-4.01
-3.72
-2.98
-1.54
0.76
2.98
4.33
4.38
3.33
1.7
-0.2
-2.38
-5.11
-8.69
-14.49
-23.13
-34.36
-46.86
-59.09
-70.38
-81.51
-94.38
-103.53
-105.13
-97.45
-82.48
-63.24
-41.65
-18.83
3.9
24.94
42.97
56.04
63.67
65.57
62.38
55.97
49.67
47.44
53.1
69.06
93.84
123.94
153.42
176.74
190.68
194.9
191.17
182.26
170.97
152.18
127.58
100.49
74.69
53.13
37.26
27.19
20.57
15.3
9.54
3.29
-3.63
-11.24
-19.68
-28.29
-36.86
-45.34
-53.37
-60.53
-65.51
-67.73
-67.18
-64.38
-60.21
-55.96
-52.73
-50.95
-50.38
-49.78
-48.17
-45.12
-40.77
-35.72
-30.83
-26.77
-23.59
-21.02
-18.34
-15.03
-10.65
-4.79
2.84
11.89
21
27.88
29.87
25.12
13.56
-2.75
-20.23
-35
-44.4
-47.48
-44.81
-37.75
-27.71
-15.74
-2.47
11.74
26.45
40.78
53.61
63.92
71.09
75.32
77.75
79.92
82.96
86.76
89.45
88.75
83.19
72.97
59.64
45.28
31.23
17.74
4.43
-9.63
-24.27
-38.34
-50.48
-59.98
-67.04
-72.75
-78.66
-86.19
-96.98
-110.72
-124.92
-135.8
-140.26
-137.83
-131.65
-127.3
-123.26
-118.45
-110.45
-96.58
-75.65
-49.26
-21.41
3.46
22.66
36.29
45.25
50.98
54.38
55.58
54.5
51.47
47.45
43.74
41.51
40.36
39.42
37.74
34.83
30.84
26.54
23.02
21.23
21.57
23.2
24.9
25.33
23.37
18.41
10.89
2.36
-4.22
-5.17
2.17
17.95
38.8
58.51
70.43
70.54
59.31
41.24
22.38
7.3
-2.36
-7.4
-9.27
-8.31
-3.84
4.78
16.6
28.64
36.99
38.77
33.74
24.25
13.86
5.66
1.25
0.52
2.24
4.8
6.79
7.41
6.56
4.79
2.9
1.6
1.28
2.03
3.76
6.13
8.36
9.09
6.58
-0.54
-12.38
-27.33
-42.36
-53.99
-59.62
-58.41
-51.48
-41.14
-29.88
-19.53
-11.07
-4.76
-0.53
1.9
3.03
3.43
3.71
4.2
4.91
5.63
6.05
5.9
5.07
3.73
2.23
1.02
0.49
0.77
1.62
2.46
2.52
1.28
-1.34
-5.04
-9.28
-13.39
-16.65
-18.51
-18.98
-19.06
-20.42
-24.62
-32.18
-42.02
-51.71
-58.62
-61.34
-59.22
-53.89
-47.94
-43.19
-39.68
-35.79
-29.65
-20.67
-10.18
-0.8
4.83
5.72
3.12
0
-0.39
3.93
12.9
24.56
36.08
44.95
50.06
51.93
52.22
52.7
54.39
57.1
59.74
60.97
59.84
56.33
51.19
45.43
39.7
33.97
27.79
20.81
13.3
6.26
1.08
-1.18
-0.36
2.58
6
8.31
8.59
6.94
4.15
1.3
-0.81
-1.89
-2.12
-2
-1.97
-2.29
-2.92
-3.55
-3.76
-3.25
-1.9
0.07
2.17
3.82
4.58
4.27
3.08
1.49
0.03
-0.89
-1.14
-0.81
-0.17
0.44
0.71
0.36
-0.87
-3.17
-6.57
-10.86
-15.53
-19.9
-23.29
-25.29
-25.98
-25.91
-25.79
-26.07
-26.59
-26.46
-24.42
-19.25
-10.3
2.22
17.31
33.41
48.65
61.19
69.5
72.58
70.25
63.25
53.11
41.83
31.42
23.4
18.58
16.92
17.68
19.62
21.37
21.78
20.27
16.95
12.48
7.9
4.17
2.06
1.94
3.79
7.07
10.89
14.1
15.68
15.07
12.32
8.14
3.44
-0.95
-4.71
-7.98
-11.18
-14.75
-18.92
-23.64
-28.57
-33.28
-37.3
-40.29
-42.06
-42.65
-42.26
-41.1
-39.35
-37.04
-34.14
-30.65
-26.63
-22.19
-17.5
-12.73
-8.02
-3.53
0.66
4.56
8.28
12.02
15.85
19.69
23.18
25.79
27.04
26.6
24.45
20.85
16.24
11.15
6.05
1.29
-2.97
-6.71
-10.04
-13.04
-15.72
-18.03
-19.84
-21.12
-21.88
-22.25
-22.37
-22.28
-21.95
-21.28
-20.25
-18.95
-17.57
-16.3
-15.25
-14.36
-13.4
-12.15
-10.39
-8.11
-5.46
-2.75
-0.34
1.49
2.61
3.04
2.94
2.52
1.97
1.44
0.99
0.66
0.39
0.15
-0.17
-0.72
-1.66
-3.08
-4.93
-6.97
-8.82
-10.13
-10.63
-10.28
-9.25
-7.79
-6.12
-4.36
-2.56
-0.77
0.91
2.31
3.24
3.61
3.47
2.99
2.38
1.86
1.56
1.56
1.83
2.25
2.59
2.59
2
0.76
-0.99
-2.99
-4.93
-6.62
-8.04
-9.22
-10.13
-10.58
-10.31
-9.2
-7.39
-5.38
-3.78
-3.01
-3.09
-3.6
-3.94
-3.62
-2.5
-0.83
0.97
2.51
3.63
4.34
4.79
5.08
5.24
5.23
4.99
4.51
3.81
3.01
2.17
1.38
0.58
-0.44
-1.92
-4.1
-6.95
-10.05
-12.71
-14.14
-13.86
-11.86
-8.65
-5
-1.6
1.19
3.36
5.07
6.49
7.64
8.42
8.73
8.62
8.22
7.71
7.22
6.75
6.26
5.68
5.07
4.48
3.98
3.6
3.28
2.97
2.67
2.45
2.35
2.34
2.2
1.67
0.54
-1.14
-3
-4.5
-5.12
-4.63
-3.21
-1.32
0.52
1.97
3
3.74
4.35
4.81
4.95
4.58
3.69
2.52
1.45
0.79
0.65
0.88
1.21
1.44
1.51
1.47
1.39
1.27
1.02
0.6
0.05
-0.54
-1.15
-1.89
-3
-4.61
-6.53
-8.21
-8.99
-8.35
-6.26
-3.16
0.23
3.25
5.54
7.07
7.96
8.33
8.21
7.61
6.66
5.61
4.73
4.22
4.02
3.93
3.68
3.13
2.35
1.56
0.98
0.69
0.63
0.64
0.52
0.15
-0.56
-1.7
-3.3
-5.27
-7.32
-9.01
-9.89
-9.68
-8.41
-6.46
-4.31
-2.34
-0.69
0.75
2.15
3.55
4.78
5.59
5.78
5.36
4.57
3.76
3.2
2.94
2.85
2.7
2.3
1.65
0.91
0.3
-0.05
-0.2
-0.37
-0.87
-1.96
-3.64
-5.71
-7.76
-9.35
-10.11
-9.83
-8.53
-6.42
-3.82
-1.12
1.38
3.47
5.11
6.31
7.1
7.43
7.21
6.38
5.02
3.37
1.81
0.68
0.19
0.32
0.87
1.55
2.05
2.18
1.85
1.11
0.11
-0.92
-1.81
-2.45
-2.93
-3.48
-4.35
-5.69
-7.38
-9.05
-10.22
-10.49
-9.64
-7.74
-5.05
-1.95
1.21
4.12
6.51
8.23
9.17
9.31
8.77
7.74
6.48
5.18
3.95
2.77
1.57
0.29
-1.04
-2.24
-3.12
-3.52
-3.47
-3.17
-2.89
-2.86
-3.18
-3.85
-4.84
-6.15
-7.73
-9.33
-10.54
-10.83
-9.81
-7.46
-4.19
-0.72
2.3
4.51
5.93
6.81
7.38
7.71
7.7
7.26
6.47
5.54
4.72
4.12
3.67
3.18
2.49
1.54
0.45
-0.64
-1.59
-2.34
-2.93
-3.45
-4.03
-4.86
-6.11
-7.86
-9.97
-12.07
-13.61
-14.09
-13.2
-11.05
-8.01
-4.59
-1.21
1.87
4.56
6.88
8.75
10.06
10.67
10.52
9.69
8.38
6.9
5.5
4.31
3.3
2.35
1.28
0.06
-1.27
-2.54
-3.59
-4.37
-4.94
-5.51
-6.3
-7.47
-9.04
-10.93
-12.95
-14.79
-16.13
-16.62
-16.03
-14.31
-11.64
-8.31
-4.63
-0.89
2.7
5.93
8.52
10.22
10.88
10.58
9.66
8.66
7.96
7.7
7.66
7.41
6.64
5.29
3.64
2.05
0.78
-0.23
-1.21
-2.46
-4.16
-6.22
-8.49
-10.76
-12.89
-14.75
-16.16
-16.88
-16.65
-15.32
-12.91
-9.68
-6.05
-2.45
0.74
3.27
5
5.9
6.06
5.66
4.93
4.13
3.43
2.91
2.58
2.33
2.08
1.8
1.52
1.28
1.12
0.91
0.49
-0.35
-1.79
-3.86
-6.55
-9.7
-13.05
-16.18
-18.58
-19.74
-19.25
-17.04
-13.36
-8.79
-3.98
0.51
4.34
7.37
9.53
10.81
11.21
10.82
9.9
8.84
7.97
7.49
7.34
7.27
7.06
6.64
6.17
5.88
5.88
6.08
6.12
5.6
4.17
1.66
-1.96
-6.5
-11.57
-16.48
-20.32
-22.18
-21.46
-18.21
-13.11
-7.23
-1.6
3.21
7.16
10.5
13.46
16
17.84
18.68
18.44
17.39
15.98
14.68
13.75
13.18
12.81
12.45
11.99
11.42
10.78
10.03
9.02
7.51
5.28
2.28
-1.32
-5.18
-8.91
-12.29
-15.23
-17.72
-19.64
-20.67
-20.36
-18.35
-14.59
-9.51
-3.83
1.72
6.66
10.85
14.32
17.08
18.99
19.79
19.41
18.05
16.24
14.6
13.59
13.28
13.37
13.5
13.39
13.06
12.71
12.59
12.73
12.96
12.93
12.32
10.97
8.96
6.47
3.72
0.8
-2.28
-5.46
-8.54
-11.03
-12.35
-11.99
-9.78
-5.99
-1.26
3.66
8.14
11.84
14.68
16.76
18.17
18.93
19.01
18.39
17.17
15.59
13.98
12.65
11.82
11.55
11.7
11.99
12.1
11.77
10.94
9.72
8.33
6.99
5.76
4.51
3.04
1.2
-1.01
-3.42
-5.85
-8.14
-10.18
-11.84
-12.87
-12.89
-11.57
-8.81
-4.83
-0.17
4.51
8.63
11.86
14.08
15.38
15.9
15.8
15.22
14.3
13.15
11.93
10.8
9.94
9.44
9.25
9.12
8.71
7.75
6.19
4.24
2.27
0.55
-0.87
-2.2
-3.76
-5.75
-8.16
-10.7
-13.05
-14.95
-16.26
-16.89
-16.68
-15.39
-12.85
-9.1
-4.47
0.42
4.98
8.75
11.55
13.41
14.36
14.37
13.36
11.36
8.67
5.92
3.79
2.77
2.9
3.73
4.61
4.92
4.39
3.1
1.35
-0.54
-2.4
-4.21
-6.06
-8.02
-10.13
-12.35
-14.63
-16.78
-18.51
-19.45
-19.22
-17.59
-14.55
-10.37
-5.5
-0.47
4.24
8.21
11.2
13.07
13.81
13.55
12.54
11.06
9.37
7.68
6.1
4.68
3.45
2.4
1.54
0.85
0.25
-0.36
-1.1
-2.08
-3.38
-5.09
-7.26
-9.94
-13.05
-16.33
-19.33
-21.49
-22.32
-21.52
-19.12
-15.41
-10.84
-5.89
-0.95
3.62
7.47
10.29
11.89
12.26
11.61
10.36
8.93
7.62
6.53
5.61
4.75
3.88
3
2.18
1.5
1.01
0.62
0.15
-0.67
-2.11
-4.35
-7.36
-10.92
-14.6
-17.84
-20.1
-20.93
-20.18
-17.9
-14.42
-10.18
-5.64
-1.17
2.93
6.45
9.22
11.07
11.92
11.79
10.93
9.62
8.19
6.85
5.66
4.65
3.78
3.08
2.53
2.09
1.65
1.06
0.19
-1.05
-2.66
-4.65
-7.05
-9.9
-13.22
-16.78
-20.16
-22.69
-23.7
-22.76
-19.86
-15.41
-10.04
-4.43
0.89
5.62
9.57
12.53
14.24
14.5
13.28
10.94
8.1
5.48
3.65
2.74
2.48
2.36
1.87
0.77
-0.83
-2.54
-3.88
-4.49
-4.31
-3.58
-2.78
-2.37
-2.63
-3.44
-4.25
-4.17
-2.32
1.82
8.16
15.84
23.53
29.79
33.64
34.85
33.87
31.58
28.78
25.85
22.62
18.62
13.46
7.17
0.28
-6.3
-11.71
-15.4
-17.32
-17.92
-17.78
-17.44
-17.18
-17.04
-16.97
-16.99
-17.24
-17.92
-19.23
-21.14
-23.49
-26.04
-28.61
-31.18
-33.78
-36.29
-38.3
-39.17
-38.12
-34.63
-28.73
-20.97
-12.32
-3.78
3.91
10.44
15.81
20.27
23.99
27.11
29.61
31.34
32.11
31.66
29.9
26.97
23.24
19.27
15.5
12.11
8.95
5.7
2.14
-1.67
-5.45
-8.83
-11.59
-13.77
-15.59
-17.29
-19.04
-20.86
-22.7
-24.45
-25.89
-26.7
-26.51
-24.96
-21.93
-17.54
-12.14
-6.2
-0.15
5.66
10.91
15.32
18.6
20.6
21.37
21.19
20.46
19.67
19.15
19.06
19.38
19.9
20.33
20.39
19.87
18.69
16.93
14.73
12.28
9.69
7.05
4.41
1.8
-0.71
-3.11
-5.46
-7.95
-10.78
-14.04
-17.55
-20.84
-23.19
-23.9
-22.51
-19.01
-13.92
-8.02
-2.14
3.07
7.37
10.79
13.49
15.6
17.09
17.83
17.74
16.97
15.86
14.89
14.43
14.56
15.08
15.59
15.64
14.99
13.62
11.72
9.55
7.35
5.22
3.18
1.17
-0.86
-3
-5.32
-7.94
-10.95
-14.37
-18.01
-21.47
-24.12
-25.24
-24.31
-21.14
-16.08
-9.85
-3.39
2.45
7.19
10.77
13.43
15.5
17.16
18.37
19.01
18.95
18.28
17.29
16.33
15.66
15.29
15.06
14.64
13.81
12.52
10.86
9
7.07
5.13
3.12
0.99
-1.28
-3.66
-6.07
-8.46
-10.88
-13.49
-16.49
-19.9
-23.49
-26.64
-28.53
-28.39
-25.81
-20.98
-14.59
-7.68
-1.17
4.35
8.7
12.05
14.62
16.52
17.69
18
17.39
16.03
14.28
12.62
11.4
10.78
10.66
10.73
10.68
10.3
9.56
8.53
7.31
5.91
4.22
2.09
-0.55
-3.69
-7.17
-10.78
-14.39
-17.93
-21.28
-24.21
-26.26
-26.84
-25.47
-21.97
-16.65
-10.24
-3.61
2.47
7.57
11.58
14.63
16.83
18.17
18.56
17.91
16.35
14.24
12.06
10.29
9.17
8.64
8.43
8.18
7.64
6.67
5.28
3.52
1.42
-1
-3.66
-6.44
-9.22
-11.94
-14.66
-17.55
-20.74
-24.15
-27.4
-29.82
-30.69
-29.49
-26.11
-20.91
-14.58
-7.91
-1.53
4.19
9.08
13.11
16.21
18.27
19.21
19.04
17.97
16.39
14.79
13.6
13.02
12.96
13.09
13
12.38
11.14
9.43
7.54
5.71
4
2.29
0.34
-2.02
-4.81
-7.95
-11.29
-14.7
-18.13
-21.42
-24.27
-26.16
-26.51
-24.91
-21.34
-16.19
-10.14
-3.89
2.1
7.62
12.6
16.96
20.46
22.77
23.68
23.22
21.72
19.73
17.79
16.25
15.19
14.46
13.74
12.76
11.36
9.52
7.38
5.14
2.95
0.83
-1.27
-3.45
-5.69
-7.86
-9.73
-11.12
-12.1
-12.91
-13.93
-15.37
-17.01
-18.2
-18.07
-15.96
-11.74
-5.97
0.36
6.2
10.88
14.23
16.5
18.08
19.18
19.8
19.82
19.14
17.93
16.48
15.15
14.15
13.49
13.01
12.47
11.72
10.7
9.46
8.08
6.64
5.15
3.6
1.96
0.18
-1.72
-3.76
-5.91
-8.18
-10.61
-13.29
-16.27
-19.49
-22.64
-25.14
-26.33
-25.62
-22.81
-18.16
-12.38
-6.32
-0.72
3.99
7.73
10.63
12.8
14.29
15.04
15.01
14.27
13.07
11.73
10.59
9.88
9.69
9.95
10.46
10.91
10.99
10.41
9.02
6.83
4.08
1.11
-1.68
-4.01
-5.81
-7.23
-8.58
-10.19
-12.31
-14.98
-18.02
-20.96
-23.2
-24.12
-23.32
-20.67
-16.48
-11.34
-5.98
-1.08
2.91
5.8
7.59
8.45
8.6
8.25
7.61
6.9
6.25
5.77
5.44
5.14
4.7
3.97
2.94
1.77
0.74
0.05
-0.21
-0.26
-0.48
-1.27
-2.91
-5.45
-8.73
-12.51
-16.51
-20.37
-23.63
-25.7
-26.02
-24.29
-20.59
-15.47
-9.76
-4.33
0.22
3.65
6
7.47
8.2
8.26
7.73
6.7
5.42
4.2
3.34
2.96
2.99
3.12
3.03
2.53
1.64
0.57
-0.36
-0.94
-1.17
-1.28
-1.64
-2.6
-4.37
-6.94
-10.06
-13.31
-16.15
-18.01
-18.37
-16.94
-13.68
-8.93
-3.26
2.6
7.96
12.33
15.43
17.16
17.57
16.78
15.03
12.63
10.04
7.69
5.96
4.99
4.7
4.83
5.05
5.07
4.75
4.08
3.1
1.93
0.63
-0.7
-2.07
-3.49
-5.07
-6.91
-9.11
-11.66
-14.34
-16.78
-18.43
-18.79
-17.59
-14.89
-11.05
-6.62
-2.15
1.96
5.5
8.36
10.5
11.8
12.15
11.49
9.9
7.7
5.35
3.36
2.1
1.7
1.96
2.45
2.7
2.4
1.5
0.23
-1.06
-2.09
-2.76
-3.2
-3.68
-4.53
-6
-8.23
-11.09
-14.27
-17.18
-19.15
-19.56
-18.13
-15.01
-10.73
-6.02
-1.51
2.43
5.68
8.27
10.14
11.15
11.13
10.08
8.29
6.25
4.52
3.46
3.15
3.34
3.62
3.65
3.23
2.39
1.34
0.26
-0.72
-1.59
-2.46
-3.44
-4.62
-6.06
-7.81
-9.95
-12.5
-15.32
-18.02
-19.95
-20.44
-19.03
-15.72
-10.93
-5.43
0.01
4.81
8.67
11.55
13.51
14.62
14.97
14.69
13.95
12.95
11.87
10.77
9.63
8.38
6.97
5.42
3.84
2.36
1.07
0
-0.89
-1.68
-2.46
-3.31
-4.3
-5.48
-6.93
-8.69
-10.79
-13.12
-15.46
-17.41
-18.48
-18.2
-16.28
-12.76
-8.05
-2.79
2.36
6.95
10.79
13.94
16.46
18.36
19.48
19.66
18.85
17.2
15.08
12.93
11.14
9.9
9.19
8.78
8.36
7.66
6.54
5.01
3.21
1.3
-0.63
-2.61
-4.69
-6.94
-9.35
-11.87
-14.43
-16.97
-19.38
-21.38
-22.56
-22.43
-20.64
-17.17
-12.37
-6.91
-1.47
3.43
7.59
11.01
13.72
15.7
16.78
16.8
15.76
13.95
11.84
10.01
8.85
8.45
8.57
8.75
8.52
7.59
5.94
3.76
1.4
-0.82
-2.68
-4.1
-5.17
-6.13
-7.28
-8.87
-11.08
-13.91
-17.21
-20.64
-23.8
-26.21
-27.43
-27.12
-25.17
-21.76
-17.34
-12.47
-7.72
-3.42
0.34
3.61
6.47
8.91
10.81
12.04
12.58
12.57
12.28
12.02
12.02
12.34
12.9
13.56
14.17
14.63
14.91
14.93
14.61
13.84
12.56
10.8
8.68
6.43
4.23
2.19
0.27
-1.69
-3.89
-6.48
-9.44
-12.54
-15.35
-17.29
-17.86
-16.74
-13.96
-9.9
-5.15
-0.35
4.02
7.7
10.66
12.97
14.7
15.84
16.31
16.09
15.21
13.87
12.31
10.79
9.47
8.4
7.54
6.8
6.08
5.33
4.47
3.44
2.19
0.68
-1.07
-3
-5.03
-7.07
-9.12
-11.21
-13.34
-15.54
-17.8
-20.04
-22.15
-23.92
-25.02
-25.06
-23.7
-20.79
-16.49
-11.35
-6.14
-1.6
1.82
4.07
5.45
6.38
7.17
7.79
7.99
7.5
6.27
4.61
3.11
2.33
2.57
3.67
5.09
6.23
6.66
6.32
5.44
4.34
3.23
2.08
0.73
-0.95
-3.01
-5.36
-7.9
-10.64
-13.61
-16.79
-19.9
-22.4
-23.62
-22.96
-20.26
-15.84
-10.41
-4.76
0.48
5
8.74
11.74
14
15.4
15.86
15.38
14.13
12.42
10.6
8.95
7.63
6.66
5.94
5.29
4.54
3.5
2.09
0.36
-1.52
-3.39
-5.14
-6.8
-8.54
-10.49
-12.77
-15.32
-18.05
-20.77
-23.25
-25.17
-26.16
-25.84
-23.96
-20.59
-16.11
-11.18
-6.44
-2.29
1.19
4.14
6.75
9.03
10.74
11.57
11.29
10.01
8.12
6.17
4.69
3.9
3.72
3.83
3.83
3.48
2.73
1.7
0.54
-0.63
-1.86
-3.23
-4.84
-6.68
-8.7
-10.81
-13.02
-15.37
-17.85
-20.29
-22.2
-22.96
-22.04
-19.28
-14.98
-9.81
-4.54
0.29
4.48
8.11
11.34
14.21
16.51
17.95
18.32
17.65
16.29
14.73
13.43
12.66
12.4
12.46
12.55
12.39
11.83
10.77
9.21
7.2
4.89
2.44
0.06
-2.09
-3.97
-5.65
-7.33
-9.23
-11.52
-14.26
-17.27
-20.18
-22.39
-23.25
-22.28
-19.32
-14.69
-9.06
-3.28
1.98
6.35
9.81
12.51
14.61
16.12
16.94
17
16.36
15.24
13.97
12.89
12.18
11.87
11.83
11.85
11.77
11.47
10.9
10.06
8.93
7.5
5.76
3.77
1.62
-0.6
-2.82
-5.08
-7.48
-10.14
-13.04
-16
-18.6
-20.31
-20.65
-19.35
-16.44
-12.25
-7.33
-2.23
2.55
6.7
10.03
12.4
13.76
14.07
13.4
11.98
10.17
8.4
7.01
6.21
5.96
6.08
6.31
6.37
6.03
5.19
3.89
2.31
0.7
-0.73
-1.89
-2.86
-3.85
-5.17
-7
-9.39
-12.16
-14.99
-17.44
-19.07
-19.47
-18.41
-15.83
-11.95
-7.2
-2.15
2.65
6.76
9.95
12.13
13.31
13.54
12.93
11.67
10.09
8.56
7.39
6.73
6.49
6.4
6.16
5.59
4.71
3.65
2.59
1.59
0.6
-0.5
-1.87
-3.63
-5.79
-8.35
-11.18
-14.03
-16.52
-18.2
-18.64
-17.61
-15.18
-11.66
-7.52
-3.21
0.95
4.7
7.84
10.1
11.25
11.16
9.93
7.88
5.51
3.25
1.39
-0.05
-1.19
-2.2
-3.18
-4.14
-5
-5.71
-6.3
-6.88
-7.59
-8.55
-9.79
-11.29
-12.98
-14.74
-16.46
-17.9
-18.75
-18.64
-17.22
-14.31
-10
-4.67
1.16
6.89
12.07
16.39
19.72
22.03
23.34
23.69
23.21
22.09
20.6
19.11
17.9
17.11
16.66
16.24
15.45
13.97
11.75
9.03
6.19
3.62
1.5
-0.22
-1.81
-3.57
-5.67
-8.17
-10.91
-13.62
-15.91
-17.41
-17.75
-16.75
-14.45
-11.12
-7.2
-3.11
0.78
4.18
6.91
8.86
9.97
10.28
9.98
9.33
8.64
8.19
8.1
8.36
8.78
9.1
9.07
8.53
7.49
6.13
4.7
3.45
2.46
1.61
0.66
-0.65
-2.47
-4.8
-7.54
-10.44
-13.15
-15.25
-16.27
-15.77
-13.54
-9.67
-4.56
1.2
6.95
12.14
16.4
19.54
21.49
22.24
21.84
20.41
18.19
15.53
12.88
10.65
9.13
8.38
8.21
8.25
8.1
7.49
6.32
4.7
2.82
0.89
-0.99
-2.79
-4.51
-6.22
-7.98
-9.9
-12.02
-14.31
-16.49
-18.11
-18.63
-17.62
-15.03
-11.23
-6.87
-2.65
0.95
3.8
5.99
7.66
8.82
9.33
9.04
7.92
6.25
4.45
2.96
2.01
1.57
1.41
1.23
0.85
0.25
-0.5
-1.3
-2.09
-2.94
-3.98
-5.32
-7.08
-9.32
-12.02
-14.96
-17.8
-20.08
-21.32
-21.23
-19.71
-16.91
-13.14
-8.75
-4.12
0.44
4.63
8.12
10.6
11.89
12
11.2
9.93
8.62
7.61
6.96
6.56
6.23
5.81
5.23
4.51
3.63
2.54
1.19
-0.48
-2.4
-4.43
-6.36
-8.1
-9.6
-10.88
-11.95
-12.74
-13.1
-12.84
-11.76
-9.79
-6.99
-3.6
0.06
3.61
6.73
9.2
10.93
11.99
12.45
12.45
12.09
11.45
10.58
9.58
8.56
7.63
6.88
6.25
5.65
4.9
3.86
2.45
0.72
-1.28
-3.49
-5.92
-8.68
-11.83
-15.23
-18.5
-21.1
-22.41
-22.06
-20.05
-16.69
-12.56
-8.21
-4.02
-0.12
3.48
6.77
9.6
11.7
12.81
12.8
11.76
10.03
8.06
6.26
4.86
3.91
3.24
2.62
1.85
0.86
-0.32
-1.53
-2.65
-3.61
-4.43
-5.27
-6.3
-7.7
-9.53
-11.73
-13.99
-15.88
-16.93
-16.71
-15.05
-12.09
-8.19
-3.82
0.56
4.64
8.19
11.06
13.14
14.32
14.58
14.02
12.83
11.31
9.79
8.56
7.82
7.62
7.79
8.04
8.04
7.53
6.44
4.92
3.18
1.45
-0.2
-1.88
-3.75
-5.93
-8.43
-11.11
-13.81
-16.3
-18.35
-19.63
-19.85
-18.72
-16.18
-12.46
-7.99
-3.34
1
4.78
7.94
10.52
12.46
13.67
14.01
13.48
12.27
10.78
9.44
8.57
8.22
8.21
8.21
7.96
7.35
6.44
5.42
4.46
3.61
2.8
1.88
0.68
-0.94
-3.03
-5.61
-8.65
-12.04
-15.5
-18.63
-20.87
-21.72
-20.94
-18.6
-15.07
-10.86
-6.44
-2.07
2.09
5.94
9.27
11.79
13.2
13.37
12.42
10.73
8.8
7.12
6
5.54
5.61
5.89
6
5.66
4.72
3.3
1.7
0.27
-0.74
-1.33
-1.74
-2.42
-3.76
-6
-9.08
-12.62
-16.04
-18.67
-19.93
-19.53
-17.46
-14.05
-9.8
-5.23
-0.76
3.35
6.92
9.86
12.01
13.2
13.32
12.45
10.82
8.83
6.91
5.36
4.34
3.86
3.87
4.32
5.11
6.05
6.81
7
6.29
4.61
2.15
-0.72
-3.68
-6.67
-9.86
-13.54
-17.76
-22.21
-26.21
-28.94
-29.72
-28.27
-24.77
-19.69
-13.68
-7.29
-0.98
4.89
9.95
13.84
16.27
17.17
16.78
15.65
14.48
13.85
14.07
15.06
16.42
17.69
18.44
18.5
17.87
16.67
15
12.92
10.48
7.72
4.7
1.45
-1.98
-5.54
-9.07
-12.27
-14.68
-15.79
-15.23
-12.88
-9
-4.12
1.07
5.99
10.23
13.62
16.09
17.59
18.03
17.35
15.6
13.07
10.24
7.63
5.57
4.07
2.89
1.73
0.45
-0.87
-1.98
-2.71
-3.13
-3.5
-4.21
-5.57
-7.71
-10.59
-14.01
-17.74
-21.4
-24.57
-26.69
-27.29
-26.12
-23.25
-19.08
-14.22
-9.25
-4.58
-0.38
3.33
6.59
9.38
11.62
13.24
14.23
14.74
14.95
15.04
15.09
15.02
14.68
13.95
12.82
11.4
9.89
8.45
7.16
5.95
4.6
2.87
0.52
-2.56
-6.33
-10.49
-14.53
-17.82
-19.74
-19.85
-18.06
-14.6
-9.96
-4.78
0.32
4.83
8.38
10.69
11.67
11.4
10.16
8.38
6.55
5.1
4.33
4.28
4.79
5.5
6.01
6.01
5.41
4.4
3.42
2.85
2.81
3.02
2.87
1.73
-0.73
-4.31
-8.33
-11.88
-14.2
-14.85
-13.81
-11.36
-7.85
-3.62
1.03
5.76
10.19
13.84
16.27
17.24
16.76
15.13
12.83
10.39
8.22
6.47
5.13
4
2.88
1.65
0.31
-1.04
-2.3
-3.42
-4.53
-5.85
-7.64
-10.07
-13.1
-16.4
-19.43
-21.58
-22.34
-21.43
-18.9
-15.01
-10.22
-4.96
0.37
5.48
10.13
14.09
17.09
18.93
19.5
18.93
17.54
15.77
14.05
12.67
11.69
10.96
10.26
9.37
8.17
6.66
4.92
3.1
1.29
-0.46
-2.21
-4.18
-6.62
-9.75
-13.51
-17.54
-21.22
-23.79
-24.64
-23.45
-20.27
-15.5
-9.69
-3.45
2.72
8.41
13.32
17.22
19.94
21.35
21.42
20.29
18.32
16
13.84
12.23
11.25
10.64
9.98
8.88
7.15
4.94
2.6
0.48
-1.27
-2.77
-4.37
-6.42
-9.15
-12.56
-16.4
-20.31
-23.83
-26.52
-27.98
-27.88
-26.09
-22.72
-18.15
-12.93
-7.65
-2.75
1.51
5.08
7.93
10.04
11.32
11.74
11.41
10.55
9.56
8.73
8.24
8.03
7.88
7.53
6.8
5.7
4.38
3.12
2.09
1.4
0.96
0.59
0.07
-0.77
-1.97
-3.53
-5.39
-7.53
-9.93
-12.52
-15.06
-17.06
-17.89
-16.99
-14.03
-9.19
-3.05
3.51
9.69
14.94
19.13
22.36
24.83
26.62
27.63
27.75
26.93
25.35
23.34
21.31
19.53
18.09
16.88
15.69
14.36
12.89
11.34
9.82
8.37
6.86
5.13
3.06
0.69
-1.82
-4.21
-6.39
-8.4
-10.45
-12.69
-15.1
-17.39
-19.04
-19.48
-18.34
-15.55
-11.4
-6.43
-1.25
3.63
7.89
11.41
14.2
16.27
17.57
17.99
17.5
16.24
14.51
12.69
11.12
9.97
9.21
8.63
8.02
7.22
6.21
5.03
3.77
2.48
1.13
-0.31
-1.86
-3.46
-5.06
-6.65
-8.27
-10.09
-12.21
-14.55
-16.74
-18.18
-18.28
-16.7
-13.58
-9.47
-5.08
-1.01
2.45
5.32
7.78
9.88
11.5
12.38
12.32
11.38
9.86
8.24
6.93
6.1
5.66
5.33
4.81
3.96
2.84
1.61
0.46
-0.53
-1.45
-2.43
-3.58
-4.95
-6.52
-8.27
-10.2
-12.35
-14.67
-16.94
-18.71
-19.45
-18.71
-16.38
-12.75
-8.42
-4.02
-0.04
3.34
6.16
8.57
10.64
12.24
13.17
13.24
12.47
11.07
9.43
7.92
6.77
6
5.4
4.72
3.74
2.46
1.02
-0.36
-1.53
-2.43
-3.17
-3.9
-4.79
-5.94
-7.41
-9.27
-11.51
-14.07
-16.7
-18.98
-20.36
-20.34
-18.67
-15.51
-11.34
-6.82
-2.56
1.11
4.12
6.55
8.43
9.71
10.22
9.84
8.61
6.78
4.79
3.04
1.8
1.13
0.9
0.9
0.95
0.95
0.88
0.7
0.37
-0.23
-1.24
-2.73
-4.69
-7.04
-9.61
-12.2
-14.55
-16.36
-17.32
-17.18
-15.85
-13.48
-10.37
-6.92
-3.5
-0.4
2.24
4.33
5.78
6.56
6.69
6.27
5.51
4.62
3.79
3.07
2.45
1.84
1.19
0.48
-0.27
-1.01
-1.71
-2.42
-3.23
-4.26
-5.64
-7.44
-9.67
-12.2
-14.77
-17.01
-18.5
-18.84
-17.83
-15.48
-12.08
-8.08
-3.98
-0.17
3.11
5.72
7.61
8.7
8.92
8.3
6.96
5.17
3.28
1.58
0.26
-0.69
-1.35
-1.86
-2.31
-2.78
-3.31
-4.01
-4.95
-6.23
-7.84
-9.77
-11.93
-14.26
-16.59
-18.7
-20.2
-20.69
-19.8
-17.45
-13.86
-9.51
-4.95
-0.6
3.32
6.77
9.76
12.21
13.98
14.9
14.92
14.19
13
11.67
10.43
9.34
8.31
7.18
5.84
4.3
2.71
1.29
0.21
-0.55
-1.22
-2.14
-3.64
-5.87
-8.71
-11.77
-14.52
-16.4
-16.97
-16.05
-13.71
-10.23
-6.06
-1.67
2.54
6.3
9.48
12.01
13.85
15
15.44
15.27
14.66
13.86
13.08
12.4
11.82
11.21
10.47
9.56
8.52
7.42
6.33
5.2
3.93
2.46
0.74
-1.18
-3.25
-5.45
-7.79
-10.24
-12.66
-14.72
-16.01
-16.14
-14.92
-12.44
-9.06
-5.25
-1.47
2
4.98
7.43
9.33
10.61
11.24
11.22
10.68
9.85
9.05
8.52
8.37
8.48
8.65
8.65
8.33
7.65
6.68
5.52
4.23
2.85
1.39
-0.19
-1.89
-3.76
-5.83
-8.11
-10.54
-12.93
-14.95
-16.2
-16.33
-15.19
-12.83
-9.57
-5.81
-1.99
1.6
4.79
7.53
9.78
11.45
12.42
12.61
12.07
10.99
9.74
8.71
8.18
8.2
8.6
9.03
9.11
8.66
7.68
6.35
4.88
3.41
1.94
0.41
-1.24
-2.96
-4.73
-6.51
-8.41
-10.52
-12.85
-15.15
-16.93
-17.6
-16.73
-14.23
-10.45
-5.93
-1.26
3.09
6.92
10.12
12.63
14.35
15.26
15.34
14.76
13.77
12.66
11.68
10.95
10.47
10.13
9.74
9.11
8.08
6.59
4.75
2.76
0.9
-0.64
-1.82
-2.78
-3.76
-5.01
-6.65
-8.63
-10.77
-12.76
-14.23
-14.87
-14.44
-12.89
-10.34
-7.06
-3.43
0.21
3.66
6.76
9.4
11.42
12.58
12.74
11.94
10.51
8.93
7.71
7.15
7.23
7.69
8.19
8.44
8.32
7.84
7.05
5.97
4.66
3.21
1.77
0.45
-0.76
-2.03
-3.67
-5.89
-8.65
-11.56
-13.97
-15.23
-14.94
-13.14
-10.27
-6.95
-3.71
-0.83
1.66
3.79
5.55
6.75
7.15
6.6
5.21
3.37
1.6
0.37
-0.1
0.11
0.71
1.32
1.64
1.55
1.07
0.38
-0.34
-0.97
-1.52
-2.15
-3.09
-4.58
-6.67
-9.2
-11.72
-13.68
-14.59
-14.23
-12.68
-10.27
-7.39
-4.4
-1.5
1.24
3.74
5.88
7.45
8.23
8.13
7.26
5.96
4.67
3.8
3.5
3.69
4.04
4.16
3.79
2.84
1.47
-0.01
-1.34
-2.38
-3.22
-4.07
-5.17
-6.66
-8.61
-10.93
-13.47
-15.95
-18
-19.17
-19.05
-17.46
-14.51
-10.69
-6.63
-2.9
0.21
2.73
4.88
6.81
8.48
9.69
10.23
10.04
9.32
8.43
7.68
7.24
7.03
6.83
6.45
5.82
5
4.09
3.15
2.15
0.99
-0.43
-2.1
-3.98
-6.02
-8.18
-10.44
-12.71
-14.69
-15.94
-16.04
-14.72
-12.07
-8.49
-4.52
-0.68
2.74
5.64
8.05
9.94
11.21
11.69
11.34
10.27
8.8
7.34
6.26
5.73
5.69
5.94
6.2
6.25
5.93
5.18
4.02
2.52
0.81
-0.99
-2.71
-4.28
-5.71
-7.11
-8.62
-10.3
-12.05
-13.6
-14.61
-14.7
-13.68
-11.55
-8.55
-5.06
-1.52
1.73
4.5
6.68
8.25
9.18
9.45
9.08
8.18
6.98
5.81
4.99
4.65
4.74
5
5.12
4.88
4.23
3.33
2.45
1.77
1.35
1.03
0.55
-0.36
-1.85
-3.94
-6.52
-9.33
-12.02
-14.16
-15.31
-15.15
-13.6
-10.88
-7.45
-3.86
-0.56
2.26
4.56
6.4
7.78
8.59
8.76
8.28
7.33
6.21
5.22
4.55
4.23
4.14
4.12
4.03
3.8
3.43
2.96
2.4
1.75
0.95
-0.08
-1.44
-3.21
-5.47
-8.17
-11.14
-14.01
-16.23
-17.23
-16.63
-14.4
-10.94
-6.92
-2.96
0.5
3.4
5.88
8.1
10.06
11.57
12.38
12.4
11.78
10.9
10.21
10.01
10.35
10.99
11.56
11.69
11.14
9.9
8.13
6.11
4.06
2.11
0.27
-1.53
-3.37
-5.36
-7.56
-10.07
-12.87
-15.8
-18.5
-20.44
-21.13
-20.33
-18.11
-14.87
-11.15
-7.41
-3.88
-0.64
2.27
4.76
6.63
7.64
7.7
6.86
5.37
3.59
1.87
0.48
-0.46
-0.98
-1.16
-1.16
-1.1
-1.06
-1.02
-1.01
-1.03
-1.13
-1.45
-2.12
-3.27
-4.91
-6.91
-8.93
-10.52
-11.21
-10.69
-8.93
-6.14
-2.73
0.88
4.39
7.61
10.38
12.57
13.99
14.5
14.08
12.86
11.16
9.37
7.79
6.58
5.73
5.08
4.45
3.71
2.81
1.82
0.75
-0.36
-1.61
-3.11
-4.94
-7.13
-9.59
-12.08
-14.29
-15.89
-16.52
-15.97
-14.16
-11.22
-7.5
-3.43
0.56
4.12
7.04
9.22
10.63
11.24
11.09
10.25
8.93
7.39
5.89
4.61
3.57
2.68
1.82
0.97
0.2
-0.33
-0.52
-0.44
-0.32
-0.54
-1.43
-3.19
-5.72
-8.71
-11.63
-13.96
-15.27
-15.36
-14.2
-11.97
-8.95
-5.48
-1.9
1.52
4.57
7.11
9.03
10.19
10.47
9.74
8.06
5.67
3.07
0.81
-0.68
-1.23
-1.05
-0.52
-0.03
0.23
0.27
0.18
0
-0.36
-1.11
-2.44
-4.42
-7.01
-9.99
-12.99
-15.56
-17.16
-17.32
-15.77
-12.61
-8.26
-3.38
1.41
5.71
9.39
12.47
14.96
16.78
17.75
17.78
16.94
15.51
13.87
12.33
11.05
9.99
8.98
7.86
6.55
5.08
3.56
2.11
0.77
-0.46
-1.66
-2.95
-4.45
-6.26
-8.45
-11.01
-13.79
-16.42
-18.39
-19.16
-18.39
-16.1
-12.61
-8.48
-4.2
-0.11
3.72
7.33
10.74
13.8
16.2
17.64
17.94
17.2
15.77
14.14
12.75
11.84
11.39
11.17
10.86
10.26
9.29
8.02
6.57
5.01
3.36
1.57
-0.37
-2.4
-4.44
-6.43
-8.42
-10.5
-12.77
-15.16
-17.37
-18.9
-19.26
-18.12
-15.46
-11.58
-6.98
-2.15
2.53
6.8
10.51
13.5
15.66
16.87
17.18
16.75
15.86
14.8
13.77
12.89
12.11
11.34
10.44
9.31
7.88
6.22
4.42
2.6
0.89
-0.72
-2.32
-4.04
-6.01
-8.3
-10.87
-13.54
-16.04
-18.02
-19.08
-18.92
-17.38
-14.61
-10.91
-6.74
-2.5
1.55
5.27
8.56
11.28
13.21
14.17
14.09
13.13
11.69
10.23
9.12
8.49
8.19
7.95
7.42
6.46
5.06
3.39
1.69
0.1
-1.31
-2.63
-4.02
-5.58
-7.39
-9.41
-11.61
-13.94
-16.26
-18.35
-19.83
-20.24
-19.19
-16.56
-12.56
-7.72
-2.68
2.02
6.08
9.41
12
13.83
14.78
14.81
13.99
12.6
11.04
9.69
8.77
8.28
8.08
7.93
7.64
7.08
6.22
5.09
3.73
2.24
0.71
-0.81
-2.35
-3.98
-5.81
-7.87
-10.12
-12.39
-14.41
-15.9
-16.55
-16.19
-14.7
-12.17
-8.85
-5.11
-1.34
2.15
5.21
7.8
9.87
11.31
11.94
11.7
10.73
9.38
8.15
7.37
7.12
7.18
7.22
6.94
6.27
5.28
4.11
2.83
1.48
0.03
-1.51
-3.08
-4.65
-6.22
-7.9
-9.8
-11.94
-14.17
-16.14
-17.37
-17.41
-16.01
-13.29
-9.63
-5.57
-1.61
1.95
5
7.53
9.51
10.82
11.34
11.06
10.11
8.83
7.54
6.52
5.84
5.48
5.3
5.19
5.04
4.76
4.31
3.66
2.85
1.87
0.66
-0.91
-3.01
-5.76
-9.04
-12.5
-15.56
-17.61
-18.19
-17.18
-14.77
-11.38
-7.43
-3.3
0.75
4.52
7.79
10.31
11.84
12.28
11.71
10.45
8.88
7.36
6.11
5.15
4.39
3.68
2.92
2.07
1.12
0.04
-1.24
-2.75
-4.53
-6.54
-8.72
-11.02
-13.41
-15.83
-18.11
-19.9
-20.73
-20.2
-18.14
-14.72
-10.45
-5.97
-1.81
1.74
4.61
6.86
8.54
9.6
9.98
9.72
8.96
7.99
7.07
6.35
5.83
5.37
4.79
4.02
3.1
2.18
1.4
0.79
0.26
-0.41
-1.43
-2.96
-5.04
-7.54
-10.19
-12.6
-14.32
-14.99
-14.38
-12.48
-9.55
-6.01
-2.34
1.03
3.86
6.04
7.6
8.62
9.16
9.32
9.2
8.93
8.63
8.36
8.08
7.67
6.96
5.86
4.38
2.63
0.77
-1.03
-2.64
-3.99
-5.04
-5.83
-6.5
-7.25
-8.29
-9.69
-11.26
-12.61
-13.24
-12.75
-10.99
-8.11
-4.47
-0.52
3.3
6.7
9.39
11.25
12.21
12.35
11.87
11.05
10.15
9.32
8.62
7.98
7.34
6.62
5.81
4.92
3.97
2.99
1.98
0.92
-0.23
-1.59
-3.3
-5.49
-8.21
-11.31
-14.44
-17.09
-18.76
-19.12
-18.21
-16.33
-13.95
-11.37
-8.67
-5.63
-1.99
2.33
7.14
12.04
16.6
20.54
23.82
26.49
28.56
29.89
30.18
29.17
26.73
23.04
18.47
13.56
8.8
4.5
0.69
-2.76
-6.11
-9.55
-13.09
-16.6
-19.84
-22.52
-24.39
-25.24
-24.93
-23.42
-20.75
-17.06
-12.5
-7.31
-1.72
3.91
9.1
13.33
16.14
17.34
17.09
15.89
14.36
13.05
12.24
11.9
11.81
11.68
11.31
10.63
9.62
8.37
6.93
5.35
3.62
1.73
-0.39
-2.85
-5.67
-8.82
-12.08
-15.04
-17.17
-17.99
-17.18
-14.73
-10.94
-6.32
-1.41
3.38
7.77
11.6
14.78
17.17
18.6
18.99
18.39
17.02
15.25
13.5
12.06
11.09
10.53
10.14
9.59
8.62
7.12
5.19
3.09
1.12
-0.52
-1.83
-2.97
-4.2
-5.77
-7.82
-10.34
-13.21
-16.18
-18.95
-21.14
-22.38
-22.36
-20.94
-18.21
-14.48
-10.21
-5.87
-1.83
1.7
4.68
7.09
8.9
10
10.3
9.85
8.84
7.62
6.56
5.88
5.57
5.49
5.42
5.25
4.99
4.69
4.35
3.84
2.93
1.44
-0.66
-3.19
-5.83
-8.28
-10.39
-12.2
-13.82
-15.29
-16.46
-16.98
-16.49
-14.78
-11.92
-8.29
-4.36
-0.6
2.71
5.46
7.62
9.16
10.01
10.13
9.6
8.64
7.56
6.66
6.15
6.04
6.23
6.49
6.62
6.51
6.1
5.44
4.57
3.53
2.36
1.06
-0.35
-1.87
-3.48
-5.23
-7.15
-9.22
-11.32
-13.2
-14.49
-14.86
-14.11
-12.29
-9.62
-6.45
-3.13
0.09
3.04
5.55
7.51
8.78
9.26
9.03
8.3
7.36
6.51
5.93
5.63
5.51
5.41
5.17
4.7
3.96
2.95
1.72
0.36
-1.03
-2.38
-3.67
-4.97
-6.41
-8.09
-9.99
-11.99
-13.92
-15.56
-16.74
-17.32
-17.16
-16.13
-14.17
-11.37
-7.97
-4.33
-0.81
2.37
5.13
7.5
9.45
10.89
11.64
11.6
10.85
9.71
8.57
7.76
7.36
7.22
7.07
6.68
5.95
4.98
3.89
2.81
1.74
0.65
-0.52
-1.83
-3.3
-4.93
-6.73
-8.68
-10.74
-12.85
-14.82
-16.37
-17.15
-16.84
-15.26
-12.45
-8.76
-4.71
-0.86
2.41
4.92
6.71
7.87
8.47
8.54
8.11
7.27
6.2
5.13
4.22
3.54
3.03
2.57
2.1
1.59
1.09
0.65
0.28
-0.08
-0.54
-1.27
-2.37
-3.87
-5.69
-7.69
-9.71
-11.58
-13.22
-14.5
-15.29
-15.37
-14.52
-12.59
-9.6
-5.82
-1.66
2.37
5.85
8.5
10.2
10.95
10.83
10.02
8.74
7.26
5.87
4.79
4.09
3.68
3.37
2.96
2.31
1.41
0.32
-0.86
-2.09
-3.33
-4.57
-5.84
-7.18
-8.68
-10.49
-12.67
-15.09
-17.35
-18.88
-19.14
-17.81
-15.01
-11.13
-6.72
-2.26
1.94
5.71
8.9
11.32
12.76
13.09
12.42
11.07
9.48
8.06
6.97
6.18
5.53
4.89
4.23
3.62
3.18
2.89
2.68
2.36
1.75
0.73
-0.81
-2.93
-5.68
-8.98
-12.55
-15.93
-18.54
-19.95
-19.98
-18.74
-16.55
-13.72
-10.5
-7.03
-3.46
-0.08
2.76
4.71
5.65
5.73
5.38
5.15
5.41
6.32
7.7
9.14
10.24
10.62
10.2
9.07
7.53
5.88
4.36
3.02
1.79
0.52
-0.96
-2.73
-4.78
-6.98
-9.07
-10.7
-11.5
-11.15
-9.49
-6.63
-2.87
1.29
5.33
8.82
11.47
13.09
13.67
13.29
12.16
10.64
9.08
7.78
6.86
6.27
5.85
5.45
5.03
4.59
4.16
3.73
3.17
2.36
1.19
-0.41
-2.46
-4.93
-7.71
-10.59
-13.19
-15.05
-15.77
-15.13
-13.22
-10.34
-6.91
-3.3
0.23
3.59
6.71
9.51
11.88
13.65
14.67
14.91
14.43
13.4
12.06
10.6
9.16
7.81
6.52
5.25
3.96
2.63
1.26
-0.14
-1.55
-3.03
-4.65
-6.5
-8.58
-10.72
-12.61
-13.84
-14.03
-12.98
-10.69
-7.44
-3.6
0.44
4.31
7.78
10.63
12.73
13.97
14.28
13.73
12.52
10.98
9.54
8.56
8.09
7.9
7.48
6.33
4.27
1.55
-1.21
-3.34
-4.41
-4.44
-3.79
-2.95
-2.28
-2
-2.12
-2.62
-3.42
-4.31
-4.93
-4.81
-3.59
-1.19
2.06
5.59
8.82
11.37
13.2
14.43
15.2
15.51
15.28
14.46
13.18
11.75
10.49
9.58
8.97
8.39
7.6
6.47
5.06
3.56
2.13
0.79
-0.56
-2.04
-3.65
-5.24
-6.58
-7.56
-8.24
-8.9
-9.83
-11.1
-12.49
-13.51
-13.62
-12.42
-9.9
-6.39
-2.46
1.35
4.63
7.21
9.08
10.33
11.04
11.28
11.15
10.72
10.15
9.59
9.23
9.16
9.34
9.54
9.49
8.94
7.83
6.34
4.77
3.42
2.39
1.53
0.54
-0.87
-2.81
-5.14
-7.61
-9.98
-12.08
-13.76
-14.86
-15.1
-14.22
-12.11
-8.97
-5.28
-1.67
1.38
3.64
5.16
6.17
6.83
7.17
7.1
6.54
5.54
4.28
3.03
2.03
1.43
1.22
1.34
1.69
2.16
2.67
3.12
3.39
3.37
2.92
2
0.65
-0.96
-2.61
-4.07
-5.24
-6.19
-7.14
-8.33
-9.82
-11.4
-12.65
-13.08
-12.39
-10.52
-7.78
-4.6
-1.39
1.6
4.3
6.67
8.65
10.05
10.7
10.54
9.72
8.6
7.66
7.34
7.82
9.03
10.63
12.2
13.36
13.86
13.59
12.52
10.66
8.02
4.68
0.84
-3.21
-7.05
-10.34
-12.83
-14.48
-15.41
-15.82
-15.85
-15.53
-14.79
-13.48
-11.52
-8.93
-5.88
-2.62
0.57
3.43
5.73
7.29
7.98
7.79
6.89
5.59
4.29
3.28
2.7
2.44
2.27
1.93
1.31
0.43
-0.54
-1.44
-2.16
-2.75
-3.35
-4.08
-5
-6.03
-7.04
-7.9
-8.61
-9.29
-10.08
-11.04
-11.96
-12.48
-12.13
-10.69
-8.21
-5.06
-1.7
1.45
4.2
6.51
8.38
9.68
10.16
9.58
7.97
5.72
3.47
1.83
1.1
1.05
1.09
0.62
-0.62
-2.37
-4.02
-5.01
-5.14
-4.69
-4.22
-4.16
-4.65
-5.5
-6.43
-7.3
-8.18
-9.16
-10.14
-10.77
-10.56
-9.14
-6.51
-3.05
0.67
4.13
7.04
9.37
11.16
12.37
12.85
12.39
10.9
8.53
5.67
2.81
0.36
-1.5
-2.81
-3.77
-4.55
-5.23
-5.76
-6.11
-6.3
-6.49
-6.92
-7.78
-9.15
-11
-13.16
-15.39
-17.4
-18.85
-19.47
-19.09
-17.76
-15.68
-13.17
-10.53
-7.91
-5.35
-2.82
-0.32
2.03
4.03
5.47
6.28
6.5
6.36
6.06
5.82
5.78
6.05
6.68
7.71
9.1
10.69
12.23
13.38
13.81
13.3
11.67
8.92
5.19
0.78
-3.85
-8.15
-11.63
-13.95
-14.96
-14.68
-13.28
-10.97
-8.02
-4.73
-1.49
1.3
3.32
4.37
4.45
3.7
2.39
0.81
-0.76
-2.11
-3.13
-3.82
-4.22
-4.47
-4.7
-5.03
-5.59
-6.46
-7.69
-9.26
-11.07
-12.92
-14.55
-15.72
-16.27
-16.14
-15.39
-14.13
-12.39
-10.16
-7.43
-4.23
-0.8
2.48
5.17
6.93
7.65
7.44
6.58
5.36
4
2.59
1.22
-0.05
-1.17
-2.14
-3.04
-4.01
-5.13
-6.36
-7.54
-8.52
-9.23
-9.79
-10.42
-11.24
-12.14
-12.8
-12.83
-11.93
-10.12
-7.63
-4.84
-2.02
0.69
3.26
5.66
7.8
9.53
10.67
11.15
11
10.38
9.47
8.46
7.52
6.76
6.25
5.92
5.64
5.23
4.53
3.47
2.06
0.31
-1.78
-4.23
-6.94
-9.66
-11.96
-13.35
-13.43
-12.13
-9.66
-6.46
-2.94
0.6
4.06
7.38
10.46
13.04
14.87
15.76
15.74
15.03
13.95
12.76
11.61
10.51
9.44
8.44
7.55
6.79
6.08
5.25
4.16
2.73
0.99
-1.03
-3.34
-5.92
-8.69
-11.32
-13.31
-14.11
-13.39
-11.16
-7.76
-3.7
0.6
4.86
8.91
12.55
15.47
17.34
17.96
17.46
16.22
14.79
13.56
12.69
12.05
11.39
10.53
9.42
8.15
6.87
5.69
4.6
3.49
2.21
0.64
-1.29
-3.6
-6.26
-9.14
-12
-14.47
-16.12
-16.55
-15.56
-13.19
-9.77
-5.71
-1.45
2.69
6.51
9.82
12.47
14.28
15.17
15.18
14.52
13.5
12.41
11.44
10.65
9.97
9.32
8.64
7.94
7.26
6.6
5.91
5.12
4.12
2.81
1.12
-1.01
-3.62
-6.62
-9.83
-12.85
-15.23
-16.5
-16.39
-14.9
-12.25
-8.79
-4.85
-0.69
3.53
7.64
11.37
14.42
16.49
17.41
17.24
16.2
14.69
13.05
11.6
10.45
9.58
8.89
8.23
7.51
6.71
5.84
4.91
3.95
2.9
1.71
0.28
-1.52
-3.78
-6.55
-9.75
-13.08
-16.09
-18.2
-18.92
-18.02
-15.59
-12.05
-7.89
-3.59
0.56
4.4
7.87
10.86
13.21
14.73
15.31
14.98
13.94
12.49
10.94
9.55
8.44
7.62
7.02
6.57
6.23
5.97
5.72
5.39
4.84
3.9
2.5
0.65
-1.53
-3.91
-6.43
-9.05
-11.78
-14.48
-16.87
-18.5
-18.92
-17.86
-15.31
-11.63
-7.34
-3
1
4.55
7.65
10.35
12.54
14.02
14.56
14.07
12.8
11.21
9.84
9.08
9
9.31
9.58
9.41
8.65
7.4
5.94
4.53
3.26
2.06
0.73
-0.91
-2.92
-5.27
-7.82
-10.45
-13.05
-15.45
-17.39
-18.49
-18.39
-16.86
-13.97
-10.09
-5.79
-1.57
2.26
5.61
8.51
10.97
12.85
13.97
14.18
13.49
12.14
10.48
8.84
7.43
6.34
5.51
4.82
4.17
3.49
2.77
2.02
1.29
0.55
-0.27
-1.27
-2.61
-4.39
-6.66
-9.31
-12.11
-14.69
-16.63
-17.54
-17.17
-15.49
-12.7
-9.12
-5.13
-1.04
2.89
6.42
9.28
11.18
11.92
11.5
10.17
8.37
6.58
5.18
4.32
3.95
3.89
3.93
3.9
3.7
3.29
2.64
1.74
0.6
-0.75
-2.27
-3.92
-5.71
-7.66
-9.81
-12.12
-14.39
-16.32
-17.47
-17.49
-16.19
-13.64
-10.16
-6.2
-2.17
1.64
5.07
7.98
10.21
11.55
11.85
11.14
9.72
8.05
6.61
5.69
5.28
5.17
5.06
4.74
4.16
3.35
2.38
1.23
-0.15
-1.79
-3.64
-5.55
-7.4
-9.18
-10.91
-12.63
-14.26
-15.52
-16.02
-15.4
-13.54
-10.56
-6.85
-2.84
1.07
4.6
7.62
10.05
11.76
12.65
12.64
11.8
10.3
8.46
6.6
5.01
3.79
2.93
2.36
1.98
1.69
1.43
1.09
0.54
-0.33
-1.63
-3.34
-5.36
-7.56
-9.77
-11.87
-13.65
-14.91
-15.37
-14.78
-13.09
-10.38
-6.96
-3.2
0.54
3.94
6.78
8.85
10.05
10.34
9.82
8.73
7.41
6.14
5.09
4.29
3.71
3.26
2.88
2.53
2.15
1.66
0.97
0.07
-1.04
-2.31
-3.7
-5.24
-6.98
-8.95
-11.09
-13.14
-14.72
-15.35
-14.7
-12.61
-9.28
-5.12
-0.7
3.42
6.82
9.19
10.44
10.59
9.85
8.49
6.88
5.34
4.1
3.23
2.71
2.42
2.23
2.03
1.74
1.34
0.77
0.01
-0.97
-2.17
-3.6
-5.31
-7.36
-9.72
-12.23
-14.52
-16.08
-16.38
-15.09
-12.25
-8.25
-3.7
0.78
4.74
7.96
10.39
12.01
12.78
12.72
11.95
10.75
9.49
8.47
7.77
7.29
6.75
5.91
4.72
3.35
2.11
1.28
0.91
0.81
0.55
-0.37
-2.27
-5.14
-8.64
-12.11
-14.84
-16.2
-15.86
-13.79
-10.25
-5.72
-0.8
3.9
7.85
10.72
12.38
12.93
12.61
11.69
10.41
8.94
7.39
5.88
4.53
3.45
2.67
2.15
1.79
1.46
1.11
0.74
0.31
-0.23
-1.08
-2.43
-4.38
-6.86
-9.52
-11.89
-13.45
-13.8
-12.8
-10.53
-7.31
-3.56
0.27
3.81
6.77
8.96
10.31
10.82
10.58
9.74
8.51
7.11
5.73
4.51
3.54
2.84
2.44
2.28
2.26
2.22
1.95
1.3
0.21
-1.25
-2.95
-4.79
-6.68
-8.59
-10.38
-11.81
-12.54
-12.27
-10.86
-8.45
-5.34
-1.93
1.43
4.5
7.11
9.11
10.36
10.8
10.44
9.48
8.22
6.95
5.9
5.1
4.49
3.96
3.44
2.89
2.34
1.78
1.19
0.48
-0.48
-1.82
-3.61
-5.88
-8.5
-11.22
-13.62
-15.22
-15.61
-14.58
-12.26
-9.06
-5.47
-1.9
1.46
4.63
7.62
10.3
12.39
13.55
13.61
12.68
11.24
9.81
8.77
8.18
7.83
7.36
6.57
5.45
4.2
3.04
2.1
1.31
0.47
-0.66
-2.26
-4.39
-6.95
-9.68
-12.23
-14.14
-14.99
-14.52
-12.72
-9.8
-6.16
-2.23
1.72
5.46
8.9
11.86
14.17
15.62
16.16
15.91
15.15
14.25
13.48
12.97
12.63
12.25
11.63
10.66
9.36
7.9
6.45
5.12
3.91
2.7
1.32
-0.36
-2.34
-4.59
-7
-9.52
-12.03
-14.34
-16.12
-16.94
-16.45
-14.54
-11.44
-7.62
-3.6
0.19
3.58
6.55
9.14
11.3
12.9
13.79
13.9
13.35
12.36
11.21
10.12
9.22
8.52
7.94
7.37
6.68
5.78
4.64
3.33
1.96
0.64
-0.59
-1.77
-3.01
-4.38
-5.87
-7.44
-9.04
-10.71
-12.47
-14.28
-15.89
-16.86
-16.7
-15.12
-12.17
-8.25
-3.95
0.16
3.75
6.72
9.05
10.75
11.75
12
11.59
10.76
9.84
9.09
8.61
8.3
7.98
7.49
6.74
5.79
4.71
3.54
2.31
1.01
-0.29
-1.52
-2.65
-3.75
-5.03
-6.7
-8.9
-11.54
-14.35
-16.97
-19.03
-20.27
-20.53
-19.7
-17.75
-14.72
-10.86
-6.57
-2.37
1.31
4.2
6.3
7.78
8.87
9.66
10.18
10.33
10.07
9.44
8.64
7.9
7.37
7.11
6.96
6.69
6.08
5.05
3.7
2.2
0.7
-0.8
-2.45
-4.42
-6.78
-9.4
-12.04
-14.45
-16.55
-18.5
-20.54
-22.88
-25.51
-28.16
-30.42
-31.88
-32.27
-31.53
-29.68
-26.81
-22.91
-17.97
-12.08
-5.54
0.99
6.66
10.67
12.65
12.79
11.78
10.53
9.75
9.75
10.39
11.31
12.17
12.74
12.87
12.43
11.32
9.62
7.69
6.13
5.57
6.37
8.37
10.91
13.04
13.93
13.17
10.81
7.28
3.19
-0.88
-4.47
-7.21
-8.86
-9.24
-8.29
-6.15
-3.1
0.46
4.07
7.37
10.16
12.35
13.97
15.08
15.69
15.74
15.16
13.9
12.04
9.82
7.52
5.42
3.66
2.27
1.17
0.3
-0.35
-0.77
-0.97
-1.06
-1.23
-1.68
-2.51
-3.66
-4.95
-6.18
-7.23
-8.07
-8.67
-8.94
-8.68
-7.63
-5.6
-2.59
1.16
5.28
9.35
13.01
16.03
18.24
19.59
20.06
19.72
18.77
17.48
16.1
14.79
13.55
12.31
10.93
9.37
7.62
5.71
3.7
1.59
-0.59
-2.78
-4.86
-6.74
-8.36
-9.77
-11.14
-12.63
-14.34
-16.19
-17.96
-19.24
-19.65
-18.89
-16.89
-13.85
-10.17
-6.32
-2.65
0.57
3.25
5.34
6.84
7.73
8.04
7.85
7.3
6.56
5.79
5.07
4.41
3.75
3.01
2.12
1.03
-0.21
-1.54
-2.87
-4.16
-5.44
-6.72
-8.01
-9.24
-10.35
-11.33
-12.32
-13.5
-14.98
-16.64
-18.15
-19.03
-18.91
-17.61
-15.27
-12.22
-8.81
-5.35
-2.03
1
3.62
5.65
6.94
7.4
7.09
6.15
4.85
3.46
2.23
1.31
0.68
0.21
-0.27
-0.89
-1.7
-2.67
-3.69
-4.69
-5.62
-6.48
-7.28
-8.08
-9.02
-10.3
-12.12
-14.52
-17.34
-20.07
-22.1
-22.82
-21.9
-19.41
-15.79
-11.62
-7.46
-3.64
-0.24
2.78
5.49
7.84
9.67
10.79
11.16
10.88
10.19
9.37
8.6
7.95
7.39
6.8
6.14
5.4
4.6
3.77
2.93
2.01
0.96
-0.27
-1.72
-3.37
-5.15
-7.01
-8.94
-10.96
-13.05
-15.06
-16.68
-17.5
-17.09
-15.24
-12.08
-8
-3.58
0.68
4.47
7.62
10.11
11.92
13.04
13.49
13.32
12.71
11.89
11.09
10.47
10.12
9.92
9.72
9.28
8.47
7.28
5.86
4.43
3.12
1.98
0.92
-0.22
-1.53
-3.02
-4.6
-6.23
-7.91
-9.73
-11.62
-13.39
-14.62
-14.88
-13.88
-11.6
-8.36
-4.58
-0.72
2.92
6.15
8.82
10.8
11.92
12.09
11.41
10.17
8.77
7.58
6.83
6.54
6.57
6.68
6.59
6.11
5.17
3.85
2.34
0.87
-0.37
-1.34
-2.19
-3.11
-4.32
-5.91
-7.9
-10.2
-12.64
-14.9
-16.6
-17.29
-16.59
-14.42
-11
-6.82
-2.48
1.56
5
7.75
9.74
10.94
11.28
10.81
9.73
8.37
7.11
6.17
5.58
5.21
4.84
4.3
3.53
2.58
1.54
0.51
-0.45
-1.39
-2.38
-3.56
-5.09
-7.09
-9.6
-12.47
-15.35
-17.76
-19.2
-19.31
-17.9
-15.08
-11.21
-6.79
-2.36
1.65
5.03
7.7
9.7
11.08
11.83
11.97
11.55
10.78
9.96
9.33
8.97
8.76
8.39
7.62
6.4
4.9
3.43
2.22
1.3
0.48
-0.5
-1.89
-3.8
-6.27
-9.2
-12.42
-15.61
-18.23
-19.7
-19.54
-17.61
-14.17
-9.84
-5.31
-1.1
2.57
5.67
8.23
10.2
11.45
11.86
11.5
10.63
9.65
8.89
8.48
8.33
8.18
7.76
6.92
5.71
4.29
2.88
1.6
0.48
-0.58
-1.73
-3.11
-4.84
-6.94
-9.36
-11.91
-14.27
-16.01
-16.72
-16.13
-14.19
-11.13
-7.31
-3.13
1.07
5.03
8.48
11.16
12.79
13.25
12.61
11.18
9.45
7.89
6.81
6.27
6.11
6.13
6.11
5.95
5.61
5.06
4.24
3.05
1.45
-0.54
-2.84
-5.34
-7.92
-10.47
-12.81
-14.72
-15.86
-15.95
-14.8
-12.44
-9.11
-5.17
-1
3.01
6.58
9.42
11.34
12.23
12.14
11.31
10.1
8.89
7.91
7.22
6.75
6.37
5.99
5.56
5.04
4.4
3.57
2.48
1.14
-0.45
-2.27
-4.37
-6.81
-9.64
-12.69
-15.55
-17.68
-18.5
-17.73
-15.4
-11.89
-7.72
-3.37
0.78
4.51
7.66
10.13
11.84
12.79
13.11
12.98
12.6
12.11
11.52
10.78
9.87
8.8
7.66
6.58
5.66
4.92
4.29
3.62
2.74
1.53
-0.1
-2.17
-4.61
-7.28
-9.9
-12.06
-13.31
-13.24
-11.71
-8.88
-5.2
-1.23
2.54
5.86
8.62
10.77
12.21
12.81
12.51
11.47
10.09
8.81
7.95
7.56
7.39
7.1
6.46
5.44
4.21
2.98
1.85
0.79
-0.3
-1.51
-2.9
-4.47
-6.26
-8.26
-10.36
-12.28
-13.56
-13.74
-12.5
-9.85
-6.13
-1.88
2.32
6.04
9.04
11.23
12.58
13.11
12.87
12.03
10.88
9.69
8.67
7.86
7.11
6.25
5.12
3.74
2.2
0.69
-0.67
-1.85
-2.88
-3.88
-4.98
-6.35
-8.1
-10.26
-12.61
-14.73
-16.02
-15.98
-14.35
-11.29
-7.26
-2.81
1.52
5.44
8.77
11.4
13.23
14.14
14.12
13.35
12.14
10.88
9.86
9.19
8.76
8.37
7.8
6.97
5.89
4.68
3.46
2.31
1.23
0.16
-0.98
-2.33
-3.99
-6.05
-8.49
-11.12
-13.58
-15.36
-15.97
-15.12
-12.82
-9.37
-5.29
-1.04
2.98
6.61
9.79
12.46
14.54
15.89
16.37
16.02
15
13.62
12.27
11.2
10.47
9.94
9.36
8.48
7.25
5.77
4.28
3.01
2.01
1.12
0.11
-1.29
-3.19
-5.52
-8.14
-10.84
-13.38
-15.52
-16.92
-17.26
-16.3
-14.08
-10.86
-7.09
-3.25
0.33
3.54
6.37
8.84
10.91
12.43
13.28
13.46
13.11
12.48
11.79
11.2
10.76
10.43
10.18
9.96
9.7
9.31
8.66
7.63
6.15
4.29
2.17
-0.03
-2.23
-4.46
-6.79
-9.25
-11.73
-13.91
-15.41
-15.87
-15.15
-13.27
-10.49
-7.12
-3.5
0.07
3.33
6.05
8.02
9.12
9.33
8.77
7.73
6.55
5.51
4.81
4.47
4.36
4.31
4.13
3.7
2.97
1.95
0.66
-0.84
-2.54
-4.4
-6.36
-8.38
-10.43
-12.51
-14.61
-16.6
-18.22
-19.07
-18.8
-17.23
-14.48
-10.91
-7
-3.16
0.42
3.65
6.49
8.75
10.17
10.51
9.76
8.24
6.44
4.9
3.89
3.41
3.19
2.93
2.45
1.76
0.97
0.22
-0.46
-1.16
-1.99
-3.11
-4.54
-6.29
-8.3
-10.47
-12.68
-14.74
-16.35
-17.18
-16.92
-15.4
-12.68
-9.03
-4.88
-0.69
3.19
6.53
9.23
11.19
12.33
12.6
12.08
10.98
9.64
8.39
7.4
6.65
5.96
5.13
4.12
3.02
2.04
1.28
0.68
0.02
-0.97
-2.46
-4.44
-6.77
-9.23
-11.6
-13.73
-15.45
-16.51
-16.6
-15.52
-13.2
-9.85
-5.89
-1.79
2.06
5.42
8.17
10.28
11.7
12.41
12.46
11.94
11.09
10.15
9.29
8.6
8.03
7.49
6.86
6.06
5.01
3.67
1.99
-0.02
-2.29
-4.71
-7.1
-9.29
-11.18
-12.79
-14.2
-15.57
-16.99
-18.43
-19.79
-20.87
-21.46
-21.44
-20.71
-19.24
-17.11
-14.52
-11.81
-9.47
-7.94
-7.51
-8.24
-9.96
-12.33
-14.97
-17.6
-20.09
-22.4
-24.41
-26.04
-27.36
-28.62
-30.01
-31.48
-32.62
-32.86
-31.67
-28.67
-24.07
-18.77
-13.94
-10.46
-8.53
-7.6
-6.81
-5.21
-1.71
4.26
12.45
21.92
31.51
40.21
47.3
52.38
55.51
57.8
60.57
64.62
69.75
74.87
78.42
78.89
75.59
65.07
47.34
26.33
7.82
-4.16
-8.92
-7.97
-3.53
2.03
7.58
11.53
12.49
9.84
4.3
-2.19
-7.28
-9.43
-8.48
-6.29
-4.13
-2.58
-1.46
-0.23
1.67
4.38
7.5
10.36
12.35
13.39
13.59
12.99
11.51
9.18
6.29
3.41
1.19
0.19
0.89
3.38
7.17
11.29
14.56
16.03
15.29
12.54
8.46
3.96
-0.21
-3.67
-6.45
-8.86
-11.29
-14.05
-17.26
-20.72
-23.97
-26.29
-26.97
-25.59
-22.24
-17.68
-13.15
-9.97
-9.1
-10.79
-14.5
-19.21
-23.86
-27.71
-30.47
-32.17
-32.93
-32.83
-32.03
-30.88
-30.08
-30.41
-32.36
-35.77
-39.73
-42.95
-44.32
-43.43
-40.7
-37.1
-33.6
-30.63
-27.81
-24.08
-18.15
-9.05
3.42
18.4
34.14
48.43
59.2
65.12
65.88
62.19
55.4
47
38.26
30.08
23.08
17.71
14.43
13.56
15.13
18.73
23.56
28.65
33.16
36.57
38.65
39.25
38.11
34.9
29.43
21.97
13.33
4.71
-2.74
-8.31
-11.88
-13.85
-14.72
-14.85
-14.37
-13.27
-11.66
-9.88
-8.53
-8.19
-9.21
-11.56
-14.93
-18.89
-23.18
-27.84
-33.14
-39.27
-46.08
-53.07
-59.42
-64.46
-67.92
-70.02
-71.36
-72.47
-73.57
-74.42
-74.55
-73.48
-70.97
-66.96
-61.54
-54.76
-46.65
-37.28
-26.83
-15.63
-4.12
7.29
18.29
28.7
38.39
47.23
55.01
61.59
66.92
71.2
74.79
78.09
81.35
84.5
87.23
89.17
90.15
90.49
90.88
92.12
94.71
98.5
102.7
106.07
107.38
105.76
101
93.41
83.76
72.98
62.01
51.73
42.86
35.93
31.21
28.71
28.08
28.81
30.35
32.31
34.58
37.31
40.7
44.79
49.32
53.68
57.11
58.9
58.63
56.25
52.12
46.93
41.41
36.16
31.37
26.65
21.03
13.35
2.69
-11.13
-27.3
-44.36
-60.72
-75.24
-87.55
-97.86
-106.52
-113.55
-118.49
-120.68
-119.73
-115.83
-109.75
-102.51
-94.94
-87.46
-80.09
-72.71
-65.43
-58.66
-52.95
-48.74
-46.06
-44.52
-43.37
-41.96
-39.89
-37.24
-34.4
-31.81
-29.76
-28.27
-27.14
-26.11
-25.05
-24.01
-23.13
-22.57
-22.39
-22.51
-22.83
-23.25
-23.69
-24.09
-24.39
-24.51
-24.27
-23.52
-22.1
-19.9
-16.95
-13.36
-9.34
-5.1
-0.85
3.24
6.95
10.08
12.39
13.72
14.11
13.73
12.94
12.13
11.57
11.36
11.4
11.49
11.4
10.99
10.19
9.07
7.71
6.18
4.49
2.56
0.25
-2.54
-5.83
-9.43
-12.97
-15.95
-17.92
-18.6
-17.99
-16.35
-14.02
-11.33
-8.46
-5.43
-2.24
1.03
4.17
6.86
8.86
10.04
10.49
10.43
10.13
9.78
9.47
9.24
9.07
8.97
8.96
9
9.01
8.84
8.39
7.63
6.56
5.24
3.64
1.7
-0.63
-3.37
-6.42
-9.51
-12.28
-14.3
-15.23
-14.86
-13.19
-10.44
-6.95
-3.1
0.78
4.43
7.65
10.26
12.04
12.81
12.53
11.37
9.71
8.03
6.69
5.88
5.5
5.29
4.98
4.37
3.44
2.34
1.25
0.32
-0.44
-1.11
-1.81
-2.66
-3.78
-5.25
-7.17
-9.58
-12.41
-15.36
-17.92
-19.48
-19.5
-17.78
-14.46
-10.02
-5.05
-0.03
4.66
8.81
12.24
14.77
16.25
16.67
16.18
15.12
13.87
12.74
11.84
11.11
10.37
9.41
8.18
6.75
5.32
4.06
3.06
2.26
1.46
0.46
-0.94
-2.78
-5.07
-7.7
-10.57
-13.47
-16.15
-18.22
-19.3
-19.07
-17.42
-14.49
-10.59
-6.08
-1.31
3.41
7.81
11.56
14.38
16.06
16.58
16.15
15.11
13.82
12.5
11.24
10.01
8.79
7.61
6.53
5.63
4.88
4.2
3.48
2.64
1.65
0.52
-0.73
-2.13
-3.78
-5.79
-8.23
-11.05
-14.08
-16.95
-19.15
-20.2
-19.71
-17.58
-14.01
-9.44
-4.44
0.47
4.89
8.54
11.27
13
13.73
13.54
12.62
11.29
9.83
8.5
7.41
6.51
5.69
4.8
3.75
2.51
1.12
-0.36
-1.88
-3.39
-4.9
-6.41
-7.98
-9.66
-11.5
-13.47
-15.41
-17
-17.83
-17.52
-15.85
-12.88
-8.89
-4.31
0.41
4.88
8.78
11.9
14.05
15.12
15.1
14.12
12.47
10.57
8.8
7.46
6.64
6.24
6
5.62
4.9
3.82
2.5
1.12
-0.16
-1.32
-2.42
-3.63
-5.13
-7.05
-9.48
-12.35
-15.34
-17.94
-19.5
-19.41
-17.39
-13.56
-8.46
-2.86
2.52
7.21
10.96
13.75
15.58
16.47
16.44
15.58
14.13
12.41
10.79
9.5
8.61
8.01
7.46
6.77
5.77
4.49
3.01
1.47
-0.07
-1.65
-3.42
-5.53
-8.07
-11.01
-14.13
-17.02
-19.18
-20.1
-19.41
-17.03
-13.13
-8.19
-2.76
2.64
7.63
12.01
15.59
18.16
19.47
19.32
17.71
14.98
11.75
8.74
6.48
5.14
4.47
4
3.3
2.2
0.8
-0.61
-1.8
-2.72
-3.55
-4.55
-5.95
-7.89
-10.3
-13.02
-15.7
-17.85
-18.92
-18.39
-16
-11.81
-6.23
0.05
6.31
11.91
16.38
19.44
21
21.14
20.09
18.21
15.94
13.68
11.67
10.01
8.67
7.56
6.54
5.51
4.37
3.04
1.5
-0.22
-2.02
-3.89
-5.87
-8.15
-10.88
-14
-17.12
-19.55
-20.49
-19.34
-15.97
-10.8
-4.66
1.53
7
11.35
14.47
16.45
17.41
17.44
16.64
15.16
13.25
11.21
9.32
7.71
6.33
5.06
3.76
2.35
0.87
-0.59
-2.01
-3.43
-5
-6.87
-9.18
-11.93
-14.96
-17.87
-20.12
-21.08
-20.28
-17.51
-12.99
-7.28
-1.1
4.86
10.13
14.44
17.72
19.88
20.89
20.8
19.76
18.12
16.24
14.44
12.84
11.42
10.11
8.84
7.6
6.41
5.27
4.08
2.76
1.22
-0.58
-2.68
-5.14
-8
-11.18
-14.3
-16.74
-17.73
-16.72
-13.6
-8.85
-3.34
2.07
6.71
10.38
13.11
15.03
16.16
16.43
15.77
14.3
12.35
10.36
8.73
7.68
7.18
7.02
6.91
6.61
6.01
5.14
4.07
2.87
1.53
-0.06
-2.06
-4.59
-7.62
-10.87
-13.85
-15.96
-16.62
-15.54
-12.7
-8.43
-3.28
2.19
7.42
12.04
15.73
18.28
19.5
19.36
18.01
15.76
13.11
10.52
8.31
6.54
5.12
3.9
2.77
1.71
0.73
-0.19
-1.13
-2.21
-3.47
-4.95
-6.64
-8.6
-10.93
-13.6
-16.35
-18.59
-19.55
-18.61
-15.54
-10.71
-4.85
1.15
6.68
11.43
15.36
18.43
20.53
21.44
21.02
19.45
17.17
14.81
12.86
11.55
10.75
10.13
9.37
8.29
6.91
5.36
3.79
2.26
0.75
-0.84
-2.64
-4.87
-7.64
-10.99
-14.72
-18.32
-21.07
-22.21
-21.23
-18.09
-13.27
-7.54
-1.72
3.59
8.07
11.61
14.14
15.55
15.79
14.92
13.24
11.22
9.34
7.94
7.09
6.71
6.6
6.6
6.6
6.5
6.2
5.58
4.57
3.17
1.5
-0.33
-2.25
-4.28
-6.52
-8.94
-11.32
-13.23
-14.13
-13.55
-11.35
-7.76
-3.32
1.3
5.51
8.87
11.17
12.34
12.43
11.56
9.96
7.92
5.79
3.91
2.52
1.73
1.47
1.52
1.59
1.42
0.87
-0.05
-1.18
-2.32
-3.33
-4.26
-5.28
-6.63
-8.44
-10.6
-12.76
-14.35
-14.87
-13.95
-11.58
-8.03
-3.79
0.59
4.61
7.94
10.31
11.61
11.77
10.84
9.02
6.64
4.11
1.81
0
-1.27
-2.11
-2.69
-3.21
-3.75
-4.38
-5.08
-5.86
-6.72
-7.7
-8.88
-10.38
-12.26
-14.42
-16.59
-18.25
-18.81
-17.82
-15.14
-11.07
-6.18
-1.18
3.41
7.31
10.46
12.85
14.43
15.08
14.69
13.3
11.14
8.59
6.05
3.83
2.08
0.82
0.01
-0.47
-0.72
-0.85
-0.92
-1
-1.14
-1.43
-2.02
-3.05
-4.62
-6.68
-8.92
-10.85
-11.92
-11.75
-10.2
-7.46
-3.95
-0.18
3.38
6.42
8.77
10.39
11.28
11.44
10.91
9.78
8.26
6.58
4.97
3.59
2.47
1.56
0.78
0.07
-0.61
-1.25
-1.84
-2.36
-2.79
-3.14
-3.52
-4.11
-5.15
-6.84
-9.14
-11.7
-13.92
-15.1
-14.76
-12.83
-9.62
-5.72
-1.72
1.97
5.16
7.77
9.72
10.86
11.05
10.28
8.75
6.85
5.02
3.57
2.61
2.02
1.61
1.19
0.67
0.04
-0.63
-1.3
-1.95
-2.6
-3.3
-4.13
-5.19
-6.57
-8.27
-10.14
-11.85
-12.96
-13.03
-11.8
-9.27
-5.75
-1.76
2.09
5.28
7.49
8.64
8.83
8.27
7.22
5.91
4.55
3.29
2.22
1.33
0.59
-0.07
-0.74
-1.41
-2.08
-2.68
-3.23
-3.82
-4.6
-5.72
-7.3
-9.32
-11.62
-13.89
-15.71
-16.65
-16.39
-14.82
-12.05
-8.38
-4.22
0.03
3.99
7.36
9.86
11.25
11.44
10.55
8.91
7.02
5.3
3.98
3.05
2.33
1.61
0.8
-0.04
-0.81
-1.43
-1.97
-2.59
-3.52
-4.94
-6.9
-9.35
-12.07
-14.74
-16.96
-18.25
-18.27
-16.81
-13.96
-10.03
-5.45
-0.66
3.97
8.19
11.77
14.47
16.02
16.26
15.29
13.45
11.31
9.36
7.94
7.05
6.46
5.88
5.15
4.3
3.47
2.79
2.24
1.63
0.73
-0.66
-2.59
-5
-7.71
-10.5
-13.04
-14.97
-15.88
-15.46
-13.58
-10.41
-6.36
-1.98
2.27
6.13
9.54
12.54
15.11
17.08
18.19
18.24
17.21
15.38
13.23
11.27
9.87
9.14
8.93
8.94
8.83
8.39
7.53
6.33
4.89
3.32
1.66
-0.12
-2.03
-4.03
-6.06
-8.02
-9.91
-11.76
-13.61
-15.37
-16.78
-17.43
-16.92
-15.03
-11.82
-7.65
-3.03
1.56
5.72
9.25
12.05
14.05
15.21
15.51
15.02
13.9
12.43
10.93
9.67
8.81
8.35
8.13
7.94
7.57
6.89
5.92
4.72
3.4
2.03
0.64
-0.73
-2.06
-3.36
-4.65
-6.04
-7.65
-9.55
-11.69
-13.84
-15.61
-16.58
-16.44
-15.07
-12.6
-9.3
-5.52
-1.57
2.32
5.94
9.12
11.67
13.39
14.14
13.91
12.81
11.11
9.14
7.22
5.58
4.38
3.66
3.38
3.43
3.62
3.76
3.65
3.16
2.27
1.04
-0.38
-1.81
-3.15
-4.33
-5.37
-6.41
-7.63
-9.14
-10.91
-12.68
-14
-14.35
-13.37
-11
-7.55
-3.54
0.5
4.14
7.17
9.52
11.15
12.03
12.14
11.55
10.42
9.05
7.74
6.73
6.08
5.68
5.33
4.82
4.03
2.96
1.73
0.45
-0.75
-1.84
-2.85
-3.82
-4.83
-5.89
-7.04
-8.32
-9.77
-11.4
-13.15
-14.83
-16.08
-16.54
-15.84
-13.86
-10.76
-6.96
-3.02
0.59
3.58
5.91
7.67
8.93
9.71
9.94
9.56
8.67
7.47
6.24
5.25
4.58
4.22
4.05
3.94
3.76
3.45
2.96
2.25
1.32
0.2
-1.02
-2.26
-3.44
-4.58
-5.78
-7.19
-8.92
-10.96
-13.13
-15.06
-16.27
-16.37
-15.12
-12.62
-9.24
-5.52
-1.96
1.14
3.7
5.8
7.5
8.8
9.55
9.67
9.15
8.14
6.92
5.73
4.7
3.86
3.15
2.49
1.81
1.06
0.27
-0.56
-1.4
-2.17
-2.85
-3.4
-3.88
-4.38
-5.07
-6.08
-7.5
-9.35
-11.48
-13.58
-15.25
-16.06
-15.69
-14.05
-11.3
-7.8
-3.99
-0.27
3.08
5.89
8.06
9.47
10.04
9.75
8.73
7.27
5.71
4.32
3.25
2.46
1.82
1.19
0.51
-0.17
-0.85
-1.52
-2.27
-3.18
-4.33
-5.72
-7.3
-9.04
-10.92
-12.9
-14.88
-16.62
-17.81
-18.09
-17.26
-15.32
-12.5
-9.15
-5.63
-2.24
0.84
3.52
5.66
7.12
7.73
7.48
6.51
5.13
3.7
2.51
1.65
1.07
0.61
0.12
-0.47
-1.14
-1.82
-2.43
-2.97
-3.52
-4.25
-5.37
-7.03
-9.26
-11.96
-14.81
-17.39
-19.23
-19.96
-19.34
-17.4
-14.39
-10.73
-6.87
-3.12
0.32
3.4
6.11
8.35
9.97
10.82
10.85
10.2
9.14
7.99
6.97
6.15
5.46
4.8
4.06
3.23
2.33
1.4
0.43
-0.61
-1.8
-3.27
-5.13
-7.51
-10.44
-13.78
-17.2
-20.19
-22.21
-22.78
-21.73
-19.16
-15.4
-10.9
-6.11
-1.39
2.92
6.54
9.25
10.87
11.39
10.97
9.9
8.54
7.14
5.88
4.78
3.87
3.11
2.52
2.05
1.66
1.22
0.62
-0.23
-1.37
-2.74
-4.31
-6.09
-8.09
-10.35
-12.73
-14.96
-16.57
-17.11
-16.26
-14.07
-10.84
-7.03
-3.05
0.88
4.67
8.26
11.42
13.8
15.02
14.9
13.59
11.54
9.35
7.45
6.05
5.09
4.39
3.82
3.31
2.81
2.28
1.58
0.58
-0.8
-2.53
-4.5
-6.65
-8.99
-11.55
-14.27
-16.82
-18.67
-19.2
-18.03
-15.16
-10.99
-6.17
-1.29
3.27
7.3
10.74
13.45
15.27
16.06
15.84
14.86
13.56
12.31
11.36
10.71
10.19
9.59
8.76
7.68
6.45
5.21
4.04
2.91
1.7
0.21
-1.76
-4.33
-7.5
-11
-14.36
-16.95
-18.12
-17.44
-14.85
-10.7
-5.62
-0.33
4.59
8.81
12.25
14.93
16.86
17.97
18.15
17.42
16
14.28
12.68
11.48
10.75
10.33
9.95
9.39
8.55
7.48
6.24
4.9
3.44
1.83
0.02
-2.04
-4.39
-7.05
-9.91
-12.68
-14.87
-15.88
-15.27
-12.9
-9.04
-4.23
0.89
5.82
10.25
14.03
17.02
19.03
19.9
19.56
18.16
16.12
13.95
12.11
10.86
10.13
9.65
9.02
7.99
6.48
4.63
2.67
0.8
-0.92
-2.59
-4.41
-6.55
-9.08
-11.94
-14.9
-17.62
-19.68
-20.68
-20.26
-18.29
-14.91
-10.52
-5.67
-0.93
3.22
6.48
8.68
9.8
9.84
8.9
7.14
4.78
2.13
-0.59
-3.14
-5.42
-7.31
-8.84
-10.13
-11.41
-12.91
-14.73
-16.7
-18.41
-19.41
-19.39
-18.45
-17.09
-16.03
-15.95
-17.27
-20.05
-24.08
-28.9
-33.88
-38.29
-41.3
-42.11
-40.17
-35.26
-27.72
-18.32
-8.11
1.8
10.54
17.67
23.16
27.32
30.52
33.04
35.03
36.48
37.46
38.12
38.67
39.32
40.11
40.87
41.3
41.12
40.15
38.46
36.25
33.83
31.48
29.33
27.37
25.48
23.59
21.65
19.72
17.92
16.38
15.25
14.65
14.72
15.58
17.27
19.68
22.52
25.37
27.8
29.5
30.39
30.61
30.46
30.28
30.29
30.52
30.76
30.66
29.84
28.05
25.21
21.53
17.34
13.06
9.02
5.37
2.14
-0.74
-3.32
-5.6
-7.47
-8.83
-9.61
-9.83
-9.55
-8.84
-7.71
-6.15
-4.21
-2.06
-0.07
1.33
1.73
0.99
-0.8
-3.27
-5.98
-8.49
-10.52
-11.97
-12.88
-13.4
-13.73
-14.05
-14.47
-15.03
-15.72
-16.5
-17.39
-18.47
-19.83
-21.51
-23.36
-25.02
-26.04
-26
-24.67
-22.09
-18.53
-14.36
-9.93
-5.52
-1.31
2.51
5.73
8.1
9.43
9.71
9.09
7.85
6.36
4.88
3.53
2.3
1.11
-0.16
-1.55
-3.01
-4.48
-5.87
-7.18
-8.46
-9.82
-11.39
-13.22
-15.3
-17.48
-19.62
-21.56
-23.16
-24.29
-24.76
-24.39
-22.99
-20.51
-17.08
-12.96
-8.47
-3.9
0.6
4.93
8.95
12.44
15.12
16.76
17.29
16.87
15.82
14.51
13.25
12.18
11.27
10.41
9.47
8.35
7.03
5.55
3.96
2.31
0.57
-1.33
-3.46
-5.87
-8.49
-11.23
-13.99
-16.76
-19.5
-22.16
-24.47
-26.02
-26.32
-24.97
-21.92
-17.49
-12.29
-6.98
-2.04
2.31
6.09
9.41
12.28
14.63
16.28
17.13
17.23
16.76
15.98
15.12
14.25
13.37
12.42
11.4
10.37
9.39
8.48
7.6
6.61
5.37
3.79
1.84
-0.42
-2.87
-5.39
-7.9
-10.34
-12.75
-15.21
-17.8
-20.5
-23.12
-25.31
-26.59
-26.52
-24.85
-21.64
-17.22
-12.1
-6.79
-1.71
2.9
6.9
10.2
12.72
14.39
15.24
15.4
15.15
14.8
14.55
14.45
14.38
14.19
13.79
13.22
12.57
11.92
11.22
10.3
9
7.27
5.2
3.01
0.93
-0.92
-2.55
-4.08
-5.68
-7.53
-9.77
-12.47
-15.55
-18.7
-21.44
-23.21
-23.55
-22.27
-19.51
-15.73
-11.51
-7.31
-3.4
0.19
3.53
6.66
9.52
11.94
13.72
14.71
14.94
14.54
13.75
12.79
11.84
11.02
10.38
9.95
9.7
9.55
9.33
8.85
7.93
6.48
4.51
2.2
-0.19
-2.42
-4.34
-5.94
-7.38
-8.87
-10.67
-12.91
-15.57
-18.39
-20.92
-22.59
-22.9
-21.56
-18.62
-14.51
-9.85
-5.29
-1.27
2.07
4.83
7.17
9.16
10.68
11.54
11.59
10.87
9.62
8.21
6.99
6.19
5.8
5.66
5.53
5.21
4.6
3.68
2.55
1.29
-0.04
-1.43
-2.92
-4.52
-6.2
-7.88
-9.49
-11.07
-12.74
-14.66
-16.84
-19.09
-20.96
-21.91
-21.5
-19.57
-16.28
-12.03
-7.33
-2.58
1.92
5.97
9.44
12.18
14.05
14.97
15
14.27
13.1
11.82
10.7
9.9
9.39
9
8.53
7.82
6.86
5.75
4.61
3.49
2.39
1.21
-0.12
-1.64
-3.33
-5.22
-7.38
-9.91
-12.9
-16.25
-19.59
-22.33
-23.83
-23.57
-21.4
-17.58
-12.66
-7.35
-2.24
2.28
6.06
9.09
11.4
12.95
13.65
13.49
12.56
11.11
9.55
8.25
7.46
7.23
7.37
7.59
7.61
7.28
6.62
5.76
4.86
4
3.14
2.16
0.92
-0.65
-2.57
-4.79
-7.28
-9.95
-12.59
-14.84
-16.17
-16.07
-14.29
-10.97
-6.64
-1.99
2.4
6.23
9.48
12.22
14.4
15.83
16.27
15.61
14.03
12.01
10.11
8.77
8.12
7.98
8
7.81
7.27
6.41
5.4
4.43
3.56
2.68
1.59
0.09
-1.9
-4.3
-6.96
-9.69
-12.32
-14.67
-16.48
-17.42
-17.15
-15.49
-12.49
-8.52
-4.09
0.28
4.18
7.42
9.94
11.71
12.7
12.85
12.19
10.85
9.13
7.37
5.91
4.94
4.47
4.33
4.28
4.1
3.69
3.04
2.25
1.4
0.52
-0.45
-1.66
-3.25
-5.24
-7.53
-9.86
-11.86
-13.23
-13.71
-13.24
-11.83
-9.59
-6.64
-3.14
0.69
4.55
8.04
10.75
12.35
12.77
12.18
10.95
9.46
8.03
6.77
5.69
4.7
3.73
2.74
1.71
0.6
-0.63
-1.99
-3.46
-4.97
-6.45
-7.91
-9.49
-11.4
-13.74
-16.37
-18.84
-20.51
-20.79
-19.43
-16.55
-12.61
-8.18
-3.74
0.41
4.13
7.31
9.79
11.39
12.03
11.78
10.89
9.69
8.49
7.4
6.36
5.23
3.91
2.41
0.91
-0.4
-1.37
-2
-2.49
-3.12
-4.17
-5.82
-8.09
-10.8
-13.6
-16.01
-17.53
-17.72
-16.37
-13.55
-9.63
-5.15
-0.65
3.47
6.97
9.76
11.79
13.04
13.48
13.18
12.27
10.97
9.5
8.05
6.7
5.46
4.28
3.13
1.98
0.88
-0.13
-1.04
-1.87
-2.75
-3.88
-5.48
-7.64
-10.27
-12.99
-15.2
-16.26
-15.7
-13.36
-9.52
-4.71
0.38
5.17
9.27
12.46
14.67
15.88
16.15
15.59
14.45
13.02
11.58
10.3
9.19
8.15
7.06
5.83
4.51
3.18
1.99
0.98
0.13
-0.66
-1.61
-2.91
-4.75
-7.17
-9.99
-12.78
-14.94
-15.83
-15.02
-12.46
-8.51
-3.83
0.87
5.04
8.37
10.83
12.49
13.38
13.5
12.87
11.6
9.94
8.29
6.94
6.04
5.5
5.11
4.63
4
3.29
2.61
2.02
1.44
0.63
-0.66
-2.59
-5.15
-8.13
-11.17
-13.83
-15.67
-16.35
-15.68
-13.66
-10.5
-6.58
-2.37
1.67
5.16
7.85
9.63
10.5
10.61
10.18
9.46
8.71
8.08
7.65
7.36
7.1
6.77
6.29
5.65
4.85
3.93
2.87
1.63
0.14
-1.71
-3.96
-6.61
-9.52
-12.38
-14.74
-16.09
-16.02
-14.39
-11.36
-7.34
-2.87
1.56
5.59
8.98
11.56
13.19
13.76
13.28
11.94
10.08
8.1
6.33
4.95
3.94
3.15
2.4
1.58
0.72
-0.11
-0.83
-1.45
-2.15
-3.17
-4.76
-7.01
-9.76
-12.53
-14.72
-15.75
-15.24
-13.21
-9.94
-5.96
-1.82
2.04
5.32
7.87
9.61
10.49
10.52
9.8
8.5
6.9
5.25
3.74
2.48
1.47
0.73
0.24
-0.03
-0.19
-0.41
-0.88
-1.8
-3.28
-5.34
-7.86
-10.6
-13.21
-15.26
-16.33
-16.11
-14.46
-11.55
-7.78
-3.67
0.26
3.65
6.29
8.15
9.26
9.72
9.63
9.07
8.14
6.96
5.63
4.28
3.02
1.91
0.99
0.23
-0.45
-1.16
-2.03
-3.13
-4.45
-5.99
-7.71
-9.58
-11.52
-13.34
-14.74
-15.32
-14.75
-12.85
-9.75
-5.81
-1.55
2.54
6.09
8.87
10.79
11.81
11.93
11.24
9.92
8.26
6.61
5.25
4.35
3.87
3.68
3.56
3.35
2.94
2.32
1.46
0.4
-0.88
-2.44
-4.37
-6.73
-9.45
-12.27
-14.74
-16.32
-16.59
-15.37
-12.79
-9.21
-5.1
-0.87
3.16
6.78
9.82
12.09
13.45
13.83
13.31
12.16
10.74
9.4
8.4
7.77
7.36
6.88
6.09
4.9
3.45
2.04
0.97
0.39
0.16
-0.01
-0.54
-1.76
-3.8
-6.48
-9.37
-11.87
-13.38
-13.49
-12.12
-9.53
-6.2
-2.63
0.78
3.86
6.59
8.95
10.91
12.33
13.11
13.2
12.69
11.76
10.62
9.5
8.55
7.86
7.37
6.97
6.44
5.63
4.5
3.14
1.74
0.5
-0.51
-1.35
-2.16
-3.13
-4.41
-6.08
-8.12
-10.37
-12.52
-14.12
-14.69
-13.91
-11.73
-8.41
-4.41
-0.23
3.73
7.19
9.99
11.95
12.96
12.93
11.97
10.38
8.61
7.13
6.23
5.95
6.08
6.28
6.24
5.82
5.08
4.21
3.41
2.75
2.17
1.51
0.64
-0.49
-1.84
-3.35
-5.06
-7.04
-9.33
-11.78
-14
-15.47
-15.69
-14.44
-11.85
-8.34
-4.47
-0.68
2.73
5.69
8.17
10.14
11.49
12.08
11.83
10.84
9.37
7.77
6.39
5.45
4.95
4.76
4.66
4.49
4.19
3.76
3.24
2.62
1.81
0.72
-0.72
-2.47
-4.45
-6.55
-8.71
-10.96
-13.26
-15.52
-17.44
-18.57
-18.5
-17.01
-14.2
-10.46
-6.33
-2.27
1.46
4.79
7.72
10.17
11.96
12.89
12.86
11.98
10.57
8.99
7.57
6.51
5.87
5.56
5.48
5.42
5.2
4.7
3.86
2.77
1.59
0.41
-0.73
-1.93
-3.32
-5.02
-7.04
-9.28
-11.57
-13.69
-15.35
-16.26
-16.13
-14.8
-12.28
-8.8
-4.75
-0.6
3.22
6.44
8.86
10.43
11.12
11.02
10.29
9.14
7.85
6.66
5.73
5.12
4.78
4.6
4.47
4.29
4
3.59
3.05
2.36
1.5
0.41
-0.92
-2.52
-4.32
-6.23
-8.16
-10.07
-11.93
-13.73
-15.32
-16.45
-16.74
-15.9
-13.8
-10.62
-6.79
-2.85
0.77
3.8
6.15
7.83
8.84
9.14
8.74
7.77
6.47
5.17
4.16
3.6
3.41
3.41
3.33
3
2.4
1.66
0.9
0.19
-0.53
-1.38
-2.47
-3.86
-5.53
-7.41
-9.42
-11.43
-13.24
-14.56
-15.05
-14.43
-12.64
-9.84
-6.4
-2.77
0.69
3.72
6.23
8.18
9.49
10.08
9.88
8.89
7.27
5.32
3.41
1.9
0.98
0.62
0.59
0.6
0.35
-0.29
-1.28
-2.51
-3.84
-5.18
-6.54
-8.01
-9.66
-11.55
-13.65
-15.81
-17.78
-19.18
-19.61
-18.8
-16.69
-13.48
-9.56
-5.37
-1.3
2.43
5.63
8.18
9.93
10.76
10.67
9.83
8.61
7.42
6.57
6.19
6.17
6.29
6.3
6.05
5.52
4.75
3.84
2.84
1.73
0.48
-0.96
-2.59
-4.48
-6.73
-9.43
-12.53
-15.69
-18.3
-19.56
-18.85
-16.01
-11.46
-6.08
-0.86
3.52
6.82
9.32
11.43
13.49
15.5
17.17
18.11
17.98
16.66
14.2
10.77
6.55
1.8
-3.19
-8.04
-12.46
-16.53
-20.88
-26.63
-34.94
-46.38
-60.31
-74.72
-86.57
-92.62
-90.36
-78.74
-58.37
-31.4
-0.93
29.47
56.14
75.71
85.43
83.77
71
49.56
23.92
-0.33
-17.79
-24.8
-20.38
-6.48
12.86
32.79
49.13
59.23
62.39
59.48
52.31
42.92
33.09
24.03
16.45
10.6
6.4
3.51
1.31
-0.94
-3.87
-7.79
-12.54
-17.53
-21.87
-24.75
-25.63
-24.42
-21.44
-17.34
-12.85
-8.59
-5.01
-2.23
-0.15
1.4
2.6
3.45
3.88
3.71
2.85
1.39
-0.42
-2.2
-3.65
-4.59
-5.07
-5.33
-5.59
-5.98
-6.43
-6.72
-6.59
-5.93
-4.88
-3.85
-3.34
-3.82
-5.48
-8.21
-11.52
-14.72
-17.1
-18.09
-17.49
-15.37
-12.08
-8.04
-3.63
0.91
5.43
9.72
13.5
16.41
18.13
18.56
17.83
16.31
14.44
12.58
10.9
9.42
8.07
6.79
5.53
4.28
3.03
1.76
0.44
-0.94
-2.42
-4.03
-5.88
-8.13
-10.9
-14.22
-17.82
-21.21
-23.74
-24.79
-24
-21.35
-17.18
-12.06
-6.57
-1.19
3.81
8.26
12.09
15.17
17.37
18.61
18.86
18.28
17.14
15.79
14.51
13.53
12.87
12.42
12.02
11.49
10.7
9.58
8.14
6.41
4.5
2.5
0.51
-1.46
-3.49
-5.75
-8.4
-11.53
-15
-18.41
-21.16
-22.58
-22.13
-19.62
-15.35
-9.95
-4.25
1.06
5.63
9.42
12.62
15.38
17.71
19.43
20.36
20.45
19.86
18.89
17.83
16.9
16.14
15.51
14.94
14.35
13.67
12.82
11.7
10.22
8.33
6.06
3.54
0.93
-1.59
-3.95
-6.19
-8.48
-11.03
-14.01
-17.36
-20.74
-23.54
-25.02
-24.6
-22.02
-17.48
-11.6
-5.19
0.98
6.39
10.77
14.11
16.44
17.84
18.36
18.13
17.36
16.33
15.32
14.51
13.9
13.39
12.8
12.01
10.96
9.69
8.25
6.69
5.05
3.36
1.66
-0.04
-1.75
-3.51
-5.4
-7.5
-9.83
-12.36
-14.95
-17.38
-19.34
-20.46
-20.42
-19
-16.23
-12.33
-7.72
-2.82
1.97
6.39
10.25
13.42
15.76
17.15
17.52
16.94
15.64
13.99
12.37
11.08
10.24
9.78
9.46
9.01
8.21
7.02
5.54
3.96
2.44
1.04
-0.33
-1.85
-3.66
-5.83
-8.33
-11.01
-13.65
-15.97
-17.66
-18.4
-18
-16.4
-13.69
-10.15
-6.06
-1.76
2.47
6.32
9.5
11.71
12.78
12.72
11.76
10.29
8.69
7.27
6.16
5.37
4.78
4.29
3.79
3.2
2.46
1.51
0.32
-1.11
-2.84
-4.87
-7.22
-9.9
-12.83
-15.78
-18.45
-20.4
-21.27
-20.78
-18.84
-15.59
-11.35
-6.53
-1.57
3.13
7.27
10.61
13.01
14.39
14.73
14.1
12.68
10.77
8.73
6.9
5.51
4.59
4.01
3.54
2.94
2.08
0.93
-0.47
-2.06
-3.83
-5.85
-8.21
-10.98
-14.11
-17.38
-20.41
-22.69
-23.73
-23.17
-20.97
-17.33
-12.69
-7.53
-2.26
2.78
7.35
11.21
14.15
15.97
16.61
16.16
14.94
13.36
11.77
10.37
9.17
8.01
6.7
5.15
3.42
1.66
0.07
-1.29
-2.45
-3.6
-4.97
-6.8
-9.26
-12.38
-15.96
-19.55
-22.49
-24.02
-23.6
-21.05
-16.7
-11.22
-5.39
0.2
5.23
9.65
13.48
16.66
19.02
20.35
20.55
19.74
18.24
16.45
14.7
13.17
11.89
10.77
9.69
8.53
7.22
5.71
4.02
2.18
0.26
-1.73
-3.78
-5.96
-8.36
-11.07
-14.11
-17.34
-20.45
-22.97
-24.36
-24.19
-22.2
-18.51
-13.49
-7.74
-1.82
3.82
8.95
13.45
17.23
20.15
21.96
22.52
21.83
20.18
18.05
15.98
14.36
13.3
12.69
12.25
11.72
10.94
9.89
8.59
7.04
5.24
3.19
0.95
-1.4
-3.75
-6.1
-8.49
-11.07
-13.93
-16.98
-19.85
-21.97
-22.65
-21.4
-18.13
-13.23
-7.41
-1.5
3.89
8.47
12.21
15.17
17.32
18.54
18.69
17.85
16.35
14.7
13.36
12.55
12.18
11.9
11.37
10.39
8.98
7.35
5.71
4.21
2.9
1.71
0.56
-0.68
-2.09
-3.76
-5.75
-8.11
-10.79
-13.62
-16.25
-18.18
-18.88
-17.97
-15.34
-11.29
-6.39
-1.29
3.47
7.57
10.89
13.41
15.05
15.71
15.36
14.15
12.44
10.69
9.32
8.51
8.21
8.18
8.11
7.77
7.02
5.86
4.39
2.8
1.29
-0.01
-1.09
-2.12
-3.37
-5.11
-7.5
-10.48
-13.71
-16.65
-18.7
-19.34
-18.31
-15.63
-11.62
-6.8
-1.74
3.11
7.41
10.93
13.5
14.95
15.21
14.31
12.51
10.23
8.01
6.31
5.34
5.04
5.06
4.96
4.39
3.24
1.68
-0.01
-1.55
-2.84
-3.97
-5.15
-6.59
-8.42
-10.66
-13.26
-16.1
-18.91
-21.26
-22.59
-22.41
-20.48
-16.99
-12.46
-7.56
-2.81
1.57
5.56
9.18
12.29
14.57
15.72
15.61
14.49
12.84
11.22
9.98
9.17
8.63
8.09
7.33
6.3
5.05
3.68
2.31
0.98
-0.33
-1.69
-3.24
-5.09
-7.35
-9.96
-12.77
-15.43
-17.5
-18.53
-18.18
-16.37
-13.28
-9.33
-5
-0.75
3.11
6.43
9.12
11.1
12.32
12.77
12.52
11.73
10.65
9.51
8.45
7.54
6.73
5.97
5.2
4.37
3.48
2.53
1.52
0.46
-0.68
-2
-3.58
-5.52
-7.88
-10.58
-13.4
-15.95
-17.75
-18.37
-17.58
-15.42
-12.22
-8.43
-4.45
-0.56
3.07
6.35
9.08
11
11.89
11.66
10.49
8.76
6.92
5.33
4.16
3.42
3.03
2.86
2.79
2.72
2.48
1.96
1.08
-0.14
-1.55
-3.02
-4.45
-5.89
-7.48
-9.35
-11.45
-13.52
-15.13
-15.78
-15.14
-13.17
-10.1
-6.35
-2.38
1.43
4.8
7.5
9.33
10.15
9.95
8.88
7.32
5.69
4.38
3.54
3.13
2.93
2.69
2.21
1.44
0.47
-0.54
-1.44
-2.13
-2.67
-3.23
-4.06
-5.37
-7.24
-9.48
-11.69
-13.36
-14.02
-13.44
-11.66
-8.95
-5.68
-2.23
1.07
3.96
6.22
7.68
8.27
8.08
7.33
6.34
5.36
4.52
3.8
3.07
2.26
1.36
0.46
-0.35
-1
-1.55
-2.14
-2.95
-4.12
-5.7
-7.64
-9.76
-11.84
-13.58
-14.68
-14.92
-14.21
-12.59
-10.23
-7.38
-4.22
-0.91
2.45
5.69
8.58
10.79
12.05
12.23
11.48
10.15
8.69
7.43
6.44
5.58
4.64
3.49
2.16
0.84
-0.26
-1.06
-1.61
-2.13
-2.87
-4.03
-5.71
-7.91
-10.46
-13.03
-15.18
-16.39
-16.27
-14.67
-11.74
-7.91
-3.74
0.31
3.94
7.01
9.48
11.33
12.5
12.96
12.78
12.06
11.05
9.97
8.99
8.16
7.4
6.57
5.54
4.28
2.84
1.33
-0.11
-1.47
-2.79
-4.2
-5.84
-7.86
-10.21
-12.73
-15.06
-16.73
-17.29
-16.43
-14.14
-10.66
-6.48
-2.06
2.16
5.99
9.32
12.16
14.43
16
16.72
16.5
15.42
13.76
11.94
10.35
9.24
8.65
8.37
8.11
7.61
6.75
5.56
4.13
2.62
1.1
-0.4
-1.88
-3.38
-4.98
-6.76
-8.79
-11.09
-13.47
-15.6
-17.02
-17.27
-16.12
-13.63
-10.17
-6.24
-2.32
1.29
4.51
7.36
9.86
11.98
13.53
14.37
14.39
13.66
12.41
10.95
9.6
8.58
7.95
7.62
7.41
7.13
6.67
5.97
5.05
3.96
2.74
1.42
0.05
-1.34
-2.74
-4.19
-5.8
-7.66
-9.84
-12.19
-14.44
-16.15
-16.89
-16.4
-14.63
-11.79
-8.24
-4.38
-0.58
2.91
5.93
8.35
10.11
11.14
11.43
11.05
10.14
8.96
7.74
6.73
6.05
5.73
5.66
5.69
5.64
5.38
4.85
4.06
3.05
1.87
0.55
-0.85
-2.31
-3.73
-5.08
-6.37
-7.7
-9.19
-10.89
-12.68
-14.2
-15
-14.66
-13
-10.2
-6.66
-2.91
0.63
3.72
6.27
8.27
9.64
10.27
10.09
9.18
7.76
6.21
4.85
3.84
3.21
2.83
2.58
2.37
2.14
1.82
1.31
0.47
-0.75
-2.31
-4.09
-5.95
-7.87
-9.88
-12.08
-14.42
-16.68
-18.45
-19.31
-18.99
-17.46
-14.95
-11.76
-8.21
-4.5
-0.76
2.84
6.11
8.8
10.7
11.7
11.84
11.28
10.23
8.9
7.52
6.28
5.33
4.72
4.38
4.1
3.66
2.87
1.72
0.26
-1.35
-2.98
-4.57
-6.12
-7.69
-9.33
-11.11
-13.04
-15.05
-16.94
-18.38
-19.01
-18.51
-16.76
-13.85
-10.08
-5.84
-1.54
2.49
6
8.81
10.84
12.03
12.4
12.03
11.09
9.8
8.48
7.39
6.69
6.37
6.27
6.16
5.81
5.08
3.99
2.65
1.22
-0.2
-1.64
-3.18
-4.93
-6.97
-9.25
-11.65
-13.97
-16.01
-17.57
-18.42
-18.38
-17.31
-15.19
-12.15
-8.44
-4.42
-0.44
3.21
6.38
9.01
11.03
12.41
13.12
13.16
12.57
11.5
10.13
8.73
7.52
6.69
6.25
6.1
6
5.71
5.1
4.2
3.12
2.02
0.96
-0.14
-1.39
-2.94
-4.81
-6.92
-9.17
-11.39
-13.41
-14.99
-15.85
-15.68
-14.29
-11.73
-8.28
-4.37
-0.45
3.19
6.42
9.19
11.42
13.02
13.84
13.84
13.13
11.98
10.69
9.52
8.58
7.83
7.18
6.49
5.69
4.77
3.79
2.82
1.91
1.02
0.05
-1.14
-2.62
-4.33
-6.13
-7.83
-9.35
-10.7
-11.94
-13.06
-13.85
-13.97
-13.06
-10.97
-7.87
-4.16
-0.39
3.02
5.83
7.99
9.56
10.58
11
10.76
9.87
8.46
6.82
5.31
4.23
3.7
3.61
3.68
3.58
3.1
2.25
1.25
0.33
-0.35
-0.83
-1.31
-2.06
-3.24
-4.86
-6.78
-8.8
-10.68
-12.17
-13.05
-13.07
-12.11
-10.18
-7.5
-4.4
-1.26
1.61
4.02
5.91
7.23
7.97
8.1
7.65
6.76
5.59
4.39
3.31
2.44
1.78
1.24
0.76
0.24
-0.4
-1.21
-2.22
-3.4
-4.69
-5.97
-7.21
-8.48
-9.94
-11.79
-14.05
-16.5
-18.65
-19.94
-19.87
-18.25
-15.22
-11.17
-6.58
-1.88
2.6
6.59
9.84
12.11
13.29
13.44
12.88
12.04
11.37
11.1
11.16
11.23
10.89
9.89
8.24
6.24
4.27
2.65
1.41
0.34
-0.88
-2.5
-4.6
-7.05
-9.64
-12.14
-14.31
-15.93
-16.73
-16.47
-15.06
-12.66
-9.67
-6.61
-3.87
-1.49
0.79
3.41
6.61
10.2
13.61
16.06
16.98
16.19
14.03
11.1
8.07
5.41
3.37
2.12
1.83
2.66
4.66
7.54
10.66
13.17
14.29
13.53
10.89
6.74
1.68
-3.67
-8.68
-12.76
-15.39
-16.25
-15.25
-12.62
-8.86
-4.61
-0.45
3.16
5.99
7.92
8.95
9.16
8.69
7.69
6.35
4.88
3.44
2.23
1.38
0.99
1.03
1.35
1.71
1.89
1.71
1.16
0.26
-0.92
-2.34
-4
-5.91
-7.99
-10.04
-11.75
-12.76
-12.75
-11.58
-9.29
-6.14
-2.56
0.99
4.12
6.57
8.26
9.21
9.49
9.16
8.3
7.04
5.6
4.21
3.09
2.3
1.77
1.35
0.88
0.29
-0.41
-1.19
-2.07
-3.15
-4.57
-6.43
-8.74
-11.33
-13.9
-16.04
-17.32
-17.43
-16.24
-13.85
-10.54
-6.68
-2.62
1.42
5.28
8.82
11.85
14.19
15.67
16.27
16.13
15.43
14.35
12.97
11.24
9.1
6.54
3.73
1
-1.2
-2.46
-2.6
-1.74
-0.33
0.95
1.42
0.57
-1.75
-5.27
-9.43
-13.49
-16.72
-18.56
-18.67
-17.05
-13.98
-9.96
-5.52
-1.09
3.06
6.81
10.04
12.61
14.29
14.94
14.53
13.26
11.43
9.33
7.2
5.15
3.33
1.95
1.23
1.32
2.14
3.34
4.4
4.82
4.33
2.9
0.76
-1.8
-4.53
-7.27
-9.94
-12.41
-14.43
-15.67
-15.82
-14.66
-12.23
-8.86
-5.09
-1.47
1.54
3.73
5.15
6.02
6.6
7.08
7.51
7.85
7.99
7.88
7.53
6.99
6.36
5.77
5.34
5.25
5.62
6.51
7.82
9.28
10.51
11.05
10.59
8.99
6.31
2.8
-1.2
-5.35
-9.29
-12.66
-15.09
-16.26
-15.99
-14.28
-11.35
-7.61
-3.54
0.42
3.97
6.95
9.3
10.96
11.86
11.86
10.94
9.2
6.94
4.62
2.74
1.7
1.61
2.33
3.44
4.47
5.02
4.91
4.16
2.96
1.52
-0
-1.54
-3.11
-4.75
-6.52
-8.43
-10.45
-12.45
-14.18
-15.29
-15.46
-14.47
-12.33
-9.24
-5.54
-1.59
2.27
5.74
8.52
10.32
10.95
10.41
8.97
7.13
5.41
4.18
3.55
3.36
3.35
3.28
3.03
2.6
2.02
1.35
0.6
-0.23
-1.18
-2.25
-3.48
-4.91
-6.6
-8.55
-10.68
-12.75
-14.44
-15.37
-15.21
-13.82
-11.28
-7.89
-4.06
-0.21
3.32
6.34
8.73
10.38
11.24
11.25
10.48
9.18
7.69
6.39
5.52
5.11
5.02
5.01
4.85
4.43
3.76
2.92
2
1
-0.11
-1.44
-3.04
-4.89
-6.92
-9.04
-11.12
-13.03
-14.57
-15.45
-15.39
-14.15
-11.68
-8.21
-4.17
-0.12
3.5
6.44
8.67
10.21
11.1
11.31
10.81
9.69
8.19
6.69
5.53
4.87
4.65
4.62
4.52
4.17
3.57
2.84
2.05
1.2
0.19
-1.1
-2.72
-4.61
-6.63
-8.66
-10.62
-12.46
-14.13
-15.51
-16.39
-16.48
-15.55
-13.47
-10.27
-6.16
-1.52
3.17
7.38
10.68
12.75
13.49
13.06
