-45.38
-64.92
-79.05
-86.17
-84.73
-74.65
-57.62
-37.72
-20.48
-11.03
-10.68
-18.71
-31.1
-42.51
-48.92
-49.11
-44.92
-39.79
-36.35
-34.81
-33.13
-28.32
-18.84
-6.11
6.33
14.65
16.94
14.32
10.57
10.15
16.22
28.82
44.76
59.15
67.58
67.95
61.2
50.59
39.95
32.1
27.87
26.38
25.88
24.74
21.95
17.33
11.57
6.47
5.03
10.85
26.88
53.96
89.76
129.07
165.15
191.95
205.86
206.3
195.07
175.02
148.93
119.1
87.33
55.24
24.44
-3.41
-26.65
-43.82
-54.09
-57.76
-56.4
-52.72
-49.69
-49.34
-52.04
-56.44
-60.38
-62.22
-61.72
-60.15
-59.43
-60.87
-64.46
-68.84
-72.01
-72.31
-69.02
-62.6
-54.31
-45.65
-37.72
-30.99
-25.32
-20.35
-15.76
-11.62
-8.26
-6.02
-5.03
-4.9
-5.01
-4.72
-3.74
-2.3
-1.02
-0.56
-1.26
-2.95
-5.03
-6.86
-8.16
-9.17
-10.64
-13.46
-18.17
-24.67
-32.23
-39.72
-46.14
-50.95
-54.15
-56.15
-57.48
-58.46
-59.08
-59.06
-57.97
-55.43
-51.19
-45.03
-36.79
-26.48
-14.57
-2.3
8.41
15.44
17.32
14
7.11
-0.58
-6.17
-7.77
-5.02
1.14
9.24
17.98
26.46
34
39.86
43.27
44.01
42.71
41.02
40.88
43.63
49.17
55.88
61.22
62.89
59.84
52.74
43.69
35.18
29.01
25.55
23.72
21.49
16.89
8.86
-2.36
-15.38
-28.26
-39.23
-47.16
-51.61
-52.63
-50.35
-44.86
-36.25
-24.88
-11.73
1.56
12.98
20.65
23.45
21.39
15.49
7.27
-1.77
-10.59
-18.58
-25.37
-30.61
-33.91
-35.02
-34.04
-31.55
-28.39
-25.35
-22.81
-20.65
-18.46
-15.85
-12.7
-9.19
-5.7
-2.61
-0.19
1.41
2.11
1.92
1.07
0.01
-0.62
-0.21
1.5
4.23
7.25
9.67
10.76
10.23
8.23
5.27
2.01
-0.9
-2.95
-3.76
-3.21
-1.4
1.37
4.65
7.93
10.79
12.91
14.07
14.12
12.95
10.57
7.12
2.93
-1.55
-5.76
-9.15
-11.32
-12.05
-11.37
-9.48
-6.74
-3.54
-0.25
2.86
5.57
7.71
9.2
10.07
10.51
10.89
11.71
13.38
16.06
19.5
23.17
26.36
28.48
29.17
28.45
26.52
23.73
20.42
16.92
13.52
10.38
7.54
4.84
2.08
-0.92
-4.17
-7.47
-10.53
-13.11
-15.19
-17.01
-19.01
-21.72
-25.59
-30.84
-37.35
-44.59
-51.62
-57.33
-60.68
-61.04
-58.4
-53.29
-46.56
-39.09
-31.45
-23.93
-16.61
-9.43
-2.36
4.51
10.88
16.27
20.14
22.12
22.15
20.5
17.61
13.87
9.29
3.48
-4.19
-14.13
-26.14
-39.31
-52.12
-62.92
-70.23
-73.04
-70.84
-63.68
-52.12
-37.13
-19.92
-1.76
16.23
33.12
48.16
60.74
70.35
76.7
80.05
81.31
81.91
83.29
86.27
90.7
95.62
99.69
101.8
101.32
98.27
93.13
86.56
79.33
72.09
65.38
59.52
54.69
50.99
48.46
47.1
46.69
46.71
46.33
44.77
41.68
37.35
32.6
28.41
25.45
23.87
23.43
23.81
24.72
25.87
26.73
26.39
23.66
17.42
7.06
-7.14
-24.04
-41.93
-58.98
-73.7
-85.14
-92.92
-97.1
-98.04
-96.2
-91.93
-85.36
-76.21
-63.83
-47.44
-26.69
-2.23
24.06
49.24
70.07
83.86
89.3
86.66
77.51
64.01
48.27
31.96
16.25
2.05
-9.83
-18.69
-24.15
-26.41
-26.31
-25.1
-24.01
-23.82
-24.69
-26.26
-27.97
-29.49
-30.82
-32.24
-34.07
-36.44
-39.21
-41.98
-44.35
-46.07
-47.15
-47.85
-48.51
-49.28
-50.05
-50.36
-49.6
-47.23
-43.01
-37.05
-29.61
-20.93
-11.09
-0.22
11.3
22.53
32.19
38.99
42.24
42.21
39.99
37.08
34.72
33.45
33.08
33.06
32.89
32.43
31.96
31.78
32.07
32.62
32.98
32.66
31.45
29.44
26.97
24.41
21.92
19.43
16.71
13.58
10.1
6.59
3.49
1.09
-0.59
-2.01
-3.91
-7.13
-12.29
-19.46
-28.04
-36.88
-44.49
-49.48
-50.91
-48.56
-43.16
-36.22
-29.66
-25.3
-24.14
-26.18
-30.37
-35.15
-39.09
-41.42
-42.16
-41.82
-40.99
-40.1
-39.32
-38.54
-37.51
-35.79
-32.81
-28.14
-21.84
-14.77
-8.61
-5.35
-6.47
-12.06
-20.56
-29.06
-34.4
-34.32
-28.29
-17.52
-4.33
8.84
20.2
28.9
34.92
38.61
40.37
40.49
39.11
36.12
30.93
22.38
9.22
-9.1
-31.67
-55.76
-77.45
-92.81
-99.17
-95.77
-83.51
-64.14
-39.38
-10.83
19.7
49.72
76.14
96.27
108.92
114.96
116.75
117
117.43
118.27
118.35
115.88
109.45
98.59
83.85
66.63
48.94
33.11
21.28
14.68
12.74
13.43
13.93
11.68
5.45
-4.07
-14.4
-22.35
-25.22
-22.48
-14.89
-4.06
7.82
18.17
24.55
25.28
19.62
7.88
-10.16
-32.86
-56.8
-78.27
-95.26
-108
-118.33
-128.5
-140.07
-155.51
-174
-191.63
-204.01
-209.49
-209.86
-208.81
-209.79
-214.39
-224.82
-239.23
-252.22
-257.85
-252.72
-236.28
-209.41
-173.33
-110.57
-22.09
73.59
153.53
205.75
230.82
235.56
227.92
214.47
199.65
182.97
165.04
148.57
136.71
130.01
125.75
119.49
107.4
87.91
60.33
28.57
-0.03
-18.4
-23.37
-16.44
-1.98
15.07
31.02
42.48
48.58
50.5
50.06
47.85
44.11
39.42
34.76
31.11
28.31
25.89
23.4
20.39
16.28
10.73
3.93
-3.47
-10.52
-16.58
-21.04
-23.38
-23.28
-20.79
-16.24
-10.21
-3.4
3.52
9.96
15.55
20.02
23.2
24.85
24.86
23.29
20.53
17.35
14.71
13.42
13.81
15.59
17.94
19.85
20.45
19.32
16.49
12.38
7.62
2.85
-1.37
-4.61
-6.62
-7.33
-6.88
-5.56
-3.75
-1.82
-0.14
0.97
1.33
0.79
-0.69
-3.01
-5.97
-9.21
-12.31
-14.84
-16.42
-16.79
-15.86
-13.8
-11.08
-8.38
-6.47
-6
-7.29
-10.18
-14.03
-17.9
-20.84
-22.15
-21.6
-19.46
-16.23
-12.47
-8.57
-4.71
-0.91
2.83
6.4
9.66
12.48
14.85
16.85
18.52
19.69
20.02
19
16.27
11.8
5.93
-0.65
-7.23
-13.17
-18.08
-21.76
-24.07
-24.95
-24.37
-22.46
-19.52
-16.07
-12.61
-9.5
-6.71
-3.9
-0.6
3.45
8.12
12.93
17.27
20.62
22.87
24.26
25.25
26.38
28.03
30.37
33.28
36.24
38.4
38.81
36.8
32.4
26.47
20.55
16.29
14.87
16.69
21.26
27.52
34.19
40.07
44.23
46.03
45.15
41.51
35.39
27.45
18.72
10.33
3.3
-1.7
-4.51
-5.34
-4.69
-3
-0.6
2.3
5.63
9.22
12.89
16.32
19.06
20.68
20.82
19.31
16.26
12.1
7.49
3.14
-0.38
-2.78
-4.14
-4.8
-5.25
-6.01
-7.33
-9.21
-11.41
-13.72
-16.04
-18.44
-20.95
-23.55
-26.11
-28.56
-31.06
-34.05
-38.07
-43.36
-49.58
-55.83
-60.92
-63.92
-64.5
-63.02
-60.34
-57.39
-54.94
-53.36
-52.67
-52.57
-52.59
-52.05
-50.29
-46.77
-41.28
-34.05
-25.71
-17.06
-8.79
-1.36
5.08
10.56
15.21
19.08
22.23
24.74
26.74
28.51
30.3
32.34
34.7
37.3
40
42.57
44.85
46.61
47.59
47.51
46.08
43.18
38.89
33.56
27.59
21.41
15.31
9.5
4.17
-0.53
-4.49
-7.66
-10.1
-11.92
-13.12
-13.57
-12.84
-10.4
-5.82
1.01
9.85
20.22
31.52
43.27
55.08
66.48
76.7
84.59
88.83
88.35
82.86
73.09
60.6
47.29
34.68
23.57
14.04
5.77
-1.48
-7.68
-12.59
-15.98
-17.83
-18.35
-17.9
-16.76
-15.03
-12.64
-9.51
-5.69
-1.51
2.53
5.88
8.19
9.4
9.71
9.39
8.63
7.46
5.78
3.49
0.65
-2.39
-5.2
-7.37
-8.78
-9.65
-10.46
-11.8
-14.2
-17.95
-22.89
-28.5
-33.91
-38.18
-40.59
-40.78
-38.9
-35.43
-31.09
-26.6
-22.55
-19.36
-17.25
-16.23
-16.13
-16.6
-17.15
-17.3
-16.67
-15.07
-12.59
-9.52
-6.32
-3.49
-1.47
-0.54
-0.76
-2.03
-4.11
-6.7
-9.42
-11.8
-13.35
-13.71
-12.7
-10.48
-7.47
-4.27
-1.45
0.58
1.63
1.69
0.89
-0.51
-2.17
-3.75
-4.94
-5.57
-5.65
-5.29
-4.72
-4.16
-3.82
-3.9
-4.54
-5.82
-7.65
-9.75
-11.68
-12.98
-13.26
-12.37
-10.38
-7.54
-4.2
-0.67
2.74
5.76
8.07
9.29
9.04
7.1
3.61
-0.91
-5.7
-9.89
-12.83
-14.17
-13.86
-12.17
-9.52
-6.48
-3.73
-2.02
-2.03
-4.15
-8.26
-13.59
-18.9
-22.7
-23.72
-21.3
-15.52
-7.18
2.52
12.38
21.6
29.89
37.43
44.63
51.89
59.48
67.38
75.18
81.99
86.48
87.11
82.6
72.47
57.34
38.88
19.24
0.37
-16.48
-30.74
-42.26
-50.78
-55.88
-57.23
-54.95
-49.96
-43.85
-38.37
-34.85
-33.82
-34.94
-37.34
-40.03
-42.2
-43.34
-43.3
-42.06
-39.69
-36.25
-31.87
-26.91
-22
-17.96
-15.5
-14.89
-15.72
-16.96
-17.24
-15.38
-10.89
-4.19
3.64
11.32
17.91
23.02
26.83
29.79
32.34
34.7
36.78
38.36
39.17
39.03
37.85
35.55
32.05
27.33
21.57
15.19
8.84
3.27
-0.93
-3.52
-4.81
-5.57
-6.76
-9.26
-13.44
-19.07
-25.33
-31.09
-35.24
-37
-36.08
-32.7
-27.43
-20.98
-14.09
-7.44
-1.69
2.63
5.18
5.89
5.05
3.21
0.95
-1.35
-3.53
-5.63
-7.62
-9.37
-10.67
-11.38
-11.63
-11.87
-12.65
-14.29
-16.56
-18.71
-19.75
-18.84
-15.68
-10.54
-4.09
2.95
10.03
16.76
22.73
27.45
30.36
31.01
29.35
25.84
21.32
16.8
13.05
10.44
9.01
8.58
8.97
10.05
11.71
13.71
15.63
16.83
16.64
14.67
10.98
6.09
0.74
-4.36
-8.85
-12.65
-15.73
-17.92
-18.76
-17.65
-14.24
-8.66
-1.58
5.85
12.47
17.38
20.1
20.6
19.12
16.2
12.55
9.03
6.48
5.45
6.2
8.62
12.49
17.55
23.52
29.91
35.87
40.16
41.44
38.79
32
21.78
9.46
-3.45
-15.68
-26.36
-34.96
-41.22
-45.09
-46.82
-47
-46.46
-46.14
-46.68
-48.25
-50.45
-52.55
-53.79
-53.77
-52.67
-51.11
-49.97
-49.76
-50.32
-50.68
-49.41
-45.16
-37.35
-26.45
-13.83
-1.19
10.02
19.03
25.74
30.34
33.11
34.19
33.71
32.01
29.69
27.5
26
25.27
24.94
24.37
23.07
21.11
19.14
18.17
19.17
22.6
28.22
35.15
42.12
47.86
51.36
52.16
50.31
46.32
40.93
34.87
28.65
22.49
16.32
9.99
3.46
-3.07
-9.08
-13.78
-16.37
-16.23
-13.3
-8.12
-1.78
4.45
9.56
13.22
15.75
17.86
20.31
23.61
27.95
33.19
38.94
44.58
49.22
51.85
51.56
47.89
41.02
31.79
21.39
10.98
1.48
-6.59
-13.06
-17.97
-21.48
-23.91
-25.58
-26.73
-27.49
-27.77
-27.43
-26.25
-24.15
-21.31
-18.19
-15.53
-14.09
-14.34
-16.19
-18.93
-21.47
-22.71
-22.02
-19.48
-15.78
-11.83
-8.4
-5.79
-3.83
-2.13
-0.4
1.41
3.06
4.26
4.89
5.1
5.31
6.03
7.65
10.3
13.78
17.73
21.74
25.5
28.78
31.3
32.72
32.65
30.9
27.71
23.84
20.38
18.32
18.13
19.51
21.56
23.16
23.54
22.41
20.03
16.84
13.23
9.41
5.43
1.33
-2.81
-6.81
-10.49
-13.72
-16.52
-19.06
-21.54
-24.23
-27.19
-30.31
-33.24
-35.62
-37.26
-38.21
-38.71
-38.86
-38.49
-37.13
-34.21
-29.42
-22.92
-15.31
-7.37
0.13
6.65
11.79
15.23
16.73
16.14
13.62
9.7
5.17
0.88
-2.52
-4.72
-5.82
-6.15
-6.14
-6.19
-6.54
-7.32
-8.53
-10.07
-11.82
-13.66
-15.43
-16.96
-18.05
-18.39
-17.49
-14.57
-8.57
1.62
16.84
37.21
61.75
88.36
114.05
135.49
149.75
154.78
149.87
135.72
114.2
88
60.15
33.48
10.2
-8.3
-21.57
-29.93
-34.31
-35.89
-35.84
-35.08
-34.16
-33.33
-32.7
-32.33
-32.32
-32.7
-33.3
-33.74
-33.41
-31.79
-28.64
-24.16
-18.91
-13.6
-8.8
-4.76
-1.44
1.36
3.75
5.69
6.98
7.4
6.9
5.65
3.95
2.1
0.26
-1.64
-3.79
-6.31
-9.21
-12.32
-15.39
-18.21
-20.74
-23.06
-25.3
-27.56
-29.84
-32.05
-34.04
-35.75
-37.18
-38.39
-39.39
-40.09
-40.25
-39.48
-37.43
-33.97
-29.31
-24.01
-18.86
-14.59
-11.59
-9.77
-8.52
-7.1
-4.93
-1.83
1.98
6.14
10.45
15.05
20.32
26.63
34.03
42.03
49.78
56.24
60.58
62.31
61.37
57.95
52.48
45.43
37.37
28.83
20.38
12.51
5.62
-0.01
-4.26
-7.23
-9.19
-10.53
-11.66
-12.92
-14.43
-16.06
-17.49
-18.36
-18.43
-17.72
-16.56
-15.47
-14.99
-15.45
-16.9
-19.07
-21.5
-23.69
-25.15
-25.58
-24.82
-22.94
-20.18
-16.96
-13.69
-10.72
-8.14
-5.83
-3.55
-1.08
1.54
4
5.79
6.39
5.5
3.13
-0.39
-4.52
-8.59
-12.01
-14.34
-15.37
-15.21
-14.22
-12.94
-11.87
-11.41
-11.67
-12.44
-13.28
-13.57
-12.82
-10.84
-7.86
-4.52
-1.6
0.3
1.01
0.81
0.17
-0.53
-1.15
-1.79
-2.52
-3.25
-3.71
-3.66
-3.09
-2.27
-1.55
-1.1
-0.74
-0.06
1.37
3.66
6.49
9.26
11.29
12.15
11.72
10.17
7.89
5.3
2.79
0.66
-0.94
-2.08
-3.03
-4.21
-5.89
-8.04
-10.2
-11.68
-11.92
-10.83
-8.92
-6.96
-5.58
-4.86
-4.25
-2.93
-0.31
3.53
7.87
11.71
14.25
15.21
14.86
13.71
12.27
10.73
9.02
6.97
4.6
2.26
0.58
0.24
1.65
4.69
8.69
12.69
15.79
17.62
18.44
18.95
19.9
21.66
24.03
26.4
28.08
28.7
28.3
27.21
25.77
24.05
21.84
18.78
14.64
9.53
3.88
-1.79
-7.08
-11.87
-16.27
-20.42
-24.37
-27.85
-30.38
-31.41
-30.49
-27.41
-22.31
-15.67
-8.21
-0.78
5.85
11.14
14.87
17.08
18.02
18.03
17.46
16.63
15.74
14.94
14.27
13.63
12.8
11.52
9.65
7.23
4.53
1.93
-0.26
-1.94
-3.31
-4.76
-6.74
-9.51
-13.01
-16.78
-20.1
-22.21
-22.58
-21.05
-17.88
-13.55
-8.64
-3.63
1.16
5.51
9.3
12.39
14.73
16.35
17.4
18.09
18.65
19.27
19.97
20.66
21.18
21.4
21.32
21.01
20.62
20.23
19.69
18.72
16.87
13.79
9.23
3.07
-4.87
-14.78
-26.7
-40.2
-54.12
-66.74
-76.34
-81.81
-83.03
-80.9
-76.8
-71.98
-67.14
-62.39
-57.58
-52.62
-47.59
-42.56
-37.28
-31
-22.68
-11.51
2.53
18.28
33.66
46.29
54.31
57.01
54.92
49.39
41.86
33.29
24.01
13.94
3.11
-8.01
-18.45
-27.02
-32.67
-34.9
-33.8
-29.95
-24.11
-16.97
-9
-0.39
8.68
17.97
26.98
35.17
42.06
47.51
51.77
55.33
58.71
62.2
65.65
68.58
70.29
70.12
67.64
62.72
55.58
46.75
36.96
26.98
17.43
8.68
0.77
-6.44
-13.05
-18.97
-23.83
-27.14
-28.46
-27.68
-25.07
-21.29
-17.2
-13.6
-11.06
-9.85
-9.95
-11.13
-13.09
-15.47
-17.95
-20.27
-22.23
-23.75
-24.93
-26.04
-27.52
-29.78
-33.03
-37.17
-41.72
-45.92
-49
-50.41
-50.04
-48.23
-45.62
-42.8
-40.09
-37.36
-34.17
-30.01
-24.57
-17.94
-10.6
-3.22
3.55
9.21
13.46
16.17
17.31
17
15.52
13.27
10.71
8.28
6.21
4.52
3.1
1.72
0.19
-1.61
-3.62
-5.62
-7.24
-8.14
-8.18
-7.55
-6.75
-6.37
-6.79
-7.95
-9.3
-10.08
-9.63
-7.71
-4.59
-0.86
2.88
6.23
9.09
11.53
13.63
15.35
16.53
16.98
16.65
15.72
14.48
13.28
12.31
11.6
10.99
10.25
9.19
7.74
6
4.1
2.16
0.21
-1.76
-3.78
-5.76
-7.51
-8.69
-9.03
-8.38
-6.81
-4.55
-1.89
0.96
3.85
6.67
9.24
11.26
12.43
12.6
11.83
10.46
8.91
7.53
6.48
5.71
5.05
4.29
3.31
2.05
0.51
-1.28
-3.31
-5.56
-8.01
-10.56
-13.03
-15.15
-16.62
-17.16
-16.71
-15.45
-13.8
-12.23
-11.11
-10.66
-10.86
-11.62
-12.85
-14.38
-15.97
-17.17
-17.44
-16.22
-13.25
-8.71
-3.18
2.55
7.77
12.08
15.34
17.56
18.73
18.75
17.57
15.34
12.57
10.02
8.42
8.17
9.16
10.87
12.64
13.93
14.53
14.48
13.88
12.78
11.11
8.83
5.98
2.81
-0.33
-3.09
-5.28
-6.92
-8.11
-9.04
-9.91
-10.9
-12.24
-14.13
-16.78
-20.24
-24.26
-28.26
-31.39
-32.75
-31.65
-27.97
-22.17
-15.2
-8.13
-1.81
3.35
7.36
10.39
12.6
13.94
14.3
13.66
12.2
10.35
8.58
7.23
6.35
5.69
4.85
3.5
1.5
-1.03
-3.86
-6.72
-9.49
-12.12
-14.58
-16.78
-18.49
-19.42
-19.32
-18.04
-15.57
-12.06
-7.74
-2.91
2.08
6.85
10.98
13.96
15.2
14.1
10.24
3.75
-4.59
-13.38
-21.11
-26.86
-30.72
-33.7
-36.98
-41.13
-45.56
-48.92
-49.91
-48.12
-44.37
-40.2
-37.01
-35.21
-34.07
-32.25
-28.58
-22.77
-15.52
-8.08
-1.61
3.41
7.35
11.14
15.65
21.23
27.53
33.75
39.09
43.1
45.75
47.12
47.18
45.7
42.64
38.66
35.23
34.14
36.49
41.88
48.22
52.64
52.93
48.75
41.87
35.27
31.61
32
35.59
40.33
44.19
46.11
46.23
45.38
44.29
43.06
41.23
38.11
33.33
27.12
20.22
13.64
8.25
4.58
2.68
2.32
3.09
4.62
6.62
8.73
10.49
11.25
10.25
6.96
1.27
-6.23
-14.36
-21.7
-27.1
-30.07
-30.91
-30.57
-30.2
-30.64
-32.24
-34.77
-37.66
-40.33
-42.32
-43.35
-43.23
-41.8
-39.01
-34.99
-30.08
-24.67
-18.95
-12.73
-5.6
2.86
12.63
23.1
33.18
41.66
47.61
50.54
50.43
47.54
42.36
35.61
28.21
21.23
15.68
12.28
11.34
12.71
15.93
20.23
24.75
28.55
30.78
30.83
28.44
23.75
17.31
9.95
2.63
-3.79
-8.75
-12.21
-14.69
-17.07
-20.25
-24.66
-30.06
-35.68
-40.59
-44.17
-46.36
-47.6
-48.57
-49.74
-51.15
-52.38
-52.74
-51.5
-48.18
-42.78
-35.77
-27.96
-20.23
-13.26
-7.29
-2.21
2.23
6.12
9.3
11.44
12.38
12.34
11.95
11.96
12.89
14.74
16.99
18.85
19.64
19.05
17.23
14.65
11.88
9.34
7.13
5.14
3.02
0.43
-2.83
-6.65
-10.5
-13.54
-14.88
-13.9
-10.58
-5.51
0.35
6.11
11.35
16.26
21.35
27.16
33.7
40.44
46.43
50.67
52.57
52.14
50
47.08
44.29
42.08
40.33
38.42
35.6
31.43
26.07
20.35
15.4
12.23
11.26
12.06
13.5
14.13
12.72
8.72
2.41
-5.18
-12.63
-18.61
-22.15
-22.93
-21.37
-18.59
-16.17
-15.66
-18.04
-23.2
-29.87
-35.98
-39.43
-38.88
-34.11
-26.01
-15.98
-5.45
4.44
12.85
19.08
22.5
22.68
19.69
14.17
7.24
0.27
-5.64
-9.9
-12.65
-14.6
-16.74
-19.83
-24.14
-29.27
-34.24
-37.86
-39.18
-37.89
-34.31
-29.27
-23.69
-18.22
-13.08
-8.22
-3.59
0.64
4.05
6.19
6.87
6.24
4.79
3.07
1.49
0.19
-0.89
-1.83
-2.61
-3.09
-3.1
-2.62
-1.87
-1.29
-1.38
-2.48
-4.55
-7.16
-9.65
-11.53
-12.63
-13.35
-14.34
-16.14
-18.77
-21.67
-23.92
-24.68
-23.52
-20.56
-16.24
-10.94
-4.88
1.78
8.66
15.12
20.67
25.57
31.32
40.27
54.53
74.42
97.75
120.13
136.57
143.33
139.2
125.57
105.4
81.78
57
32.32
8.47
-13.74
-33.33
-49.36
-61.42
-69.8
-75.33
-78.92
-81.12
-81.95
-81.1
-78.26
-73.54
-67.57
-61.38
-56.12
-52.71
-51.6
-52.68
-55.31
-58.43
-60.7
-60.72
-57.36
-50.01
-38.83
-24.72
-9.14
6.28
20.11
31.34
39.48
44.48
46.51
45.9
43.02
38.3
32.23
25.24
17.71
9.9
2.1
-5.26
-11.6
-16.29
-18.91
-19.49
-18.49
-16.7
-14.75
-13.04
-11.73
-11.1
-11.69
-14.17
-18.7
-24.46
-29.48
-31.25
-27.71
-18.1
-3.27
14.76
33.56
51.08
65.91
77.05
83.65
84.91
80.42
70.57
56.73
40.97
25.46
11.96
1.38
-6.13
-10.98
-13.77
-14.93
-14.69
-13.13
-10.3
-6.39
-1.82
2.67
6.14
7.62
6.42
2.31
-4.44
-13.17
-23.05
-33.32
-43.59
-53.9
-64.72
-76.54
-89.45
-102.61
-114.07
-120.93
-120.15
-109.59
-89.05
-60.58
-27.96
4.45
32.99
55.62
71.93
82.64
88.91
91.8
92.33
91.74
91.74
94.28
100.95
112.22
127.03
143.06
157.46
167.65
171.96
169.8
161.38
147.3
128.23
104.77
77.58
47.58
16.09
-15.24
-44.62
-70.36
-91.21
-106.51
-116.22
-120.69
-120.52
-116.41
-109.16
-99.72
-89.03
-77.97
-67.17
-57.02
-47.7
-39.54
-33.11
-29.19
-28.43
-30.87
-35.69
-41.26
-45.64
-47.18
-45.16
-39.79
-32.02
-23
-13.66
-4.68
3.4
9.91
14.02
15.05
12.94
8.66
4.06
1.27
1.8
5.84
12.23
18.95
24.02
26.24
25.43
22.19
17.39
11.71
5.5
-1.14
-8.14
-15.26
-22.17
-28.46
-33.88
-38.35
-42.09
-45.4
-48.57
-51.74
-54.82
-57.59
-59.77
-61.17
-61.63
-60.94
-58.55
-53.66
-45.5
-33.75
-18.8
-1.7
16.09
32.96
47.53
58.99
67.13
72.2
74.78
75.79
76.39
77.84
80.7
84.57
88.27
90.13
88.52
82.41
71.85
57.97
42.74
27.6
13.13
-0.92
-15.21
-30.43
-46.77
-63.69
-79.62
-91.06
-95.19
-91.61
-82.35
-69.83
-55.44
-39.37
-21.36
-1.02
22.15
47.07
71.72
94.03
112.54
126.52
135.97
141.64
140.66
132.59
117.82
97.65
74.2
50.06
27.6
8.3
-7.38
-19.83
-29.17
-35.71
-39.49
-40.47
-38.82
-35.24
-30.88
-26.88
-24.04
-22.31
-21.63
-22.02
-23.63
-26.55
-30.58
-35.14
-39.26
-41.94
-42.18
-39.68
-34.84
-28.61
-22.15
-16.52
-12.55
-10.65
-10.81
-12.35
-14.29
-15.42
-14.69
-11.48
-5.77
1.76
10
17.64
23.64
27.28
28.16
26.19
21.49
14.34
5.21
-5.22
-16.12
-26.68
-36.19
-44.22
-50.58
-55.26
-58.38
-60.17
-60.95
-61.08
-60.95
-60.78
-60.59
-60.16
-59.23
-57.62
-55.29
-52.3
-48.63
-44.21
-38.96
-32.95
-26.55
-20.38
-15.18
-11.51
-9.59
-9.19
-9.69
-10.23
-9.79
-7.44
-2.56
4.94
14.59
25.41
36.14
45.56
52.75
57.32
59.42
59.71
59.15
58.66
58.81
59.59
60.41
60.45
58.96
55.56
50.24
43.28
35.01
25.76
15.85
5.75
-3.92
-12.49
-19.36
-24.14
-26.65
-26.97
-25.48
-22.84
-19.91
-17.46
-15.96
-15.39
-15.29
-15.02
-14.2
-12.85
-11.37
-10.21
-9.55
-9.06
-8.01
-5.6
-1.31
4.87
12.4
20.5
28.35
35.4
41.45
46.54
50.83
54.34
56.87
58.11
57.72
55.63
52.01
47.36
42.23
37.17
32.5
28.26
24.31
20.4
16.39
12.2
7.93
3.63
-0.63
-4.86
-9.09
-13.28
-17.35
-21.13
-24.47
-27.4
-30.1
-32.87
-35.9
-39.11
-41.99
-43.76
-43.59
-40.99
-35.98
-29.05
-20.98
-12.47
-4.01
4.12
11.66
18.3
23.57
27
28.32
27.55
25.08
21.49
17.49
13.76
10.81
8.96
8.23
8.33
8.77
9.04
8.76
7.79
6.22
4.29
2.23
0.17
-1.86
-3.97
-6.27
-8.85
-11.65
-14.51
-17.23
-19.6
-21.53
-23.05
-24.31
-25.5
-26.79
-28.3
-30.06
-31.97
-33.79
-35.12
-35.47
-34.45
-31.87
-27.92
-23.05
-17.83
-12.74
-8.06
-3.83
-0.1
3.09
5.59
7.27
8.13
8.35
8.24
8.07
7.97
7.88
7.6
6.97
6
4.92
4.04
3.62
3.73
4.25
4.87
5.27
5.17
4.43
3.06
1.23
-0.84
-2.88
-4.7
-6.26
-7.65
-9.07
-10.75
-12.84
-15.37
-18.27
-21.3
-24.1
-26.21
-27.14
-26.53
-24.28
-20.64
-16.07
-11.16
-6.38
-1.98
1.99
5.53
8.61
11.11
12.89
13.83
14.02
13.64
13
12.32
11.73
11.18
10.58
9.9
9.18
8.58
8.21
8.07
7.98
7.69
6.93
5.58
3.7
1.52
-0.64
-2.52
-4.02
-5.2
-6.27
-7.54
-9.24
-11.43
-13.98
-16.55
-18.65
-19.79
-19.59
-17.89
-14.87
-10.96
-6.78
-2.89
0.34
2.85
4.79
6.39
7.82
9.07
10.06
10.74
11.11
11.25
11.25
11.15
10.86
10.28
9.34
8.07
6.61
5.14
3.84
2.77
1.87
0.98
-0.06
-1.34
-2.82
-4.39
-5.93
-7.42
-8.96
-10.75
-12.9
-15.35
-17.8
-19.77
-20.77
-20.48
-18.83
-16.01
-12.36
-8.27
-4.1
-0.11
3.55
6.83
9.67
11.97
13.58
14.37
14.31
13.56
12.42
11.27
10.39
9.87
9.58
9.26
8.68
7.69
6.3
4.6
2.74
0.81
-1.15
-3.15
-5.2
-7.26
-9.31
-11.28
-13.2
-15.11
-17.03
-18.89
-20.42
-21.24
-20.96
-19.38
-16.55
-12.83
-8.62
-4.31
-0.13
3.76
7.26
10.23
12.48
13.9
14.49
14.39
13.79
12.91
11.91
10.84
9.75
8.6
7.38
6.06
4.63
3.12
1.56
-0.01
-1.58
-3.22
-5
-6.99
-9.2
-11.57
-14.05
-16.61
-19.22
-21.78
-23.99
-25.42
-25.55
-24.02
-20.81
-16.27
-11.02
-5.68
-0.66
3.92
8.13
12.03
15.56
18.47
20.52
21.63
21.95
21.8
21.44
20.97
20.24
19.05
17.32
15.23
13.16
11.48
10.3
9.43
8.46
6.99
4.88
2.27
-0.43
-2.85
-4.81
-6.36
-7.72
-9.18
-10.97
-13.24
-16.06
-19.32
-22.8
-26.03
-28.43
-29.45
-28.74
-26.38
-22.81
-18.7
-14.66
-11.02
-7.79
-4.68
-1.4
2.15
5.79
9.14
11.76
13.38
14
13.83
13.28
12.74
12.5
12.64
13.08
13.58
13.9
13.82
13.19
11.97
10.14
7.73
4.77
1.28
-2.71
-7.11
-11.78
-16.55
-21.34
-26.14
-31.05
-36.27
-42.02
-48.33
-54.9
-61.02
-65.77
-68.32
-68.29
-65.91
-61.95
-57.41
-53.03
-49.07
-45.36
-41.81
-38.7
-36.7
-36.35
-37.55
-39.44
-40.83
-40.96
-39.91
-38.42
-37.1
-35.71
-33.01
-27.4
-17.93
-4.95
9.91
24.58
37.57
48.37
57.26
64.69
70.87
75.62
78.64
79.71
78.79
76.08
71.96
66.94
61.71
57.07
53.67
51.82
51.35
51.7
52.17
52.19
51.51
50.27
48.84
47.62
46.85
46.46
46.2
45.74
44.8
43.31
41.36
39.12
36.66
34
31.16
28.36
26.08
25.08
26.04
29.31
34.63
41.14
47.65
52.96
56.28
57.35
56.4
53.88
50.11
45.15
38.86
31.08
21.97
12.12
2.46
-6.01
-12.5
-16.7
-18.69
-18.8
-17.38
-14.73
-11.15
-6.99
-2.71
1.3
4.83
7.91
10.76
13.61
16.53
19.35
21.7
23.09
23.07
21.33
17.79
12.65
6.28
-0.89
-8.51
-16.39
-24.42
-32.54
-40.63
-48.48
-55.85
-62.47
-68.05
-72.2
-74.56
-74.79
-72.73
-68.56
-62.73
-55.9
-48.78
-41.88
-35.6
-30.16
-25.75
-22.5
-20.48
-19.6
-19.59
-20.03
-20.43
-20.38
-19.66
-18.24
-16.26
-13.98
-11.7
-9.64
-7.96
-6.73
-5.91
-5.38
-5.01
-4.78
-4.78
-5.23
-6.36
-8.17
-10.37
-12.38
-13.5
-13.19
-11.28
-7.95
-3.72
0.83
5.2
9.04
12.14
14.33
15.52
15.76
15.28
14.49
13.87
13.79
14.33
15.33
16.37
17.02
16.92
15.91
14.03
11.44
8.38
5.12
1.87
-1.23
-4.17
-7.07
-10.03
-13.04
-15.83
-17.91
-18.76
-18.02
-15.73
-12.31
-8.42
-4.72
-1.64
0.7
2.38
3.54
4.25
4.49
4.2
3.44
2.4
1.42
0.8
0.72
1.16
1.93
2.72
3.29
3.46
3.16
2.41
1.23
-0.33
-2.28
-4.62
-7.33
-10.32
-13.32
-15.88
-17.43
-17.44
-15.69
-12.31
-7.81
-2.84
1.97
6.19
9.55
11.95
13.32
13.64
12.98
11.49
9.46
7.19
4.97
3.04
1.51
0.43
-0.24
-0.58
-0.79
-1.04
-1.49
-2.19
-3.16
-4.48
-6.32
-8.8
-11.87
-15.09
-17.68
-18.72
-17.58
-14.16
-9.06
-3.3
2.11
6.5
9.75
12.09
13.83
15.04
15.61
15.25
13.81
11.35
8.2
4.84
1.77
-0.67
-2.37
-3.43
-4.13
-4.77
-5.69
-7.09
-9.11
-11.84
-15.2
-18.99
-22.66
-25.37
-26.17
-24.35
-19.77
-13.05
-5.41
1.75
7.33
10.85
12.44
12.6
11.93
10.89
9.79
8.9
8.45
8.59
9.38
10.61
11.91
12.8
12.94
12.2
10.69
8.64
6.19
3.36
0.04
-3.85
-8.11
-12.24
-15.47
-17
-16.32
-13.41
-8.76
-3.27
2.03
6.24
8.79
9.52
8.65
6.68
4.28
2.14
0.77
0.41
1.04
2.44
4.33
6.46
8.58
10.48
11.93
12.63
12.31
10.7
7.6
2.97
-3.02
-9.82
-16.49
-21.86
-24.83
-24.71
-21.54
-16.08
-9.55
-3.21
1.98
5.57
7.58
8.31
8.14
7.45
6.51
5.56
4.73
4.07
3.59
3.18
2.71
1.97
0.78
-1
-3.36
-6.12
-9.02
-11.87
-14.65
-17.49
-20.51
-23.56
-26.1
-27.26
-26.23
-22.62
-16.66
-9.15
-1.15
6.49
13.28
19.17
24.24
28.48
31.7
33.6
33.96
32.9
30.79
28.15
25.43
22.8
20.22
17.57
14.79
12.01
9.43
7.23
5.39
3.67
1.76
-0.46
-2.81
-4.71
-5.41
-4.31
-1.23
3.44
8.84
13.94
17.87
20.22
21.06
20.8
19.89
18.62
17.16
15.55
13.94
12.57
11.74
11.61
12.11
12.9
13.52
13.56
12.81
11.33
9.37
7.22
5.1
3.06
0.94
-1.51
-4.45
-7.83
-11.25
-14.04
-15.5
-15.08
-12.67
-8.65
-3.69
1.4
5.98
9.66
12.29
13.79
14.17
13.39
11.55
8.92
5.98
3.29
1.29
0.13
-0.36
-0.59
-1
-1.82
-3.05
-4.53
-6.05
-7.52
-8.96
-10.49
-12.27
-14.43
-16.97
-19.71
-22.31
-24.26
-25.01
-24.21
-21.75
-17.88
-13.13
-8.05
-3.14
1.29
5.07
8.02
9.99
10.78
10.38
8.95
6.93
4.89
3.36
2.67
2.84
3.64
4.74
5.84
6.79
7.54
8.05
8.19
7.69
6.26
3.72
0.16
-4.01
-8.08
-11.27
-12.98
-12.97
-11.38
-8.64
-5.26
-1.71
1.69
4.69
7.04
8.46
8.72
7.75
5.73
3.05
0.18
-2.6
-5.17
-7.68
-10.3
-13.23
-16.56
-20.29
-24.36
-28.62
-32.87
-36.84
-40.29
-43.03
-45.01
-46.27
-46.79
-46.44
-44.87
-41.74
-36.77
-29.98
-21.7
-12.55
-3.19
5.7
13.63
20.26
25.36
28.74
30.25
29.82
27.59
24.04
20.02
16.51
14.37
13.99
15.12
16.95
18.47
18.86
17.76
15.28
11.93
8.24
4.5
0.72
-3.46
-8.43
-14.36
-20.97
-27.46
-32.73
-35.8
-36.15
-33.92
-29.8
-24.59
-18.81
-12.57
-5.69
1.94
10.03
17.88
24.77
30.3
34.69
38.74
43.44
49.52
57.2
66.06
75.36
84.3
92.33
99.2
104.94
109.59
113.1
115.23
115.44
113.07
107.5
98.3
85.47
69.43
50.95
31.02
10.63
-9.19
-27.45
-43.15
-55.35
-63.4
-67.08
-66.83
-63.66
-58.86
-53.61
-48.64
-44.19
-40.15
-36.37
-32.8
-29.6
-26.97
-25.01
-23.68
-22.83
-22.29
-21.98
-21.91
-22.04
-22.25
-22.3
-21.88
-20.8
-19.11
-17.15
-15.36
-14.21
-13.95
-14.57
-15.84
-17.47
-19.21
-20.97
-22.74
-24.57
-26.54
-28.73
-31.2
-33.91
-36.62
-38.8
-39.7
-38.61
-35.12
-29.33
-21.82
-13.48
-5.15
2.62
9.61
15.86
21.46
26.43
30.65
34
36.4
37.87
38.48
38.22
37.04
34.79
31.4
26.94
21.78
16.45
11.59
7.65
4.79
2.85
1.4
-0.02
-1.7
-3.71
-5.86
-7.91
-9.64
-11.01
-12.14
-13.24
-14.5
-16.01
-17.79
-19.81
-22.02
-24.35
-26.54
-28.17
-28.67
-27.57
-24.72
-20.39
-15.29
-10.18
-5.66
-1.87
1.36
4.41
7.49
10.55
13.33
15.48
16.77
17.2
16.96
16.33
15.56
14.8
14.09
13.41
12.76
12.17
11.7
11.41
11.31
11.25
11.02
10.33
8.96
6.87
4.19
1.17
-1.92
-4.89
-7.68
-10.39
-13.11
-15.92
-18.85
-21.84
-24.82
-27.59
-29.84
-31.14
-31.04
-29.23
-25.67
-20.74
-15.06
-9.37
-4.17
0.28
4.02
7.16
9.72
11.61
12.71
12.98
12.59
11.87
11.18
10.7
10.39
10.04
9.43
8.44
7.17
5.79
4.48
3.31
2.22
1.09
-0.27
-1.92
-3.92
-6.2
-8.68
-11.27
-13.83
-16.24
-18.43
-20.47
-22.55
-24.91
-27.7
-30.85
-34
-36.61
-38.15
-38.31
-37.12
-34.87
-31.97
-28.74
-25.31
-21.69
-17.85
-13.84
-9.88
-6.21
-3.07
-0.57
1.31
2.73
3.88
4.92
5.92
6.81
7.49
7.82
7.78
7.44
6.97
6.51
6.12
5.79
5.43
5.04
4.71
4.63
5.04
6.07
7.63
9.45
11.18
12.53
13.51
14.32
15.36
16.98
19.37
22.48
26.14
30.08
34.11
38.07
41.72
44.68
46.35
46.09
43.45
38.37
31.34
23.29
15.34
8.44
3.09
-0.75
-3.51
-5.71
-7.7
-9.54
-11.16
-12.49
-13.69
-15.04
-16.88
-19.41
-22.6
-26.18
-29.72
-32.74
-34.75
-35.3
-34.16
-31.33
-27.13
-22.11
-16.86
-11.79
-7.06
-2.63
1.55
5.33
8.38
10.29
10.75
9.76
7.61
4.81
1.85
-0.9
-3.29
-5.35
-7.08
-8.46
-9.33
-9.56
-9.1
-8.19
-7.25
-6.8
-7.29
-8.93
-11.55
-14.7
-17.71
-19.93
-20.9
-20.45
-18.67
-15.85
-12.28
-8.22
-3.83
0.7
5.09
8.94
11.86
13.57
14.08
13.65
12.66
11.45
10.13
8.61
6.71
4.32
1.52
-1.42
-4.1
-6.23
-7.79
-9.07
-10.65
-13.19
-17.18
-22.75
-29.52
-36.64
-43.03
-47.68
-49.96
-49.86
-47.89
-44.99
-42.14
-40.13
-39.34
-39.83
-41.35
-43.59
-46.25
-49.22
-52.49
-56.05
-59.62
-62.6
-64.05
-62.99
-58.63
-50.68
-39.44
-25.59
-9.98
6.71
24.07
41.82
59.58
76.61
91.8
103.76
111.24
113.45
110.35
102.77
92.28
80.78
70.08
61.5
55.63
52.36
51.1
51.08
51.71
52.85
54.81
58.12
63.04
69.18
75.33
79.78
80.99
78.31
72.26
64.39
56.48
49.68
44.06
38.76
32.65
25.14
16.53
7.83
0.2
-5.66
-9.7
-12.39
-14.28
-15.68
-16.62
-17.11
-17.32
-17.83
-19.38
-22.5
-27.09
-32.3
-36.8
-39.26
-38.94
-35.94
-31.12
-25.68
-20.67
-16.63
-13.57
-11.16
-8.98
-6.81
-4.6
-2.44
-0.43
1.35
2.85
4.01
4.77
5.13
5.15
4.98
4.83
4.87
5.19
5.76
6.45
7.12
7.61
7.79
7.55
6.77
5.34
3.16
0.12
-3.85
-8.77
-14.52
-20.78
-26.97
-32.31
-35.91
-37.04
-35.37
-31.1
-24.87
-17.6
-10.24
-3.57
1.93
6.07
8.85
10.37
10.81
10.36
9.28
7.87
6.47
5.38
4.72
4.44
4.28
3.86
2.85
1.08
-1.4
-4.35
-7.46
-10.49
-13.31
-15.91
-18.39
-20.84
-23.39
-26.13
-29.15
-32.35
-35.39
-37.69
-38.48
-37.11
-33.32
-27.32
-19.81
-11.67
-3.65
3.78
10.43
16.17
20.82
24.11
25.88
26.29
25.82
25.22
25.07
25.63
26.75
27.99
28.95
29.37
29.22
28.52
27.26
25.33
22.6
19.02
14.6
9.45
3.66
-2.64
-9.18
-15.45
-20.7
-24.16
-25.21
-23.72
-20.01
-14.76
-8.76
-2.67
3.02
8
12.08
15.13
17.06
17.94
17.97
17.45
16.7
15.91
15.1
14.13
12.79
10.93
8.55
5.81
2.95
0.19
-2.38
-4.82
-7.27
-9.87
-12.67
-15.68
-18.71
-21.45
-23.46
-24.29
-23.6
-21.3
-17.61
-12.94
-7.85
-2.88
1.52
4.99
7.28
8.3
8.09
6.83
4.8
2.23
-0.7
-3.92
-7.36
-10.93
-14.46
-17.75
-20.54
-22.57
-23.58
-23.42
-22.01
-19.5
-16.27
-12.85
-9.8
-7.47
-5.81
-4.37
-2.38
0.87
5.8
12.32
19.8
27.32
33.96
39.06
42.37
43.91
43.88
42.47
39.79
35.98
31.22
25.87
20.34
15.06
10.31
6.15
2.5
-0.79
-3.8
-6.49
-8.81
-10.76
-12.47
-14.27
-16.54
-19.62
-23.64
-28.35
-33.17
-37.33
-40.04
-40.79
-39.59
-36.98
-33.89
-31.32
-30.02
-30.28
-31.86
-34.1
-36.13
-37.21
-36.92
-35.2
-32.19
-27.97
-22.38
-14.96
-5.24
6.9
20.95
35.73
49.73
61.55
70.19
75.2
76.54
74.34
68.8
60.26
49.25
36.58
23.19
9.89
-2.8
-14.68
-25.75
-35.96
-44.96
-52.17
-56.92
-58.75
-57.57
-53.76
-48.06
-41.38
-34.6
-28.44
-23.39
-19.7
-17.25
-15.68
-14.47
-13.2
-11.65
-9.83
-7.84
-5.76
-3.56
-1.18
1.27
3.48
5.08
5.96
6.61
8.12
11.78
18.46
28.16
39.82
51.84
62.81
72.03
79.81
87
94.41
102.22
109.79
115.93
119.45
119.54
116.02
109.2
99.65
88.02
74.86
60.72
46.16
31.74
17.97
5.16
-6.69
-17.82
-28.55
-39.09
-49.25
-58.44
-65.71
-70.12
-71.1
-68.7
-63.65
-57.06
-50
-43.18
-36.8
-30.69
-24.68
-18.8
-13.33
-8.7
-5.18
-2.76
-1.13
0.11
1.19
2.13
2.73
2.78
2.22
1.15
-0.17
-1.49
-2.68
-3.76
-4.9
-6.23
-7.74
-9.16
-10.02
-9.71
-7.8
-4.23
0.57
5.81
10.59
14.24
16.51
17.52
17.52
16.64
14.79
11.71
7.33
1.88
-4.08
-9.79
-14.61
-18.25
-20.75
-22.34
-23.28
-23.65
-23.45
-22.62
-21.28
-19.75
-18.46
-17.87
-18.27
-19.74
-22.19
-25.31
-28.68
-31.79
-34.04
-34.91
-34.1
-31.67
-28.1
-24.12
-20.5
-17.74
-15.93
-14.77
-13.74
-12.43
-10.72
-8.81
-6.95
-5.27
-3.53
-1.25
1.98
6.19
10.85
15.07
17.95
19.06
18.56
17.07
15.29
13.67
12.18
10.51
8.3
5.41
2.01
-1.61
-5.08
-8.12
-10.45
-11.82
-11.93
-10.57
-7.74
-3.78
0.71
5.04
8.64
11.24
12.85
13.58
13.53
12.73
11.28
9.43
7.64
6.38
5.96
6.37
7.23
8.02
8.26
7.76
6.6
5.07
3.47
1.96
0.54
-0.89
-2.48
-4.28
-6.25
-8.32
-10.42
-12.55
-14.72
-16.84
-18.63
-19.65
-19.43
-17.65
-14.35
-9.94
-5.06
-0.37
3.73
7.09
9.76
11.82
13.26
13.98
13.87
12.98
11.49
9.73
8.07
6.73
5.81
5.21
4.75
4.22
3.51
2.62
1.64
0.63
-0.34
-1.31
-2.31
-3.37
-4.46
-5.6
-6.87
-8.41
-10.35
-12.63
-14.87
-16.44
-16.67
-15.16
-11.99
-7.73
-3.19
0.96
4.35
6.97
8.96
10.43
11.33
11.54
11.05
10.02
8.78
7.63
6.73
6.06
5.42
4.66
3.63
2.35
0.86
-0.73
-2.3
-3.72
-4.9
-5.86
-6.75
-7.83
-9.36
-11.52
-14.33
-17.71
-21.55
-25.76
-30.15
-34.51
-38.6
-42.23
-45.49
-48.68
-52.28
-56.69
-62.01
-68
-74.27
-80.42
-86.14
-91.01
-94.28
-94.84
-91.53
-83.68
-71.46
-55.94
-38.62
-20.92
-3.7
12.76
28.46
43.36
57.07
68.95
78.32
84.79
88.36
89.35
88.33
85.95
82.86
79.65
76.85
74.97
74.45
75.55
78.24
82.18
86.83
91.79
97.05
102.96
109.94
117.93
126.07
132.69
135.75
133.54
125.16
110.88
91.92
70.08
47.29
25.23
5.18
-12.01
-25.94
-36.54
-44.05
-48.95
-51.84
-53.33
-53.98
-54.2
-54.24
-54.12
-53.74
-52.92
-51.59
-49.82
-47.82
-45.86
-44.13
-42.62
-41.17
-39.55
-37.57
-35.22
-32.71
-30.34
-28.39
-26.95
-25.95
-25.14
-24.29
-23.24
-22
-20.68
-19.4
-18.24
-17.18
-16.21
-15.37
-14.78
-14.61
-14.95
-15.74
-16.76
-17.75
-18.49
-18.98
-19.37
-19.85
-20.55
-21.37
-22.07
-22.43
-22.41
-22.23
-22.27
-22.84
-24.02
-25.54
-26.91
-27.66
-27.6
-26.84
-25.72
-24.54
-23.39
-22.08
-20.31
-17.84
-14.68
-11.1
-7.42
-3.93
-0.72
2.24
5.03
7.69
10.18
12.47
14.59
16.66
18.78
20.98
23.12
24.92
26.08
26.34
25.57
23.79
21.11
17.75
13.92
9.85
5.76
1.82
-1.87
-5.26
-8.34
-11.07
-13.4
-15.24
-16.58
-17.5
-18.19
-18.86
-19.62
-20.41
-21.02
-21.13
-20.55
-19.26
-17.37
-15.07
-12.48
-9.57
-6.25
-2.56
1.26
4.77
7.57
9.37
10.19
10.31
10.06
9.73
9.41
9.18
9.07
9.18
9.56
10.14
10.72
11.02
10.82
10.04
8.77
7.12
5.17
2.91
0.33
-2.46
-5.25
-7.71
-9.58
-10.75
-11.29
-11.4
-11.28
-11.02
-10.58
-9.74
-8.19
-5.67
-2.12
2.21
6.79
10.9
13.98
15.78
16.47
16.51
16.31
16.11
15.87
15.45
14.78
13.94
13.11
12.34
11.44
10.03
7.83
4.79
1.26
-2.26
-5.45
-8.36
-11.41
-15.17
-20.03
-26.08
-33.18
-41.12
-49.91
-59.77
-70.89
-83.15
-95.88
-108.01
-118.33
-125.87
-130.08
-130.77
-127.95
-121.61
-111.64
-97.86
-80.16
-58.72
-34.07
-7.23
20.36
46.92
70.67
90.12
104.48
113.84
119.17
121.98
123.86
126.11
129.46
133.96
138.87
142.83
144.2
141.62
134.52
123.51
110.32
97.27
86.33
78.32
72.49
66.91
59.47
48.99
35.95
22.31
10.62
2.68
-1.31
-2.9
-4.38
-7.6
-13.01
-19.57
-25.55
-29.58
-31.28
-31.11
-29.65
-26.88
-22.15
-14.81
-5.03
5.76
15.24
21.25
22.8
20.51
16.22
11.95
9.04
7.67
7.08
6.25
4.49
1.73
-1.63
-5.06
-8.21
-10.9
-13.01
-14.24
-14.17
-12.35
-8.64
-3.21
3.46
10.89
18.75
26.89
34.98
42.36
48.05
51.06
50.79
47.36
41.46
33.97
25.63
16.8
7.67
-1.49
-10.14
-17.61
-23.4
-27.35
-29.75
-31.07
-31.7
-31.82
-31.37
-30.25
-28.5
-26.38
-24.29
-22.68
-21.82
-21.68
-21.95
-22.12
-21.66
-20.27
-18.02
-15.36
-12.9
-11.17
-10.41
-10.45
-10.92
-11.4
-11.68
-11.72
-11.65
-11.59
-11.63
-11.81
-12.17
-12.74
-13.54
-14.57
-15.74
-16.96
-18.17
-19.38
-20.57
-21.67
-22.51
-22.86
-22.53
-21.46
-19.73
-17.48
-14.89
-12.06
-9.03
-5.83
-2.51
0.76
3.71
6.03
7.45
7.9
7.51
6.59
5.5
4.5
3.65
2.84
1.87
0.68
-0.65
-1.89
-2.86
-3.5
-3.97
-4.52
-5.34
-6.48
-7.83
-9.16
-10.27
-11.01
-11.39
-11.47
-11.39
-11.35
-11.67
-12.65
-14.53
-17.2
-20.22
-22.94
-24.81
-25.78
-26.3
-27.08
-28.65
-31.04
-33.73
-36.01
-37.46
-38.25
-39.13
-41.14
-45.21
-51.9
-61.24
-72.52
-84.29
-94.4
-100.51
-100.75
-94.37
-81.93
-64.97
-45.18
-23.68
-0.66
24.31
51.53
80.43
109.32
135.84
157.68
173.28
182.06
184.14
179.87
169.5
153.1
130.95
104
74.14
43.96
15.98
-8.06
-27.82
-44.17
-58.55
-72.1
-85.01
-96.44
-104.88
-108.93
-107.86
-102.02
-92.56
-80.98
-68.54
-55.96
-43.54
-31.35
-19.66
-9.05
-0.29
5.99
9.64
11.06
11.11
10.67
10.45
10.73
11.5
12.75
14.64
17.49
21.53
26.62
32.11
37.02
40.45
42.04
42.22
42.03
42.64
44.87
48.8
53.88
59.28
64.18
68.08
70.85
72.47
72.91
72.07
69.8
66.08
61.21
55.66
50.04
44.84
40.17
35.7
30.71
24.44
16.37
6.56
-4.32
-15.26
-25.25
-33.73
-40.64
-46.35
-51.31
-55.76
-59.68
-62.91
-65.31
-66.91
-67.84
-68.14
-67.62
-65.96
-62.85
-58.24
-52.4
-45.91
-39.38
-33.34
-28.11
-23.87
-20.63
-18.33
-16.78
-15.68
-14.71
-13.62
-12.35
-11.02
-9.93
-9.34
-9.33
-9.78
-10.36
-10.71
-10.57
-9.93
-9.01
-8.2
-7.89
-8.35
-9.64
-11.6
-13.9
-16.08
-17.67
-18.2
-17.36
-15.02
-11.33
-6.67
-1.57
3.41
7.82
11.37
13.94
15.53
16.22
16.11
15.41
14.38
13.31
12.47
12
11.87
11.91
11.81
11.32
10.28
8.74
6.87
4.91
3.02
1.21
-0.63
-2.73
-5.24
-8.16
-11.28
-14.15
-16.25
-17.13
-16.54
-14.53
-11.36
-7.43
-3.13
1.18
5.22
8.68
11.21
12.51
12.38
10.91
8.46
5.67
3.18
1.45
0.66
0.63
0.98
1.33
1.4
1.08
0.37
-0.68
-2.01
-3.6
-5.35
-7.17
-9.01
-10.87
-12.8
-14.74
-16.43
-17.39
-17.05
-15.06
-11.4
-6.5
-1.01
4.48
9.54
14
17.75
20.58
22.19
22.33
20.97
18.41
15.24
12.13
9.58
7.75
6.52
5.52
4.37
2.82
0.84
-1.49
-4
-6.54
-9.08
-11.63
-14.33
-17.36
-20.9
-25.03
-29.65
-34.39
-38.64
-41.74
-43.16
-42.77
-40.8
-37.73
-34
-29.89
-25.45
-20.76
-16.02
-11.6
-7.81
-4.66
-1.71
1.8
6.64
13.29
21.69
31.35
41.56
51.56
60.65
68.13
73.33
75.62
74.58
70.21
62.92
53.52
42.93
32.03
21.44
11.64
2.97
-4.2
-9.5
-12.6
-13.41
-12.27
-9.81
-6.82
-3.9
-1.25
1.37
4.48
8.39
12.95
17.41
20.75
22.16
21.45
19.24
16.72
15.03
14.78
15.86
17.52
18.8
18.96
17.53
14.33
9.23
2.05
-7.39
-18.94
-31.94
-45.26
-57.52
-67.42
-74.11
-77.29
-77.11
-73.97
-68.25
-60.32
-50.58
-39.58
-28.07
-16.91
-6.75
2.19
10.24
18.17
26.8
36.63
47.54
58.79
69.35
78.27
85.01
89.61
92.54
94.38
95.56
96.2
96.1
94.93
92.35
88.13
82.23
74.8
66.17
56.83
47.27
37.94
29.06
20.74
12.89
5.43
-1.62
-8.14
-13.95
-18.96
-23.2
-26.88
-30.2
-33.28
-36.04
-38.37
-40.14
-41.36
-42.2
-42.94
-43.88
-45.22
-47.09
-49.5
-52.43
-55.83
-59.65
-63.68
-67.53
-70.68
-72.49
-72.49
-70.43
-66.34
-60.42
-52.9
-43.9
-33.48
-21.67
-8.68
5.03
18.85
32.06
44.01
54.16
62.06
67.37
69.88
69.57
66.74
61.92
55.79
49.01
42.05
35.16
28.34
21.56
14.81
8.17
1.72
-4.51
-10.59
-16.52
-22.1
-26.87
-30.14
-31.29
-30.03
-26.57
-21.57
-15.85
-10.12
-4.79
-0.01
4.17
7.58
9.96
11.08
10.93
9.86
8.42
7.21
6.55
6.44
6.54
6.41
5.74
4.48
2.84
1.14
-0.4
-1.72
-2.97
-4.36
-6.09
-8.26
-10.85
-13.75
-16.7
-19.29
-20.98
-21.18
-19.51
-15.96
-10.96
-5.27
0.29
5.15
9.1
12.33
15.09
17.57
19.69
21.19
21.83
21.5
20.38
18.88
17.43
16.37
15.72
15.23
14.52
13.25
11.3
8.83
6.17
3.67
1.55
-0.18
-1.6
-2.87
-4.15
-5.52
-7.14
-9.14
-11.68
-14.76
-18.14
-21.27
-23.43
-23.98
-22.59
-19.47
-15.21
-10.59
-6.25
-2.52
0.66
3.52
6.25
8.91
11.32
13.28
14.59
15.24
15.31
14.97
14.4
13.67
12.83
11.87
10.81
9.68
8.52
7.35
6.13
4.76
3.16
1.27
-0.85
-3.02
-5.06
-6.81
-8.29
-9.7
-11.32
-13.37
-15.81
-18.29
-20.22
-20.98
-20.22
-17.97
-14.72
-11.06
-7.49
-4.21
-1.12
1.97
5.14
8.18
10.7
12.29
12.73
12.16
10.93
9.55
8.41
7.76
7.61
7.81
8.1
8.26
8.1
7.53
6.55
5.21
3.59
1.78
-0.08
-1.91
-3.62
-5.2
-6.76
-8.47
-10.56
-13.08
-15.9
-18.55
-20.39
-20.78
-19.33
-16.07
-11.44
-6.17
-0.97
3.58
7.18
9.76
11.34
11.96
11.65
10.5
8.75
6.79
5.1
4.07
3.84
4.25
4.9
5.31
5.13
4.24
2.75
0.93
-0.96
-2.74
-4.4
-5.97
-7.58
-9.29
-11.15
-13.19
-15.4
-17.69
-19.88
-21.65
-22.59
-22.35
-20.83
-18.27
-15.17
-12.14
-9.66
-7.94
-7
-6.76
-7.21
-8.38
-10.27
-12.8
-15.75
-18.9
-22.12
-25.42
-28.83
-32.28
-35.54
-38.25
-40.09
-40.88
-40.68
-39.75
-38.41
-36.98
-35.63
-34.38
-33.09
-31.5
-29.28
-26.13
-21.76
-15.98
-8.61
0.46
11.21
23.46
36.83
50.86
65.06
79.1
92.71
105.56
117.03
126.17
131.85
133
129.07
120.21
107.35
91.91
75.37
58.96
43.4
29.07
16.12
4.72
-4.94
-12.69
-18.59
-22.98
-26.42
-29.51
-32.63
-35.92
-39.25
-42.32
-44.76
-46.11
-45.93
-43.91
-39.98
-34.44
-27.92
-21.19
-14.97
-9.76
-5.84
-3.28
-2.04
-1.95
-2.73
-3.91
-4.98
-5.6
-5.71
-5.55
-5.48
-5.77
-6.42
-7.27
-8.13
-8.95
-9.89
-11.15
-12.88
-15.07
-17.6
-20.32
-23.14
-25.94
-28.46
-30.28
-30.82
-29.6
-26.42
-21.5
-15.39
-8.8
-2.39
3.34
8.11
11.75
14.14
15.2
15
13.79
11.99
10.13
8.65
7.74
7.35
7.23
7.14
6.96
6.65
6.22
5.6
4.64
3.16
1.06
-1.64
-4.77
-8.1
-11.35
-14.17
-16.18
-17.06
-16.61
-14.91
-12.25
-9.06
-5.74
-2.51
0.56
3.4
5.91
7.86
9.06
9.45
9.12
8.28
7.21
6.08
5
4.01
3.14
2.45
1.98
1.74
1.65
1.57
1.21
0.29
-1.49
-4.22
-7.71
-11.37
-14.42
-16.06
-15.8
-13.64
-10.05
-5.77
-1.53
2.21
5.27
7.7
9.6
11.01
11.84
11.97
11.34
10.03
8.26
6.34
4.55
3.02
1.72
0.5
-0.83
-2.39
-4.12
-5.88
-7.57
-9.23
-11.01
-12.96
-14.91
-16.37
-16.79
-15.74
-13.16
-9.44
-5.23
-1.07
2.79
6.38
9.77
12.82
15.1
16.21
15.83
13.97
11.18
8.29
6.06
4.77
4.12
3.49
2.56
1.16
-0.59
-2.26
-3.37
-3.89
-4.35
-5.77
-9.18
-14.71
-22.22
-31.21
-40.81
-50.01
-58.02
-64.29
-68.77
-71.77
-73.5
-75.43
-79.92
-89.39
-102.79
-116.37
-123.99
-120.09
-105.76
-81.14
-47.6
-7.63
35.84
78.67
117.1
148.52
171.46
185.49
191.74
191.43
185.89
176.5
164.59
151.18
136.86
121.74
105.91
90.39
76.32
64.94
57.17
53.22
52.32
52.93
53.29
52.17
49.68
46.52
43.56
41.28
39.46
37.36
34.1
29.09
22.22
14.04
5.17
-3.91
-12.87
-21.48
-29.53
-36.72
-42.79
-47.55
-50.91
-53.07
-54.42
-55.5
-56.72
-58.25
-59.96
-61.61
-62.97
-64.06
-65.18
-66.77
-69.19
-72.5
-76.44
-80.54
-84.39
-87.74
-90.6
-93.23
-95.95
-99.04
-102.57
-106.3
-109.72
-112.05
-112.39
-109.78
-103.46
-93
-78.47
-60.5
-40.19
-19.01
1.47
19.75
34.69
45.62
52.55
56.05
57.23
57.41
57.74
58.82
60.42
61.75
61.82
60.04
56.48
51.81
46.88
42.41
38.76
36.02
34.24
33.48
33.74
34.81
36.08
36.78
36.2
34.1
30.7
26.42
21.59
16.2
10.04
2.95
-4.83
-12.6
-19.38
-24.33
-26.98
-27.33
-25.84
-23.1
-19.75
-16.28
-13.12
-10.67
-9.37
-9.7
-11.92
-15.91
-20.96
-25.89
-29.38
-30.48
-29
-25.54
-21.16
-16.74
-12.62
-8.52
-3.88
1.64
7.9
14.35
20.39
25.66
30.23
34.38
38.3
41.86
44.56
45.82
45.24
42.87
39.24
35.1
31.16
27.82
25.11
22.78
20.6
18.5
16.67
15.45
15.21
16.12
18.15
21.09
24.63
28.39
32.02
35.21
37.9
40.46
43.74
48.82
56.4
66.22
76.78
85.63
90.21
88.8
81.14
68.42
52.64
35.76
19.17
3.58
-10.63
-23.03
-33.02
-40.05
-43.89
-44.92
-44.03
-42.36
-40.87
-40.09
-39.98
-40.1
-39.84
-38.77
-36.83
-34.31
-31.76
-29.74
-28.56
-28.26
-28.66
-29.47
-30.44
-31.36
-31.93
-31.8
-30.55
-27.91
-23.92
-19.01
-13.83
-9.04
-5.06
-1.98
0.37
2.16
3.48
4.3
4.56
4.26
3.5
2.42
1.14
-0.27
-1.78
-3.29
-4.67
-5.68
-6.15
-5.99
-5.3
-4.35
-3.52
-3.29
-4.09
-6.14
-9.38
-13.43
-17.62
-21.25
-23.75
-24.9
-24.81
-23.79
-22.22
-20.32
-18.22
-15.93
-13.48
-10.99
-8.67
-6.76
-5.41
-4.64
-4.35
-4.4
-4.65
-5.01
-5.48
-6.04
-6.67
-7.29
-7.78
-8.03
-7.99
-7.73
-7.45
-7.44
-7.94
-9.07
-10.77
-12.82
-14.93
-16.85
-18.39
-19.37
-19.66
-19.16
-17.89
-16
-13.78
-11.56
-9.58
-7.91
-6.47
-5.21
-4.17
-3.54
-3.54
-4.26
-5.59
-7.22
-8.83
-10.16
-11.13
-11.79
-12.15
-12.17
-11.79
-11.02
-10.05
-9.26
-9.06
-9.7
-11.1
-12.84
-14.25
-14.79
-14.16
-12.49
-10.16
-7.65
-5.27
-3.11
-1.08
1
3.19
5.44
7.55
9.31
10.56
11.19
11.23
10.72
9.77
8.52
7.13
5.75
4.49
3.36
2.31
1.17
-0.27
-2.21
-4.77
-7.88
-11.22
-14.31
-16.61
-17.7
-17.43
-15.94
-13.61
-10.88
-8.07
-5.36
-2.77
-0.29
2.01
3.97
5.41
6.23
6.37
5.84
4.65
2.76
0.2
-2.89
-6.12
-9.01
-11.06
-12.05
-12.1
-11.63
-11.25
-11.43
-12.38
-14.04
-16.06
-18.01
-19.45
-20.06
-19.65
-18.26
-16.14
-13.66
-11.21
-9.08
-7.38
-5.99
-4.69
-3.28
-1.64
0.16
2
3.68
5.11
6.24
7.11
7.75
8.18
8.34
8.16
7.6
6.64
5.33
3.77
2.01
0.07
-2
-4.09
-5.91
-6.92
-6.47
-4
0.69
7.17
14.48
21.45
27.04
30.79
32.92
34.11
35.15
36.54
38.26
39.87
40.76
40.47
38.91
36.32
33.18
29.88
26.67
23.54
20.39
17.14
13.83
10.61
7.6
4.77
1.93
-1.24
-5.06
-9.73
-15.31
-21.67
-28.46
-35.11
-40.81
-44.65
-45.83
-43.96
-39.27
-32.57
-25.06
-17.91
-11.94
-7.47
-4.39
-2.34
-1.03
-0.24
0.09
0.05
-0.16
-0.23
0.16
1.26
3.18
5.9
9.42
13.81
19.22
25.7
32.96
40.34
46.9
51.6
53.69
52.83
49.07
42.69
34.04
23.4
11.15
-2.16
-15.69
-28.34
-38.88
-46.28
-49.86
-49.46
-45.42
-38.42
-29.3
-18.85
-7.69
3.76
15.19
26.33
36.87
46.47
54.89
62.06
68.04
73
77.02
79.9
81.2
80.34
76.94
71.08
63.37
54.82
46.49
39.11
32.84
27.42
22.36
17.24
11.86
6.16
0.14
-6.27
-13.17
-20.62
-28.44
-36.19
-43.23
-48.89
-52.58
-53.98
-53.05
-50.06
-45.47
-39.89
-33.9
-27.99
-22.51
-17.64
-13.49
-10.11
-7.5
-5.63
-4.32
-3.29
-2.21
-0.76
1.19
3.56
6.03
8.26
9.94
10.98
11.42
11.41
11.1
10.58
9.89
8.99
7.88
6.53
4.99
3.3
1.45
-0.62
-3.05
-5.98
-9.47
-13.27
-16.85
-19.46
-20.42
-19.4
-16.6
-12.62
-8.22
-4.01
-0.27
3.02
6.03
8.79
11.15
12.86
13.71
13.71
13.13
12.38
11.86
11.82
12.22
12.84
13.29
13.2
12.37
10.79
8.7
6.43
4.29
2.5
1.1
0
-0.9
-1.77
-2.71
-3.84
-5.26
-7.04
-9.19
-11.6
-14.03
-16.1
-17.35
-17.37
-15.95
-13.15
-9.36
-5.14
-1.08
2.4
5.14
7.19
8.66
9.65
10.15
10.14
9.63
8.75
7.72
6.74
6.03
5.67
5.72
6.1
6.67
7.17
7.31
6.83
5.64
3.83
1.67
-0.48
-2.28
-3.61
-4.47
-5.1
-5.78
-6.83
-8.4
-10.46
-12.67
-14.52
-15.46
-15.12
-13.44
-10.66
-7.3
-3.85
-0.69
2
4.19
5.91
7.19
7.98
8.26
8.03
7.44
6.72
6.16
5.9
5.97
6.21
6.38
6.32
5.99
5.46
4.85
4.22
3.53
2.66
1.49
-0.03
-1.86
-3.97
-6.3
-8.76
-11.22
-13.43
-15.04
-15.71
-15.24
-13.63
-11.13
-8.15
-5.13
-2.42
-0.18
1.6
2.99
4.02
4.67
4.87
4.59
3.99
3.3
2.8
2.64
2.81
3.08
3.22
3.05
2.56
1.83
1
0.14
-0.75
-1.74
-2.87
-4.18
-5.63
-7.18
-8.81
-10.45
-12.05
-13.49
-14.6
-15.24
-15.31
-14.73
-13.53
-11.74
-9.42
-6.65
-3.53
-0.25
2.96
5.82
8.1
9.55
10.07
9.63
8.36
6.51
4.43
2.48
0.94
-0.03
-0.45
-0.44
-0.17
0.26
0.76
1.24
1.6
1.68
1.35
0.57
-0.55
-1.81
-2.97
-3.81
-4.24
-4.26
-3.93
-3.31
-2.45
-1.4
-0.28
0.74
1.47
1.73
1.5
0.86
0.03
-0.75
-1.33
-1.63
-1.74
-1.74
-1.77
-1.85
-1.95
-2.04
-2.09
-2.16
-2.34
-2.73
-3.38
-4.26
-5.31
-6.49
-7.79
-9.32
-11.2
-13.45
-15.96
-18.42
-20.43
-21.58
-21.63
-20.57
-18.58
-16
-13.09
-10.06
-6.98
-3.89
-0.9
1.75
3.78
4.95
5.22
4.79
4.06
3.43
3.17
3.29
3.59
3.77
3.53
2.72
1.34
-0.48
-2.51
-4.52
-6.35
-7.9
-9.2
-10.31
-11.31
-12.19
-12.87
-13.23
-13.15
-12.5
-11.23
-9.26
-6.6
-3.37
0.2
3.74
6.88
9.3
10.83
11.48
11.36
10.66
9.53
8.18
6.81
5.59
4.61
3.87
3.23
2.5
1.6
0.53
-0.59
-1.66
-2.72
-3.9
-5.41
-7.33
-9.57
-11.82
-13.64
-14.66
-14.64
-13.6
-11.69
-9.19
-6.37
-3.43
-0.55
2.13
4.5
6.44
7.83
8.65
8.88
8.61
7.99
7.21
6.44
5.76
5.2
4.68
4.1
3.31
2.27
0.98
-0.45
-1.91
-3.35
-4.78
-6.3
-8.02
-9.98
-12.07
-14.05
-15.64
-16.61
-16.86
-16.39
-15.25
-13.5
-11.17
-8.27
-4.88
-1.19
2.53
5.93
8.75
10.83
12.19
12.93
13.19
13.1
12.69
11.98
11.02
9.88
8.7
7.61
6.68
5.88
5.13
4.29
3.27
2.02
0.55
-1.1
-2.85
-4.7
-6.66
-8.85
-11.37
-14.27
-17.36
-20.25
-22.35
-23.12
-22.24
-19.76
-16.08
-11.74
-7.27
-3.04
0.77
4.04
6.69
8.57
9.6
9.81
9.42
8.81
8.34
8.26
8.59
9.17
9.72
10.06
10.13
10.01
9.86
9.78
9.72
9.5
8.89
7.76
6.09
3.97
1.5
-1.29
-4.48
-8.26
-12.74
-17.78
-22.87
-27.19
-29.82
-30.06
-27.73
-23.16
-17.11
-10.4
-3.66
2.82
9.06
15.16
21.13
26.76
31.68
35.49
37.96
39.11
39.17
38.59
37.77
37.04
36.49
36.01
35.4
34.4
32.87
30.77
28.18
25.17
21.8
18.01
13.74
8.95
3.82
-1.35
-6.18
-10.4
-14.06
-17.43
-20.85
-24.41
-27.78
-30.25
-30.99
-29.46
-25.61
-20.02
-13.63
-7.44
-2.19
1.82
4.7
6.77
8.38
9.78
11.07
12.31
13.54
14.9
16.53
18.47
20.46
21.96
22.35
21.22
18.5
14.53
9.85
5
0.31
-4.1
-8.23
-12.03
-15.36
-18.17
-20.56
-22.95
-25.83
-29.58
-34.09
-38.72
-42.47
-44.25
-43.36
-39.62
-33.39
-25.42
-16.59
-7.79
0.18
6.63
11.1
13.44
13.86
13.01
11.77
11.12
11.94
14.68
19.34
25.39
31.93
37.94
42.54
45.19
45.75
44.36
41.28
36.84
31.39
25.37
19.25
13.43
8.09
3.2
-1.4
-5.77
-9.76
-12.97
-14.91
-15.24
-14.05
-11.85
-9.34
-7.14
-5.49
-4.16
-2.73
-0.83
1.6
4.26
6.66
8.4
9.37
9.81
10.13
10.64
11.44
12.33
12.98
13.07
12.46
11.24
9.71
8.25
7.15
6.5
6.17
5.84
5.15
3.83
1.69
-1.24
-4.79
-8.65
-12.38
-15.5
-17.64
-18.58
-18.37
-17.28
-15.69
-13.91
-12.21
-10.67
-9.34
-8.28
-7.65
-7.56
-8.1
-9.15
-10.43
-11.59
-12.32
-12.44
-11.9
-10.79
-9.24
-7.41
-5.41
-3.37
-1.44
0.25
1.52
2.19
2.09
1.12
-0.71
-3.2
-6.02
-8.67
-10.64
-11.52
-11.05
-9.23
-6.33
-2.77
0.97
4.49
7.48
9.77
11.24
11.82
11.52
10.44
8.8
6.92
5.09
3.54
2.32
1.29
0.28
-0.91
-2.29
-3.77
-5.12
-6.13
-6.68
-6.85
-6.84
-6.95
-7.4
-8.24
-9.32
-10.32
-10.9
-10.81
-9.92
-8.27
-6.01
-3.34
-0.47
2.33
4.83
6.81
8.07
8.53
8.22
7.26
5.9
4.4
3.01
1.94
1.3
1.13
1.37
1.87
2.37
2.6
2.29
1.17
-0.88
-3.88
-7.62
-11.64
-15.38
-18.23
-19.77
-19.82
-18.48
-15.99
-12.64
-8.66
-4.29
0.19
4.38
7.78
9.91
10.47
9.52
7.44
4.86
2.39
0.43
-0.93
-1.86
-2.59
-3.26
-3.83
-4.19
-4.27
-4.19
-4.23
-4.78
-6.13
-8.43
-11.61
-15.37
-19.19
-22.34
-24.03
-23.62
-20.87
-16.14
-10.23
-4.14
1.33
5.77
9.18
11.77
13.64
14.74
14.85
13.84
11.88
9.48
7.33
5.99
5.69
6.22
7.03
7.57
7.39
6.37
4.62
2.36
-0.22
-3.09
-6.24
-9.63
-13.11
-16.46
-19.42
-21.79
-23.37
-23.93
-23.23
-21.04
-17.35
-12.46
-6.97
-1.58
3.1
6.81
9.61
11.73
13.35
14.51
15.16
15.28
15.03
14.67
14.48
14.61
14.98
15.43
15.71
15.7
15.34
14.68
13.75
12.56
11.08
9.31
7.27
5.05
2.76
0.46
-1.86
-4.34
-7.18
-10.57
-14.47
-18.51
-21.98
-24.04
-24.05
-21.83
-17.81
-12.83
-7.82
-3.45
0.05
2.86
5.35
7.76
10.06
12
13.3
13.84
13.8
13.53
13.37
13.45
13.65
13.7
13.34
12.53
11.47
10.47
9.75
9.33
9.04
8.53
7.55
5.95
3.82
1.43
-0.93
-3.01
-4.82
-6.52
-8.43
-10.75
-13.4
-15.88
-17.48
-17.53
-15.69
-12.13
-7.44
-2.4
2.34
6.42
9.82
12.69
15.2
17.46
19.37
20.75
21.41
21.28
20.42
19.04
17.41
15.73
14.09
12.5
10.98
9.6
8.46
7.6
6.88
6.02
4.68
2.67
0.03
-2.88
-5.66
-7.97
-9.73
-11.06
-12.24
-13.57
-15.24
-17.31
-19.58
-21.65
-22.95
-22.9
-21.09
-17.49
-12.42
-6.53
-0.56
4.87
9.4
12.9
15.44
17.12
18.03
18.22
17.71
16.61
15.07
13.4
11.9
10.86
10.4
10.51
11
11.67
12.33
12.81
12.98
12.65
11.62
9.74
7
3.58
-0.19
-3.9
-7.24
-10.05
-12.35
-14.25
-15.78
-16.84
-17.13
-16.37
-14.36
-11.3
-7.63
-3.97
-0.85
1.57
3.49
5.31
7.36
9.64
11.76
13.19
13.51
12.74
11.33
10.01
9.42
9.84
11.07
12.53
13.59
13.85
13.21
11.93
10.32
8.63
6.91
5.01
2.76
0.07
-3.01
-6.29
-9.54
-12.56
-15.19
-17.22
-18.4
-18.47
-17.36
-15.27
-12.77
-10.52
-9.02
-8.25
-7.68
-6.52
-4.1
-0.25
4.64
9.77
14.38
17.94
20.36
21.78
22.36
22.16
21.13
19.2
16.45
13.19
9.86
6.94
4.77
3.43
2.73
2.3
1.7
0.58
-1.24
-3.77
-6.85
-10.11
-13.06
-15.09
-15.65
-14.42
-11.42
-7.09
-2.13
2.63
6.57
9.26
10.65
10.89
10.29
9.25
8.16
7.37
7.06
7.19
7.49
7.55
6.98
5.62
3.59
1.26
-0.89
-2.46
-3.2
-3.09
-2.31
-1.11
0.21
1.34
1.98
1.93
1.13
-0.35
-2.27
-4.28
-6.09
-7.52
-8.57
-9.35
-10.04
-10.71
-11.34
-11.83
-12.08
-12.07
-11.93
-11.78
-11.7
-11.61
-11.32
-10.6
-9.43
-7.97
-6.56
-5.61
-5.32
-5.71
-6.62
-7.8
-9.07
-10.32
-11.52
-12.67
-13.75
-14.71
-15.44
-15.83
-15.78
-15.28
-14.36
-13.08
-11.52
-9.75
-7.77
-5.66
-3.52
-1.6
-0.14
0.64
0.67
0.11
-0.78
-1.64
-2.2
-2.34
-2.06
-1.5
-0.82
-0.15
0.4
0.79
0.99
0.94
0.58
-0.15
-1.22
-2.54
-3.92
-5.1
-5.81
-5.81
-5.01
-3.56
-1.77
-0.11
1.01
1.35
0.92
-0.07
-1.3
-2.5
-3.47
-4.14
-4.51
-4.57
-4.35
-3.94
-3.51
-3.26
-3.4
-4.03
-5.11
-6.52
-8.16
-9.97
-11.98
-14.18
-16.49
-18.61
-20.17
-20.72
-19.98
-17.86
-14.57
-10.47
-6.04
-1.75
2.02
4.99
7
7.98
8.02
7.29
6.01
4.46
2.93
1.65
0.82
0.5
0.67
1.22
1.98
2.75
3.44
3.98
4.34
4.42
4.08
3.12
1.54
-0.58
-2.91
-4.92
-6.09
-6.21
-5.42
-4.15
-2.78
-1.36
0.21
2.13
4.49
7.1
9.2
9.9
8.56
5.25
1.03
-2.99
-5.82
-6.92
-6.24
-4.6
-3.18
-3.14
-5.14
-8.86
-14.02
-20.27
-27.27
-34.69
-42.65
-51.25
-60.23
-68.88
-75.82
-80.98
-85.43
-90.78
-94.84
-94.57
-86.81
-70.34
-49.48
-24.83
3.53
35.83
72.14
111.7
152.62
191.78
224.81
247.04
255.51
249.13
229.76
201.83
170.86
141.24
115.2
92.72
72.54
53.74
35.61
18.08
1.67
-12.91
-25.43
-36.1
-45.45
-53.99
-61.61
-68.17
-73.34
-76.78
-78.33
-78.22
-77.05
-75.46
-73.79
-71.72
-68.72
-64.3
-58.41
-51.63
-45.17
-40.33
-38.01
-38.18
-39.78
-41.14
-40.67
-37.45
-31.56
-24.03
-16.32
-9.79
-5.23
-2.73
-1.88
-2.1
-2.92
-4.11
-5.61
-7.47
-9.74
-12.42
-15.4
-18.37
-20.84
-22.19
-21.94
-19.95
-16.59
-12.55
-8.5
-4.78
-1.27
2.44
6.65
11.18
15.33
18.13
18.78
17.1
13.7
9.75
6.59
5.26
6.14
8.91
12.69
16.43
19.29
20.93
21.52
21.49
21.35
21.4
21.72
22.24
22.8
23.2
23.19
22.42
20.57
17.42
12.97
7.44
1.11
-5.8
-13.17
-20.86
-28.54
-35.66
-41.48
-45.36
-46.99
-46.52
-44.47
-41.51
-38.12
-34.44
-30.22
-24.85
-17.63
-8.09
3.85
17.74
32.65
47.51
61.39
73.76
84.51
93.74
101.44
107.28
110.63
110.84
107.54
100.92
91.74
81.06
69.85
58.69
47.64
36.43
24.69
12.4
-0
-11.7
-21.84
-29.85
-35.71
-39.83
-42.8
-45.1
-46.85
-47.86
-47.93
-47.04
-45.47
-43.76
-42.39
-41.71
-41.74
-42.29
-43.07
-43.89
-44.6
-45.12
-45.3
-44.8
-43.09
-39.56
-33.8
-25.81
-16.13
-5.72
4.28
12.91
19.65
24.43
27.49
29.16
29.61
28.91
27.02
23.98
19.99
15.41
10.67
6.19
2.23
-1.09
-3.82
-6.11
-8.19
-10.4
-13.16
-16.88
-21.85
-27.97
-34.59
-40.58
-44.63
-45.73
-43.68
-39.09
-33.15
-27.08
-21.53
-16.43
-11.06
-4.53
3.7
13.48
23.96
33.96
42.3
48.08
50.83
50.41
47
41.03
32.9
23.28
13.18
3.81
-3.79
-8.96
-11.82
-13.05
-13.53
-14.51
-16.72
-20.12
-23.96
-27.17
-28.72
-28.36
-26.29
-22.92
-19.55
-17.18
-16.34
-17.06
-19.22
-22.55
-27.52
-34.48
-43.38
-54.72
-68.3
-83.12
-97.59
-110.28
-120.18
-127.98
-134.87
-135.86
-127.53
-109.17
-83.27
-53.55
-25.7
0.56
25.17
47.83
68.79
86.92
101.72
113.74
124.25
134.33
144.61
154.07
161.22
164.86
163.75
157.94
148.68
138.06
127.97
119.81
113.39
107.69
101.35
92.49
79.7
62.44
41.18
17.25
-7.31
-30.69
-51.16
-67.24
-78.13
-83.47
-83.47
-78.96
-71.51
-62.98
-55.3
-49.61
-45.91
-43.35
-40.68
-37.01
-32.2
-26.76
-21.42
-16.69
-12.61
-8.85
-5.13
-1.45
1.83
4.19
5.28
5.1
4.02
2.58
1.34
0.65
0.68
1.3
2.26
3.18
3.73
3.71
3.1
2.04
0.64
-1.13
-3.35
-6.03
-8.85
-11.14
-12.06
-10.97
-7.77
-2.96
2.5
7.61
11.63
14.29
15.62
15.79
14.88
12.9
9.84
5.87
1.37
-3.08
-6.89
-9.63
-11.16
-11.72
-11.79
-11.93
-12.52
-13.7
-15.32
-17.12
-18.93
-20.66
-22.31
-23.75
-24.57
-24.12
-21.8
-17.43
-11.41
-4.71
1.51
6.35
9.51
11.29
12.28
13
13.62
13.96
13.7
12.65
10.89
8.72
6.49
4.4
2.41
0.39
-1.74
-3.86
-5.72
-7.05
-7.76
-8.05
-8.35
-9.14
-10.68
-12.86
-15.23
-17.12
-17.89
-17.2
-15.11
-12.06
-8.7
-5.67
-3.4
-2.03
-1.47
-1.47
-1.78
-2.21
-2.68
-3.17
-3.68
-4.26
-4.91
-5.69
-6.56
-7.52
-8.48
-9.37
-10.05
-10.43
-10.4
-9.97
-9.25
-8.47
-7.84
-7.42
-7.04
-6.31
-4.81
-2.28
1.2
5.22
9.3
13.04
16.29
19.05
21.32
22.96
23.69
23.27
21.71
19.31
16.6
14.06
12.02
10.54
9.46
8.6
7.83
7.02
6.09
4.9
3.35
1.4
-0.91
-3.44
-5.96
-8.19
-9.83
-10.53
-10.01
-8.23
-5.4
-2
1.38
4.24
6.32
7.64
8.36
8.67
8.62
8.18
7.31
6.06
4.57
3.06
1.72
0.66
-0.08
-0.55
-0.81
-0.91
-0.88
-0.79
-0.74
-0.84
-1.27
-2.14
-3.5
-5.26
-7.18
-8.93
-10.08
-10.3
-9.44
-7.64
-5.22
-2.59
-0.07
2.17
4.18
6.04
7.81
9.36
10.5
11.01
10.85
10.2
9.38
8.74
8.48
8.56
8.75
8.8
8.55
8.01
7.3
6.59
5.92
5.18
4.15
2.6
0.4
-2.45
-5.76
-9.24
-12.49
-15.09
-16.61
-16.75
-15.47
-12.95
-9.64
-6.04
-2.61
0.37
2.84
4.87
6.55
7.89
8.85
9.34
9.32
8.83
8.01
7.02
6.04
5.17
4.45
3.86
3.36
2.91
2.48
2.11
1.86
1.76
1.78
1.81
1.69
1.26
0.49
-0.54
-1.63
-2.54
-3.13
-3.46
-3.74
-4.32
-5.48
-7.27
-9.44
-11.51
-12.92
-13.25
-12.35
-10.42
-7.82
-4.97
-2.16
0.51
3
5.34
7.48
9.32
10.77
11.78
12.37
12.6
12.58
12.37
12.06
11.69
11.31
10.91
10.46
9.88
9.15
8.26
7.3
6.42
5.71
5.19
4.72
4.07
3.01
1.45
-0.47
-2.46
-4.16
-5.36
-6.06
-6.49
-7.01
-7.9
-9.28
-11.12
-13.26
-15.5
-17.66
-19.5
-20.76
-21.21
-20.66
-19.12
-16.87
-14.34
-11.95
-9.95
-8.29
-6.73
-4.95
-2.8
-0.34
2.12
4.27
5.92
7.12
8.08
9
9.89
10.57
10.77
10.34
9.41
8.32
7.49
7.17
7.34
7.68
7.82
7.45
6.45
4.94
3.12
1.24
-0.54
-2.1
-3.44
-4.66
-5.93
-7.45
-9.31
-11.47
-13.7
-15.62
-16.78
-16.82
-15.6
-13.23
-10.1
-6.67
-3.37
-0.48
1.92
3.89
5.47
6.71
7.58
8.04
8.1
7.83
7.33
6.76
6.2
5.74
5.4
5.2
5.13
5.17
5.25
5.29
5.2
4.88
4.31
3.5
2.48
1.33
0.07
-1.25
-2.64
-4.08
-5.55
-7.04
-8.57
-10.13
-11.67
-13.01
-13.88
-13.94
-12.95
-10.89
-7.99
-4.69
-1.45
1.37
3.59
5.24
6.48
7.44
8.15
8.54
8.5
7.97
7.02
5.86
4.69
3.64
2.66
1.58
0.32
-1.08
-2.39
-3.29
-3.62
-3.39
-2.88
-2.4
-2.17
-2.19
-2.31
-2.32
-2.14
-1.91
-1.92
-2.5
-3.82
-5.84
-8.25
-10.53
-12.09
-12.41
-11.23
-8.56
-4.74
-0.33
4.05
7.82
10.65
12.44
13.27
13.31
12.71
11.62
10.19
8.59
7.01
5.54
4.2
2.96
1.77
0.72
-0.03
-0.34
-0.16
0.35
0.96
1.43
1.65
1.7
1.62
1.36
0.68
-0.74
-3.06
-6.17
-9.67
-13
-15.62
-17.18
-17.51
-16.58
-14.45
-11.29
-7.42
-3.36
0.34
3.23
5.17
6.36
7.18
8
8.93
9.83
10.43
10.55
10.25
9.75
9.34
9.14
9.01
8.65
7.76
6.18
4
1.46
-1.09
-3.4
-5.28
-6.67
-7.53
-7.86
-7.75
-7.38
-7.13
-7.39
-8.48
-10.38
-12.68
-14.73
-15.83
-15.56
-13.86
-11.06
-7.6
-3.88
-0.11
3.58
7.07
10.13
12.52
14.01
14.59
14.4
13.73
12.81
11.79
10.7
9.5
8.13
6.55
4.75
2.78
0.77
-1.11
-2.69
-3.94
-4.95
-6.01
-7.45
-9.5
-12.13
-14.98
-17.45
-18.87
-18.73
-16.86
-13.46
-9.03
-4.2
0.45
4.56
8
10.75
12.79
13.95
14.03
12.85
10.5
7.31
3.83
0.67
-1.74
-3.22
-3.85
-3.89
-3.64
-3.4
-3.35
-3.56
-4.01
-4.63
-5.35
-6.16
-7.14
-8.35
-9.74
-11.09
-11.97
-11.93
-10.67
-8.2
-4.86
-1.17
2.32
5.25
7.4
8.72
9.21
8.89
7.82
6.15
4.11
2.05
0.33
-0.72
-0.9
-0.19
1.24
3.01
4.64
5.66
5.86
5.35
4.52
3.82
3.52
3.52
3.36
2.43
0.31
-3.02
-7.04
-10.9
-13.66
-14.73
-14.02
-11.99
-9.35
-6.71
-4.32
-1.99
0.66
3.91
7.64
11.33
14.31
16.08
16.57
16.04
14.93
13.52
11.87
9.91
7.72
5.61
4.13
3.72
4.46
5.97
7.54
8.47
8.4
7.37
5.72
3.69
1.28
-1.76
-5.64
-10.21
-14.86
-18.64
-20.67
-20.49
-18.27
-14.65
-10.49
-6.5
-3.07
-0.35
1.73
3.22
4.26
5.07
5.97
7.36
9.55
12.61
16.27
20.06
23.38
25.77
27.03
27.22
26.61
25.51
24.09
22.35
20.11
17.17
13.4
8.87
3.82
-1.31
-5.99
-9.72
-12.06
-12.74
-11.75
-9.3
-5.89
-2.16
1.22
3.69
4.87
4.64
3.06
0.35
-3.18
-7.14
-11.12
-14.66
-17.44
-19.27
-20.18
-20.43
-20.4
-20.41
-20.72
-21.33
-22.12
-22.97
-23.87
-25
-26.62
-28.97
-32.12
-36.03
-40.6
-45.81
-51.56
-57.53
-63.01
-66.94
-68.31
-66.56
-61.88
-55.08
-47.04
-38.18
-28.21
-16.45
-2.45
13.38
29.71
44.8
57.23
66.47
72.89
77.36
80.52
82.46
82.83
81.27
77.89
73.27
68.3
63.57
59.19
54.83
50.15
45.24
40.8
37.9
37.39
39.42
43.23
47.48
50.81
52.36
52.05
50.44
48.42
46.68
45.57
44.97
44.46
43.56
41.82
38.94
34.68
28.9
21.56
12.91
3.41
-6.17
-15.02
-22.45
-28.12
-32.1
-34.82
-36.81
-38.46
-39.9
-41.08
-41.87
-42.26
-42.37
-42.49
-42.88
-43.65
-44.82
-46.22
-47.67
-48.92
-49.74
-49.82
-48.88
-46.75
-43.5
-39.47
-35.2
-31.21
-27.83
-25.09
-22.8
-20.69
-18.59
-16.5
-14.57
-12.95
-11.69
-10.64
-9.49
-7.82
-5.26
-1.66
2.96
8.29
13.93
19.38
24.15
27.76
29.83
30.05
28.29
24.66
19.54
13.55
7.4
1.77
-2.85
-6.28
-8.58
-10.01
-10.94
-11.67
-12.39
-13.15
-13.88
-14.56
-15.18
-15.79
-16.42
-17.02
-17.45
-17.56
-17.19
-16.36
-15.17
-13.87
-12.69
-11.77
-11.13
-10.73
-10.51
-10.49
-10.79
-11.46
-12.43
-13.36
-13.71
-12.84
-10.26
-5.8
0.32
7.5
15.02
22.29
29.14
36.09
44.21
54.84
68.94
86.45
105.83
124.26
138.28
144.84
142.23
130.59
111.66
88.12
62.72
37.67
14.5
-5.84
-22.71
-35.65
-44.57
-49.86
-52.49
-53.8
-55.05
-57.04
-59.89
-63.12
-65.96
-67.74
-68.1
-67.02
-64.7
-61.36
-57.17
-52.27
-46.81
-41.02
-35.17
-29.47
-24.05
-18.93
-14.12
-9.69
-5.78
-2.54
-0.02
1.88
3.3
4.41
5.21
5.63
5.55
4.94
3.9
2.53
0.94
-0.91
-3.06
-5.51
-8.15
-10.81
-13.38
-15.79
-18.03
-19.98
-21.41
-21.99
-21.48
-19.93
-17.67
-15.22
-13.02
-11.27
-9.91
-8.78
-7.76
-6.87
-6.16
-5.58
-4.93
-3.89
-2.22
0.08
2.73
5.22
7.08
8.03
8.08
7.48
6.58
5.64
4.77
3.94
3.01
1.83
0.3
-1.56
-3.59
-5.49
-6.88
-7.46
-7.09
-5.88
-4.11
-2.14
-0.28
1.33
2.65
3.65
4.25
4.29
3.67
2.45
0.9
-0.58
-1.62
-2.11
-2.25
-2.49
-3.33
-5.18
-8.12
-11.88
-15.94
-19.63
-22.47
-24.31
-25.4
-26.32
-27.67
-29.87
-32.88
-36.09
-38.54
-39.18
-37.25
-32.52
-25.31
-16.33
-6.37
3.84
13.77
23.04
31.31
38.24
43.53
47.09
49.17
50.3
51.09
51.93
52.87
53.55
53.39
51.78
48.43
43.39
37.1
30.22
23.36
16.97
11.06
5.3
-0.87
-7.95
-16.13
-25.05
-33.83
-41.32
-46.41
-48.38
-46.93
-42.25
-34.78
-25.04
-13.48
-0.47
13.56
28.13
42.51
55.9
67.6
77.21
84.81
90.89
96
100.35
103.52
104.48
102.05
95.39
84.49
70.15
53.83
37.06
21
6.32
-6.78
-18.3
-28.23
-36.47
-43.04
-48.1
-51.97
-55.03
-57.42
-58.94
-59.15
-57.6
-54.14
-49.07
-43.09
-36.93
-31.19
-26.13
-21.78
-18.11
-15.18
-13.06
-11.77
-11.19
-11.06
-11.08
-11.05
-10.87
-10.59
-10.26
-9.93
-9.64
-9.41
-9.28
-9.29
-9.43
-9.6
-9.66
-9.5
-9.13
-8.7
-8.44
-8.48
-8.77
-8.99
-8.75
-7.77
-6.07
-3.89
-1.56
0.61
2.52
4.12
5.36
6.13
6.33
6
5.37
4.77
4.44
4.37
4.39
4.28
4
3.7
3.62
3.92
4.53
5.19
5.67
5.84
5.72
5.47
5.12
4.63
3.79
2.44
0.48
-2.06
-5.12
-8.67
-12.8
-17.65
-23.25
-29.41
-35.57
-40.93
-44.67
-46.3
-45.8
-43.62
-40.53
-37.32
-34.52
-32.27
-30.27
-27.94
-24.59
-19.71
-13.13
-5.21
3.2
11.04
17.31
21.47
23.53
24.02
23.73
23.44
23.71
24.8
26.67
29.09
31.67
33.97
35.62
36.41
36.35
35.7
34.81
34
33.39
32.95
32.55
32.05
31.35
30.33
28.83
26.61
23.47
19.37
14.5
9.2
3.88
-1.23
-6.06
-10.69
-15.22
-19.65
-23.86
-27.56
-30.33
-31.7
-31.25
-28.75
-24.35
-18.62
-12.37
-6.48
-1.62
1.9
4.13
5.19
5.21
4.1
1.69
-2.14
-7.31
-13.3
-19.23
-23.97
-26.41
-25.76
-21.82
-15.05
-6.5
2.54
10.92
17.94
23.34
27.18
29.5
30.18
29.03
26.01
21.47
16.24
11.31
7.56
5.43
4.87
5.52
6.85
8.42
9.84
10.87
11.42
11.58
11.56
11.6
11.73
11.72
11.13
9.46
6.47
2.2
-3.13
-9.21
-15.8
-22.72
-29.73
-36.44
-42.32
-46.84
-49.62
-50.63
-50.22
-48.96
-47.41
-45.88
-44.19
-41.84
-38.25
-33.23
-27.12
-20.74
-14.96
-10.25
-6.42
-2.78
1.42
6.55
12.41
18.35
23.67
28
31.37
34.14
36.64
38.92
40.71
41.54
40.99
38.95
35.69
31.74
27.72
24.03
20.79
17.98
15.56
13.62
12.27
11.46
10.88
9.98
8.32
5.75
2.64
-0.41
-2.87
-4.61
-5.91
-7.1
-8.18
-8.75
-8.14
-5.98
-2.48
1.48
4.71
6.17
5.3
2.12
-2.89
-8.92
-14.94
-19.76
-22.25
-21.69
-18.04
-12.04
-4.98
1.75
7.12
10.69
12.46
12.67
11.45
8.79
4.58
-1.16
-8.07
-15.35
-21.86
-26.32
-27.61
-25.15
-19.24
-11.02
-2.16
5.83
12.13
16.92
21.08
25.67
31.18
37.28
42.96
47.08
48.97
48.71
46.95
44.51
41.9
39.14
35.9
31.86
26.98
21.55
16.06
10.94
6.31
2.04
-2.15
-6.49
-10.94
-15.21
-18.96
-21.93
-24.14
-25.82
-27.29
-28.67
-29.84
-30.37
-29.84
-27.98
-24.86
-20.8
-16.24
-11.51
-6.78
-2.15
2.24
6.07
8.93
10.52
10.82
10.19
9.2
8.41
8.13
8.37
8.91
9.49
9.99
10.48
11.11
11.97
12.98
13.97
14.72
15.1
15.1
14.7
13.91
12.7
11.01
8.86
6.33
3.63
0.98
-1.3
-2.98
-3.83
-3.69
-2.51
-0.28
2.87
6.71
10.84
14.74
17.86
19.73
20.15
19.33
17.78
16.09
14.62
13.26
11.53
8.74
4.39
-1.64
-9.03
-17.13
-25.21
-32.7
-39.39
-45.37
-51.07
-57.02
-63.52
-70.27
-76.21
-79.71
-79.12
-73.37
-62.55
-47.91
-31.45
-15.25
-0.95
10.49
18.69
23.63
25.41
24.29
20.79
15.76
10.34
5.59
2.25
0.48
-0.09
-0.18
-0.48
-1.35
-2.69
-4.1
-5.1
-5.26
-4.3
-1.99
1.8
7.08
13.59
20.74
27.65
33.47
37.64
40.1
41.23
41.56
41.55
41.35
40.81
39.63
37.54
34.47
30.57
26.22
21.93
18.17
15.24
13.19
11.85
10.85
9.76
8.23
6.1
3.46
0.61
-2.1
-4.42
-6.3
-7.95
-9.76
-12.07
-15.11
-18.9
-23.26
-27.9
-32.45
-36.53
-39.76
-41.81
-42.41
-41.54
-39.47
-36.67
-33.72
-31.04
-28.75
-26.7
-24.6
-22.26
-19.61
-16.74
-13.79
-10.88
-8.08
-5.48
-3.3
-1.82
-1.28
-1.76
-3.07
-4.81
-6.53
-7.89
-8.81
-9.51
-10.37
-11.82
-14.16
-17.43
-21.45
-25.78
-29.94
-33.54
-36.46
-38.82
-40.93
-43.06
-45.27
-47.25
-48.38
-47.87
-45.01
-39.35
-30.88
-20.09
-7.85
4.77
16.72
27.19
35.65
41.81
45.53
46.73
45.5
42.11
37.08
31.21
25.35
20.19
16.05
12.82
10.09
7.35
4.24
0.69
-3.1
-6.68
-9.56
-11.31
-11.68
-10.59
-8.07
-4.17
1.12
7.75
15.56
24.19
33.08
41.53
48.9
54.61
58.09
58.78
56.14
49.87
40.22
28.24
15.79
5.1
-1.9
-4.33
-2.58
1.84
7
11.27
13.76
14.43
13.69
12.06
9.83
7.08
3.8
0.01
-4.14
-8.47
-12.78
-16.85
-20.42
-23.15
-24.61
-24.52
-22.88
-19.99
-16.47
-13.04
-10.26
-8.43
-7.57
-7.44
-7.72
-8.06
-8.17
-7.82
-6.87
-5.38
-3.6
-1.91
-0.69
-0.16
-0.29
-0.81
-1.46
-2.11
-2.89
-4.13
-6.14
-8.98
-12.39
-15.8
-18.51
-19.99
-19.9
-18.2
-15.06
-10.87
-6.18
-1.6
2.25
5.02
6.6
7.22
7.27
7.05
6.77
6.43
6.01
5.51
5.03
4.66
4.44
4.28
4.04
3.56
2.78
1.73
0.54
-0.65
-1.72
-2.71
-3.75
-4.99
-6.43
-7.79
-8.56
-8.19
-6.37
-3.26
0.44
3.82
6.06
6.87
6.47
5.44
4.37
3.61
3.23
3.15
3.27
3.58
4.1
4.72
5.22
5.31
4.81
3.73
2.29
0.8
-0.52
-1.63
-2.68
-3.86
-5.32
-7.02
-8.8
-10.36
-11.31
-11.35
-10.28
-8.07
-4.96
-1.38
2.2
5.37
7.87
9.67
10.85
11.52
11.78
11.69
11.28
10.59
9.72
8.78
7.95
7.38
7.14
7.19
7.32
7.19
6.47
4.9
2.42
-0.78
-4.34
-7.83
-10.87
-13.16
-14.48
-14.61
-13.4
-10.8
-6.91
-2.13
2.94
7.62
11.31
13.63
14.52
14.16
12.9
11.19
9.44
7.99
7.03
6.59
6.5
6.51
6.32
5.68
4.51
2.86
0.92
-1.09
-2.99
-4.78
-6.6
-8.67
-11.11
-13.72
-16.02
-17.34
-17.13
-15.23
-11.87
-7.63
-3.06
1.5
5.92
10.14
14
17.12
19.06
19.54
18.7
17.05
15.27
13.94
13.21
12.82
12.27
11.05
8.95
6.14
3.06
0.23
-1.96
-3.39
-4.18
-4.6
-4.98
-5.63
-6.72
-8.28
-10.13
-11.85
-12.97
-13.07
-12.01
-10.01
-7.51
-4.93
-2.52
-0.22
2.12
4.58
7.06
9.29
11.02
12.15
12.75
13.02
13.08
12.95
12.56
11.92
11.16
10.49
10.12
10.07
10.22
10.27
9.91
8.92
7.24
5
2.46
0.01
-1.98
-3.26
-3.85
-4.03
-4.27
-5.12
-6.93
-9.69
-13.02
-16.24
-18.58
-19.47
-18.67
-16.38
-13.11
-9.41
-5.66
-1.99
1.65
5.33
8.9
12.02
14.25
15.26
15.11
14.19
13.11
12.38
12.22
12.46
12.71
12.54
11.76
10.47
9.01
7.78
7.02
6.74
6.71
6.63
6.24
5.43
4.27
2.88
1.4
-0.05
-1.47
-2.89
-4.39
-6.02
-7.83
-9.82
-12
-14.3
-16.61
-18.68
-20.18
-20.71
-19.96
-17.88
-14.73
-11.08
-7.62
-4.83
-2.82
-1.31
0.21
2.15
4.63
7.4
10.04
12.17
13.65
14.57
15.12
15.4
15.35
14.73
13.38
11.29
8.8
6.44
4.74
4
4.1
4.56
4.74
4.13
2.58
0.37
-1.97
-3.92
-5.18
-5.81
-6.09
-6.4
-6.98
-7.89
-9.08
-10.44
-11.93
-13.56
-15.27
-16.87
-18.02
-18.32
-17.5
-15.53
-12.63
-9.22
-5.68
-2.29
0.83
3.63
6
7.76
8.68
8.68
7.9
6.76
5.73
5.21
5.32
5.91
6.65
7.24
7.46
7.3
6.83
6.16
5.38
4.53
3.71
2.98
2.41
2.01
1.63
1.07
0.17
-1.14
-2.7
-4.28
-5.63
-6.69
-7.56
-8.46
-9.61
-11.06
-12.73
-14.47
-16.09
-17.38
-18.13
-18.08
-17.02
-14.95
-12.11
-8.98
-6.05
-3.57
-1.48
0.56
2.82
5.31
7.6
9.07
9.3
8.25
6.38
4.39
2.93
2.27
2.31
2.65
2.93
2.99
2.93
2.97
3.25
3.67
3.91
3.59
2.45
0.5
-1.99
-4.64
-7.15
-9.34
-11.2
-12.8
-14.12
-15.09
-15.62
-15.67
-15.38
-15.03
-15.01
-15.64
-16.97
-18.71
-20.23
-20.85
-20.03
-17.66
-14.06
-9.81
-5.47
-1.36
2.56
6.46
10.46
14.42
17.95
20.64
22.23
22.79
22.61
22.06
21.4
20.7
19.89
18.89
17.71
16.5
15.43
14.63
14.08
13.59
12.85
11.55
9.52
6.76
3.53
0.19
-2.84
-5.29
-7.11
-8.45
-9.59
-10.79
-12.26
-14.1
-16.33
-18.9
-21.61
-24.05
-25.72
-26.12
-24.98
-22.43
-18.92
-15.02
-11.22
-7.71
-4.46
-1.4
1.47
3.99
5.89
7.04
7.51
7.59
7.63
7.92
8.53
9.33
10.14
10.83
11.38
11.86
12.33
12.75
12.95
12.69
11.81
10.21
7.99
5.32
2.48
-0.24
-2.6
-4.46
-5.88
-7.11
-8.55
-10.63
-13.58
-17.39
-21.7
-25.95
-29.52
-31.89
-32.69
-31.83
-29.45
-25.87
-21.53
-16.89
-12.29
-7.94
-3.91
-0.2
3.22
6.32
9.06
11.38
13.3
14.82
15.94
16.64
16.81
16.4
15.48
14.26
13.07
12.21
11.87
11.98
12.29
12.39
11.95
10.74
8.76
6.17
3.25
0.35
-2.24
-4.37
-6.07
-7.57
-9.18
-11.13
-13.49
-16.06
-18.43
-20.2
-20.99
-20.6
-18.99
-16.26
-12.67
-8.53
-4.21
-0.02
3.81
7.2
10.12
12.56
14.41
15.54
15.87
15.49
14.6
13.45
12.28
11.23
10.35
9.68
9.2
8.88
8.61
8.2
7.5
6.44
5.08
3.52
1.81
-0.12
-2.39
-5.09
-8.15
-11.34
-14.3
-16.65
-18.1
-18.45
-17.66
-15.81
-13.13
-9.83
-6.17
-2.38
1.36
4.85
7.89
10.26
11.76
12.32
12.08
11.33
10.48
9.82
9.53
9.56
9.66
9.6
9.16
8.27
6.94
5.29
3.43
1.44
-0.58
-2.56
-4.48
-6.38
-8.44
-10.82
-13.62
-16.64
-19.46
-21.46
-22.11
-21.15
-18.7
-15.19
-11.14
-7
-3
0.78
4.44
8.01
11.44
14.52
16.93
18.39
18.72
17.98
16.45
14.56
12.72
11.2
10.03
9.08
8.18
7.25
6.31
5.46
4.67
3.84
2.75
1.22
-0.76
-3.05
-5.45
-7.84
-10.25
-12.78
-15.44
-17.94
-19.7
-20.11
-18.74
-15.66
-11.36
-6.58
-1.97
2.09
5.57
8.62
11.37
13.79
15.75
17.11
17.85
18.09
17.98
17.64
17.14
16.45
15.64
14.84
14.18
13.69
13.21
12.46
11.17
9.25
6.87
4.36
2.01
-0.05
-1.93
-3.85
-6.03
-8.53
-11.26
-14.15
-17.04
-19.78
-22.07
-23.48
-23.53
-21.86
-18.5
-13.87
-8.74
-3.86
0.27
3.63
6.5
9.28
12.13
14.9
17.23
18.76
19.36
19.2
18.65
18.06
17.66
17.45
17.38
17.33
17.28
17.18
16.91
16.31
15.21
13.52
11.3
8.75
6.07
3.38
0.65
-2.23
-5.35
-8.68
-12.09
-15.38
-18.35
-20.78
-22.43
-22.98
-22.11
-19.63
-15.72
-10.91
-5.95
-1.56
1.91
4.54
6.69
8.68
10.57
12.11
12.97
12.96
12.24
11.22
10.36
9.9
9.83
9.98
10.19
10.46
10.87
11.45
11.99
12.14
11.54
10.09
7.93
5.45
3
0.8
-1.15
-2.96
-4.77
-6.74
-9.03
-11.76
-14.87
-17.97
-20.37
-21.33
-20.31
-17.36
-13.02
-8.13
-3.41
0.78
4.44
7.68
10.52
12.75
14.08
14.34
13.61
12.24
10.68
9.35
8.44
7.98
7.83
7.78
7.64
7.31
6.78
6.12
5.39
4.55
3.46
1.9
-0.3
-3.2
-6.67
-10.46
-14.22
-17.59
-20.23
-21.81
-22.1
-21.02
-18.65
-15.29
-11.32
-7.12
-2.96
0.97
4.52
7.57
9.93
11.45
12.12
12.07
11.54
10.8
10.02
9.29
8.54
7.65
6.55
5.18
3.63
2.01
0.48
-0.91
-2.17
-3.42
-4.8
-6.46
-8.47
-10.79
-13.3
-15.8
-18.01
-19.63
-20.31
-19.79
-17.89
-14.62
-10.21
-5.09
0.18
5.04
9.01
11.79
13.26
13.55
12.92
11.75
10.39
9.11
8.01
7.05
6.11
5.08
3.93
2.75
1.7
0.91
0.39
0.03
-0.42
-1.22
-2.61
-4.69
-7.42
-10.56
-13.7
-16.35
-18.02
-18.36
-17.31
-14.97
-11.69
-7.85
-3.8
0.17
3.85
7.07
9.64
11.43
12.37
12.56
12.17
11.48
10.74
10.14
9.72
9.39
8.97
8.31
7.33
6.03
4.58
3.16
1.89
0.78
-0.26
-1.44
-2.97
-4.94
-7.31
-9.76
-11.76
-12.68
-12
-9.55
-5.62
-0.91
3.78
7.87
11.21
14.03
16.68
19.23
21.41
22.68
22.6
21.12
18.62
15.79
13.2
11.1
9.33
7.43
4.97
1.8
-1.86
-5.56
-8.78
-11.21
-12.87
-14.17
-15.75
-18.24
-22.1
-27.46
-34.12
-41.55
-49.05
-55.94
-61.77
-66.46
-70.23
-73.54
-76.8
-80.22
-83.58
-86.23
-87.25
-85.68
-80.81
-72.45
-61.08
-47.71
-33.7
-20.33
-8.47
1.61
10.27
18.11
25.64
33.03
40.08
46.41
51.72
55.94
59.25
61.95
64.27
66.26
67.87
69.12
70.1
71.09
72.33
74.04
76.37
79.43
83.26
87.77
92.57
96.96
100.02
100.86
98.84
93.72
85.61
74.86
61.91
47.37
32.02
16.88
3.05
-8.59
-17.58
-24.07
-28.58
-31.79
-34.17
-35.92
-37.06
-37.61
-37.73
-37.7
-37.8
-38.18
-38.84
-39.72
-40.69
-41.61
-42.17
-41.89
-40.21
-36.74
-31.5
-25.09
-18.46
-12.58
-8.04
-4.92
-2.86
-1.46
-0.51
-0.09
-0.4
-1.53
-3.18
-4.86
-6.05
-6.53
-6.47
-6.31
-6.5
-7.27
-8.51
-9.93
-11.25
-12.33
-13.23
-14.12
-15.15
-16.4
-17.8
-19.16
-20.17
-20.48
-19.71
-17.67
-14.42
-10.32
-5.97
-1.94
1.44
4.18
6.56
8.91
11.4
13.86
15.97
17.41
18.15
18.45
18.77
19.47
20.62
21.95
23.05
23.61
23.64
23.45
23.45
23.9
24.67
25.3
25.24
24.02
21.4
17.41
12.32
6.59
0.95
-3.76
-6.7
-7.4
-6.05
-3.56
-1.22
-0.15
-0.84
-2.94
-5.51
-7.63
-8.91
-9.71
-10.94
-13.5
-17.85
-23.77
-30.52
-37.2
-43.18
-48.24
-52.55
-56.46
-60.29
-64.33
-68.85
-74.05
-79.86
-85.82
-90.99
-94.26
-94.85
-92.76
-88.83
-84.21
-79.62
-74.73
-68.17
-58.17
-43.49
-24.16
-1.62
21.69
43.23
60.87
73.33
80.07
81.13
76.93
68.36
56.75
43.63
30.09
16.07
0.27
-19.11
-43.01
-70.12
-96.5
-116.56
-125.05
-119.11
-99.41
-69.76
-35.53
-1.92
27.39
50.48
66.82
76.69
80.87
80.65
77.91
74.88
73.67
75.63
80.74
87.36
92.66
93.54
87.92
75.66
58.82
40.9
25.49
15.05
10.14
9.83
12.42
16.39
20.79
25.09
28.87
31.65
33
32.89
31.87
30.75
30.14
29.89
29.12
26.61
21.52
13.96
5.04
-3.45
-9.77
-12.78
-12.15
-8.31
-2.17
5.18
12.61
19.13
23.91
26.37
26.26
23.8
19.5
14.16
8.55
3.37
-0.92
-4.1
-6.23
-7.56
-8.49
-9.39
-10.44
-11.56
-12.5
-13.01
-13.04
-12.86
-12.93
-13.67
-15.21
-17.2
-18.93
-19.6
-18.68
-16.14
-12.47
-8.45
-4.84
-2.11
-0.31
0.8
1.47
1.79
1.64
0.78
-0.89
-3.2
-5.68
-7.79
-9.08
-9.4
-8.86
-7.67
-6.03
-4.08
-1.86
0.51
2.85
4.89
6.42
7.35
7.7
7.57
7.07
6.32
5.4
4.44
3.63
3.26
3.76
5.47
8.61
12.98
18.02
22.92
26.92
29.59
31.02
31.66
32.14
32.98
34.53
36.99
40.4
44.74
49.72
54.85
59.6
63.65
67.27
71.28
76.77
84.51
94.38
105.1
114.45
119.88
119.27
111.55
96.99
76.99
53.68
29.32
5.9
-15.17
-33.06
-47.49
-58.55
-66.58
-72.05
-75.49
-77.38
-78.2
-78.3
-77.97
-77.46
-76.89
-76.31
-75.65
-74.79
-73.56
-71.88
-69.7
-67.04
-63.98
-60.59
-56.99
-53.35
-49.89
-46.85
-44.41
-42.61
-41.32
-40.26
-39.1
-37.51
-35.31
-32.47
-29.14
-25.56
-21.99
-18.59
-15.38
-12.21
-8.9
-5.34
-1.57
2.21
5.69
8.57
10.64
11.82
12.16
11.78
10.83
9.51
7.98
6.36
4.72
3.06
1.37
-0.32
-1.93
-3.38
-4.57
-5.53
-6.41
-7.38
-8.58
-10.09
-11.84
-13.64
-15.25
-16.34
-16.62
-15.87
-14.04
-11.29
-7.95
-4.44
-1.14
1.72
4.08
5.95
7.35
8.2
8.4
7.86
6.61
4.86
2.94
1.24
0.09
-0.35
-0.12
0.6
1.54
2.42
3.02
3.14
2.58
1.14
-1.4
-5.1
-9.81
-15.09
-20.4
-25.15
-29
-31.85
-33.84
-35.23
-36.13
-36.53
-36.24
-35.05
-32.91
-30.05
-26.86
-23.83
-21.34
-19.61
-18.69
-18.55
-19.13
-20.23
-21.39
-21.74
-20.12
-15.42
-7.07
4.55
18.22
32.25
45.13
55.9
64.21
69.95
73.02
73.13
70.05
63.94
55.53
46.07
36.88
28.95
22.72
18.2
15.2
13.51
12.99
13.4
14.43
15.58
16.37
16.3
14.99
12.16
7.6
1.29
-6.55
-15.38
-24.35
-32.56
-39.18
-43.57
-45.32
-44.28
-40.46
-34.07
-25.59
-15.71
-5.39
4.4
12.83
19.38
23.83
26.21
26.65
25.4
22.8
19.29
15.45
11.99
9.48
8.21
8.05
8.65
9.52
10.29
10.49
9.83
8.2
5.73
2.62
-0.92
-4.59
-8.16
-11.35
-14.5
-17.96
-21.81
-25.62
-28.9
-31.32
-32.72
-33.34
-33.47
-34.37
-37.13
-42.1
-48.6
-55.78
-63.01
-70.02
-76.75
-82.76
-88.27
-93.38
-97.93
-101.64
-105.16
-109.57
-115.7
-123.32
-123.2
-108.45
-78.47
-39.83
-1.06
31.94
56.49
76.45
95.8
117.04
139.98
163.42
185.1
204.71
223.02
241.85
256.57
261.65
252.74
227.94
188.66
139.62
90.38
44.26
3.92
-29.15
-54.67
-73.63
-85.57
-91.39
-92.41
-89.7
-84.84
-78.71
-72.23
-65.86
-59.62
-53.45
-47.6
-42.2
-37.19
-32.95
-29.45
-26.85
-24.97
-23.39
-21.6
-19.47
-17.14
-14.86
-13.29
-12.6
-12.83
-13.67
-14.65
-15.39
-15.93
-16.42
-16.88
-17.24
-17.02
-15.79
-13.4
-10.04
-6.22
-2.64
0.23
2.27
3.5
4.07
3.98
3.1
1.34
-1.14
-3.97
-6.69
-8.96
-10.77
-12.44
-14.3
-16.56
-19.08
-21.6
-23.93
-26.14
-28.55
-31.54
-35.27
-39.6
-44.04
-47.88
-50.33
-50.65
-48.29
-43.11
-35.48
-26.35
-16.92
-8.27
-0.91
5.27
10.7
15.68
20.01
23.1
24.32
23.47
20.95
17.7
14.75
12.77
11.93
12
12.72
14.01
15.94
18.58
21.8
25.11
27.87
29.57
30.07
29.71
29.13
29.01
29.71
31.24
33.3
35.51
37.62
39.53
41.17
42.4
42.96
42.6
41.25
39.05
36.44
33.86
31.58
29.61
27.72
25.61
23.1
20.16
16.88
13.36
9.7
5.99
2.42
-0.74
-3.03
-3.95
-3.1
-0.35
4.04
9.34
14.52
18.47
20.36
19.91
17.48
13.92
10.22
7.03
4.54
2.48
0.47
-1.67
-3.69
-5.03
-5.19
-4.09
-2.21
-0.37
0.63
0.44
-0.76
-2.47
-4.31
-6.26
-8.62
-11.72
-15.61
-19.94
-24.11
-27.69
-30.65
-33.54
-37.21
-42.48
-49.74
-58.78
-68.79
-78.51
-86.47
-91.26
-91.78
-87.42
-78.14
-64.46
-47.3
-27.87
-7.43
12.7
31.27
47.11
59.28
67.22
70.9
70.88
68.1
63.65
58.39
52.86
47.25
41.69
36.45
31.96
28.68
26.86
26.29
26.39
26.38
25.62
23.84
21.16
17.93
14.63
11.58
8.96
6.83
5.18
3.95
3.06
2.43
2
1.76
1.71
1.84
2.07
2.19
1.93
1.06
-0.55
-2.82
-5.53
-8.37
-11
-13.12
-14.49
-15
-14.66
-13.73
-12.53
-11.4
-10.48
-9.66
-8.68
-7.3
-5.46
-3.41
-1.48
0.03
1.16
2.21
3.61
5.55
7.93
10.31
12.18
13.19
13.27
12.55
11.2
9.35
7.08
4.52
1.94
-0.23
-1.58
-1.86
-1.12
0.28
1.72
2.51
2.13
0.46
-2.12
-4.79
-6.64
