1.57
-0.14
-2.22
-4.93
-8.35
-12.28
-16.18
-19.34
-21.08
-20.97
-18.94
-15.29
-10.48
-5.06
0.53
6.01
11.17
15.82
19.72
22.58
24.19
24.52
23.79
22.4
20.79
19.28
18
16.84
15.66
14.32
12.83
11.28
9.74
8.26
6.76
5.1
3.16
0.85
-1.88
-5.06
-8.62
-12.45
-16.25
-19.56
-21.83
-22.56
-21.51
-18.73
-14.59
-9.56
-4.14
1.29
6.41
10.99
14.77
17.49
18.98
19.26
18.54
17.22
15.71
14.36
13.34
12.65
12.11
11.52
10.66
9.43
7.85
6.01
4.06
2.13
0.3
-1.45
-3.26
-5.3
-7.73
-10.63
-13.87
-17.07
-19.66
-21.06
-20.8
-18.75
-15.12
-10.37
-5.1
0.17
5.03
9.21
12.47
14.62
15.54
15.22
13.89
11.98
10
8.36
7.25
6.6
6.16
5.63
4.81
3.64
2.21
0.63
-1.04
-2.75
-4.57
-6.54
-8.74
-11.24
-14.01
-16.9
-19.65
-21.84
-23.05
-22.92
-21.32
-18.28
-13.99
-8.8
-3.09
2.64
7.91
12.27
15.38
17.11
17.54
16.91
15.61
14
12.4
11.02
9.93
9.07
8.29
7.39
6.2
4.65
2.78
0.69
-1.53
-3.79
-6.15
-8.67
-11.46
-14.58
-17.91
-21.15
-23.82
-25.43
-25.56
-24.02
-20.87
-16.38
-10.96
-5.02
1.05
6.9
12.21
16.65
19.94
21.9
22.5
21.91
20.49
18.7
16.95
15.52
14.5
13.76
13.09
12.24
11.05
9.5
7.65
5.61
3.49
1.33
-0.91
-3.31
-6.02
-9.14
-12.66
-16.37
-19.87
-22.58
-23.97
-23.66
-21.55
-17.83
-12.9
-7.25
-1.34
4.42
9.72
14.26
17.78
20.17
21.43
21.74
21.39
20.68
19.85
19.03
18.25
17.49
16.67
15.68
14.4
12.74
10.69
8.32
5.8
3.31
0.98
-1.19
-3.29
-5.52
-8.09
-11.13
-14.61
-18.28
-21.67
-24.24
-25.46
-25.03
-22.92
-19.34
-14.68
-9.34
-3.74
1.75
6.72
10.82
13.77
15.5
16.14
15.98
15.4
14.72
14.11
13.59
13.07
12.41
11.49
10.24
8.68
6.87
4.94
3.03
1.22
-0.46
-2.12
-3.91
-5.97
-8.4
-11.24
-14.36
-17.56
-20.51
-22.83
-24.13
-24.09
-22.53
-19.52
-15.28
-10.24
-4.86
0.41
5.2
9.25
12.36
14.46
15.51
15.6
14.88
13.61
12.12
10.67
9.46
8.47
7.53
6.42
4.96
3.13
1.1
-0.92
-2.7
-4.23
-5.65
-7.27
-9.41
-12.21
-15.6
-19.25
-22.62
-25.11
-26.28
-25.88
-23.92
-20.65
-16.35
-11.29
-5.76
-0.03
5.51
10.4
14.17
16.54
17.46
17.23
16.31
15.16
14.11
13.2
12.35
11.41
10.31
9.01
7.58
6
4.27
2.35
0.26
-1.88
-4
-6.04
-8.17
-10.65
-13.71
-17.36
-21.24
-24.68
-26.94
-27.42
-25.92
-22.62
-17.94
-12.38
-6.41
-0.42
5.2
10.12
14.02
16.71
18.24
18.78
18.64
18.1
17.36
16.53
15.65
14.7
13.67
12.49
11.1
9.48
7.68
5.79
3.92
2.16
0.46
-1.3
-3.32
-5.81
-8.89
-12.53
-16.48
-20.28
-23.3
-24.96
-24.82
-22.78
-19.08
-14.18
-8.64
-2.93
2.61
7.7
12.1
15.5
17.68
18.54
18.25
17.19
15.88
14.72
13.88
13.29
12.72
11.89
10.64
8.96
6.96
4.8
2.64
0.56
-1.39
-3.19
-4.89
-6.62
-8.53
-10.79
-13.43
-16.3
-19.04
-21.12
-22.03
-21.42
-19.21
-15.6
-10.99
-5.9
-0.84
3.76
7.63
10.59
12.57
13.55
13.61
12.94
11.84
10.67
9.69
8.99
8.46
7.84
6.88
5.48
3.74
1.88
0.13
-1.39
-2.71
-4.03
-5.56
-7.53
-10.06
-13.12
-16.47
-19.67
-22.19
-23.55
-23.44
-21.77
-18.66
-14.41
-9.35
-3.91
1.48
6.32
10.14
12.65
13.78
13.74
12.9
11.73
10.5
9.38
8.34
7.31
6.23
5.08
3.87
2.59
1.24
-0.23
-1.79
-3.42
-5.14
-6.98
-9.11
-11.65
-14.63
-17.86
-20.95
-23.41
-24.7
-24.48
-22.61
-19.19
-14.52
-9.03
-3.18
2.52
7.62
11.77
14.72
16.45
17.08
16.89
16.17
15.16
14.06
12.93
11.84
10.8
9.79
8.76
7.59
6.19
4.45
2.39
0.11
-2.28
-4.74
-7.34
-10.22
-13.49
-17.1
-20.8
-24.09
-26.43
-27.34
-26.56
-24.07
-20.08
-14.92
-8.96
-2.62
3.67
9.49
14.42
18.15
20.52
21.6
21.67
21.11
20.33
19.6
19.04
18.55
17.9
16.86
15.31
13.27
10.9
8.39
5.9
3.53
1.28
-0.88
-3.1
-5.55
-8.45
-11.94
-15.92
-20.04
-23.65
-26.04
-26.64
-25.24
-21.97
-17.27
-11.65
-5.57
0.58
6.49
11.84
16.34
19.74
21.94
23.03
23.27
22.93
22.24
21.34
20.27
19.1
17.84
16.53
15.13
13.54
11.64
9.38
6.86
4.24
1.76
-0.44
-2.42
-4.39
-6.62
-9.31
-12.53
-16.09
-19.64
-22.67
-24.65
-25.16
-23.95
-20.99
-16.51
-10.94
-4.82
1.3
6.91
11.64
15.25
17.63
18.8
18.92
18.27
17.25
16.23
15.46
15
14.74
14.47
13.93
12.97
11.52
9.62
7.41
5
2.59
0.33
-1.69
-3.48
-5.2
-7.13
-9.52
-12.45
-15.72
-18.84
-21.24
-22.36
-21.9
-19.82
-16.37
-11.88
-6.76
-1.41
3.79
8.43
12.13
14.63
15.81
15.78
14.84
13.37
11.82
10.53
9.64
9.1
8.7
8.13
7.16
5.73
3.97
2.1
0.3
-1.34
-2.89
-4.47
-6.22
-8.25
-10.66
-13.53
-16.82
-20.27
-23.37
-25.41
-25.75
-24.06
-20.44
-15.41
-9.66
-3.8
1.76
6.81
11.23
14.86
17.48
18.93
19.14
18.29
16.78
15.08
13.65
12.7
12.23
11.99
11.62
10.78
9.32
7.28
4.86
2.31
-0.15
-2.4
-4.46
-6.44
-8.55
-11.03
-14.04
-17.55
-21.3
-24.78
-27.35
-28.45
-27.73
-25.14
-20.9
-15.41
-9.16
-2.65
3.65
9.3
13.98
17.52
19.94
21.36
21.96
21.9
21.29
20.25
18.89
17.37
15.86
14.49
13.29
12.17
11.01
9.66
8.06
6.22
4.22
2.12
-0.05
-2.31
-4.68
-7.14
-9.66
-12.22
-14.79
-17.26
-19.41
-20.87
-21.2
-20.09
-17.43
-13.45
-8.6
-3.4
1.77
6.63
11.02
14.76
17.67
19.55
20.33
20.09
19.11
17.73
16.27
14.94
13.81
12.84
11.95
11.01
9.95
8.7
7.21
5.48
3.53
1.43
-0.76
-2.94
-5.05
-7.03
-8.9
-10.78
-12.78
-15
-17.33
-19.5
-21.04
-21.44
-20.34
-17.67
-13.63
-8.73
-3.52
1.52
6
9.67
12.41
14.15
14.93
14.86
14.17
13.1
11.9
10.76
9.8
9.07
8.54
8.12
7.64
6.98
6.02
4.75
3.23
1.56
-0.18
-1.93
-3.69
-5.44
-7.22
-9.08
-11.06
-13.2
-15.42
-17.48
-19.05
-19.76
-19.38
-17.84
-15.24
-11.83
-7.85
-3.6
0.68
4.72
8.26
10.98
12.63
13.09
12.39
10.82
8.82
6.89
5.45
4.64
4.32
4.15
3.77
3
1.85
0.55
-0.69
-1.76
-2.74
-3.82
-5.19
-6.97
-9.18
-11.73
-14.46
-17.13
-19.4
-20.84
-21.1
-19.99
-17.55
-14.04
-9.81
-5.21
-0.56
3.85
7.7
10.66
12.46
13.02
12.48
11.15
9.46
7.75
6.23
4.97
3.95
3.1
2.35
1.64
0.9
0.08
-0.87
-1.94
-3.16
-4.51
-6.05
-7.87
-10.09
-12.77
-15.79
-18.8
-21.26
-22.65
-22.57
-20.96
-18.02
-14.14
-9.73
-5.08
-0.39
4.2
8.44
11.99
14.48
15.69
15.65
14.65
13.16
11.65
10.44
9.61
9.08
8.6
7.99
7.14
6.03
4.7
3.18
1.54
-0.21
-2.05
-3.98
-6.07
-8.38
-10.98
-13.81
-16.65
-19.06
-20.52
-20.59
-19.06
-16.07
-11.98
-7.3
-2.46
2.25
6.62
10.47
13.57
15.71
16.73
16.69
15.88
14.71
13.55
12.61
11.89
11.21
10.38
9.26
7.85
6.24
4.55
2.89
1.32
-0.19
-1.66
-3.16
-4.81
-6.74
-9.03
-11.67
-14.44
-16.95
-18.71
-19.29
-18.47
-16.3
-13.03
-9.04
-4.66
-0.15
4.26
8.3
11.65
13.99
15.1
15.04
14.1
12.73
11.38
10.3
9.48
8.81
8.08
7.17
6.07
4.83
3.45
1.97
0.39
-1.3
-3.01
-4.67
-6.21
-7.68
-9.19
-10.89
-12.84
-14.96
-16.99
-18.53
-19.2
-18.68
-16.83
-13.71
-9.58
-4.79
0.21
4.97
9.05
12.07
13.76
14.06
13.11
11.31
9.16
7.15
5.58
4.53
3.86
3.35
2.8
2.11
1.28
0.32
-0.71
-1.81
-2.98
-4.23
-5.6
-7.1
-8.79
-10.67
-12.73
-14.83
-16.77
-18.25
-18.97
-18.69
-17.25
-14.64
-10.97
-6.51
-1.66
3.09
7.25
10.42
12.39
13.19
13.02
12.2
11.03
9.76
8.54
7.45
6.57
5.85
5.24
4.57
3.67
2.41
0.75
-1.23
-3.37
-5.43
-7.27
-8.83
-10.27
-11.86
-13.88
-16.43
-19.3
-21.94
-23.65
-23.84
-22.22
-18.95
-14.49
-9.41
-4.23
0.76
5.35
9.41
12.72
15.03
16.15
16.09
15.09
13.57
12.02
10.76
9.92
9.38
8.88
8.11
6.93
5.37
3.61
1.89
0.37
-0.95
-2.18
-3.55
-5.26
-7.43
-10.07
-13.07
-16.19
-19.08
-21.3
-22.44
-22.16
-20.36
-17.19
-12.99
-8.19
-3.13
1.93
6.81
11.3
15.07
17.8
19.23
19.4
18.58
17.24
15.8
14.52
13.48
12.59
11.75
10.9
10.04
9.14
8.15
6.98
5.58
3.94
2.11
0.13
-2.04
-4.47
-7.22
-10.3
-13.58
-16.8
-19.58
-21.49
-22.1
-21.08
-18.34
-14.02
-8.56
-2.57
3.28
8.49
12.69
15.73
17.6
18.37
18.17
17.22
15.77
14.16
12.66
11.46
10.61
10.01
9.49
8.85
7.91
6.61
5
3.18
1.3
-0.59
-2.52
-4.63
-7.07
-9.92
-13.09
-16.3
-19.13
-21.12
-21.92
-21.32
-19.28
-15.89
-11.35
-6.02
-0.34
5.16
9.94
13.58
15.84
16.75
16.56
15.61
14.22
12.63
10.99
9.41
7.95
6.63
5.44
4.29
3.07
1.69
0.1
-1.65
-3.48
-5.29
-7
-8.66
-10.36
-12.21
-14.24
-16.31
-18.07
-19.04
-18.78
-17
-13.73
-9.28
-4.15
1.17
6.24
10.77
14.52
17.25
18.77
19.01
18.14
16.51
14.63
12.94
11.71
10.91
10.3
9.58
8.55
7.15
5.48
3.73
2.04
0.45
-1.15
-2.95
-5.19
-8.01
-11.37
-15.01
-18.45
-21.16
-22.62
-22.49
-20.69
-17.36
-12.83
-7.55
-2
3.42
8.38
12.63
16
18.36
19.67
20
19.54
18.63
17.57
16.59
15.73
14.93
14.03
12.9
11.49
9.83
8
6.11
4.25
2.48
0.77
-1
-3.05
-5.58
-8.7
-12.2
-15.64
-18.41
-19.94
-19.88
-18.15
-14.9
-10.4
-5.02
0.8
6.56
11.73
15.85
18.66
20.15
20.56
20.23
19.45
18.41
17.19
15.85
14.42
12.99
11.59
10.21
8.82
7.39
5.89
4.37
2.85
1.3
-0.34
-2.15
-4.24
-6.66
-9.42
-12.38
-15.28
-17.73
-19.27
-19.53
-18.33
-15.76
-12.09
-7.74
-3.06
1.62
6.01
9.8
12.66
14.33
14.77
14.18
13.03
11.8
10.84
10.21
9.71
9.04
8.02
6.62
5
3.37
1.82
0.33
-1.19
-2.86
-4.73
-6.78
-9.01
-11.4
-13.89
-16.35
-18.48
-19.88
-20.11
-18.85
-16.03
-11.9
-6.97
-1.84
2.95
6.99
10.13
12.31
13.53
13.8
13.17
11.78
9.94
8.03
6.38
5.18
4.37
3.75
3.03
2.05
0.78
-0.72
-2.36
-4.07
-5.86
-7.81
-10.01
-12.55
-15.43
-18.46
-21.28
-23.41
-24.35
-23.72
-21.44
-17.73
-12.99
-7.78
-2.58
2.23
6.41
9.85
12.46
14.17
14.98
14.97
14.28
13.18
11.95
10.82
9.89
9.11
8.28
7.21
5.77
3.93
1.8
-0.46
-2.71
-4.91
-7.13
-9.5
-12.15
-15.06
-18.03
-20.63
-22.37
-22.85
-21.85
-19.42
-15.83
-11.41
-6.45
-1.26
3.92
8.75
12.86
15.89
17.62
18.06
17.5
16.36
15.09
13.96
13.02
12.14
11.14
9.88
8.4
6.85
5.4
4.11
2.94
1.67
0.14
-1.77
-4.1
-6.79
-9.78
-12.91
-15.89
-18.31
-19.69
-19.62
-17.96
-14.87
-10.78
-6.17
-1.45
3.18
7.6
11.67
15.16
17.74
19.19
19.48
18.86
17.69
16.37
15.17
14.15
13.24
12.35
11.39
10.33
9.16
7.82
6.26
4.41
2.31
0.04
-2.29
-4.6
-6.88
-9.27
-11.84
-14.58
-17.29
-19.57
-20.96
-21.05
-19.57
-16.56
-12.29
-7.21
-1.85
3.25
7.65
11.06
13.37
14.65
15.06
14.86
14.26
13.48
12.66
11.92
11.3
10.76
10.14
9.25
7.93
6.13
3.97
1.69
-0.48
-2.37
-3.99
-5.52
-7.18
-9.19
-11.63
-14.42
-17.3
-19.92
-21.92
-22.93
-22.71
-21.14
-18.27
-14.31
-9.61
-4.62
0.16
4.27
7.36
9.25
9.99
9.79
9.04
8.1
7.28
6.68
6.29
5.97
5.56
4.91
3.94
2.63
1.06
-0.61
-2.23
-3.66
-4.88
-6.01
-7.29
-8.93
-11.1
-13.75
-16.69
-19.57
-21.93
-23.31
-23.34
-21.78
-18.66
-14.26
-9.05
-3.6
1.59
6.12
9.77
12.45
14.19
15.09
15.3
15.06
14.54
13.91
13.23
12.48
11.56
10.4
8.95
7.25
5.41
3.52
1.69
-0.07
-1.81
-3.66
-5.77
-8.28
-11.3
-14.8
-18.63
-22.37
-25.51
-27.45
-27.79
-26.37
-23.32
-19
-13.79
-8.06
-2.11
3.72
9.1
13.63
17.02
19.16
20.18
20.37
20.06
19.52
18.92
18.32
17.73
17.09
16.27
15.12
13.52
11.41
8.9
6.18
3.48
0.94
-1.46
-3.88
-6.52
-9.56
-13.07
-16.94
-20.84
-24.32
-26.82
-27.89
-27.21
-24.77
-20.8
-15.72
-10.01
-4.09
1.71
7.15
12.03
16.15
19.3
21.37
22.31
22.25
21.39
20.05
18.53
17.12
16.01
15.21
14.61
14.01
13.16
11.91
10.2
8.08
5.68
3.16
0.63
-1.77
-3.99
-6.09
-8.21
-10.6
-13.46
-16.78
-20.23
-23.25
-25.14
-25.38
-23.74
-20.33
-15.53
-9.87
-3.86
2.03
7.36
11.81
15.14
17.27
18.29
18.4
17.86
16.95
15.93
14.98
14.23
13.68
13.24
12.74
12.01
10.95
9.54
7.84
5.97
4.04
2.1
0.14
-1.89
-4.04
-6.37
-8.93
-11.74
-14.78
-17.93
-20.95
-23.46
-25.03
-25.24
-23.82
-20.74
-16.24
-10.78
-4.96
0.62
5.52
9.43
12.21
13.83
14.36
13.96
12.91
11.58
10.31
9.38
8.86
8.66
8.56
8.32
7.74
6.71
5.24
3.42
1.41
-0.68
-2.74
-4.79
-6.92
-9.27
-11.92
-14.86
-17.88
-20.6
-22.62
-23.52
-23.01
-21.01
-17.64
-13.21
-8.14
-2.9
2.08
6.45
9.93
12.37
13.71
14.04
13.59
12.69
11.67
10.83
10.29
9.99
9.75
9.31
8.48
7.16
5.42
3.38
1.22
-0.92
-3
-5.04
-7.12
-9.38
-11.95
-14.86
-18.01
-21.12
-23.73
-25.37
-25.57
-24.1
-20.91
-16.23
-10.44
-4.07
2.3
8.16
13.04
16.7
19.03
20.14
20.24
19.61
18.59
17.47
16.54
15.97
15.8
15.86
15.87
15.54
14.71
13.41
11.77
9.89
7.7
4.95
1.33
-3.39
-9.17
-15.68
-22.4
-28.7
-33.93
-37.56
-39.18
-38.6
-35.9
-31.39
-25.57
-18.96
-12.11
-5.44
0.66
5.87
9.92
12.65
14.09
14.43
13.97
13.04
11.91
10.78
9.75
8.88
8.17
7.55
6.92
6.15
5.15
3.89
2.44
0.87
-0.69
-2.22
-3.75
-5.39
-7.28
-9.54
-12.12
-14.79
-17.1
-18.53
-18.64
-17.15
-14.1
-9.73
-4.41
1.43
7.4
13.06
18.06
22.06
24.87
26.46
26.95
26.57
25.54
24.09
22.43
20.75
19.24
17.97
16.9
15.85
14.56
12.83
10.62
8.05
5.34
2.71
0.25
-2.06
-4.34
-6.77
-9.49
-12.57
-15.97
-19.42
-22.51
-24.66
-25.34
-24.2
-21.2
-16.66
-11.12
-5.23
0.45
5.47
9.58
12.6
14.49
15.28
15.14
14.34
13.15
11.85
10.63
9.58
8.68
7.87
7.03
6.03
4.77
3.18
1.33
-0.69
-2.72
-4.67
-6.51
-8.33
-10.24
-12.34
-14.65
-17.02
-19.13
-20.59
-20.99
-20.04
-17.69
-14.11
-9.62
-4.68
0.31
4.94
8.87
11.81
13.58
14.17
13.78
12.74
11.41
10.09
8.88
7.76
6.64
5.42
4.04
2.46
0.7
-1.18
-3.07
-4.85
-6.43
-7.86
-9.28
-10.89
-12.91
-15.34
-18.01
-20.56
-22.53
-23.45
-22.97
-20.97
-17.56
-13.02
-7.84
-2.51
2.55
6.98
10.58
13.21
14.86
15.56
15.47
14.83
13.92
12.97
12.05
11.14
10.07
8.76
7.21
5.52
3.86
2.32
0.92
-0.42
-1.85
-3.54
-5.59
-8.07
-10.98
-14.19
-17.46
-20.34
-22.39
-23.14
-22.39
-20.18
-16.75
-12.44
-7.56
-2.35
3
8.27
13.14
17.19
20.07
21.56
21.75
20.94
19.54
17.96
16.43
15.04
13.75
12.48
11.18
9.85
8.49
7.09
5.6
3.92
2.05
-0.02
-2.25
-4.58
-6.99
-9.51
-12.17
-14.92
-17.54
-19.66
-20.82
-20.67
-18.99
-15.82
-11.38
-6.06
-0.28
5.51
10.87
15.42
18.81
20.85
21.53
21.06
19.8
18.22
16.72
15.54
14.71
14.12
13.55
12.79
11.75
10.41
8.84
7.11
5.25
3.23
1.04
-1.35
-3.93
-6.66
-9.52
-12.45
-15.36
-18.09
-20.29
-21.54
-21.44
-19.74
-16.49
-12.03
-6.86
-1.5
3.6
8.15
11.88
14.57
16.07
16.34
15.54
14.1
12.48
11.13
10.25
9.77
9.43
8.95
8.12
6.92
5.44
3.82
2.11
0.35
-1.45
-3.28
-5.1
-6.91
-8.79
-10.9
-13.36
-16.1
-18.78
-20.82
-21.61
-20.7
-18.03
-13.89
-8.85
-3.5
1.63
6.2
9.98
12.74
14.35
14.74
14.06
12.66
11.02
9.58
8.62
8.09
7.73
7.17
6.16
4.62
2.7
0.67
-1.23
-2.89
-4.4
-5.91
-7.65
-9.78
-12.32
-15.13
-17.96
-20.44
-22.2
-22.88
-22.22
-20.1
-16.59
-11.93
-6.52
-0.85
4.56
9.23
12.8
15.11
16.15
16.1
15.24
13.89
12.31
10.69
9.12
7.66
6.31
5.06
3.87
2.62
1.21
-0.41
-2.24
-4.16
-6.1
-8.08
-10.21
-12.68
-15.55
-18.65
-21.53
-23.57
-24.2
-23.11
-20.36
-16.25
-11.21
-5.66
0.07
5.64
10.67
14.74
17.52
18.87
18.97
18.21
17.04
15.77
14.51
13.23
11.86
10.42
9
7.7
6.54
5.37
4.01
2.3
0.24
-2.12
-4.7
-7.52
-10.7
-14.29
-18.07
-21.57
-24.1
-24.99
-23.89
-20.87
-16.34
-10.93
-5.17
0.55
5.98
10.98
15.33
18.83
21.28
22.57
22.79
22.22
21.2
20.04
18.94
17.91
16.8
15.43
13.66
11.51
9.14
6.71
4.36
2.13
-0.06
-2.35
-4.85
-7.64
-10.74
-14.12
-17.62
-20.97
-23.72
-25.38
-25.48
-23.74
-20.21
-15.19
-9.22
-2.92
3.17
8.66
13.37
17.2
20.17
22.27
23.52
23.98
23.76
23.02
21.96
20.77
19.54
18.31
16.98
15.48
13.72
11.7
9.48
7.15
4.81
2.52
0.3
-1.92
-4.23
-6.77
-9.66
-12.91
-16.38
-19.7
-22.35
-23.78
-23.58
-21.62
-18.1
-13.45
-8.13
-2.57
2.94
8.14
12.74
16.4
18.82
19.85
19.6
18.45
16.93
15.5
14.44
13.76
13.27
12.68
11.79
10.53
8.97
7.25
5.46
3.65
1.75
-0.29
-2.5
-4.85
-7.27
-9.74
-12.25
-14.82
-17.38
-19.71
-21.45
-22.19
-21.62
-19.65
-16.43
-12.23
-7.41
-2.28
2.78
7.38
11.07
13.44
14.31
13.82
12.37
10.55
8.85
7.55
6.67
6.04
5.47
4.82
4.01
3.01
1.77
0.27
-1.48
-3.39
-5.32
-7.13
-8.79
-10.41
-12.21
-14.36
-16.86
-19.38
-21.41
-22.35
-21.76
-19.5
-15.76
-10.99
-5.75
-0.59
4.05
7.86
10.66
12.4
13.14
13.01
12.21
10.95
9.46
7.97
6.63
5.52
4.61
3.74
2.73
1.44
-0.16
-1.99
-3.93
-5.88
-7.82
-9.85
-12.14
-14.83
-17.92
-21.18
-24.13
-26.18
-26.74
-25.51
-22.47
-17.98
-12.58
-6.8
-1.09
4.23
8.93
12.75
15.47
16.97
17.29
16.69
15.51
14.1
12.69
11.38
10.14
8.9
7.6
6.17
4.59
2.84
0.94
-1.03
-2.95
-4.76
-6.53
-8.48
-10.88
-13.85
-17.22
-20.5
-23.03
-24.17
-23.58
-21.27
-17.54
-12.83
-7.54
-2
3.53
8.72
13.23
16.67
18.82
19.67
19.45
18.54
17.31
16.03
14.77
13.54
12.27
10.94
9.56
8.13
6.64
5.08
3.42
1.65
-0.22
-2.18
-4.24
-6.51
-9.1
-12.02
-15.11
-17.97
-20.04
-20.76
-19.77
-17.07
-12.94
-7.92
-2.52
2.81
7.77
12.11
15.55
17.88
18.94
18.8
17.77
16.32
14.9
13.78
12.96
12.28
11.52
10.53
9.26
7.75
6.06
4.25
2.38
0.46
-1.5
-3.52
-5.72
-8.22
-11.09
-14.26
-17.45
-20.25
-22.2
-22.95
-22.26
-20.14
-16.7
-12.2
-6.97
-1.45
3.86
8.48
11.99
14.15
14.92
14.5
13.23
11.55
9.83
8.37
7.29
6.57
6.07
5.61
4.98
4.06
2.77
1.14
-0.76
-2.78
-4.81
-6.81
-8.82
-10.95
-13.35
-16.01
-18.68
-20.93
-22.19
-22.01
-20.2
-16.86
-12.37
-7.25
-2.04
2.83
7.01
10.24
12.36
13.33
13.23
12.28
10.83
9.25
7.8
6.63
5.7
4.84
3.87
2.64
1.13
-0.55
-2.26
-3.91
-5.48
-7.09
-8.97
-11.36
-14.33
-17.75
-21.17
-23.95
-25.46
-25.21
-23.07
-19.25
-14.2
-8.44
-2.44
3.41
8.74
13.19
16.4
18.18
18.59
17.96
16.78
15.55
14.56
13.83
13.14
12.24
10.97
9.32
7.45
5.55
3.75
2.03
0.3
-1.6
-3.81
-6.42
-9.43
-12.75
-16.18
-19.4
-21.99
-23.5
-23.59
-22.05
-18.92
-14.43
-9.01
-3.14
2.73
8.2
12.96
16.79
19.56
21.24
21.91
21.77
21.08
20.12
19.13
18.21
17.31
16.29
15.01
13.41
11.53
9.44
7.29
5.14
3.02
0.89
-1.37
-3.93
-6.95
-10.45
-14.26
-18
-21.07
-22.9
-23.08
-21.53
-18.42
-14.13
-9.05
-3.51
2.19
7.75
12.79
16.92
19.86
21.49
21.94
21.51
20.58
19.48
18.44
17.54
16.73
15.85
14.73
13.23
11.31
9.06
6.66
4.33
2.2
0.29
-1.47
-3.19
-5.03
-7.15
-9.64
-12.5
-15.56
-18.52
-20.85
-22.04
-21.68
-19.66
-16.19
-11.7
-6.69
-1.63
3.15
7.41
10.91
13.43
14.79
14.96
14.19
12.92
11.66
10.81
10.49
10.51
10.47
10.03
9.01
7.45
5.5
3.35
1.15
-1.02
-3.13
-5.11
-6.96
-8.78
-10.72
-12.93
-15.46
-18.07
-20.3
-21.6
-21.47
-19.69
-16.31
-11.69
-6.34
-0.85
4.25
8.5
11.59
13.37
13.92
13.5
12.51
11.38
10.4
9.69
9.2
8.73
8.13
7.25
6.09
4.67
3.06
1.32
-0.48
-2.26
-3.99
-5.71
-7.59
-9.88
-12.77
-16.22
-19.87
-23.05
-25.06
-25.35
-23.77
-20.54
-16.14
-11.08
-5.78
-0.53
4.4
8.74
12.21
14.65
16.05
16.59
16.54
16.13
15.46
14.57
13.46
12.18
10.81
9.4
7.95
6.38
4.65
2.76
0.81
-1.1
-2.93
-4.8
-6.9
-9.46
-12.58
-16.1
-19.63
-22.55
-24.27
-24.33
-22.59
-19.25
-14.74
-9.6
-4.27
0.92
5.78
10.16
13.9
16.84
18.85
19.94
20.2
19.86
19.13
18.15
17.01
15.7
14.21
12.55
10.78
8.94
7.12
5.34
3.57
1.79
-0.08
-2.04
-4.1
-6.26
-8.58
-11.14
-13.97
-16.99
-19.87
-22.15
-23.3
-22.88
-20.76
-17.08
-12.23
-6.73
-1.12
4.18
8.85
12.68
15.56
17.43
18.36
18.42
17.79
16.71
15.42
14.16
13.04
12.08
11.11
9.97
8.52
6.76
4.83
2.89
1.05
-0.69
-2.44
-4.36
-6.53
-8.99
-11.68
-14.47
-17.15
-19.47
-21.13
-21.77
-21.16
-19.17
-15.91
-11.65
-6.81
-1.83
2.9
7.03
10.39
12.82
14.29
14.8
14.38
13.21
11.55
9.78
8.24
7.13
6.38
5.71
4.72
3.16
1.05
-1.3
-3.48
-5.24
-6.57
-7.71
-8.98
-10.6
-12.62
-14.97
-17.42
-19.73
-21.58
-22.65
-22.6
-21.16
-18.24
-14.03
-8.95
-3.55
1.59
6.01
9.38
11.58
12.64
12.76
12.23
11.4
10.55
9.82
9.22
8.59
7.77
6.59
5.01
3.08
0.97
-1.17
-3.21
-5.09
-6.83
-8.56
-10.47
-12.72
-15.4
-18.42
-21.5
-24.16
-25.89
-26.24
-24.98
-22.13
-17.9
-12.67
-6.88
-1
4.53
9.33
13.1
15.69
17.09
17.41
16.86
15.72
14.25
12.7
11.19
9.76
8.33
6.82
5.18
3.43
1.66
-0.09
-1.77
-3.46
-5.27
-7.37
-9.87
-12.85
-16.25
-19.82
-23.17
-25.8
-27.22
-27.14
-25.47
-22.35
-18.06
-12.89
-7.18
-1.21
4.66
10.05
14.6
18.06
20.31
21.41
21.58
21.05
20.09
18.86
17.53
16.17
14.79
13.39
11.9
10.26
8.4
6.31
4.02
1.62
-0.81
-3.22
-5.64
-8.18
-11.01
-14.23
-17.79
-21.39
-24.52
-26.58
-27.04
-25.64
-22.46
-17.84
-12.26
-6.19
0.03
6.11
11.76
16.7
20.63
23.33
24.77
25.13
24.71
23.84
22.81
21.74
20.66
19.54
18.32
16.98
15.52
13.95
12.25
10.37
8.25
5.87
3.24
0.45
-2.41
-5.32
-8.31
-11.45
-14.8
-18.28
-21.61
-24.38
-26.06
-26.24
-24.71
-21.5
-16.92
-11.39
-5.43
0.57
6.24
11.36
15.7
19.07
21.32
22.4
22.44
21.72
20.59
19.37
18.23
17.24
16.33
15.39
14.31
13
11.35
9.32
6.95
4.42
1.98
-0.15
-1.91
-3.49
-5.18
-7.3
-9.94
-13.01
-16.19
-19.11
-21.44
-22.91
-23.35
-22.59
-20.55
-17.23
-12.74
-7.41
-1.7
3.86
8.79
12.73
15.51
17.12
17.72
17.55
16.9
16.01
15.03
14.04
13.04
12.03
11
9.95
8.88
7.7
6.32
4.6
2.53
0.14
-2.39
-4.89
-7.25
-9.48
-11.71
-14.11
-16.8
-19.66
-22.39
-24.52
-25.55
-25.07
-22.91
-19.17
-14.21
-8.51
-2.61
3.08
8.26
12.69
16.21
18.69
20.04
20.31
19.7
18.53
17.16
15.85
14.77
13.88
13.08
12.23
11.2
9.94
8.42
6.69
4.81
2.88
0.93
-1.04
-3.1
-5.34
-7.8
-10.5
-13.39
-16.38
-19.32
-21.96
-23.97
-24.93
-24.48
-22.46
-19
-14.46
-9.36
-4.13
0.91
5.59
9.81
13.43
16.36
18.46
19.73
20.22
20.08
19.48
18.56
17.45
16.21
14.88
13.52
12.2
10.93
9.69
8.43
7.04
5.46
3.67
1.76
-0.17
-2.01
-3.78
-5.6
-7.63
-10.04
-12.85
-15.93
-18.92
-21.38
-22.78
-22.73
-21.01
-17.66
-12.98
-7.43
-1.58
4.03
8.98
12.94
15.75
17.41
18.06
17.97
17.43
16.71
15.95
15.17
14.33
13.42
12.43
11.41
10.35
9.21
7.95
6.52
4.92
3.17
1.26
-0.75
-2.84
-4.9
-6.85
-8.65
-10.39
-12.23
-14.34
-16.73
-19.14
-21.09
-22.01
-21.51
-19.45
-16.05
-11.7
-6.89
-2.06
2.48
6.52
9.9
12.48
14.19
14.97
14.91
14.17
13.03
11.78
10.63
9.66
8.85
8.06
7.19
6.15
4.95
3.59
2.11
0.52
-1.16
-2.91
-4.68
-6.47
-8.28
-10.19
-12.28
-14.56
-16.93
-19.11
-20.71
-21.34
-20.76
-18.92
-15.97
-12.18
-7.85
-3.25
1.36
5.7
9.41
12.14
13.65
13.92
13.18
11.83
10.26
8.8
7.57
6.57
5.74
4.99
4.26
3.47
2.54
1.38
-0.03
-1.68
-3.46
-5.24
-6.93
-8.5
-10.05
-11.71
-13.64
-15.87
-18.31
-20.66
-22.57
-23.63
-23.54
-22.14
-19.44
-15.6
-10.89
-5.71
-0.45
4.49
8.76
12.12
14.46
15.77
16.17
15.84
14.98
13.83
12.56
11.32
10.17
9.11
8.07
6.97
5.75
4.37
2.82
1.15
-0.62
-2.43
-4.24
-6.02
-7.83
-9.74
-11.85
-14.21
-16.83
-19.55
-22.06
-23.94
-24.81
-24.37
-22.53
-19.39
-15.22
-10.33
-5.09
0.22
5.34
10.01
14.01
17.16
19.3
20.39
20.49
19.74
18.41
16.74
14.98
13.3
11.81
10.52
9.4
8.38
7.36
6.23
4.85
3.1
0.95
-1.5
-4.05
-6.46
-8.59
-10.5
-12.43
-14.7
-17.51
-20.75
-23.98
-26.55
-27.79
-27.24
-24.82
-20.8
-15.66
-9.98
-4.23
1.24
6.2
10.54
14.1
16.77
18.45
19.14
18.98
18.24
17.23
16.24
15.39
14.66
13.88
12.89
11.63
10.1
8.41
6.67
4.91
3.13
1.31
-0.57
-2.51
-4.48
-6.51
-8.68
-11.11
-13.92
-17.1
-20.4
-23.4
-25.56
-26.35
-25.49
-22.97
-19.04
-14.12
-8.67
-3.1
2.3
7.2
11.32
14.44
16.43
17.34
17.34
16.69
15.64
14.41
13.15
11.98
11.01
10.28
9.73
9.2
8.44
7.22
5.48
3.29
0.86
-1.55
-3.76
-5.69
-7.4
-9.05
-10.84
-12.94
-15.43
-18.23
-21.04
-23.44
-24.91
-25.02
-23.51
-20.38
-15.88
-10.42
-4.48
1.44
6.9
11.52
15
17.2
18.12
17.95
17.01
15.69
14.29
12.99
11.84
10.84
9.95
9.13
8.3
7.34
6.1
4.47
2.48
0.28
-1.84
-3.68
-5.19
-6.57
-8.15
-10.22
-12.86
-15.87
-18.79
-21.05
-22.21
-21.98
-20.32
-17.38
-13.42
-8.76
-3.73
1.36
6.17
10.4
13.79
16.16
17.45
17.77
17.33
16.47
15.46
14.49
13.59
12.67
11.59
10.26
8.7
6.96
5.13
3.27
1.42
-0.41
-2.19
-3.88
-5.53
-7.25
-9.22
-11.57
-14.29
-17.14
-19.67
-21.34
-21.67
-20.42
-17.64
-13.57
-8.59
-3.1
2.52
7.87
12.51
16.02
18.05
18.5
17.6
15.84
13.86
12.19
11.11
10.61
10.44
10.24
9.7
8.68
7.21
5.47
3.66
1.94
0.33
-1.25
-2.97
-4.95
-7.27
-9.89
-12.66
-15.36
-17.69
-19.34
-19.99
-19.39
-17.39
-14.01
-9.52
-4.36
0.91
5.72
9.61
12.32
13.81
14.18
13.72
12.68
11.32
9.84
8.38
7.07
5.95
4.99
4.08
3.05
1.76
0.16
-1.67
-3.56
-5.33
-6.9
-8.32
-9.8
-11.58
-13.79
-16.36
-18.97
-21.12
-22.21
-21.8
-19.71
-16.07
-11.32
-6
-0.66
4.22
8.28
11.28
13.05
13.6
13.12
11.94
10.48
9.09
7.97
7.08
6.29
5.39
4.27
2.91
1.35
-0.29
-1.96
-3.64
-5.41
-7.4
-9.81
-12.75
-16.13
-19.67
-22.84
-25.03
-25.73
-24.68
-21.9
-17.67
-12.42
-6.61
-0.76
4.69
9.3
12.72
14.8
15.6
15.37
14.51
13.39
12.26
11.22
10.24
9.24
8.09
6.73
5.15
3.39
1.54
-0.32
-2.18
-4.1
-6.27
-8.92
-12.16
-15.85
-19.61
-22.83
-24.88
-25.3
-23.9
-20.77
-16.22
-10.63
-4.45
1.83
7.73
12.81
16.74
19.4
20.86
21.38
21.27
20.76
20.03
19.13
18.02
16.66
15.03
13.15
11.06
8.89
6.74
4.7
2.73
0.71
-1.57
-4.38
-7.89
-12.1
-16.74
-21.24
-24.9
-27.02
-27.12
-25.06
-21.05
-15.6
-9.27
-2.6
3.99
10.16
15.64
20.14
23.45
25.46
26.29
26.2
25.55
24.67
23.73
22.78
21.73
20.45
18.83
16.85
14.55
12.02
9.39
6.79
4.33
1.98
-0.37
-2.95
-6.03
-9.83
-14.31
-19.11
-23.6
-27
-28.61
-28.06
-25.35
-20.84
-15.05
-8.5
-1.65
5.16
11.6
17.36
22.15
25.78
28.2
29.52
29.97
29.82
29.3
28.59
27.75
26.8
25.68
24.37
22.85
21.15
19.27
17.21
14.93
12.4
9.55
6.4
3.03
-0.41
-3.73
-6.82
-9.66
-12.4
-15.26
-18.43
-21.93
-25.45
-28.41
-30.1
-29.91
-27.6
-23.29
-17.5
-10.9
-4.17
2.22
7.94
12.85
16.83
19.81
21.74
22.65
22.69
22.13
21.31
20.51
19.88
19.44
19.06
18.54
17.72
16.5
14.84
12.79
10.44
7.88
5.26
2.74
0.44
-1.58
-3.33
-4.98
-6.79
-9.07
-12.04
-15.67
-19.63
-23.29
-25.92
-26.88
-25.87
-22.97
-18.57
-13.22
-7.46
-1.71
3.69
8.46
12.32
15.07
16.64
17.1
16.7
15.79
14.72
13.74
13.03
12.6
12.33
12.03
11.48
10.52
9.07
7.19
5.02
2.74
0.49
-1.67
-3.77
-5.87
-8.04
-10.36
-12.91
-15.72
-18.78
-21.92
-24.8
-26.95
-27.82
-26.98
-24.25
-19.77
-14.01
-7.62
-1.25
4.56
9.48
13.34
16.1
17.75
18.37
18.11
17.24
16.09
15
14.17
13.58
13.02
12.22
10.96
9.19
7
4.57
2.07
-0.41
-2.81
-5.11
-7.32
-9.43
-11.56
-13.85
-16.5
-19.62
-23.08
-26.48
-29.22
-30.7
-30.45
-28.33
-24.52
-19.39
-13.43
-7.1
-0.77
5.2
10.51
14.88
18.12
20.16
21.07
21.08
20.48
19.61
18.71
17.92
17.19
16.37
15.3
13.83
11.98
9.78
7.34
4.74
2.03
-0.71
-3.43
-6.04
-8.57
-11.09
-13.77
-16.78
-20.2
-23.88
-27.43
-30.28
-31.82
-31.61
-29.44
-25.44
-20.02
-13.74
-7.14
-0.68
5.34
10.75
15.44
19.28
22.15
23.96
24.72
24.57
23.73
22.53
21.24
20.04
18.96
17.94
16.79
15.34
13.42
11.01
8.2
5.16
2.16
-0.62
-3.06
-5.26
-7.41
-9.77
-12.56
-15.86
-19.59
-23.48
-27.07
-29.8
-31.15
-30.75
-28.49
-24.52
-19.25
-13.17
-6.74
-0.35
5.72
11.22
15.96
19.78
22.56
24.28
25
24.87
24.07
22.8
21.28
19.71
18.23
16.88
15.63
14.4
13.06
11.52
9.71
7.56
5.12
2.45
-0.28
-2.88
-5.22
-7.28
-9.25
-11.43
-14.1
-17.35
-21.01
-24.62
-27.58
-29.35
-29.57
-28.11
-25.04
-20.61
-15.16
-9.11
-2.93
2.93
8.07
12.23
15.32
17.43
18.71
19.33
19.44
19.13
18.44
17.43
16.17
14.77
13.37
12.06
10.84
9.64
8.28
6.63
4.59
2.24
-0.26
-2.64
-4.7
-6.39
-7.84
-9.34
-11.2
-13.6
-16.49
-19.55
-22.33
-24.33
-25.15
-24.59
-22.61
-19.27
-14.79
-9.46
-3.72
1.94
6.98
10.99
13.71
15.11
15.36
14.73
13.54
12.06
10.52
9.13
7.99
7.12
6.42
5.69
4.74
3.43
1.75
-0.18
-2.18
-4.1
-5.87
-7.49
-9.04
-10.6
-12.28
-14.17
-16.27
-18.51
-20.59
-22.1
-22.58
-21.72
-19.46
-16
-11.74
-7.09
-2.39
2.1
6.11
9.38
11.59
12.58
12.35
11.21
9.63
8.07
6.85
6.05
5.55
5.15
4.65
3.89
2.81
1.36
-0.47
-2.6
-4.93
-7.33
-9.72
-12.08
-14.48
-17.04
-19.74
-22.4
-24.64
-26.01
-26.08
-24.63
-21.71
-17.55
-12.58
-7.18
-1.75
3.41
7.98
11.65
14.15
15.36
15.37
14.46
13.09
11.67
10.47
9.47
8.51
7.36
5.88
4.08
2.1
0.15
-1.63
-3.22
-4.73
-6.36
-8.33
-10.8
-13.79
-17.15
-20.52
-23.41
-25.31
-25.82
-24.72
-22.06
-18.01
-12.89
-7.05
-0.9
5.08
10.41
14.66
17.56
19.08
19.47
19.1
18.36
17.53
16.65
15.66
14.42
12.82
10.84
8.58
6.15
3.69
1.33
-0.87
-2.93
-4.98
-7.25
-9.96
-13.22
-16.93
-20.71
-23.98
-26.14
-26.72
-25.54
-22.74
-18.65
-13.68
-8.16
-2.37
3.46
9.04
14.05
18.1
20.94
22.46
22.79
22.25
21.23
20.08
18.99
17.98
16.93
15.66
14.05
12.08
9.87
7.57
5.27
3.01
0.68
-1.81
-4.55
-7.59
-10.89
-14.36
-17.79
-20.86
-23.14
-24.21
-23.74
-21.61
-17.97
-13.16
-7.65
-1.9
3.72
8.92
13.44
17.08
19.64
21.06
21.4
20.88
19.82
18.55
17.31
16.21
15.21
14.17
12.95
11.45
9.69
7.74
5.73
3.73
1.76
-0.26
-2.38
-4.71
-7.31
-10.2
-13.29
-16.42
-19.26
-21.45
-22.57
-22.28
-20.4
-16.94
-12.16
-6.49
-0.48
5.23
10.05
13.57
15.6
16.24
15.81
14.76
13.54
12.47
11.72
11.29
11.03
10.74
10.2
9.23
7.81
5.96
3.84
1.61
-0.61
-2.79
-4.94
-7.16
-9.56
-12.15
-14.9
-17.57
-19.8
-21.16
-21.25
-19.84
-16.95
-12.8
-7.82
-2.5
2.67
7.26
10.94
13.52
14.94
15.28
14.74
13.58
12.13
10.62
9.25
8.07
7.06
6.07
4.96
3.65
2.14
0.49
-1.18
-2.87
-4.64
-6.63
-9.01
-11.82
-15
-18.28
-21.25
-23.43
-24.4
-23.86
-21.69
-17.97
-12.99
-7.14
-0.97
4.96
10.1
14
16.41
17.31
16.95
15.75
14.2
12.66
11.37
10.34
9.46
8.52
7.34
5.82
3.95
1.86
-0.32
-2.43
-4.38
-6.19
-8.03
-10.16
-12.79
-15.97
-19.49
-22.83
-25.29
-26.27
-25.4
-22.68
-18.41
-13.02
-6.97
-0.64
5.6
11.34
16.17
19.69
21.73
22.33
21.83
20.69
19.31
17.94
16.59
15.17
13.56
11.73
9.77
7.79
5.85
3.95
2.02
-0.04
-2.28
-4.77
-7.56
-10.7
-14.19
-17.89
-21.45
-24.34
-26
-25.99
-24.15
-20.62
-15.78
-10.06
-3.9
2.29
8.14
13.28
17.41
20.36
22.12
22.86
22.83
22.28
21.37
20.24
18.99
17.7
16.42
15.16
13.81
12.24
10.34
8.07
5.51
2.79
0.04
-2.68
-5.37
-8.14
-11.09
-14.24
-17.47
-20.47
-22.77
-23.85
-23.28
-20.86
-16.66
-11.05
-4.61
2.02
8.26
13.68
17.99
21.07
22.93
23.65
23.44
22.53
21.24
19.85
18.58
17.54
16.67
15.81
14.74
13.32
11.53
9.4
7.08
4.71
2.39
0.19
-1.89
-3.96
-6.17
-8.71
-11.69
-15.1
-18.71
-22.06
-24.6
-25.77
-25.16
-22.68
-18.55
-13.24
-7.36
-1.47
4.01
8.82
12.83
15.9
17.92
18.85
18.75
17.85
16.51
15.08
13.8
12.8
12.03
11.34
10.6
9.65
8.38
6.73
4.7
2.4
0.03
-2.24
-4.26
-5.98
-7.49
-8.99
-10.71
-12.81
-15.29
-17.89
-20.11
-21.36
-21.09
-19.05
-15.34
-10.39
-4.81
0.81
6.01
10.41
13.79
15.95
16.78
16.35
14.91
12.9
10.79
8.98
7.63
6.68
5.93
5.13
4.15
2.94
1.52
-0.03
-1.64
-3.24
-4.76
-6.18
-7.54
-9.01
-10.83
-13.17
-16
-18.99
-21.54
-23.03
-22.96
-21.19
-17.9
-13.49
-8.38
-2.94
2.56
7.82
12.45
16.03
18.19
18.82
18.1
16.46
14.44
12.49
10.84
9.55
8.49
7.48
6.35
5.01
3.44
1.67
-0.19
-2.07
-3.9
-5.72
-7.6
-9.63
-11.91
-14.5
-17.35
-20.27
-22.92
-24.8
-25.43
-24.46
-21.82
-17.7
-12.51
-6.75
-0.88
4.66
9.52
13.43
16.17
17.69
18.07
17.58
16.54
15.25
13.94
12.71
11.61
10.62
9.65
8.62
7.37
5.85
4.07
2.11
0.13
-1.74
-3.51
-5.28
-7.25
-9.61
-12.44
-15.68
-19.06
-22.1
-24.28
-25.11
-24.28
-21.78
-17.88
-12.97
-7.52
-1.87
3.69
8.94
13.64
17.48
20.2
21.66
21.93
21.27
20.02
18.51
16.94
15.45
14
12.57
11.07
9.48
7.8
6.06
4.3
2.54
0.78
-1.01
-2.9
-4.96
-7.26
-9.86
-12.81
-16.01
-19.22
-22.05
-24.02
-24.7
-23.85
-21.44
-17.66
-12.83
-7.31
-1.46
4.35
9.76
14.43
18.08
20.52
21.74
21.86
21.15
19.92
18.49
17.05
15.74
14.52
13.33
12.08
10.73
9.3
7.77
6.17
4.45
2.61
0.58
-1.62
-3.94
-6.34
-8.8
-11.35
-14.07
-17
-20.03
-22.84
-24.96
-25.86
-25.22
-22.95
-19.27
-14.55
-9.18
-3.48
2.26
7.72
12.5
16.16
18.39
19.13
18.64
17.34
15.7
14.1
12.67
11.42
10.29
9.18
8.09
6.97
5.82
4.59
3.25
1.81
0.27
-1.35
-3.09
-4.99
-7.11
-9.49
-12.11
-14.92
-17.77
-20.4
-22.43
-23.43
-23
-20.93
-17.3
-12.44
-6.88
-1.19
4.14
8.73
12.3
14.68
15.78
15.71
14.68
13.07
11.28
9.61
8.2
7.01
5.91
4.73
3.4
1.91
0.32
-1.28
-2.82
-4.29
-5.75
-7.32
-9.09
-11.18
-13.61
-16.33
-19.15
-21.76
-23.74
-24.67
-24.2
-22.17
-18.68
-14.04
-8.73
-3.25
1.93
6.48
10.17
12.84
14.43
14.93
14.42
13.09
11.26
9.21
7.23
5.46
3.95
2.64
1.42
0.23
-0.98
-2.19
-3.4
-4.66
-6.07
-7.82
-10.06
-12.91
-16.3
-19.95
-23.36
-25.95
-27.18
-26.72
-24.53
-20.81
-15.89
-10.16
-4
2.18
7.94
12.8
16.38
18.47
19.13
18.64
17.42
15.84
14.18
12.62
11.21
9.92
8.65
7.23
5.52
3.42
0.98
-1.63
-4.17
-6.48
-8.6
-10.76
-13.3
-16.42
-20.03
-23.61
-26.45
-27.8
-27.24
-24.75
-20.67
-15.5
-9.68
-3.51
2.77
8.84
14.23
18.41
20.94
21.75
21.12
19.66
17.98
16.52
15.42
14.53
13.61
12.43
10.92
9.1
7.06
4.9
2.68
0.44
-1.77
-3.87
-5.86
-7.78
-9.85
-12.3
-15.24
-18.51
-21.62
-23.84
-24.5
-23.2
-19.96
-15.22
-9.57
-3.56
2.43
8.19
13.49
18.02
21.39
23.29
23.64
22.72
21.06
19.23
17.61
16.32
15.27
14.25
13.14
11.85
10.39
8.8
7.08
5.24
3.29
1.28
-0.74
-2.76
-4.8
-6.98
-9.4
-12.12
-15.04
-17.9
-20.19
-21.38
-21.01
-18.91
-15.25
-10.49
-5.21
0.11
5.15
9.71
13.64
16.77
18.9
19.89
19.77
18.74
17.17
15.46
13.94
12.85
12.21
11.9
11.71
11.34
10.58
9.34
7.67
5.69
3.6
1.51
-0.52
-2.51
-4.46
-6.47
-8.61
-10.98
-13.61
-16.32
-18.74
-20.29
-20.38
-18.68
-15.21
-10.41
-4.93
0.55
5.56
9.81
13.14
15.43
16.56
16.52
15.42
13.63
11.63
9.91
8.74
8.14
7.88
7.61
7.08
6.16
4.94
3.58
2.28
1.1
-0
-1.14
-2.45
-4.03
-5.95
-8.23
-10.81
-13.52
-16.06
-17.97
-18.79
-18.2
-16.1
-12.69
-8.39
-3.7
0.92
5.17
8.82
11.72
13.71
14.68
14.6
13.64
12.09
10.32
8.67
7.28
6.12
5.04
3.92
2.68
1.37
0.06
-1.18
-2.36
-3.51
-4.72
-6.05
-7.57
-9.39
-11.57
-14.09
-16.74
-19.06
-20.53
-20.66
-19.2
-16.27
-12.24
-7.61
-2.81
1.88
6.35
10.4
13.75
16.08
17.1
16.79
15.47
13.64
11.8
10.27
9.06
7.95
6.72
5.28
3.69
2.16
0.85
-0.2
-1.08
-1.97
-3.04
-4.38
-6.03
-7.98
-10.25
-12.79
-15.5
-18.12
-20.22
-21.28
-20.84
-18.69
-14.94
-10.02
-4.52
1
6.13
10.65
14.43
17.38
19.35
20.23
19.98
18.82
17.09
15.19
13.45
12.05
10.97
10.08
9.25
8.33
7.22
5.87
4.27
2.5
0.68
-1.06
-2.68
-4.22
-5.82
-7.65
-9.86
-12.43
-15.2
-17.87
-20.03
-21.24
-21.17
-19.65
-16.69
-12.46
-7.27
-1.53
4.26
9.55
13.86
16.84
18.38
18.62
17.89
16.55
14.93
13.27
11.76
10.54
9.68
9.21
8.98
8.79
8.4
7.66
6.55
5.16
3.62
2.03
0.43
-1.21
-2.9
-4.63
-6.42
-8.31
-10.39
-12.69
-15.1
-17.32
-18.88
-19.29
-18.21
-15.61
-11.73
-7.07
-2.13
2.64
6.93
10.49
13.09
14.55
14.8
14
12.46
10.61
8.87
7.48
6.48
5.81
5.33
4.93
4.53
4.06
3.44
2.57
1.38
-0.09
-1.74
-3.44
-5.11
-6.73
-8.4
-10.22
-12.27
-14.47
-16.59
-18.25
-19.03
-18.59
-16.77
-13.66
-9.57
-4.94
-0.24
4.11
7.82
10.63
12.37
12.93
12.37
10.94
9.09
7.32
6.02
5.3
4.99
4.73
4.22
3.26
1.88
0.24
-1.48
-3.15
-4.71
-6.17
-7.59
-9.04
-10.64
-12.5
-14.61
-16.83
-18.81
-20.13
-20.33
-19.17
-16.6
-12.87
-8.38
-3.6
1.03
5.15
8.47
10.83
12.13
12.41
11.83
10.67
9.26
7.9
6.72
5.73
4.82
3.85
2.74
1.5
0.19
-1.14
-2.48
-3.88
-5.39
-7.07
-9
-11.25
-13.89
-16.87
-20.01
-22.88
-24.93
-25.63
-24.64
-21.95
-17.84
-12.8
-7.33
-1.88
3.3
7.98
11.98
15.12
17.22
18.19
18.11
17.16
15.65
13.91
12.18
10.59
9.15
7.77
6.35
4.8
3.07
1.22
-0.66
-2.49
-4.28
-6.11
-8.14
-10.54
-13.36
-16.53
-19.77
-22.71
-24.9
-25.92
-25.48
-23.43
-19.85
-14.98
-9.24
-3.1
2.97
8.55
13.32
17.04
19.55
20.79
20.84
19.91
18.39
16.67
15.12
13.91
13
12.17
11.2
9.93
8.37
6.66
4.96
3.35
1.79
0.15
-1.75
-4
-6.66
-9.73
-13.13
-16.67
-20.05
-22.83
-24.52
-24.75
-23.3
-20.27
-15.97
-10.81
-5.21
0.51
6.08
11.26
15.77
19.34
21.73
22.84
22.8
21.9
20.53
19.06
17.71
16.54
15.47
14.35
13.08
11.56
9.8
7.8
5.62
3.31
0.95
-1.36
-3.54
-5.56
-7.46
-9.4
-11.61
-14.25
-17.29
-20.44
-23.12
-24.66
-24.47
-22.28
-18.21
-12.71
-6.45
-0.09
5.84
10.93
14.94
17.68
19.15
19.41
18.73
17.45
15.97
14.61
13.6
12.94
12.45
11.86
10.85
9.27
7.2
4.86
2.61
0.71
-0.76
-1.94
-3.09
-4.49
-6.32
-8.63
-11.4
-14.49
-17.7
-20.62
-22.72
-23.41
-22.28
-19.19
-14.48
-8.75
-2.69
3.09
8.17
12.28
15.23
16.85
17.11
16.11
14.24
12.08
10.19
8.93
8.32
8.17
8.09
7.75
6.94
5.61
3.86
1.85
-0.24
-2.28
-4.22
-6.11
-8.11
-10.41
-13.19
-16.43
-19.87
-23.03
-25.26
-26.02
-25
-22.22
-18.01
-12.82
-7.08
-1.17
4.64
10.03
14.63
18.06
20.02
20.49
19.73
18.22
16.47
14.9
13.66
12.68
11.79
10.79
9.6
8.18
6.58
4.82
2.89
0.86
-1.24
-3.32
-5.36
-7.44
-9.73
-12.47
-15.79
-19.54
-23.26
-26.25
-27.8
-27.36
-24.79
-20.29
-14.39
-7.72
-0.9
5.57
11.32
16.08
19.64
21.94
23
23
22.25
21.07
19.78
18.58
17.51
16.56
15.54
14.29
12.69
10.78
8.7
6.64
4.76
3.03
1.32
-0.61
-2.92
-5.7
-8.89
-12.35
-15.89
-19.21
-21.92
-23.61
-23.91
-22.6
-19.69
-15.37
-9.97
-3.9
2.4
8.5
13.91
18.21
21.11
22.57
22.79
22.16
21.07
19.82
18.53
17.22
15.86
14.45
13
11.55
10.11
8.65
7.06
5.27
3.24
1
-1.39
-3.86
-6.37
-8.87
-11.37
-13.87
-16.33
-18.66
-20.62
-21.83
-21.83
-20.26
-17.04
-12.44
-7.06
-1.57
3.43
7.61
10.86
13.19
14.57
14.94
14.34
12.96
11.19
9.47
8.17
7.34
6.85
6.4
5.71
4.67
3.29
1.7
0
-1.71
-3.41
-5.09
-6.8
-8.64
-10.75
-13.28
-16.23
-19.37
-22.3
-24.42
-25.18
-24.24
-21.54
-17.33
-12.09
-6.37
-0.7
4.5
8.89
12.25
14.43
15.44
15.42
14.67
13.55
12.39
11.42
10.66
9.97
9.12
7.96
6.43
4.65
2.82
1.11
-0.42
-1.88
-3.43
-5.29
-7.59
-10.41
-13.78
-17.57
-21.54
-25.24
-28.08
-29.46
-28.99
-26.6
-22.58
-17.45
-11.72
-5.77
0.12
5.74
10.81
14.95
17.84
19.3
19.46
18.7
17.5
16.26
15.23
14.43
13.74
13
12.05
10.82
9.25
7.39
5.29
3.07
0.83
-1.39
-3.6
-5.95
-8.59
-11.7
-15.31
-19.26
-23.18
-26.5
-28.64
-29.1
-27.62
-24.23
-19.24
-13.17
-6.56
0.09
6.35
11.94
16.66
20.36
22.96
24.43
24.89
24.55
23.74
22.79
21.95
21.26
20.59
19.69
18.33
16.4
14.01
11.38
8.71
6.15
3.68
1.19
-1.39
-4.11
-6.91
-9.76
-12.68
-15.7
-18.78
-21.69
-24.01
-25.17
-24.7
-22.35
-18.27
-12.88
-6.76
-0.5
5.46
10.79
15.3
18.82
21.25
22.59
22.92
22.46
21.51
20.34
19.18
18.14
17.21
16.33
15.39
14.3
12.97
11.36
9.46
7.29
4.95
2.55
0.15
-2.21
-4.57
-6.99
-9.59
-12.45
-15.6
-18.97
-22.31
-25.24
-27.21
-27.67
-26.26
-22.88
-17.82
-11.68
-5.15
1.09
6.57
10.98
14.23
16.3
17.3
17.39
16.82
15.86
14.77
13.72
12.8
11.96
11.09
10.02
8.67
7.03
5.16
3.18
1.19
-0.72
-2.58
-4.44
-6.42
-8.65
-11.19
-14.08
-17.19
-20.29
-23.01
-24.9
-25.51
-24.54
-21.9
-17.75
-12.48
-6.58
-0.58
5.03
9.89
13.75
16.46
18.01
18.44
17.93
16.72
15.08
13.27
11.56
10.08
8.92
8.01
7.21
6.31
5.12
3.52
1.48
-0.86
-3.32
-5.68
-7.81
-9.73
-11.66
-13.9
-16.7
-20.04
-23.58
-26.69
-28.63
-28.8
-26.99
-23.33
-18.27
-12.35
-6.07
0.18
6.11
11.49
16.06
19.54
21.73
22.54
22.14
20.86
19.16
17.46
16.03
14.91
13.9
12.79
11.4
9.71
7.82
5.86
3.9
1.93
-0.12
-2.34
-4.76
-7.36
-10.2
-13.35
-16.88
-20.72
-24.55
-27.77
-29.68
-29.68
-27.58
-23.6
-18.26
-12.16
-5.77
0.59
6.7
12.31
17.06
20.6
22.74
23.56
23.37
22.64
21.71
20.76
19.79
18.71
17.48
16.11
14.66
13.17
11.59
9.86
7.9
5.72
3.36
0.95
-1.45
-3.79
-6.16
-8.66
-11.46
-14.67
-18.17
-21.69
-24.7
-26.6
-26.87
-25.27
-21.84
-16.9
-10.95
-4.51
1.94
8.03
13.41
17.8
21
22.94
23.68
23.43
22.47
21.1
19.59
18.12
16.74
15.43
14.14
12.78
11.29
9.64
7.8
5.77
3.59
1.36
-0.82
-2.85
-4.76
-6.64
-8.66
-10.98
-13.67
-16.65
-19.63
-22.23
-23.97
-24.45
-23.4
-20.73
-16.6
-11.36
-5.55
0.25
5.51
9.86
13.06
15.06
15.94
15.86
15.06
13.77
12.27
10.76
9.44
8.36
7.5
6.81
6.16
5.46
4.57
3.46
2.12
0.61
-1
-2.63
-4.29
-6.05
-8.05
-10.37
-12.97
-15.63
-17.99
-19.67
-20.32
-19.75
-17.92
-14.95
-11.04
-6.51
-1.73
2.89
6.94
10.08
12.07
12.84
12.46
11.19
9.41
7.56
5.98
4.86
4.15
3.62
2.98
2.01
0.7
-0.86
-2.5
-4.1
-5.67
-7.3
-9.06
-10.99
-13.06
-15.2
-17.34
-19.32
-20.91
-21.79
-21.64
-20.26
-17.59
-13.78
-9.11
-3.93
1.34
6.28
10.45
13.49
15.2
15.61
14.95
13.58
11.86
10.07
8.43
7.03
5.93
5.04
4.21
3.2
1.84
0.08
-1.98
-4.13
-6.21
-8.18
-10.14
-12.3
-14.79
-17.63
-20.59
-23.28
-25.16
-25.75
-24.72
-21.97
-17.7
-12.31
-6.34
-0.36
5.12
9.71
13.16
15.4
16.49
16.63
16.09
15.18
14.14
13.12
12.14
11.09
9.82
8.21
6.21
3.93
1.58
-0.64
-2.56
-4.14
-5.52
-6.91
-8.58
-10.77
-13.57
-16.84
-20.21
-23.13
-25
-25.36
-24.06
-21.2
-17.11
-12.16
-6.68
-0.94
4.8
10.21
14.87
18.36
20.41
21.01
20.42
19.09
17.49
16.02
14.83
13.95
13.21
12.43
11.4
9.97
8.1
5.88
3.5
1.16
-0.97
-2.83
-4.47
-6.09
-7.89
-10.08
-12.74
-15.77
-18.86
-21.52
-23.16
-23.28
-21.58
-18.09
-13.19
-7.4
-1.31
4.56
9.83
14.26
17.7
20.06
21.27
21.41
20.61
19.19
17.5
15.91
14.57
13.49
12.45
11.22
9.66
7.79
5.82
3.98
2.4
1.06
-0.18
-1.54
-3.18
-5.18
-7.53
-10.15
-12.91
-15.57
-17.86
-19.43
-19.98
-19.29
-17.31
-14.15
-10
-5.14
0.1
5.32
10.08
13.92
16.5
17.66
17.51
16.36
14.62
12.7
10.89
9.37
8.21
7.37
6.72
6.06
5.23
4.09
2.64
0.97
-0.8
-2.55
-4.29
-6.05
-7.94
-10.07
-12.5
-15.24
-18.12
-20.78
-22.66
-23.2
-22.01
-19.07
-14.72
-9.51
-4.05
1.19
5.93
9.96
13.06
15.04
15.72
15.17
13.71
11.79
9.94
8.44
7.36
6.51
5.61
4.46
3
1.31
-0.45
-2.1
-3.61
-5.04
-6.54
-8.31
-10.51
-13.19
-16.2
-19.26
-21.94
-23.81
-24.5
-23.78
-21.59
-18
-13.23
-7.65
-1.75
3.92
8.83
12.55
14.94
16.06
16.21
15.69
14.83
13.84
12.83
11.83
10.82
9.74
8.54
7.18
5.61
3.84
1.89
-0.16
-2.23
-4.3
-6.41
-8.69
-11.33
-14.41
-17.83
-21.23
-24.02
-25.57
-25.4
-23.32
-19.5
-14.37
-8.49
-2.38
3.5
8.83
13.31
16.71
18.92
19.94
19.95
19.27
18.24
17.08
15.9
14.64
13.2
11.52
9.59
7.49
5.32
3.12
0.93
-1.23
-3.31
-5.31
-7.28
-9.35
-11.74
-14.53
-17.6
-20.53
-22.71
-23.51
-22.56
-19.82
-15.57
-10.28
-4.46
1.49
7.25
12.52
16.99
20.35
22.42
23.22
23
22.17
21.11
20.11
19.22
18.32
17.25
15.83
14.02
11.85
9.47
7.04
4.71
2.54
0.53
-1.42
-3.5
-5.88
-8.73
-12.07
-15.77
-19.51
-22.8
-25.11
-25.89
-24.84
-21.91
-17.34
-11.56
-5.17
1.26
7.2
12.23
16.06
18.56
19.77
19.89
19.22
18.11
16.88
15.72
14.74
13.97
13.34
12.78
12.13
11.26
10.04
8.4
6.38
4.07
1.63
-0.82
-3.22
-5.59
-8.04
-10.68
-13.53
-16.46
-19.18
-21.26
-22.24
-21.74
-19.6
-15.9
-10.96
-5.24
0.78
6.57
11.69
15.72
18.37
19.57
19.43
18.31
16.64
14.84
13.17
11.74
10.56
9.5
8.46
7.28
5.82
4.01
1.9
-0.36
-2.53
-4.39
-5.92
-7.23
-8.64
-10.44
-12.8
-15.66
-18.62
-21.15
-22.6
-22.5
-20.64
-17.12
-12.32
-6.74
-0.95
4.51
9.19
12.72
14.84
15.58
15.14
13.94
12.46
11.05
9.91
9.02
8.22
7.34
6.26
4.94
3.37
1.6
-0.31
-2.26
-4.16
-5.95
-7.66
-9.43
-11.48
-13.96
-16.84
-19.79
-22.24
-23.6
-23.39
-21.45
-17.94
-13.24
-7.82
-2.11
3.47
8.57
12.87
16.12
18.21
19.18
19.23
18.62
17.6
16.37
15.06
13.67
12.19
10.58
8.78
6.83
4.77
2.71
0.69
-1.26
-3.16
-5.08
-7.12
-9.42
-12.1
-15.21
-18.6
-21.89
-24.49
-25.76
-25.25
-22.84
-18.78
-13.53
-7.65
-1.61
4.23
9.58
14.14
17.61
19.81
20.7
20.51
19.61
18.39
17.2
16.19
15.37
14.62
13.81
12.82
11.57
10.04
8.29
6.39
4.45
2.47
0.42
-1.83
-4.43
-7.44
-10.76
-14.11
-17.11
-19.39
-20.68
-20.77
-19.58
-17.1
-13.41
-8.7
-3.27
2.47
8.06
13.07
17.13
20.02
21.63
22.04
21.45
20.18
18.59
16.98
15.51
14.24
13.09
11.96
10.75
9.38
7.79
5.99
3.99
1.87
-0.3
-2.46
-4.6
-6.78
-9.09
-11.62
-14.37
-17.22
-19.87
-21.89
-22.81
-22.27
-20.11
-16.46
-11.71
-6.37
-0.98
4.06
8.46
12.03
14.62
16.13
16.54
16.03
14.91
13.55
12.28
11.25
10.42
9.64
8.71
7.54
6.14
4.59
2.99
1.37
-0.25
-1.93
-3.74
-5.68
-7.76
-9.99
-12.35
-14.77
-17.11
-19.08
-20.33
-20.46
-19.2
-16.51
-12.58
-7.8
-2.68
2.26
6.57
9.88
11.96
12.76
12.38
11.1
9.34
7.51
5.92
4.71
3.87
3.26
2.69
2
1.09
-0.05
-1.38
-2.85
-4.43
-6.15
-8.12
-10.41
-13.13
-16.2
-19.39
-22.25
-24.24
-24.85
-23.76
-20.96
-16.7
-11.44
-5.74
-0.09
5.09
9.46
12.76
14.85
15.69
15.44
14.38
12.84
11.14
9.45
7.86
6.32
4.8
3.3
1.86
0.55
-0.63
-1.75
-2.93
-4.34
-6.11
-8.34
-11.06
-14.19
-17.55
-20.82
-23.58
-25.36
-25.77
-24.58
-21.82
-17.72
-12.66
-7.07
-1.39
4
8.7
12.41
14.95
16.29
16.61
16.21
15.41
14.45
13.44
12.37
11.17
9.79
8.22
6.5
4.71
2.86
0.99
-0.93
-2.91
-5
-7.31
-10
-13.13
-16.67
-20.33
-23.6
-25.88
-26.65
-25.61
-22.75
-18.29
-12.62
-6.22
0.41
6.75
12.33
16.76
19.88
21.74
22.54
22.59
22.11
21.28
20.17
18.82
17.27
15.58
13.79
11.92
9.98
7.98
6
4.08
2.27
0.48
-1.46
-3.77
-6.61
-9.99
-13.73
-17.46
-20.66
-22.82
-23.55
-22.67
-20.2
-16.42
-11.67
-6.35
-0.81
4.58
9.52
13.69
16.81
18.76
19.58
19.49
18.81
17.86
16.81
15.74
14.63
13.42
12.09
10.63
9
7.18
5.12
2.85
0.43
-1.98
-4.21
-6.21
-8.04
-9.91
-12.06
-14.6
-17.37
-19.95
-21.73
-22.14
-20.86
-17.84
-13.41
-8.07
-2.38
3.12
8.02
11.95
14.64
15.97
15.97
14.92
13.3
11.58
10.2
9.29
8.78
8.37
7.74
6.71
5.22
3.43
1.51
-0.37
-2.12
-3.76
-5.36
-7.02
-8.88
-11.08
-13.68
-16.58
-19.49
-21.87
-23.11
-22.74
-20.57
-16.79
-11.88
-6.45
-1.05
3.98
8.44
12.17
15.04
16.85
17.48
16.97
15.58
13.73
11.88
10.32
9.15
8.28
7.49
6.63
5.63
4.47
3.18
1.74
0.13
-1.69
-3.75
-6.04
-8.62
-11.51
-14.74
-18.19
-21.56
-24.37
-26.1
-26.36
-24.97
-22.01
-17.76
-12.6
-6.88
-0.95
4.91
10.39
15.18
19.04
21.8
23.42
24.01
23.71
22.75
21.35
19.77
18.2
16.77
15.47
14.19
12.72
10.87
8.58
5.95
3.23
0.66
-1.59
-3.55
-5.41
-7.37
-9.64
-12.32
-15.42
-18.8
-22.13
-24.96
-26.78
-27.12
-25.73
-22.61
-18.05
-12.42
-6.15
0.38
6.81
12.77
17.89
21.88
24.62
26.16
26.71
26.49
25.7
24.5
23.05
21.53
20.15
19.02
18.11
17.26
16.23
14.82
12.95
10.66
8.08
5.34
2.5
-0.39
-3.27
-6.03
-8.58
-10.86
-12.93
-14.97
-17.21
-19.74
-22.38
-24.68
-26.01
-25.83
-23.86
-20.21
-15.3
-9.72
-4.03
1.35
6.19
10.35
13.78
16.41
18.21
19.21
19.5
19.22
18.56
17.63
16.53
15.37
14.16
12.95
11.73
10.5
9.21
7.8
6.28
4.63
2.91
1.17
-0.6
-2.4
-4.28
-6.22
-8.25
-10.39
-12.71
-15.23
-17.89
-20.37
-22.19
-22.76
-21.67
-18.84
-14.55
-9.43
-4.12
0.82
5.09
8.6
11.31
13.19
14.15
14.16
13.29
11.79
10.01
8.35
7.11
6.37
6.02
5.83
5.49
4.79
3.66
2.12
0.29
-1.64
-3.56
-5.35
-7.02
-8.62
-10.28
-12.13
-14.29
-16.74
-19.28
-21.57
-23.18
-23.72
-22.91
-20.71
-17.21
-12.67
-7.46
-1.95
3.41
8.19
12.01
14.63
15.98
16.2
15.57
14.44
13.13
11.86
10.7
9.64
8.6
7.5
6.29
4.94
3.47
1.91
0.28
-1.39
-3.11
-4.86
-6.68
-8.64
-10.86
-13.45
-16.41
-19.61
-22.71
-25.23
-26.71
-26.77
-25.26
-22.26
-18.02
-12.92
-7.35
-1.71
3.64
8.38
12.25
15.11
16.91
17.75
17.79
17.25
16.33
15.19
13.95
12.7
11.43
10.17
8.89
7.55
6.15
4.68
3.15
1.56
-0.09
-1.83
-3.69
-5.75
-8.09
-10.76
-13.73
-16.83
-19.72
-21.9
-22.9
-22.35
-20.14
-16.44
-11.62
-6.19
-0.58
4.81
9.69
13.78
16.9
18.92
19.86
19.88
19.2
18.08
16.69
15.16
13.56
11.95
10.38
8.86
7.41
5.96
4.49
2.95
1.33
-0.33
-2.06
-3.89
-5.85
-8.01
-10.41
-13.06
-15.88
-18.68
-21.1
-22.71
-23.04
-21.82
-18.98
-14.73
-9.5
-3.8
1.86
7.01
11.25
14.26
15.88
16.13
15.26
13.72
11.99
10.47
9.34
8.58
8.02
7.41
6.59
5.47
4.08
2.48
0.77
-0.99
-2.75
-4.53
-6.34
-8.24
-10.27
-12.51
-14.91
-17.36
-19.54
-21.08
-21.56
-20.63
-18.18
-14.31
-9.42
-4.04
1.24
5.91
9.57
12.01
13.19
13.25
12.47
11.14
9.59
8.04
6.66
5.5
4.57
3.78
3.01
2.13
1.01
-0.37
-1.98
-3.7
-5.44
-7.19
-9.03
-11.15
-13.64
-16.47
-19.39
-21.89
-23.43
-23.55
-22.02
-18.91
-14.5
-9.21
-3.53
2.07
7.1
11.18
14
15.47
15.7
14.96
13.59
11.92
10.19
8.54
7.04
5.7
4.48
3.26
1.94
0.39
-1.42
-3.46
-5.67
-7.97
-10.31
-12.76
-15.33
-18.02
-20.65
-22.87
-24.23
-24.3
-22.84
-19.85
-15.59
-10.48
-4.95
0.55
5.68
10.12
13.63
16.03
17.29
17.5
16.91
15.85
14.57
13.26
11.97
10.63
9.17
7.53
5.7
3.73
1.73
-0.26
-2.23
-4.24
-6.42
-8.95
-11.94
-15.28
-18.68
-21.61
-23.48
-23.8
-22.34
-19.18
-14.63
-9.15
-3.22
2.73
8.32
13.17
16.98
19.52
20.76
20.86
20.16
19.05
17.84
16.67
15.54
14.38
13.07
11.6
9.97
8.24
6.47
4.66
2.82
0.9
-1.15
-3.46
-6.15
-9.25
-12.66
-16.02
-18.82
-20.49
-20.56
-18.84
-15.41
-10.62
-4.91
1.17
7.11
12.47
16.9
20.2
22.3
23.27
23.25
22.43
21.06
19.39
17.67
16.1
14.76
13.59
12.46
11.19
9.69
7.99
6.17
4.31
2.41
0.38
-1.94
-4.66
-7.77
-11.12
-14.43
-17.32
-19.4
-20.33
-19.89
-18
-14.72
-10.21
-4.79
1.09
6.92
12.11
16.2
18.9
20.21
20.34
19.62
18.41
16.98
15.49
14.07
12.81
11.75
10.85
9.95
8.81
7.25
5.23
2.87
0.44
-1.83
-3.84
-5.68
-7.6
-9.81
-12.35
-14.97
-17.2
-18.5
-18.44
-16.83
-13.8
-9.68
-4.91
0.08
4.9
9.2
12.64
14.93
15.87
15.54
14.26
12.51
10.79
9.36
8.25
7.24
6.1
4.7
3.11
1.46
-0.1
-1.58
-3.03
-4.55
-6.16
-7.86
-9.62
-11.49
-13.52
-15.71
-17.88
-19.61
-20.37
-19.73
-17.49
-13.79
-9.08
-3.9
1.23
5.91
9.86
12.88
14.8
15.54
15.18
13.98
12.32
10.63
9.19
8.07
7.16
6.25
5.19
3.9
2.38
0.7
-1.09
-2.97
-4.92
-6.96
-9.15
-11.53
-14.11
-16.81
-19.34
-21.29
-22.19
-21.68
-19.61
-16.1
-11.48
-6.19
-0.69
4.62
9.39
13.33
16.21
17.92
18.48
18.05
16.89
15.29
13.51
11.74
10.13
8.71
7.44
6.22
4.91
3.4
1.7
-0.11
-1.94
-3.71
-5.51
-7.51
-9.92
-12.77
-15.86
-18.7
-20.69
-21.31
-20.28
-17.65
-13.67
-8.76
-3.31
2.3
7.73
12.62
16.62
19.45
20.98
21.24
20.45
18.91
16.94
14.8
12.7
10.78
9.14
7.74
6.51
5.27
3.86
2.16
0.22
-1.86
-3.9
-5.85
-7.75
-9.78
-12.08
-14.64
-17.19
-19.27
-20.32
-19.92
-17.87
-14.29
-9.5
-3.99
1.71
7.11
11.71
15.13
17.13
17.66
16.95
15.4
13.51
11.72
10.27
9.19
8.34
7.51
6.51
5.25
3.76
2.14
0.49
-1.12
-2.68
-4.23
-5.87
-7.71
-9.91
-12.48
-15.29
-17.98
-19.99
-20.7
-19.65
-16.73
-12.22
-6.78
-1.14
3.98
8.12
11.06
12.79
13.45
13.2
12.26
10.89
9.37
7.95
6.77
5.86
5.08
4.22
3.09
1.58
-0.25
-2.28
-4.36
-6.39
-8.35
-10.34
-12.48
-14.84
-17.37
-19.85
-21.92
-23.11
-23.01
-21.39
-18.25
-13.85
-8.62
-3.06
2.3
7.02
10.67
12.98
13.84
13.38
11.99
10.15
8.33
6.8
5.64
4.73
3.91
3.04
2.04
0.88
-0.45
-1.94
-3.6
-5.44
-7.52
-9.94
-12.76
-15.9
-19.07
-21.78
-23.44
-23.58
-21.97
-18.73
-14.21
-8.87
-3.16
2.5
7.74
12.19
15.55
17.61
18.37
18.05
16.99
15.55
14.02
12.53
11.14
9.8
8.42
6.94
5.31
3.53
1.65
-0.26
-2.15
-4.08
-6.24
-8.81
-11.91
-15.39
-18.81
-21.53
-22.91
-22.55
-20.36
-16.6
-11.67
-6.02
-0.06
5.86
11.41
16.24
20.01
22.5
23.63
23.51
22.44
20.8
18.97
17.18
15.51
13.92
12.31
10.61
8.89
7.24
5.77
4.44
3.1
1.52
-0.48
-2.99
-6
-9.39
-12.95
-16.32
-19.06
-20.65
-20.67
-18.94
-15.59
-11.01
-5.74
-0.23
5.15
10.19
14.66
18.29
20.8
21.99
21.87
20.71
18.99
17.16
15.57
14.34
13.39
12.51
11.52
10.29
8.8
7.13
5.37
3.6
1.9
0.26
-1.36
-3.05
-4.9
-7.02
-9.43
-12.06
-14.71
-17.04
-18.64
-19.05
-17.96
-15.19
-10.87
-5.42
0.52
6.25
11.13
14.78
17.08
18.14
18.18
17.44
16.12
14.4
12.47
10.55
8.92
7.73
6.98
6.52
6.07
5.36
4.29
2.89
1.33
-0.24
-1.72
-3.14
-4.61
-6.3
-8.27
-10.52
-12.85
-14.95
-16.46
-17.01
-16.36
-14.47
-11.46
-7.58
-3.16
1.44
5.87
9.76
12.71
14.47
14.93
14.21
12.63
10.58
8.41
6.37
4.59
3.11
1.93
1
0.23
-0.47
-1.24
-2.09
-3.02
-3.98
-4.97
-6.09
-7.48
-9.28
-11.49
-13.98
-16.45
-18.51
-19.75
-19.83
-18.56
-15.98
-12.29
-7.85
-3.05
1.77
6.3
10.28
13.45
15.57
16.47
16.17
14.9
13.06
11.12
9.42
8.12
7.19
6.42
5.62
4.64
3.41
1.97
0.4
-1.23
-2.84
-4.45
-6.09
-7.86
-9.86
-12.16
-14.73
-17.37
-19.77
-21.45
-22.01
-21.19
-18.94
-15.49
-11.17
-6.36
-1.39
3.45
7.92
11.76
14.71
16.62
17.44
17.3
16.48
15.23
13.81
12.36
10.97
9.63
8.36
7.15
5.97
4.79
3.56
2.21
0.71
-0.95
-2.71
-4.49
-6.2
-7.83
-9.47
-11.3
-13.43
-15.85
-18.19
-19.9
-20.35
-19.12
-16.2
-12
-7.15
-2.27
2.26
6.34
10
13.23
15.89
17.71
18.47
18.15
16.95
15.28
13.54
12.04
10.87
10
9.31
8.64
7.86
6.87
5.6
4.06
2.32
0.52
-1.15
-2.59
-3.82
-5.02
-6.44
-8.31
-10.73
-13.57
-16.54
-19.15
-20.92
-21.44
-20.47
-18.04
-14.39
-9.92
-5.08
-0.25
4.29
8.36
11.81
14.46
16.13
16.72
16.28
15.02
13.35
11.7
10.42
9.66
9.33
9.22
9.04
8.55
7.56
6.04
4.04
1.72
-0.68
-2.94
-4.92
-6.54
-7.85
-8.97
-10.09
-11.38
-12.97
-14.86
-16.87
-18.62
-19.61
-19.4
-17.7
-14.55
-10.28
-5.39
-0.45
4.06
7.71
10.24
11.52
11.61
10.73
9.24
7.55
6.02
4.88
4.16
3.78
3.56
3.32
2.91
2.23
1.25
0.01
-1.38
-2.81
-4.22
-5.61
-7.06
-8.67
-10.52
-12.63
-14.94
-17.28
-19.37
-20.87
-21.41
-20.62
-18.3
-14.44
-9.34
-3.55
2.24
7.33
11.19
13.55
14.42
13.98
12.57
10.54
8.27
6.1
4.28
2.96
2.11
1.57
1.08
0.43
-0.5
-1.71
-3.1
-4.51
-5.93
-7.31
-8.74
-10.31
-12.14
-14.32
-16.87
-19.59
-22.1
-23.88
-24.42
-23.36
-20.64
-16.5
-11.39
-5.81
-0.25
4.94
9.44
12.97
15.31
16.33
16.12
14.96
13.31
11.65
10.29
9.33
8.63
7.9
6.89
5.48
3.75
1.9
0.14
-1.47
-2.96
-4.48
-6.21
-8.29
-10.78
-13.67
-16.84
-20.02
-22.8
-24.65
-25.11
-23.87
-20.95
-16.66
-11.5
-6
-0.58
4.48
9.02
12.85
15.77
17.63
18.34
17.99
16.84
15.24
13.54
12.01
10.74
9.65
8.6
7.45
6.16
4.78
3.46
2.32
1.36
0.44
-0.7
-2.3
-4.49
-7.22
-10.32
-13.49
-16.41
-18.74
-20.12
-20.21
-18.78
-15.78
-11.36
-5.92
-0.01
5.81
11
15.18
18.12
19.78
20.29
19.92
18.95
17.68
16.25
14.77
13.28
11.84
10.47
9.2
8
6.76
5.37
3.71
1.8
-0.27
-2.36
-4.38
-6.37
-8.46
-10.8
-13.42
-16.12
-18.52
-20.15
-20.58
-19.61
-17.23
-13.61
-9.05
-3.87
1.54
6.74
11.26
14.72
16.84
17.62
17.23
15.99
14.31
12.54
10.96
9.73
8.9
8.36
7.94
7.4
6.61
5.55
4.34
3.14
2.08
1.12
0.13
-1.04
-2.54
-4.44
-6.69
-9.19
-11.75
-14.03
-15.59
-16
-14.91
-12.27
-8.32
-3.55
1.47
6.22
10.29
13.41
15.36
16.08
15.61
14.21
12.27
10.24
8.49
7.21
6.4
5.89
5.45
4.9
4.13
3.14
1.99
0.77
-0.47
-1.74
-3.13
-4.8
-6.85
-9.27
-11.9
-14.43
-16.39
-17.37
-17.03
-15.27
-12.23
-8.21
-3.63
1.17
5.84
10.07
13.53
15.94
17.1
17
15.88
14.17
12.33
10.75
9.57
8.73
8.03
7.24
6.24
5
3.58
2.05
0.49
-1.09
-2.68
-4.33
-6.07
-7.98
-10.13
-12.54
-15.09
-17.46
-19.22
-19.93
-19.28
-17.15
-13.65
-9.05
-3.73
1.89
7.31
12.05
15.65
17.85
18.65
18.3
17.21
15.82
14.45
13.26
12.3
11.55
10.95
10.43
9.84
9
7.76
6.06
3.99
1.77
-0.36
-2.31
-4.14
-6.12
-8.54
-11.49
-14.84
-18.09
-20.62
-21.87
-21.53
-19.58
-16.3
-12.07
-7.25
-2.16
2.96
7.85
12.19
15.67
18.07
19.36
19.71
19.43
18.79
18
17.08
16.01
14.79
13.51
12.32
11.32
10.48
9.61
8.5
6.96
4.97
2.69
0.32
-1.96
-4.07
-6.08
-8.07
-10.12
-12.29
-14.6
-17.07
-19.69
-22.27
-24.47
-25.82
-25.82
-24.19
-20.96
-16.45
-11.15
-5.55
0.01
5.29
10.07
14.1
17.13
19.01
19.8
19.74
19.15
18.34
17.5
16.67
15.81
14.9
13.97
13.05
12.21
11.43
10.67
9.82
8.76
7.34
5.52
3.35
0.94
-1.49
-3.76
-5.74
-7.43
-8.95
-10.45
-12.09
-13.94
-16
-18.18
-20.32
-22.18
-23.44
-23.78
-22.9
-20.65
-17.06
-12.38
-6.98
-1.33
4.09
8.86
12.65
15.23
16.56
16.79
16.22
15.29
14.35
13.64
13.19
12.83
12.33
11.54
10.44
9.18
8
7.07
6.4
5.87
5.22
4.27
2.94
1.29
-0.48
-2.19
-3.75
-5.13
-6.44
-7.82
-9.39
-11.2
-13.25
-15.47
-17.66
-19.57
-20.89
-21.34
-20.72
-18.97
-16.17
-12.54
-8.35
-3.86
0.64
4.9
8.65
11.62
13.58
14.44
14.3
13.44
12.23
11
9.93
9.05
8.29
7.56
6.85
6.17
5.57
5.03
4.49
3.81
2.88
1.69
0.26
-1.32
-2.96
-4.59
-6.15
-7.57
-8.86
-10.04
-11.26
-12.7
-14.47
-16.5
-18.45
-19.82
-20.1
-18.95
-16.36
-12.6
-8.1
-3.29
1.47
5.92
9.79
12.84
14.79
15.52
15.1
13.83
12.13
10.41
8.92
7.72
6.77
5.97
5.25
4.62
4.09
3.61
3.02
2.18
0.97
-0.59
-2.36
-4.12
-5.75
-7.23
-8.64
-10.12
-11.73
-13.44
-15.16
-16.85
-18.51
-20.15
-21.68
-22.84
-23.21
-22.34
-19.99
-16.2
-11.33
-5.95
-0.63
4.19
8.22
11.32
13.43
14.61
14.94
14.62
13.9
12.99
12.06
11.16
10.3
9.45
8.6
7.77
7
6.29
5.56
4.71
3.62
2.24
0.58
-1.33
-3.39
-5.5
-7.59
-9.58
-11.47
-13.29
-15.18
-17.26
-19.57
-21.92
-23.95
-25.17
-25.16
-23.71
-20.86
-16.89
-12.19
-7.14
-2.03
2.84
7.28
11.05
13.96
15.88
16.78
16.78
16.07
14.93
13.66
12.49
11.56
10.89
10.38
9.86
9.18
8.24
7
5.49
3.78
1.95
0.08
-1.74
-3.47
-5.07
-6.61
-8.18
-9.92
-11.95
-14.27
-16.71
-18.93
-20.52
-21.09
-20.39
-18.36
-15.12
-10.92
-6.07
-0.94
4.08
8.55
12.13
14.59
15.87
16.11
15.6
14.63
13.46
12.26
11.14
10.17
9.38
8.74
8.17
7.52
6.63
5.41
3.85
2.09
0.26
-1.51
-3.19
-4.79
-6.4
-8.08
-9.88
-11.81
-13.83
-15.84
-17.63
-18.89
-19.25
-18.41
-16.22
-12.79
-8.42
-3.6
1.16
5.39
8.76
11.07
12.28
12.49
11.93
10.93
9.79
8.77
7.99
7.44
7.03
6.61
6.06
5.29
4.26
2.95
1.42
-0.25
-1.98
-3.68
-5.35
-7.03
-8.87
-10.98
-13.41
-16.03
-18.51
-20.38
-21.15
-20.51
-18.36
-14.85
-10.37
-5.39
-0.44
4.07
7.82
10.6
12.35
13.06
12.85
11.91
10.54
9.01
7.58
6.38
5.45
4.67
3.91
3.04
1.98
0.75
-0.61
-2.05
-3.56
-5.16
-6.93
-8.97
-11.35
-14.09
-16.99
-19.7
-21.79
-22.78
-22.38
-20.5
-17.3
-13.06
-8.13
-2.86
2.39
7.26
11.38
14.45
16.33
17.05
16.85
16.05
14.96
13.79
12.65
11.56
10.48
9.35
8.09
6.59
4.81
2.78
0.64
-1.46
-3.39
-5.21
-7.14
-9.44
-12.3
-15.6
-18.97
-21.77
-23.41
-23.44
-21.75
-18.51
-14.08
-8.87
-3.23
2.54
8.17
13.34
17.75
21.1
23.21
24.08
23.84
22.79
21.25
19.56
17.93
16.51
15.28
14.15
12.98
11.66
10.18
8.58
6.92
5.22
3.44
1.49
-0.71
-3.23
-6.09
-9.29
-12.76
-16.33
-19.68
-22.29
-23.59
-23.13
-20.71
-16.51
-10.95
-4.68
1.7
7.7
12.99
17.37
20.7
22.91
24.01
24.11
23.41
22.23
20.85
19.52
18.38
17.48
16.72
15.98
15.11
13.96
12.47
10.64
8.56
6.38
4.27
2.29
0.38
-1.62
-3.92
-6.7
-9.95
-13.44
-16.69
-19.14
-20.26
-19.72
-17.48
-13.79
-9.08
-3.86
1.46
6.54
11.12
14.93
17.74
19.35
19.71
19
17.52
15.67
13.81
12.11
10.63
9.33
8.12
6.97
5.85
4.74
3.61
2.39
1.08
-0.32
-1.77
-3.27
-4.82
-6.54
-8.54
-10.9
-13.48
-15.98
-17.88
-18.68
-18.03
-15.84
-12.3
-7.87
-3.06
1.71
6.11
9.9
12.91
14.95
15.9
15.71
14.51
12.64
10.53
8.61
7.16
6.21
5.62
5.13
4.52
3.68
2.63
1.44
0.14
-1.24
-2.74
-4.37
-6.18
-8.18
-10.42
-12.9
-15.56
-18.2
-20.43
-21.79
-21.84
-20.41
-17.55
-13.6
-8.99
-4.13
0.72
5.4
9.72
13.47
16.3
17.94
18.28
17.46
15.9
14.05
12.3
10.82
9.61
8.56
7.55
6.54
5.52
4.47
3.35
2.11
0.69
-0.86
-2.51
-4.19
-5.9
-7.68
-9.63
-11.83
-14.32
-16.95
-19.4
-21.2
-21.8
-20.81
-18.06
-13.76
-8.35
-2.43
3.4
8.64
12.96
16.12
18.05
18.85
18.74
18.03
17.02
15.9
14.74
13.55
12.27
10.96
9.71
8.65
7.8
7.1
6.43
5.59
4.51
3.14
1.55
-0.17
-1.93
-3.66
-5.31
-6.9
-8.5
-10.21
-12.16
-14.42
-16.86
-19.18
-20.88
-21.49
-20.63
-18.2
-14.37
-9.54
-4.2
1.16
6.11
10.34
13.62
15.87
17.1
17.45
17.17
16.51
15.69
14.82
13.93
12.96
11.89
10.74
9.59
8.55
7.71
7.08
6.56
5.98
5.16
4.02
2.51
0.7
-1.32
-3.42
-5.46
-7.33
-8.98
-10.51
-12.06
-13.82
-15.86
-18.06
-20.1
-21.51
-21.86
-20.88
-18.52
-14.98
-10.62
-5.92
-1.3
2.84
6.3
8.95
10.82
11.99
12.54
12.55
12.12
11.35
10.39
9.41
8.53
7.8
7.21
6.71
6.25
5.79
5.29
4.69
3.9
2.84
1.47
-0.14
-1.83
-3.46
-4.9
-6.17
-7.4
-8.75
-10.41
-12.36
-14.45
-16.37
-17.73
-18.17
-17.45
-15.54
-12.6
-8.96
-4.98
-1.01
2.71
5.96
8.58
10.39
11.27
11.21
10.38
9.08
7.7
6.51
5.6
4.91
4.29
3.6
2.82
1.95
1.04
0.09
-0.93
-2.05
-3.26
-4.5
-5.69
-6.8
-7.85
-8.94
-10.21
-11.79
-13.7
-15.87
-18.08
-19.95
-21.08
-21.05
-19.63
-16.81
-12.87
-8.27
-3.56
0.82
4.58
7.59
9.8
11.2
11.79
11.58
10.7
9.41
8.04
6.91
6.18
5.8
5.56
5.22
4.62
3.74
2.69
1.57
0.41
-0.87
-2.36
-4.1
-6.04
-7.98
-9.8
-11.47
-13.15
-15.04
-17.29
-19.77
-22.08
-23.66
-23.96
-22.68
-19.84
-15.73
-10.79
-5.44
-0.06
5.02
9.46
12.93
15.16
16.09
15.88
14.91
13.63
12.39
11.35
10.49
9.68
8.82
7.93
7.03
6.2
5.4
4.53
3.46
2.05
0.35
-1.53
-3.46
-5.29
-7
-8.67
-10.48
-12.58
-15.1
-17.93
-20.73
-22.94
-23.98
-23.41
-21.12
-17.31
-12.42
-7.02
-1.55
3.6
8.16
11.93
14.77
16.57
17.39
17.4
16.85
15.98
14.97
13.87
12.75
11.65
10.65
9.84
9.23
8.74
8.2
7.42
6.28
4.78
3
1.08
-0.91
-2.94
-5.06
-7.34
-9.85
-12.57
-15.4
-18.11
-20.36
-21.78
-22.05
-20.97
-18.56
-14.99
-10.56
-5.61
-0.5
4.44
8.83
12.38
14.85
16.14
16.3
15.58
14.27
12.7
11.19
9.96
9.11
8.63
8.38
8.1
7.58
6.72
5.53
4.16
2.76
1.43
0.14
-1.22
-2.75
-4.54
-6.59
-8.85
-11.28
-13.77
-16.17
-18.21
-19.47
-19.58
-18.24
-15.42
-11.34
-6.49
-1.4
3.4
7.51
10.69
12.81
13.86
13.92
13.17
11.89
10.4
9
7.88
7.1
6.56
6.1
5.52
4.69
3.57
2.22
0.73
-0.84
-2.42
-4.03
-5.72
-7.6
-9.75
-12.24
-15.02
-17.87
-20.4
-22.17
-22.74
-21.87
-19.52
-15.9
-11.34
-6.23
-0.99
4.01
8.41
11.87
14.16
15.23
15.18
14.28
12.91
11.39
10.05
9.02
8.32
7.83
7.35
6.66
5.61
4.19
2.48
0.63
-1.23
-3.01
-4.73
-6.47
-8.37
-10.56
-13.12
-16.04
-19.17
-22.17
-24.57
-25.83
-25.53
-23.45
-19.65
-14.48
-8.48
-2.25
3.7
8.99
13.41
16.9
19.39
20.9
21.46
21.16
20.24
19
17.73
16.68
15.89
15.29
14.65
13.76
12.45
10.69
8.57
6.24
3.91
1.7
-0.34
-2.3
-4.38
-6.78
-9.65
-12.99
-16.58
-20.02
-22.78
-24.34
-24.3
-22.48
-19.01
-14.27
-8.76
-2.97
2.7
7.97
12.67
16.63
19.72
21.84
22.99
23.27
22.87
22.02
20.92
19.72
18.5
17.31
16.2
15.17
14.21
13.22
12.09
10.7
8.94
6.84
4.45
1.9
-0.68
-3.23
-5.75
-8.33
-11.03
-13.91
-16.88
-19.69
-21.97
-23.22
-23.03
-21.11
-17.51
-12.55
-6.79
-0.85
4.75
9.7
13.88
17.27
19.86
21.62
22.52
22.58
21.94
20.82
19.47
18.13
16.93
15.91
15.06
14.31
13.56
12.71
11.62
10.18
8.33
6.15
3.78
1.46
-0.68
-2.63
-4.51
-6.52
-8.84
-11.52
-14.51
-17.6
-20.49
-22.81
-24.1
-23.96
-22.1
-18.53
-13.54
-7.72
-1.77
3.72
8.32
11.83
14.19
15.43
15.64
15.02
13.8
12.34
10.95
9.86
9.19
8.87
8.74
8.59
8.24
7.53
6.41
4.9
3.07
1.02
-1.15
-3.35
-5.5
-7.53
-9.47
-11.41
-13.48
-15.8
-18.31
-20.74
-22.6
-23.37
-22.64
-20.27
-16.44
-11.54
-6.07
-0.54
4.67
9.21
12.85
15.39
16.74
16.95
16.18
14.71
12.9
11.15
9.75
8.83
8.31
7.93
7.36
6.38
4.9
3.03
1
-0.97
-2.76
-4.41
-6.06
-7.9
-10.08
-12.68
-15.72
-19.14
-22.78
-26.32
-29.27
-31.06
-31.16
-29.26
-25.41
-20
-13.68
-7.12
-0.89
4.66
9.36
13.16
16.01
17.89
18.82
18.9
18.33
17.38
16.28
15.26
14.4
13.72
13.12
12.45
11.55
10.31
8.67
6.62
4.2
1.51
-1.36
-4.29
-7.2
-10.05
-12.89
-15.79
-18.9
-22.21
-25.57
-28.55
-30.58
-31.06
-29.63
-26.27
-21.32
-15.44
-9.25
-3.26
2.3
7.33
11.77
15.51
18.39
20.29
21.22
21.38
21.05
20.49
19.87
19.21
18.5
17.68
16.7
15.55
14.17
12.54
10.63
8.5
6.26
4
1.83
-0.28
-2.42
-4.72
-7.34
-10.37
-13.81
-17.54
-21.29
-24.62
-27.04
-28.07
-27.34
-24.76
-20.44
-14.78
-8.36
-1.82
4.26
9.45
13.51
16.45
18.38
19.46
19.84
19.65
18.98
17.95
16.76
15.61
14.68
14
13.48
12.89
12.01
10.69
8.94
6.9
4.8
2.83
1.05
-0.61
-2.35
-4.36
-6.74
-9.5
-12.53
-15.64
-18.55
-20.98
-22.55
-22.9
-21.75
-19.01
-14.86
-9.73
-4.17
1.25
6.12
10.13
13.12
14.96
15.66
15.28
14.1
12.5
10.93
9.72
9.04
8.8
8.76
8.61
8.09
7.07
5.54
3.64
1.56
-0.51
-2.45
-4.27
-6.08
-8.05
-10.3
-12.88
-15.75
-18.79
-21.76
-24.31
-26.01
-26.39
-25.09
-22.05
-17.47
-11.86
-5.84
0.02
5.29
9.69
13.07
15.37
16.6
16.84
16.26
15.13
13.73
12.33
11.12
10.19
9.47
8.8
7.96
6.77
5.13
3.11
0.87
-1.38
-3.51
-5.49
-7.46
-9.59
-12.04
-14.9
-18.14
-21.62
-25.03
-27.98
-29.95
-30.47
-29.21
-26.06
-21.23
-15.15
-8.42
-1.61
4.79
10.44
15.11
18.67
21.08
22.36
22.66
22.2
21.26
20.1
18.89
17.78
16.78
15.88
15.02
14.05
12.81
11.18
9.07
6.57
3.84
1.07
-1.57
-4.03
-6.37
-8.72
-11.25
-14.15
-17.54
-21.38
-25.41
-29.09
-31.71
-32.6
-31.34
-27.92
-22.73
-16.44
-9.73
-3.17
2.94
8.47
13.4
17.73
21.4
24.31
26.33
27.4
27.54
26.94
25.82
24.46
23.04
21.67
20.34
18.96
17.43
15.62
13.49
11.02
8.29
5.44
2.64
-0.01
-2.49
-4.85
-7.26
-9.85
-12.76
-16.05
-19.67
-23.39
-26.77
-29.22
-30.15
-29.18
-26.23
-21.62
-15.84
-9.43
-2.81
3.67
9.77
15.19
19.65
22.93
24.96
25.91
26.06
25.69
25
24.05
22.83
21.38
19.78
18.19
16.73
15.43
14.16
12.72
10.92
8.69
6.12
3.35
0.58
-2.05
-4.49
-6.73
-8.84
-10.91
-13.13
-15.72
-18.79
-22.28
-25.81
-28.75
-30.4
-30.2
-27.95
-23.8
-18.22
-11.76
-5.02
1.55
7.55
12.66
16.67
19.47
21.07
21.64
21.35
20.44
19.1
17.54
15.98
14.62
13.59
12.9
12.4
11.84
10.92
9.44
7.37
4.83
2.08
-0.58
-3.01
-5.15
-7.08
-8.96
-10.93
-13.11
-15.52
-18.16
-20.93
-23.63
-25.86
-27.08
-26.73
-24.47
-20.32
-14.71
-8.36
-2.02
3.71
8.52
12.31
15.09
16.85
17.58
17.32
16.23
14.66
13.06
11.8
11.03
10.66
10.36
9.76
8.61
6.9
4.81
2.57
0.38
-1.68
-3.67
-5.63
-7.6
-9.56
-11.44
-13.25
-15.06
-16.95
-18.91
-20.75
-22.06
-22.35
-21.24
-18.64
-14.82
-10.28
-5.56
-1.03
3.12
6.9
10.26
13.04
14.98
15.83
15.57
14.43
12.86
11.27
10
9.06
8.31
7.51
6.48
5.21
3.79
2.36
0.99
-0.33
-1.81
-3.64
-6.04
-9.07
-12.69
-16.67
-20.68
-24.28
-27.02
-28.51
-28.44
-26.72
-23.47
-18.96
-13.59
-7.77
-1.91
3.6
8.37
12.04
14.39
15.33
15.09
14.1
12.86
11.76
10.96
10.31
9.52
8.31
6.62
4.63
2.57
0.72
-0.89
-2.38
-3.98
-5.92
-8.35
-11.31
-14.72
-18.43
-22.12
-25.33
-27.51
-28.14
-26.96
-23.99
-19.55
-14.11
-8.18
-2.18
3.54
8.68
12.96
16.15
18.16
19.03
18.95
18.23
17.12
15.86
14.56
13.29
12.02
10.7
9.24
7.57
5.66
3.59
1.48
-0.53
-2.44
-4.39
-6.64
-9.52
-13.13
-17.27
-21.43
-24.9
-27.03
-27.39
-25.89
-22.7
-18.17
-12.66
-6.55
-0.21
5.99
11.67
16.54
20.33
22.94
24.32
24.53
23.76
22.3
20.5
18.74
17.24
16.03
14.93
13.68
12.09
10.11
7.85
5.5
3.2
1.01
-1.08
-3.17
-5.35
-7.81
-10.69
-14.08
-17.87
-21.63
-24.67
-26.18
-25.57
-22.69
-17.88
-11.85
-5.39
0.93
6.82
12.15
16.85
20.75
23.58
25.13
25.35
24.41
22.7
20.67
18.73
17.13
15.93
15.05
14.27
13.35
12.08
10.36
8.23
5.79
3.29
0.91
-1.22
-3.1
-4.84
-6.67
-8.8
-11.41
-14.48
-17.82
-21.04
-23.59
-24.92
-24.58
-22.33
-18.27
-12.76
-6.43
0.04
6.02
11.03
14.82
17.33
18.63
18.86
18.24
16.98
15.37
13.68
12.19
11.06
10.29
9.74
9.16
8.34
7.15
5.63
3.94
2.25
0.72
-0.6
-1.76
-2.91
-4.18
-5.72
-7.59
-9.84
-12.4
-15.03
-17.3
-18.75
-18.91
-17.55
-14.7
-10.69
-6.01
-1.14
3.56
7.83
11.45
14.2
15.81
16.13
15.2
13.36
11.11
8.93
7.18
5.95
5.15
4.59
4.11
3.56
2.85
1.93
0.78
-0.56
-2.02
-3.49
-4.95
-6.49
-8.27
-10.44
-13.07
-16.02
-18.96
-21.39
-22.81
-22.81
-21.2
-18.1
-13.84
-8.86
-3.57
1.67
6.64
11.1
14.77
17.35
18.56
18.38
17.07
15.12
13.12
11.47
10.33
9.53
8.81
7.88
6.61
5.06
3.39
1.74
0.22
-1.19
-2.6
-4.1
-5.78
-7.72
-9.93
-12.48
-15.34
-18.38
-21.28
-23.53
-24.53
-23.83
-21.27
-17.09
-11.8
-6.04
-0.33
4.98
9.71
13.72
16.87
18.99
19.97
19.87
18.9
17.43
15.81
14.31
13.08
12.06
11.14
10.13
8.92
7.44
5.76
3.98
2.22
0.57
-0.97
-2.51
-4.16
-6.06
-8.32
-10.98
-14
-17.15
-20.05
-22.18
-23.02
-22.22
-19.69
-15.66
-10.55
-4.87
0.89
6.29
10.97
14.67
17.21
18.54
18.76
18.12
16.93
15.51
14.11
12.89
11.9
11.05
10.2
9.22
8.02
6.61
5.09
3.61
2.22
0.95
-0.26
-1.49
-2.88
-4.51
-6.5
-8.91
-11.71
-14.75
-17.68
-20.03
-21.3
-21.13
-19.33
-16.01
-11.49
-6.24
-0.78
4.42
9.02
12.77
15.51
17.18
17.77
17.34
16.07
14.24
12.17
10.21
8.62
7.49
6.75
6.2
5.57
4.69
3.51
2.12
0.69
-0.63
-1.76
-2.74
-3.67
-4.7
-5.98
-7.66
-9.81
-12.4
-15.15
-17.61
-19.18
-19.35
-17.87
-14.88
-10.81
-6.2
-1.52
2.91
6.91
10.29
12.78
14.08
14.03
12.7
10.47
7.91
5.59
3.87
2.82
2.29
1.98
1.66
1.18
0.52
-0.29
-1.19
-2.17
-3.24
-4.42
-5.79
-7.41
-9.34
-11.58
-13.99
-16.37
-18.34
-19.56
-19.72
-18.68
-16.43
-13.12
-9
-4.36
0.39
4.83
8.51
11.05
12.22
12.03
10.74
8.81
6.78
5.04
3.8
2.99
2.38
1.67
0.68
-0.63
-2.11
-3.53
-4.7
-5.54
-6.15
-6.71
-7.48
-8.72
-10.56
-12.96
-15.69
-18.28
-20.19
-20.93
-20.21
-18.02
-14.61
-10.39
-5.78
-1.13
3.29
7.24
10.45
12.67
13.76
13.72
12.81
11.42
9.93
8.62
7.55
6.62
5.64
4.45
3.04
1.49
-0.05
-1.47
-2.73
-3.91
-5.12
-6.49
-8.14
-10.18
-12.67
-15.62
-18.81
-21.84
-24.08
-24.94
-23.99
-21.23
-16.99
-11.92
-6.62
-1.49
3.29
7.7
11.67
14.99
17.35
18.51
18.41
17.33
15.73
14.06
12.67
11.59
10.65
9.57
8.21
6.55
4.77
3.11
1.66
0.36
-0.96
-2.51
-4.41
-6.64
-9.14
-11.79
-14.56
-17.36
-19.99
-22.1
-23.19
-22.81
-20.74
-17.02
-12.01
-6.17
-0.04
5.92
11.33
15.88
19.35
21.6
22.62
22.53
21.58
20.08
18.36
16.72
15.36
14.32
13.52
12.74
11.74
10.37
8.58
6.46
4.18
1.93
-0.16
-2.03
-3.72
-5.36
-7.12
-9.24
-11.89
-15.1
-18.58
-21.82
-24.11
-24.83
-23.59
-20.39
-15.6
-9.75
-3.49
2.62
8.09
12.57
15.85
17.89
18.8
18.81
18.18
17.14
15.88
14.58
13.42
12.51
11.88
11.43
10.9
10.05
8.72
6.94
4.87
2.7
0.63
-1.27
-2.99
-4.59
-6.21
-8.01
-10.13
-12.61
-15.29
-17.85
-19.79
-20.65
-20.06
-17.92
-14.34
-9.65
-4.3
1.15
6.21
10.43
13.54
15.39
16.01
15.54
14.25
12.47
10.52
8.72
7.26
6.25
5.64
5.27
4.91
4.34
3.41
2.08
0.43
-1.39
-3.23
-4.96
-6.62
-8.35
-10.36
-12.77
-15.5
-18.28
-20.63
-22.06
-22.17
-20.81
-18.02
-14.08
-9.34
-4.16
1.1
6.09
10.48
13.93
16.23
17.25
17.08
15.94
14.17
12.18
10.33
8.87
7.88
7.24
6.68
5.9
4.69
3.02
1.01
-1.12
-3.23
-5.25
-7.24
-9.28
-11.44
-13.75
-16.21
-18.82
-21.43
-23.73
-25.23
-25.38
-23.76
-20.28
-15.24
-9.23
-2.92
3.13
8.56
13.16
16.8
19.35
20.73
20.94
20.12
18.57
16.69
14.8
13.19
11.92
10.9
9.98
8.94
7.66
6.11
4.32
2.38
0.41
-1.52
-3.41
-5.3
-7.36
-9.78
-12.69
-16.03
-19.46
-22.42
-24.21
-24.31
-22.45
-18.78
-13.71
-7.78
-1.51
4.67
10.39
15.3
19.06
21.42
22.31
21.9
20.6
18.88
17.17
15.74
14.68
13.88
13.14
12.26
11.06
9.48
7.56
5.41
3.24
1.26
-0.44
-1.87
-3.16
-4.58
-6.35
-8.63
-11.41
-14.52
-17.57
-20.03
-21.34
-21.07
-19.07
-15.47
-10.71
-5.35
0.1
5.26
9.86
13.66
16.42
17.9
17.99
16.84
14.86
12.63
10.68
9.31
8.55
8.17
7.84
7.32
6.46
5.25
3.79
2.2
0.6
-0.88
-2.2
-3.4
-4.58
-5.95
-7.64
-9.72
-12.1
-14.49
-16.49
-17.63
-17.52
-15.96
-13.01
-9.01
-4.42
0.22
4.47
8.06
10.82
12.65
13.5
13.34
12.29
10.66
8.83
7.21
6.04
5.31
4.8
4.26
3.48
2.44
1.23
-0.02
-1.25
-2.48
-3.79
-5.28
-7.02
-9.05
-11.38
-13.91
-16.46
-18.71
-20.24
-20.65
-19.64
-17.18
-13.45
-8.84
-3.78
1.3
5.99
9.95
12.86
14.54
14.94
14.23
12.74
10.9
9.12
7.65
6.56
5.77
5.1
4.34
3.35
2.1
0.64
-0.88
-2.35
-3.69
-4.95
-6.29
-7.91
-9.93
-12.39
-15.14
-17.9
-20.24
-21.64
-21.68
-20.1
-16.95
-12.56
-7.47
-2.22
2.78
7.26
11.1
14.16
16.26
17.25
17.13
16.13
14.65
13.17
11.99
11.2
10.63
10.02
9.17
8.04
6.7
5.3
3.91
2.57
1.24
-0.12
-1.56
-3.13
-4.91
-7.03
-9.58
-12.48
-15.46
-18.03
-19.63
-19.84
-18.46
-15.62
-11.65
-6.93
-1.87
3.21
8.02
12.27
15.72
18.14
19.4
19.53
18.72
17.25
15.51
13.84
12.48
11.53
10.96
10.6
10.31
9.99
9.58
9.02
8.18
6.93
5.16
2.93
0.41
-2.12
-4.44
-6.5
-8.42
-10.4
-12.62
-15.03
-17.33
-19.03
-19.66
-18.88
-16.63
-13.1
-8.7
-3.91
0.81
5.11
8.78
11.7
13.83
15.18
15.81
15.83
15.41
14.75
14.07
13.54
13.2
13
12.78
12.4
11.76
10.85
9.74
8.47
7.09
5.62
4.13
2.7
1.4
0.24
-0.91
-2.24
-3.95
-6.11
-8.6
-11.11
-13.29
-14.74
-15.2
-14.54
-12.71
-9.84
-6.17
-2.07
2.03
5.7
8.64
10.73
11.97
12.43
12.18
11.32
9.95
8.3
6.66
5.36
4.58
4.32
4.36
4.34
3.97
3.14
1.95
0.66
-0.47
-1.29
-1.85
-2.3
-2.88
-3.75
-4.95
-6.51
-8.36
-10.43
-12.6
-14.59
-16.03
-16.51
-15.73
-13.6
-10.33
-6.36
-2.2
1.74
5.14
7.86
9.83
11
11.41
11.13
10.31
9.16
7.87
6.59
5.43
4.45
3.66
3.01
2.43
1.78
0.99
-0.01
-1.15
-2.35
-3.49
-4.52
-5.42
-6.29
-7.23
-8.35
-9.77
-11.52
-13.52
-15.54
-17.2
-18.13
-18.05
-16.85
-14.63
-11.59
-7.93
-3.9
0.28
4.29
7.74
10.28
11.7
12.02
11.46
10.4
9.17
8.05
7.16
6.58
6.26
6.09
5.93
5.59
4.94
4
2.86
1.7
0.65
-0.25
-1.06
-1.91
-2.89
-4.11
-5.63
-7.53
-9.85
-12.51
-15.23
-17.55
-18.93
-18.94
-17.46
-14.62
-10.87
-6.69
-2.52
1.33
4.68
7.46
9.61
11.1
11.94
12.17
11.87
11.15
10.14
8.96
7.76
6.68
5.82
5.24
4.87
4.6
4.28
3.76
2.98
1.94
0.72
-0.59
-1.9
-3.15
-4.35
-5.58
-6.96
-8.6
-10.58
-12.81
-15.06
-16.96
-18.14
-18.31
-17.35
-15.29
-12.28
-8.57
-4.47
-0.31
3.57
6.9
9.49
11.29
12.33
12.64
12.29
11.37
10.01
8.46
6.98
5.78
4.94
4.36
3.87
3.33
2.62
1.77
0.81
-0.24
-1.38
-2.65
-4.06
-5.56
-7.05
-8.49
-9.84
-11.17
-12.57
-14.05
-15.48
-16.53
-16.81
-15.95
-13.82
-10.55
-6.57
-2.4
1.48
4.72
7.14
8.68
9.34
9.17
8.28
6.9
5.32
3.83
2.67
1.93
1.53
1.28
0.93
0.31
-0.62
-1.76
-2.98
-4.15
-5.2
-6.21
-7.27
-8.51
-10.03
-11.84
-13.86
-15.94
-17.78
-19.07
-19.48
-18.8
-16.94
-14.02
-10.27
-5.98
-1.48
2.88
6.75
9.77
11.68
12.33
11.85
10.52
8.79
7.07
5.65
4.65
4
3.51
2.99
2.29
1.34
0.18
-1.15
-2.56
-3.99
-5.46
-7.01
-8.74
-10.77
-13.16
-15.9
-18.76
-21.41
-23.37
-24.21
-23.62
-21.48
-17.91
-13.21
-7.86
-2.34
2.84
7.27
10.71
13.07
14.38
14.79
14.49
13.72
12.73
11.73
10.85
10.14
9.48
8.68
7.56
6.1
4.38
2.6
0.95
-0.51
-1.84
-3.24
-4.95
-7.19
-10.08
-13.52
-17.17
-20.47
-22.76
-23.53
-22.53
-19.88
-15.99
-11.37
-6.43
-1.46
3.41
8.02
12.18
15.58
17.98
19.22
19.42
18.83
17.85
16.87
16.08
15.55
15.16
14.7
14
12.98
11.62
9.98
8.12
6.07
3.88
1.58
-0.79
-3.23
-5.78
-8.53
-11.51
-14.65
-17.7
-20.25
-21.85
-22.14
-20.96
-18.37
-14.57
-9.82
-4.39
1.4
7.19
12.54
16.98
20.17
21.95
22.43
21.92
20.81
19.43
18.04
16.77
15.66
14.74
13.95
13.22
12.43
11.47
10.24
8.7
6.91
4.94
2.91
0.87
-1.17
-3.28
-5.56
-8.12
-10.98
-14.01
-16.9
-19.16
-20.29
-19.92
-17.89
-14.36
-9.68
-4.38
1.06
6.19
10.69
14.26
16.73
18
18.09
17.21
15.71
14.02
12.49
11.35
10.59
10.06
9.5
8.71
7.59
6.17
4.6
3.04
1.58
0.25
-1.06
-2.48
-4.18
-6.26
-8.75
-11.55
-14.48
-17.17
-19.22
-20.19
-19.75
-17.81
-14.52
-10.2
-5.34
-0.34
4.44
8.74
12.37
15.09
16.74
17.21
16.58
15.09
13.15
11.17
9.46
8.14
7.15
6.33
5.56
4.78
3.98
3.15
2.2
1.01
-0.55
-2.51
-4.85
-7.46
-10.25
-13.17
-16.14
-18.99
-21.42
-22.98
-23.25
-21.95
-19.07
-14.84
-9.72
-4.18
1.36
6.58
11.19
14.92
17.52
18.78
18.73
17.61
15.91
14.19
12.87
12.09
11.69
11.3
10.55
9.24
7.41
5.28
3.15
1.18
-0.56
-2.11
-3.62
-5.25
-7.23
-9.74
-12.89
-16.53
-20.26
-23.39
-25.19
-25.1
-22.95
-18.98
-13.76
-7.91
-1.97
3.69
8.84
13.29
16.83
19.3
20.61
20.88
20.34
19.33
18.16
17.04
16.09
15.29
14.56
13.77
12.76
11.38
9.56
7.35
4.89
2.46
0.24
-1.66
-3.38
-5.17
-7.34
-10.16
-13.63
-17.5
-21.25
-24.27
-25.94
-25.88
-23.98
-20.45
-15.7
-10.26
-4.61
0.84
5.84
10.19
13.77
16.46
18.19
18.95
18.88
18.19
17.18
16.13
15.23
14.55
14.02
13.51
12.89
12.13
11.19
10.12
8.94
7.63
6.12
4.37
2.37
0.17
-2.2
-4.75
-7.54
-10.6
-13.86
-16.97
-19.42
-20.74
-20.72
-19.48
-17.41
-14.9
-12.09
-8.89
-5.11
-0.75
3.87
8.15
11.46
13.43
14.1
13.81
13.03
12.12
11.27
10.51
9.79
9.03
