2023-01-28 14:45:30.045365,-0.0502206906676292
2023-01-28 14:45:30.050365,-0.05283522217416445
2023-01-28 14:45:30.055365,-0.050797663629054995
2023-01-28 14:45:30.060365,-0.0499400309044723
2023-01-28 14:45:30.065365,-0.052216053009033175
2023-01-28 14:45:30.070365,-0.05482985142818897
2023-01-28 14:45:30.075365,-0.055966377258300705
2023-01-28 14:45:30.080365,-0.05645562540243293
2023-01-28 14:45:30.085365,-0.05577405542135231
2023-01-28 14:45:30.090365,-0.050697533145511536
2023-01-28 14:45:30.095365,-0.03899375721812241
2023-01-28 14:45:30.100365,-0.021495126094744042
2023-01-28 14:45:30.105365,0.00021636486053461113
2023-01-28 14:45:30.110365,0.025353676021112364
2023-01-28 14:45:30.115365,0.05216797441244121
2023-01-28 14:45:30.120365,0.077115140111969
2023-01-28 14:45:30.125365,0.0970757007598876
2023-01-28 14:45:30.130365,0.11077720255524226
2023-01-28 14:45:30.135365,0.1173418760299682
2023-01-28 14:45:30.140365,0.11537875164269482
2023-01-28 14:45:30.145365,0.10462443530559529
2023-01-28 14:45:30.150365,0.08708622250133703
2023-01-28 14:45:30.155365,0.06570279598236076
2023-01-28 14:45:30.160365,0.04307087961358741
2023-01-28 14:45:30.165365,0.021949013695120805
2023-01-28 14:45:30.170365,0.0053085465058479026
2023-01-28 14:45:30.175365,-0.005312959663569873
2023-01-28 14:45:30.180365,-0.010657516365963009
2023-01-28 14:45:30.185365,-0.01233279705047599
2023-01-28 14:45:30.190365,-0.01147580083780123
2023-01-28 14:45:30.195365,-0.009159445762634201
2023-01-28 14:45:30.200365,-0.006757371557976763
2023-01-28 14:45:30.205365,-0.005000432487577077
2023-01-28 14:45:30.210365,-0.0034864981480412257
2023-01-28 14:45:30.215365,-0.0017309188842773106
2023-01-28 14:45:30.220365,8.941160968155278e-05
2023-01-28 14:45:30.225365,0.0018751621246336895
2023-01-28 14:45:30.230365,0.00414451334799026
2023-01-28 14:45:30.235365,0.007260243408381896
2023-01-28 14:45:30.240365,0.010910096145485734
2023-01-28 14:45:30.245365,0.014857053756713827
2023-01-28 14:45:30.250365,0.019437776493154358
2023-01-28 14:45:30.255365,0.024833878502249704
2023-01-28 14:45:30.260365,0.03057876212538152
2023-01-28 14:45:30.265365,0.036253135651349966
2023-01-28 14:45:30.270365,0.04200543549497318
2023-01-28 14:45:30.275365,0.048008959740400294
2023-01-28 14:45:30.280365,0.05412376527377286
2023-01-28 14:45:30.285365,0.06051003932952877
2023-01-28 14:45:30.290365,0.0678853613036564
2023-01-28 14:45:30.295365,0.07671336829662319
2023-01-28 14:45:30.300365,0.08667389780083237
2023-01-28 14:45:30.305365,0.09721994400024406
2023-01-28 14:45:30.310365,0.10802448024662359
2023-01-28 14:45:30.315365,0.11859198659658426
2023-01-28 14:45:30.320365,0.1281384146966687
2023-01-28 14:45:30.325365,0.13628582656383503
2023-01-28 14:45:30.330365,0.14334314734380174
2023-01-28 14:45:30.335365,0.14958024024963365
2023-01-28 14:45:30.340365,0.15472850941151034
2023-01-28 14:45:30.345365,0.15837907791137684
2023-01-28 14:45:30.350365,0.16019664732617042
2023-01-28 14:45:30.355365,0.15941283106803883
2023-01-28 14:45:30.360365,0.15472656553991312
2023-01-28 14:45:30.365365,0.1451327502727508
2023-01-28 14:45:30.370365,0.13050937136599955
2023-01-28 14:45:30.375365,0.11133174598217008
2023-01-28 14:45:30.380365,0.0884874778015532
2023-01-28 14:45:30.385365,0.06363531202077854
2023-01-28 14:45:30.390365,0.03906760481993162
2023-01-28 14:45:30.395365,0.016708176583051605
2023-01-28 14:45:30.400365,-0.0025345561237486813
2023-01-28 14:45:30.405365,-0.018439095467329004
2023-01-28 14:45:30.410365,-0.031136276984969517
2023-01-28 14:45:30.415365,-0.04127760976552962
2023-01-28 14:45:30.420365,-0.049851937569128264
2023-01-28 14:45:30.425365,-0.05740880966186522
2023-01-28 14:45:30.430365,-0.06379917648826364
2023-01-28 14:45:30.435365,-0.06880402565002444
2023-01-28 14:45:30.440365,-0.07251812737486427
2023-01-28 14:45:30.445365,-0.0749824494123458
2023-01-28 14:45:30.450365,-0.07603295987927695
2023-01-28 14:45:30.455365,-0.07577578723430625
2023-01-28 14:45:30.460365,-0.07472831018336487
2023-01-28 14:45:30.465365,-0.07327556610107416
2023-01-28 14:45:30.470365,-0.07144981915115312
2023-01-28 14:45:30.475365,-0.0694050416350364
2023-01-28 14:45:30.480365,-0.06758253291454742
2023-01-28 14:45:30.485365,-0.0661836117506027
2023-01-28 14:45:30.490365,-0.06494006295325809
2023-01-28 14:45:30.495365,-0.06358723342418668
2023-01-28 14:45:30.500365,-0.06210317785901287
2023-01-28 14:45:30.505365,-0.060341756790876284
2023-01-28 14:45:30.510365,-0.0579659221701804
2023-01-28 14:45:30.515365,-0.054980717599391896
2023-01-28 14:45:30.520365,-0.05189069231708324
2023-01-28 14:45:30.525365,-0.049138866364955916
2023-01-28 14:45:30.530365,-0.0467974312623507
2023-01-28 14:45:30.535365,-0.0449077300727367
2023-01-28 14:45:30.540365,-0.0436098181555471
2023-01-28 14:45:30.545365,-0.04276812076568601
2023-01-28 14:45:30.550365,-0.04196859931753624
2023-01-28 14:45:30.555365,-0.041085284203290884
2023-01-28 14:45:30.560365,-0.04040511000540001
2023-01-28 14:45:30.565365,-0.04005154222249981
2023-01-28 14:45:30.570365,-0.039778486243318985
2023-01-28 14:45:30.575365,-0.03949860855937
2023-01-28 14:45:30.580365,-0.039503688415573696
2023-01-28 14:45:30.585365,-0.03995537757873534
2023-01-28 14:45:30.590365,-0.040648028033391376
2023-01-28 14:45:30.595365,-0.04149397462606429
2023-01-28 14:45:30.600365,-0.04275109191891983
2023-01-28 14:45:30.605365,-0.04449903964996331
2023-01-28 14:45:30.610365,-0.046323439921505345
2023-01-28 14:45:30.615365,-0.04779259487986558
2023-01-28 14:45:30.620365,-0.04887505873597132
2023-01-28 14:45:30.625365,-0.049667757004499435
2023-01-28 14:45:30.630365,-0.0501086231280561
2023-01-28 14:45:30.635365,-0.05019664764404289
2023-01-28 14:45:30.640365,-0.05011318470504432
2023-01-28 14:45:30.645365,-0.04986008256673811
2023-01-28 14:45:30.650365,-0.049103219737487616
2023-01-28 14:45:30.655365,-0.047624312341213206
2023-01-28 14:45:30.660365,-0.04566508774729801
2023-01-28 14:45:30.665365,-0.043657623231410876
2023-01-28 14:45:30.670365,-0.04190248551741242
2023-01-28 14:45:30.675365,-0.040628515183925566
2023-01-28 14:45:30.680365,-0.039970195651394334
2023-01-28 14:45:30.685365,-0.0396188125014305
2023-01-28 14:45:30.690365,-0.038758907985874655
2023-01-28 14:45:30.695365,-0.03658970445394511
2023-01-28 14:45:30.700365,-0.0327904414113833
2023-01-28 14:45:30.705365,-0.02750237844884389
2023-01-28 14:45:30.710365,-0.021263548794239983
2023-01-28 14:45:30.715365,-0.015145540237426673
2023-01-28 14:45:30.720365,-0.010599750593972649
2023-01-28 14:45:30.725365,-0.00882287882268416
2023-01-28 14:45:30.730365,-0.010267170134012904
2023-01-28 14:45:30.735365,-0.014688770286738772
2023-01-28 14:45:30.740365,-0.021343123400329053
2023-01-28 14:45:30.745365,-0.029065012931823626
2023-01-28 14:45:30.750365,-0.036545285123763635
2023-01-28 14:45:30.755365,-0.042840242385864084
2023-01-28 14:45:30.760365,-0.047587036938020265
2023-01-28 14:45:30.765365,-0.050773620605468646
2023-01-28 14:45:30.770365,-0.052568644428660424
2023-01-28 14:45:30.775365,-0.05341808125376696
2023-01-28 14:45:30.780365,-0.05400031644614048
2023-01-28 14:45:30.785365,-0.054884552955627365
2023-01-28 14:45:30.790365,-0.056253980423052664
2023-01-28 14:45:30.795365,-0.05779346078634258
2023-01-28 14:45:30.800365,-0.05847278835621544
2023-01-28 14:45:30.805365,-0.056399106979370096
2023-01-28 14:45:30.810365,-0.04931099929486282
2023-01-28 14:45:30.815365,-0.03565212339162818
2023-01-28 14:45:30.820365,-0.015416352184361121
2023-01-28 14:45:30.825365,0.009736418724059977
2023-01-28 14:45:30.830365,0.036917276912091956
2023-01-28 14:45:30.835365,0.06279389560222617
2023-01-28 14:45:30.840365,0.08460939105929155
2023-01-28 14:45:30.845365,0.10089814662933339
2023-01-28 14:45:30.850365,0.11127944384330687
2023-01-28 14:45:30.855365,0.1155869215726852
2023-01-28 14:45:30.860365,0.11330077558330144
2023-01-28 14:45:30.865365,0.10378301143646237
2023-01-28 14:45:30.870365,0.08699490641149944
2023-01-28 14:45:30.875365,0.06421228498220435
2023-01-28 14:45:30.880365,0.038363373963414875
2023-01-28 14:45:30.885365,0.013558864593505802
2023-01-28 14:45:30.890365,-0.0062615009408707985
2023-01-28 14:45:30.895365,-0.018799703568220073
2023-01-28 14:45:30.900365,-0.024007698580870603
2023-01-28 14:45:30.905365,-0.023655891418456965
2023-01-28 14:45:30.910365,-0.020377879699021155
2023-01-28 14:45:30.915365,-0.016636054962873393
2023-01-28 14:45:30.920365,-0.013905102613384242
2023-01-28 14:45:30.925365,-0.012453000061213885
2023-01-28 14:45:30.930365,-0.011785978879449203
2023-01-28 14:45:30.935365,-0.011226932518184057
2023-01-28 14:45:30.940365,-0.010167561580199479
2023-01-28 14:45:30.945365,-0.008149743080139046
2023-01-28 14:45:30.950365,-0.005001789790239902
2023-01-28 14:45:30.955365,-0.00084141892148178
2023-01-28 14:45:30.960365,0.0041356287528791615
2023-01-28 14:45:30.965365,0.009736418724060034
2023-01-28 14:45:30.970365,0.01562053235205171
2023-01-28 14:45:30.975365,0.021323960274457935
2023-01-28 14:45:30.980365,0.026554690287884663
2023-01-28 14:45:30.985365,0.03130078315734855
2023-01-28 14:45:30.990365,0.035651839924603544
2023-01-28 14:45:30.995365,0.039811134338378865
2023-01-28 14:45:31.000365,0.044333983383548194
2023-01-28 14:45:31.005365,0.05002836510539047
2023-01-28 14:45:31.010365,0.05750481851224098
2023-01-28 14:45:31.015365,0.06702502816915508
2023-01-28 14:45:31.020365,0.0786805437866315
2023-01-28 14:45:31.025365,0.09226759523153297
2023-01-28 14:45:31.030365,0.10697183608965284
2023-01-28 14:45:31.035365,0.12164513766765592
2023-01-28 14:45:31.040365,0.13547628894424954
2023-01-28 14:45:31.045365,0.14804165065288538
2023-01-28 14:45:31.050365,0.1588387618579334
2023-01-28 14:45:31.055365,0.16734620928764335
2023-01-28 14:45:31.060365,0.17343971953135875
2023-01-28 14:45:31.065365,0.17705857753753654
2023-01-28 14:45:31.070365,0.1775221974343416
2023-01-28 14:45:31.075365,0.17393331229686726
2023-01-28 14:45:31.080365,0.16618971333001006
2023-01-28 14:45:31.085365,0.1547729969024658
2023-01-28 14:45:31.090365,0.13972778656439827
2023-01-28 14:45:31.095365,0.12097200006246561
2023-01-28 14:45:31.100365,0.09949753204677188
2023-01-28 14:45:31.105365,0.07688164710998532
2023-01-28 14:45:31.110365,0.05363119813615471
2023-01-28 14:45:31.115365,0.02973814867436882
2023-01-28 14:45:31.120365,0.007066129351365646
2023-01-28 14:45:31.125365,-0.011082689277827682
2023-01-28 14:45:31.130365,-0.023814112276755763
2023-01-28 14:45:31.135365,-0.033993326127529096
2023-01-28 14:45:31.140365,-0.044261831518096165
2023-01-28 14:45:31.145365,-0.05356232449412336
2023-01-28 14:45:31.150365,-0.0595025882658269
2023-01-28 14:45:31.155365,-0.0624573230743408
2023-01-28 14:45:31.160365,-0.06480424975238537
2023-01-28 14:45:31.165365,-0.06714522838592518
2023-01-28 14:45:31.170365,-0.06803387760740139
2023-01-28 14:45:31.175365,-0.06712119281291958
2023-01-28 14:45:31.180365,-0.06596969034088355
2023-01-28 14:45:31.185365,-0.06553451716899869
2023-01-28 14:45:31.190365,-0.0650838127854365
2023-01-28 14:45:31.195365,-0.06406804174184788
2023-01-28 14:45:31.200365,-0.06306619522757881
2023-01-28 14:45:31.205365,-0.062240958213806055
2023-01-28 14:45:31.210365,-0.060615955189537184
2023-01-28 14:45:31.215365,-0.057721339166164266
2023-01-28 14:45:31.220365,-0.05459413133200549
2023-01-28 14:45:31.225365,-0.05240837857127177
2023-01-28 14:45:31.230365,-0.05127737014438447
2023-01-28 14:45:31.235365,-0.050989985466003376
2023-01-28 14:45:31.240365,-0.05168791770731076
2023-01-28 14:45:31.245365,-0.05305747315287587
2023-01-28 14:45:31.250365,-0.05390291183623603
2023-01-28 14:45:31.255365,-0.05334595963358867
2023-01-28 14:45:31.260365,-0.05172970167409565
2023-01-28 14:45:31.265365,-0.049812000244855784
2023-01-28 14:45:31.270365,-0.04788553807920012
2023-01-28 14:45:31.275365,-0.04620591923594469
2023-01-28 14:45:31.280365,-0.04539593345169606
2023-01-28 14:45:31.285365,-0.04572510719299311
2023-01-28 14:45:31.290365,-0.04662200858524923
2023-01-28 14:45:31.295365,-0.04745602607727051
2023-01-28 14:45:31.300365,-0.04821812761018773
2023-01-28 14:45:31.305365,-0.048994623124599415
2023-01-28 14:45:31.310365,-0.049448126826424604
2023-01-28 14:45:31.315365,-0.04935523122549045
2023-01-28 14:45:31.320365,-0.049095122072235195
2023-01-28 14:45:31.325365,-0.04911482334136963
2023-01-28 14:45:31.330365,-0.0494034895676378
2023-01-28 14:45:31.335365,-0.04988412186503409
2023-01-28 14:45:31.340365,-0.05076192433803023
2023-01-28 14:45:31.345365,-0.05202373117208479
2023-01-28 14:45:31.350365,-0.0530684738447036
2023-01-28 14:45:31.355365,-0.05327383801341052
2023-01-28 14:45:31.360365,-0.05255509846527576
2023-01-28 14:45:31.365365,-0.05108615010976789
2023-01-28 14:45:31.370365,-0.04898513363202027
2023-01-28 14:45:31.375365,-0.04666268825531
2023-01-28 14:45:31.380365,-0.04501904620946755
2023-01-28 14:45:31.385365,-0.04483560845255844
2023-01-28 14:45:31.390365,-0.0462010118861891
2023-01-28 14:45:31.395365,-0.04870613664388647
2023-01-28 14:45:31.400365,-0.051752640851178
2023-01-28 14:45:31.405365,-0.05440374463796608
2023-01-28 14:45:31.410365,-0.055431577577347825
2023-01-28 14:45:31.415365,-0.053995054215192725
2023-01-28 14:45:31.420365,-0.0501237571501921
2023-01-28 14:45:31.425365,-0.044402878731489084
2023-01-28 14:45:31.430365,-0.03754556956052427
2023-01-28 14:45:31.435365,-0.03045936487615097
2023-01-28 14:45:31.440365,-0.024290909962701127
2023-01-28 14:45:31.445365,-0.020025771111249806
2023-01-28 14:45:31.450365,-0.018202551550723294
2023-01-28 14:45:31.455365,-0.019112229347228945
2023-01-28 14:45:31.460365,-0.022901560603435647
2023-01-28 14:45:31.465365,-0.029233297333121213
2023-01-28 14:45:31.470365,-0.0371110605035694
2023-01-28 14:45:31.475365,-0.045268338173627735
2023-01-28 14:45:31.480365,-0.05259753511962739
2023-01-28 14:45:31.485365,-0.058226190507411915
2023-01-28 14:45:31.490365,-0.06161227571064738
2023-01-28 14:45:31.495365,-0.06284197419881818
2023-01-28 14:45:31.500365,-0.06264665681619994
2023-01-28 14:45:31.505365,-0.061952471733093185
2023-01-28 14:45:31.510365,-0.06147824386460848
2023-01-28 14:45:31.515365,-0.061639945954084265
2023-01-28 14:45:31.520365,-0.062384631294399986
2023-01-28 14:45:31.525365,-0.0628419741988182
2023-01-28 14:45:31.530365,-0.06127443000582249
2023-01-28 14:45:31.535365,-0.05555769056081769
2023-01-28 14:45:31.540365,-0.04385315596505282
2023-01-28 14:45:31.545365,-0.025218527764081882
2023-01-28 14:45:31.550365,-0.00014472070621300047
2023-01-28 14:45:31.555365,0.029257338494062417
2023-01-28 14:45:31.560365,0.059779328831104456
2023-01-28 14:45:31.565365,0.08808454126119605
2023-01-28 14:45:31.570365,0.11143520480028958
2023-01-28 14:45:31.575365,0.12789568305015556
2023-01-28 14:45:31.580365,0.1362080155324821
2023-01-28 14:45:31.585365,0.1355646103620529
2023-01-28 14:45:31.590365,0.12555852860666059
2023-01-28 14:45:31.595365,0.1066438406705856
2023-01-28 14:45:31.600365,0.08086846744064857
2023-01-28 14:45:31.605365,0.05199968814849851
2023-01-28 14:45:31.610365,0.024609200501399156
2023-01-28 14:45:31.615365,0.0026925406418740333
2023-01-28 14:45:31.620365,-0.01146217082485855
2023-01-28 14:45:31.625365,-0.017886161804199184
2023-01-28 14:45:31.630365,-0.018703161200736947
2023-01-28 14:45:31.635365,-0.01682837866246698
2023-01-28 14:45:31.640365,-0.01439724413690635
2023-01-28 14:45:31.645365,-0.012236635200679318
2023-01-28 14:45:31.650365,-0.010392355759092297
2023-01-28 14:45:31.655365,-0.0085824728012084
2023-01-28 14:45:31.660365,-0.00632353102192088
2023-01-28 14:45:31.665365,-0.0033897161483764033
2023-01-28 14:45:31.670365,-0.00025116370984897663
2023-01-28 14:45:31.675365,0.0025002162437884816
2023-01-28 14:45:31.680365,0.0050475350795327854
2023-01-28 14:45:31.685365,0.007981459610164101
2023-01-28 14:45:31.690365,0.011298172047712898
2023-01-28 14:45:31.695365,0.014736851677298516
2023-01-28 14:45:31.700365,0.018839187607285125
2023-01-28 14:45:31.705365,0.024377107620239143
2023-01-28 14:45:31.710365,0.030893596956489962
2023-01-28 14:45:31.715365,0.03735899925231928
2023-01-28 14:45:31.720365,0.04414301359177583
2023-01-28 14:45:31.725365,0.05233625695109358
2023-01-28 14:45:31.730365,0.06103990712131578
2023-01-28 14:45:31.735365,0.06796260923147196
2023-01-28 14:45:31.740365,0.07352033645659689
2023-01-28 14:45:31.745365,0.08144935220479957
2023-01-28 14:45:31.750365,0.09362606102858635
2023-01-28 14:45:31.755365,0.10698040574789036
2023-01-28 14:45:31.760365,0.11799600765195589
2023-01-28 14:45:31.765365,0.1278716325759886
2023-01-28 14:45:31.770365,0.1399825818141455
2023-01-28 14:45:31.775365,0.153907537460327
2023-01-28 14:45:31.780365,0.1656975478027026
2023-01-28 14:45:31.785365,0.17333230376243583
2023-01-28 14:45:31.790365,0.17819164680981836
2023-01-28 14:45:31.795365,0.18109738826751692
2023-01-28 14:45:31.800365,0.18046977447924722
2023-01-28 14:45:31.805365,0.17520746588706965
2023-01-28 14:45:31.810365,0.16637546515225024
2023-01-28 14:45:31.815365,0.15486916899681086
2023-01-28 14:45:31.820365,0.13986991682004574
2023-01-28 14:45:31.825365,0.12087583541870102
2023-01-28 14:45:31.830365,0.09922755848699938
2023-01-28 14:45:31.835365,0.07642488181591026
2023-01-28 14:45:31.840365,0.05272845425150384
2023-01-28 14:45:31.845365,0.02858420275151716
2023-01-28 14:45:31.850365,0.005774812627821793
2023-01-28 14:45:31.855365,-0.014087757095694537
2023-01-28 14:45:31.860365,-0.030905368206744933
2023-01-28 14:45:31.865365,-0.0449558123946189
2023-01-28 14:45:31.870365,-0.05578856078894139
2023-01-28 14:45:31.875365,-0.06329874694347383
2023-01-28 14:45:31.880365,-0.06863038492743541
2023-01-28 14:45:31.885365,-0.07289092242717743
2023-01-28 14:45:31.890365,-0.07596035668879951
2023-01-28 14:45:31.895365,-0.07745862007141105
2023-01-28 14:45:31.900365,-0.07782805016010752
2023-01-28 14:45:31.905365,-0.07755478471517557
2023-01-28 14:45:31.910365,-0.0763566673044257
2023-01-28 14:45:31.915365,-0.07409294694662087
2023-01-28 14:45:31.920365,-0.07156231493625491
2023-01-28 14:45:31.925365,-0.06950120627880088
2023-01-28 14:45:31.930365,-0.06763098424923335
2023-01-28 14:45:31.935365,-0.06551047414541235
2023-01-28 14:45:31.940365,-0.06348631572600809
2023-01-28 14:45:31.945365,-0.06200055405497547
2023-01-28 14:45:31.950365,-0.06078945456053886
2023-01-28 14:45:31.955365,-0.05957245826721186
2023-01-28 14:45:31.960365,-0.05874454842245378
2023-01-28 14:45:31.965365,-0.058586798608302994
2023-01-28 14:45:31.970365,-0.0585218610125886
2023-01-28 14:45:31.975365,-0.057913661003112675
2023-01-28 14:45:31.980365,-0.056922746331708046
2023-01-28 14:45:31.985365,-0.05589425563812249
2023-01-28 14:45:31.990365,-0.05464518994420814
2023-01-28 14:45:31.995365,-0.053081512451171785
2023-01-28 14:45:32.000365,-0.051805478522636644
2023-01-28 14:45:32.005365,-0.05135059356689449
2023-01-28 14:45:32.010365,-0.05141713412893597
2023-01-28 14:45:32.015365,-0.05151887983083721
2023-01-28 14:45:32.020365,-0.051751606023098244
2023-01-28 14:45:32.025365,-0.05228817462921141
2023-01-28 14:45:32.030365,-0.05278281564766452
2023-01-28 14:45:32.035365,-0.05296131223440171
2023-01-28 14:45:32.040365,-0.05319499456323635
2023-01-28 14:45:32.045365,-0.053826771676540326
2023-01-28 14:45:32.050365,-0.05449431686834957
2023-01-28 14:45:32.055365,-0.054740309715270906
2023-01-28 14:45:32.060365,-0.054738059375097806
2023-01-28 14:45:32.065365,-0.054836474359035346
2023-01-28 14:45:32.070365,-0.05496432471942675
2023-01-28 14:45:32.075365,-0.055052839219570104
2023-01-28 14:45:32.080365,-0.05543991720978443
2023-01-28 14:45:32.085365,-0.05623082444071762
2023-01-28 14:45:32.090365,-0.05680039419923375
2023-01-28 14:45:32.095365,-0.05654335021972649
2023-01-28 14:45:32.100365,-0.05566623703425313
2023-01-28 14:45:32.105365,-0.054764352738857144
2023-01-28 14:45:32.110365,-0.054163155730892774
2023-01-28 14:45:32.115365,-0.0541392974555492
2023-01-28 14:45:32.120365,-0.05511782091638602
2023-01-28 14:45:32.125365,-0.0569760799407958
2023-01-28 14:45:32.130365,-0.058603752027998314
2023-01-28 14:45:32.135365,-0.05870699882507324
2023-01-28 14:45:32.140365,-0.05666878557711836
2023-01-28 14:45:32.145365,-0.05231221765279764
2023-01-28 14:45:32.150365,-0.045543471810527515
2023-01-28 14:45:32.155365,-0.03687819093465798
2023-01-28 14:45:32.160365,-0.02783613054977537
2023-01-28 14:45:32.165365,-0.02021809481084339
2023-01-28 14:45:32.170365,-0.015293350602283984
2023-01-28 14:45:32.175365,-0.013919472694396896
2023-01-28 14:45:32.180365,-0.016690456339969767
2023-01-28 14:45:32.185365,-0.02329528331756587
2023-01-28 14:45:32.190365,-0.032189202330748526
2023-01-28 14:45:32.195365,-0.04149397462606428
2023-01-28 14:45:32.200365,-0.04996167627485076
2023-01-28 14:45:32.205365,-0.056855879724025685
2023-01-28 14:45:32.210365,-0.06161451852134261
2023-01-28 14:45:32.215365,-0.06423632800579065
2023-01-28 14:45:32.220365,-0.06552006448968194
2023-01-28 14:45:32.225365,-0.0663518905639648
2023-01-28 14:45:32.230365,-0.067069712860982
2023-01-28 14:45:32.235365,-0.06781836599111551
2023-01-28 14:45:32.240365,-0.06891002990647196
2023-01-28 14:45:32.245365,-0.07024645805358881
2023-01-28 14:45:32.250365,-0.07073489761793683
2023-01-28 14:45:32.255365,-0.06868382543325421
2023-01-28 14:45:32.260365,-0.0624376955565824
2023-01-28 14:45:32.265365,-0.05046109482645979
2023-01-28 14:45:32.270365,-0.031599753408380636
2023-01-28 14:45:32.275365,-0.006034175865352121
2023-01-28 14:45:32.280365,0.024189933609226496
2023-01-28 14:45:32.285365,0.05589425563812253
2023-01-28 14:45:32.290365,0.08578054100011846
2023-01-28 14:45:32.295365,0.11073072999715797
2023-01-28 14:45:32.300365,0.1279599912010851
2023-01-28 14:45:32.305365,0.13558864593505845
2023-01-28 14:45:32.310365,0.1329548817415147
2023-01-28 14:45:32.315365,0.12032290548086155
2023-01-28 14:45:32.320365,0.09888110541332124
2023-01-28 14:45:32.325365,0.07130424678325649
2023-01-28 14:45:32.330365,0.041703880800205
2023-01-28 14:45:32.335365,0.014448365196585574
2023-01-28 14:45:32.340365,-0.007050531966469667
2023-01-28 14:45:32.345365,-0.020891230553388495
2023-01-28 14:45:32.350365,-0.027096393063481095
2023-01-28 14:45:32.355365,-0.027718743309378614
2023-01-28 14:45:32.360365,-0.02562178284154346
2023-01-28 14:45:32.365365,-0.022598108276724826
2023-01-28 14:45:32.370365,-0.01902967182204476
2023-01-28 14:45:32.375365,-0.01521766185760491
2023-01-28 14:45:32.380365,-0.01193958130495017
2023-01-28 14:45:32.385365,-0.00939985178411001
2023-01-28 14:45:32.390365,-0.00676160913049216
2023-01-28 14:45:32.395365,-0.003365675685927215
2023-01-28 14:45:32.400365,0.00040677513906294866
2023-01-28 14:45:32.405365,0.004014770500361888
2023-01-28 14:45:32.410365,0.00761982163205888
2023-01-28 14:45:32.415365,0.011443297378718803
2023-01-28 14:45:32.420365,0.015112904233064493
2023-01-28 14:45:32.425365,0.018415054306387887
2023-01-28 14:45:32.430365,0.022032338272230164
2023-01-28 14:45:32.435365,0.026805203408002756
2023-01-28 14:45:32.440365,0.032813983514912604
2023-01-28 14:45:32.445365,0.03978709504008286
2023-01-28 14:45:32.450365,0.04776912098132794
2023-01-28 14:45:32.455365,0.05671163648366918
2023-01-28 14:45:32.460365,0.06602452687922565
2023-01-28 14:45:32.465365,0.07529497146606438
2023-01-28 14:45:32.470365,0.08500141382203019
2023-01-28 14:45:32.475365,0.0958736762404441
2023-01-28 14:45:32.480365,0.10797456537026805
2023-01-28 14:45:32.485365,0.12092392146587369
2023-01-28 14:45:32.490365,0.13443142998792898
2023-01-28 14:45:32.495365,0.14794549345970145
2023-01-28 14:45:32.500365,0.16030514660725725
2023-01-28 14:45:32.505365,0.17047147452831252
2023-01-28 14:45:32.510365,0.1782549030741057
2023-01-28 14:45:32.515365,0.18376588821411124
2023-01-28 14:45:32.520365,0.18657800698453508
2023-01-28 14:45:32.525365,0.18597762286663047
2023-01-28 14:45:32.530365,0.181565021507439
2023-01-28 14:45:32.535365,0.17304381728172297
2023-01-28 14:45:32.540365,0.15994645846991576
2023-01-28 14:45:32.545365,0.14229595661163333
2023-01-28 14:45:32.550365,0.12123614418646213
2023-01-28 14:45:32.555365,0.09844601154327393
2023-01-28 14:45:32.560365,0.0752258547499373
2023-01-28 14:45:32.565365,0.05252858251333232
2023-01-28 14:45:32.570365,0.031290435141808445
2023-01-28 14:45:32.575365,0.012044310569763102
2023-01-28 14:45:32.580365,-0.00542053009096463
2023-01-28 14:45:32.585365,-0.021396081894636088
2023-01-28 14:45:32.590365,-0.035529469769400086
2023-01-28 14:45:32.595365,-0.047191582620143814
2023-01-28 14:45:32.600365,-0.05614715100711622
2023-01-28 14:45:32.605365,-0.06238520145416252
2023-01-28 14:45:32.610365,-0.06578356466870197
2023-01-28 14:45:32.615365,-0.06656825542449946
2023-01-28 14:45:32.620365,-0.06574823647791875
2023-01-28 14:45:32.625365,-0.0645007714629173
2023-01-28 14:45:32.630365,-0.06336131904589001
2023-01-28 14:45:32.635365,-0.06238520145416253
2023-01-28 14:45:32.640365,-0.0616358757978615
2023-01-28 14:45:32.645365,-0.060990851372480274
2023-01-28 14:45:32.650365,-0.05991147069088988
2023-01-28 14:45:32.655365,-0.058033864945173146
2023-01-28 14:45:32.660365,-0.055730721857024955
2023-01-28 14:45:32.665365,-0.053634446114301564
2023-01-28 14:45:32.670365,-0.05193477096436938
2023-01-28 14:45:32.675365,-0.05055725574493399
2023-01-28 14:45:32.680365,-0.04959497949219809
2023-01-28 14:45:32.685365,-0.049042701721191385
2023-01-28 14:45:32.690365,-0.04847849319223638
2023-01-28 14:45:32.695365,-0.04752814769744868
2023-01-28 14:45:32.700365,-0.04633181759565131
2023-01-28 14:45:32.705365,-0.04512409493327135
2023-01-28 14:45:32.710365,-0.04374358971489757
2023-01-28 14:45:32.715365,-0.042022865265607764
2023-01-28 14:45:32.720365,-0.040273237593218186
2023-01-28 14:45:32.725365,-0.03889759629964823
2023-01-28 14:45:32.730365,-0.03787899234633905
2023-01-28 14:45:32.735365,-0.037094555795192725
2023-01-28 14:45:32.740365,-0.03673652651059004
2023-01-28 14:45:32.745365,-0.036950312554836204
2023-01-28 14:45:32.750365,-0.037446888950153814
2023-01-28 14:45:32.755365,-0.037960015237331286
2023-01-28 14:45:32.760365,-0.03872286226087716
2023-01-28 14:45:32.765365,-0.04002749919891349
2023-01-28 14:45:32.770365,-0.04167793549717438
2023-01-28 14:45:32.775365,-0.043321054428815765
2023-01-28 14:45:32.780365,-0.04492131672512967
2023-01-28 14:45:32.785365,-0.04644632339477526
2023-01-28 14:45:32.790365,-0.047488394151776414
2023-01-28 14:45:32.795365,-0.04769643396139139
2023-01-28 14:45:32.800365,-0.04723392438567337
2023-01-28 14:45:32.805365,-0.04637420177459707
2023-01-28 14:45:32.810365,-0.04504385180290789
2023-01-28 14:45:32.815365,-0.04322489351034157
2023-01-28 14:45:32.820365,-0.04138954386677223
2023-01-28 14:45:32.825365,-0.040027499198913456
2023-01-28 14:45:32.830365,-0.03909734584765344
2023-01-28 14:45:32.835365,-0.03839274495840067
2023-01-28 14:45:32.840365,-0.038046942120555774
2023-01-28 14:45:32.845365,-0.03820041939616195
2023-01-28 14:45:32.850365,-0.03857293601026801
2023-01-28 14:45:32.855365,-0.03884951397776605
2023-01-28 14:45:32.860365,-0.0390881140425219
2023-01-28 14:45:32.865365,-0.03925820440053926
2023-01-28 14:45:32.870365,-0.038795818145048615
2023-01-28 14:45:32.875365,-0.0371426343917846
2023-01-28 14:45:32.880365,-0.03434191726329573
2023-01-28 14:45:32.885365,-0.030603608116507464
2023-01-28 14:45:32.890365,-0.025729333406799657
2023-01-28 14:45:32.895365,-0.01959304139018053
2023-01-28 14:45:32.900365,-0.012880855859388802
2023-01-28 14:45:32.905365,-0.006803472992032686
2023-01-28 14:45:32.910365,-0.0023699699253707913
2023-01-28 14:45:32.915365,-0.00040868920041239675
2023-01-28 14:45:32.920365,-0.0018232400402004648
2023-01-28 14:45:32.925365,-0.007019837852567399
2023-01-28 14:45:32.930365,-0.01511823961960232
2023-01-28 14:45:32.935365,-0.024208825081586827
2023-01-28 14:45:32.940365,-0.0323683210353746
2023-01-28 14:45:32.945365,-0.038320623338222504
2023-01-28 14:45:32.950365,-0.04166106311010087
2023-01-28 14:45:32.955365,-0.04300852864980686
2023-01-28 14:45:32.960365,-0.04366133445653344
2023-01-28 14:45:32.965365,-0.044595204293727805
2023-01-28 14:45:32.970365,-0.045914720830964956
2023-01-28 14:45:32.975365,-0.047431986778974485
2023-01-28 14:45:32.980365,-0.04922835471494488
2023-01-28 14:45:32.985365,-0.05118231102824211
2023-01-28 14:45:32.990365,-0.05239357724334746
2023-01-28 14:45:32.995365,-0.051566958427429074
2023-01-28 14:45:33.000365,-0.04755630925324612
2023-01-28 14:45:33.005365,-0.039089918136596596
2023-01-28 14:45:33.010365,-0.024561967107678308
2023-01-28 14:45:33.015365,-0.0029569864273071146
2023-01-28 14:45:33.020365,0.025044561754435923
2023-01-28 14:45:33.025365,0.057168405503034474
2023-01-28 14:45:33.030365,0.09030834284219982
2023-01-28 14:45:33.035365,0.12075563520193085
2023-01-28 14:45:33.040365,0.14434463726500665
2023-01-28 14:45:33.045365,0.15746554732322685
2023-01-28 14:45:33.050365,0.15826709756375726
2023-01-28 14:45:33.055365,0.1468877047300337
2023-01-28 14:45:33.060365,0.12514702679445117
2023-01-28 14:45:33.065365,0.09659489244222638
2023-01-28 14:45:33.070365,0.06628330803928575
2023-01-28 14:45:33.075365,0.03933032602071755
2023-01-28 14:45:33.080365,0.01915727052794391
2023-01-28 14:45:33.085365,0.006899635307490774
2023-01-28 14:45:33.090365,0.0018352718102994268
2023-01-28 14:45:33.095365,0.0018511216621844681
2023-01-28 14:45:33.100365,0.004108311665941566
2023-01-28 14:45:33.105365,0.006346702575683499
2023-01-28 14:45:33.110365,0.007875257849339585
2023-01-28 14:45:33.115365,0.009159445762634189
2023-01-28 14:45:33.120365,0.010754637306615708
2023-01-28 14:45:33.125365,0.012957851402461473
2023-01-28 14:45:33.130365,0.015976697914715444
2023-01-28 14:45:33.135365,0.01971324346959589
2023-01-28 14:45:33.140365,0.023533502628870887
2023-01-28 14:45:33.145365,0.026805203408002777
2023-01-28 14:45:33.150365,0.029575883148700313
2023-01-28 14:45:33.155365,0.03235856816172585
2023-01-28 14:45:33.160365,0.035505090159923404
2023-01-28 14:45:33.165365,0.039210122078657095
2023-01-28 14:45:33.170365,0.04381770739766111
2023-01-28 14:45:33.175365,0.049571596086025196
2023-01-28 14:45:33.180365,0.056234948892332576
2023-01-28 14:45:33.185365,0.06341894716024388
2023-01-28 14:45:33.190365,0.07111170050792567
2023-01-28 14:45:33.195365,0.07947802543640126
2023-01-28 14:45:33.200365,0.08837787437458944
2023-01-28 14:45:33.205365,0.0975324735045433
2023-01-28 14:45:33.210365,0.10695258153493085
2023-01-28 14:45:33.215365,0.11676490306854234
2023-01-28 14:45:33.220365,0.12682038778765867
2023-01-28 14:45:33.225365,0.13688683509826652
2023-01-28 14:45:33.230365,0.14699549594789382
2023-01-28 14:45:33.235365,0.15715301036834706
2023-01-28 14:45:33.240365,0.16689670829739842
2023-01-28 14:45:33.245365,0.17551998794078819
2023-01-28 14:45:33.250365,0.18250651651217548
2023-01-28 14:45:33.255365,0.18734793365001662
2023-01-28 14:45:33.260365,0.18919514105555307
2023-01-28 14:45:33.265365,0.18715560436248763
2023-01-28 14:45:33.270365,0.1807903319172803
2023-01-28 14:45:33.275365,0.17001470923423762
2023-01-28 14:45:33.280365,0.1548451696857403
2023-01-28 14:45:33.285365,0.13573288917541496
2023-01-28 14:45:33.290365,0.11394340858192617
2023-01-28 14:45:33.295365,0.09113769233226765
2023-01-28 14:45:33.300365,0.06865061544813504
2023-01-28 14:45:33.305365,0.04738390445709219
2023-01-28 14:45:33.310365,0.028010380867399806
2023-01-28 14:45:33.315365,0.010794202797114818
2023-01-28 14:45:33.320365,-0.004555248690093859
2023-01-28 14:45:33.325365,-0.018366973847150782
2023-01-28 14:45:33.330365,-0.030452266727699358
2023-01-28 14:45:33.335365,-0.040364068001508664
2023-01-28 14:45:33.340365,-0.04797420517400121
2023-01-28 14:45:33.345365,-0.05346616357564917
2023-01-28 14:45:33.350365,-0.05704666217546648
2023-01-28 14:45:33.355365,-0.05906760692596426
2023-01-28 14:45:33.360365,-0.06017858296939005
2023-01-28 14:45:33.365365,-0.06091872975230205
2023-01-28 14:45:33.370365,-0.06130856236495752
2023-01-28 14:45:33.375365,-0.06115913391113277
2023-01-28 14:45:33.380365,-0.06054614086022
2023-01-28 14:45:33.385365,-0.059644579887390047
2023-01-28 14:45:33.390365,-0.05836281856043511
2023-01-28 14:45:33.395365,-0.0565193109214305
2023-01-28 14:45:33.400365,-0.05416027356866393
2023-01-28 14:45:33.405365,-0.05137463659048078
2023-01-28 14:45:33.410365,-0.0480694980418527
2023-01-28 14:45:33.415365,-0.04430671781301489
2023-01-28 14:45:33.420365,-0.04062404480766336
2023-01-28 14:45:33.425365,-0.03764748573303216
2023-01-28 14:45:33.430365,-0.03556387872885011
2023-01-28 14:45:33.435365,-0.034233730286359704
2023-01-28 14:45:33.440365,-0.03351995782012713
2023-01-28 14:45:33.445365,-0.033175945281982394
2023-01-28 14:45:33.450365,-0.03273224756410043
2023-01-28 14:45:33.455365,-0.03192583844065656
2023-01-28 14:45:33.460365,-0.031066922771675984
2023-01-28 14:45:33.465365,-0.0306757297366857
2023-01-28 14:45:33.470365,-0.03095836368421919
2023-01-28 14:45:33.475365,-0.031853716820478384
2023-01-28 14:45:33.480365,-0.033241599684180397
2023-01-28 14:45:33.485365,-0.03476262092590333
2023-01-28 14:45:33.490365,-0.035736985005109745
2023-01-28 14:45:33.495365,-0.0356521233916282
2023-01-28 14:45:33.500365,-0.03458898554126433
2023-01-28 14:45:33.505365,-0.03300766274332999
2023-01-28 14:45:33.510365,-0.03141983173509677
2023-01-28 14:45:33.515365,-0.03041128441691386
2023-01-28 14:45:33.520365,-0.03050282282661041
2023-01-28 14:45:33.525365,-0.03166139125823969
2023-01-28 14:45:33.530365,-0.03331064826329196
2023-01-28 14:45:33.535365,-0.0350511074066162
2023-01-28 14:45:33.540365,-0.03691068741000669
2023-01-28 14:45:33.545365,-0.03865718841552729
2023-01-28 14:45:33.550365,-0.03948654761736617
2023-01-28 14:45:33.555365,-0.03884951397776597
2023-01-28 14:45:33.560365,-0.03711579707898366
2023-01-28 14:45:33.565365,-0.03502706810832021
2023-01-28 14:45:33.570365,-0.03303218137729636
2023-01-28 14:45:33.575365,-0.0316133126616477
2023-01-28 14:45:33.580365,-0.03163130485429144
2023-01-28 14:45:33.585365,-0.03358463570475571
2023-01-28 14:45:33.590365,-0.036782011871664896
2023-01-28 14:45:33.595365,-0.0397630557417869
2023-01-28 14:45:33.600365,-0.04125090618666123
2023-01-28 14:45:33.605365,-0.04034002870321268
2023-01-28 14:45:33.610365,-0.03636695909860697
2023-01-28 14:45:33.615365,-0.029401581734418848
2023-01-28 14:45:33.620365,-0.020669254976019003
2023-01-28 14:45:33.625365,-0.01190006732940669
2023-01-28 14:45:33.630365,-0.004397697786201561
2023-01-28 14:45:33.635365,0.0009375810623167856
2023-01-28 14:45:33.640365,0.003195267347651343
2023-01-28 14:45:33.645365,0.0018030405044554834
2023-01-28 14:45:33.650365,-0.00286954823199126
2023-01-28 14:45:33.655365,-0.009760459885001092
2023-01-28 14:45:33.660365,-0.017766835483190926
2023-01-28 14:45:33.665365,-0.02577145956456663
2023-01-28 14:45:33.670365,-0.03248660792221011
2023-01-28 14:45:33.675365,-0.03702243417501439
2023-01-28 14:45:33.680365,-0.03955085753784249
2023-01-28 14:45:33.685365,-0.040965080261230365
2023-01-28 14:45:33.690365,-0.04205010266678505
2023-01-28 14:45:33.695365,-0.043321054428815786
2023-01-28 14:45:33.700365,-0.04523750610795527
2023-01-28 14:45:33.705365,-0.047888755798339795
2023-01-28 14:45:33.710365,-0.05056906518042381
2023-01-28 14:45:33.715365,-0.052119892090558985
2023-01-28 14:45:33.720365,-0.05152243715919422
2023-01-28 14:45:33.725365,-0.0477925948798656
2023-01-28 14:45:33.730365,-0.0396904238135141
2023-01-28 14:45:33.735365,-0.02622823044657701
2023-01-28 14:45:33.740365,-0.007467602069896763
2023-01-28 14:45:33.745365,0.015482108108699285
2023-01-28 14:45:33.750365,0.04095273623478928
2023-01-28 14:45:33.755365,0.06678462028503404
2023-01-28 14:45:33.760365,0.0903097597031868
2023-01-28 14:45:33.765365,0.10899981111288067
2023-01-28 14:45:33.770365,0.12118778940054706
2023-01-28 14:45:33.775365,0.12592434883117665
2023-01-28 14:45:33.780365,0.12254962346995675
2023-01-28 14:45:33.785365,0.11106729507446275
2023-01-28 14:45:33.790365,0.09286816802228345
2023-01-28 14:45:33.795365,0.07063110917806617
2023-01-28 14:45:33.800365,0.047550628968815845
2023-01-28 14:45:33.805365,0.0267811622470617
2023-01-28 14:45:33.810365,0.010973544839807498
2023-01-28 14:45:33.815365,0.0014183919411152365
2023-01-28 14:45:33.820365,-0.002499195265400246
2023-01-28 14:45:33.825365,-0.0026204190216957573
2023-01-28 14:45:33.830365,-0.0007753721138896452
2023-01-28 14:45:33.835365,0.0017309188842772774
2023-01-28 14:45:33.840365,0.004012817610016564
2023-01-28 14:45:33.845365,0.005721648689359369
2023-01-28 14:45:33.850365,0.007182481056754189
2023-01-28 14:45:33.855365,0.008919040672480975
2023-01-28 14:45:33.860365,0.011083718773210061
2023-01-28 14:45:33.865365,0.013630986213684006
2023-01-28 14:45:33.870365,0.016751062303421774
2023-01-28 14:45:33.875365,0.020650824531912797
2023-01-28 14:45:33.880365,0.02509161604193244
2023-01-28 14:45:33.885365,0.029593905434012416
2023-01-28 14:45:33.890365,0.033951474276446694
2023-01-28 14:45:33.895365,0.03817638009786599
2023-01-28 14:45:33.900365,0.04218607854968334
2023-01-28 14:45:33.905365,0.04601359367370598
2023-01-28 14:45:33.910365,0.050152822038164804
2023-01-28 14:45:33.915365,0.055245161056518506
2023-01-28 14:45:33.920365,0.061536609136641836
2023-01-28 14:45:33.925365,0.06897231191396705
2023-01-28 14:45:33.930365,0.07758428425335502
2023-01-28 14:45:33.935365,0.08736332505941387
2023-01-28 14:45:33.940365,0.09794927615372676
2023-01-28 14:45:33.945365,0.10887961089611049
2023-01-28 14:45:33.950365,0.11999484861353452
2023-01-28 14:45:33.955365,0.13123731315135947
2023-01-28 14:45:33.960365,0.14224933962340294
2023-01-28 14:45:33.965365,0.15253722667694083
2023-01-28 14:45:33.970365,0.16179951657785827
2023-01-28 14:45:33.975365,0.16967813670635215
2023-01-28 14:45:33.980365,0.17537576566555982
2023-01-28 14:45:33.985365,0.17792403697967513
2023-01-28 14:45:33.990365,0.17669288676159953
2023-01-28 14:45:33.995365,0.17136096954345695
2023-01-28 14:45:34.000365,0.16170125647332953
2023-01-28 14:45:34.005365,0.14784932136535633
2023-01-28 14:45:34.010365,0.13059417488557212
2023-01-28 14:45:34.015365,0.11099517345428457
2023-01-28 14:45:34.020365,0.08984365941217504
2023-01-28 14:45:34.025365,0.06777028739452363
2023-01-28 14:45:34.030365,0.04558468669640801
2023-01-28 14:45:34.035365,0.024112662300467404
2023-01-28 14:45:34.040365,0.003929622702809622
2023-01-28 14:45:34.045365,-0.014376243576407429
2023-01-28 14:45:34.050365,-0.029933137548549264
2023-01-28 14:45:34.055365,-0.04199882596731174
2023-01-28 14:45:34.060365,-0.05049622845128314
2023-01-28 14:45:34.065365,-0.05587021633982649
2023-01-28 14:45:34.070365,-0.05869267377077933
2023-01-28 14:45:34.075365,-0.05971670150756828
2023-01-28 14:45:34.080365,-0.059959913103681914
2023-01-28 14:45:34.085365,-0.060245595872402066
2023-01-28 14:45:34.090365,-0.06078058621534094
2023-01-28 14:45:34.095365,-0.06142358109354966
2023-01-28 14:45:34.100365,-0.062079799279545815
2023-01-28 14:45:34.105365,-0.06257753074169145
2023-01-28 14:45:34.110365,-0.06255915140197707
2023-01-28 14:45:34.115365,-0.06188035011291496
2023-01-28 14:45:34.120365,-0.06080129191134176
2023-01-28 14:45:34.125365,-0.059476297348737675
2023-01-28 14:45:34.130365,-0.057669557447379116
2023-01-28 14:45:34.135365,-0.05534132570028298
2023-01-28 14:45:34.140365,-0.05305675708809546
2023-01-28 14:45:34.145365,-0.05135059356689451
2023-01-28 14:45:34.150365,-0.050087430638874914
2023-01-28 14:45:34.155365,-0.048898458480834885
2023-01-28 14:45:34.160365,-0.04780406831245839
2023-01-28 14:45:34.165365,-0.04687905311584473
2023-01-28 14:45:34.170365,-0.04573962437560495
2023-01-28 14:45:34.175365,-0.04399418830871578
2023-01-28 14:45:34.180365,-0.04190334198270553
2023-01-28 14:45:34.185365,-0.040027499198913505
2023-01-28 14:45:34.190365,-0.03850665254251894
2023-01-28 14:45:34.195365,-0.03721475601196277
2023-01-28 14:45:34.200365,-0.036287355876159444
2023-01-28 14:45:34.205365,-0.035892527550458936
2023-01-28 14:45:34.210365,-0.03575370969566205
2023-01-28 14:45:34.215365,-0.03550788015127178
2023-01-28 14:45:34.220365,-0.03533204948077387
2023-01-28 14:45:34.225365,-0.03567616268992416
2023-01-28 14:45:34.230365,-0.03660275278434046
2023-01-28 14:45:34.235365,-0.0379119329154491
2023-01-28 14:45:34.240365,-0.039649133497966144
2023-01-28 14:45:34.245365,-0.04190266132354726
2023-01-28 14:45:34.250365,-0.0443052799863131
2023-01-28 14:45:34.255365,-0.04630208015441887
2023-01-28 14:45:34.260365,-0.04774506410481471
2023-01-28 14:45:34.265365,-0.04873017594218242
2023-01-28 14:45:34.270365,-0.04908672340358051
2023-01-28 14:45:34.275365,-0.04858593270182599
2023-01-28 14:45:34.280365,-0.04746733504245382
2023-01-28 14:45:34.285365,-0.046229958534240646
2023-01-28 14:45:34.290365,-0.045088322573564835
2023-01-28 14:45:34.295365,-0.044138431549072196
2023-01-28 14:45:34.300365,-0.04382732019395183
2023-01-28 14:45:34.305365,-0.04466732591390602
2023-01-28 14:45:34.310365,-0.04659149360444949
2023-01-28 14:45:34.315365,-0.049042701721191385
2023-01-28 14:45:34.320365,-0.051489835461847155
2023-01-28 14:45:34.325365,-0.05336999893188464
2023-01-28 14:45:34.330365,-0.053786668048888146
2023-01-28 14:45:34.335365,-0.05190352723002431
2023-01-28 14:45:34.340365,-0.047597148309492694
2023-01-28 14:45:34.345365,-0.041325688362121485
2023-01-28 14:45:34.350365,-0.03358921255949312
2023-01-28 14:45:34.355365,-0.02502620220184324
2023-01-28 14:45:34.360365,-0.016819786539937997
2023-01-28 14:45:34.365365,-0.010409554466605112
2023-01-28 14:45:34.370365,-0.006822290844079522
2023-01-28 14:45:34.375365,-0.006587108131498008
2023-01-28 14:45:34.380365,-0.00994371514180898
2023-01-28 14:45:34.385365,-0.01651585102081288
2023-01-28 14:45:34.390365,-0.024946104096022607
2023-01-28 14:45:34.395365,-0.03346443176269533
2023-01-28 14:45:34.400365,-0.04086345316579865
2023-01-28 14:45:34.405365,-0.046686731278896304
2023-01-28 14:45:34.410365,-0.05084480195233186
2023-01-28 14:45:34.415365,-0.053610406816005686
2023-01-28 14:45:34.420365,-0.05573527440778864
2023-01-28 14:45:34.425365,-0.05791366100311274
2023-01-28 14:45:34.430365,-0.06013653811492628
2023-01-28 14:45:34.435365,-0.06192843243479719
2023-01-28 14:45:34.440365,-0.06294519670555973
2023-01-28 14:45:34.445365,-0.0627938956022262
2023-01-28 14:45:34.450365,-0.060446588394367805
2023-01-28 14:45:34.455365,-0.054403744637966135
2023-01-28 14:45:34.460365,-0.04343553079737925
2023-01-28 14:45:34.465365,-0.026949446648359236
2023-01-28 14:45:34.470365,-0.005121146308994935
2023-01-28 14:45:34.475365,0.020626783370971628
2023-01-28 14:45:34.480365,0.04745248646953634
2023-01-28 14:45:34.485365,0.0721216201782226
2023-01-28 14:45:34.490365,0.09240195184717902
2023-01-28 14:45:34.495365,0.10731697082519527
2023-01-28 14:45:34.500365,0.11641373097909115
2023-01-28 14:45:34.505365,0.11928915977478019
2023-01-28 14:45:34.510365,0.11558499630612008
2023-01-28 14:45:34.515365,0.1049610003829002
2023-01-28 14:45:34.520365,0.08740142464745877
2023-01-28 14:45:34.525365,0.06423632800579071
2023-01-28 14:45:34.530365,0.03876211603410511
2023-01-28 14:45:34.535365,0.015217661857604899
2023-01-28 14:45:34.540365,-0.003078589127336163
2023-01-28 14:45:34.545365,-0.014688770286738782
2023-01-28 14:45:34.550365,-0.019914456589309328
2023-01-28 14:45:34.555365,-0.020410418510436998
2023-01-28 14:45:34.560365,-0.018524302605505666
2023-01-28 14:45:34.565365,-0.016059082001447615
2023-01-28 14:45:34.570365,-0.013437686798095181
2023-01-28 14:45:34.575365,-0.010289351455867212
2023-01-28 14:45:34.580365,-0.006551582035639008
2023-01-28 14:45:34.585365,-0.0025963783264159944
2023-01-28 14:45:34.590365,0.001294237532278539
2023-01-28 14:45:34.595365,0.004928310867398897
2023-01-28 14:45:34.600365,0.007957130136519138
2023-01-28 14:45:34.605365,0.010265311226248715
2023-01-28 14:45:34.610365,0.012408186390906635
2023-01-28 14:45:34.615365,0.015097459778189576
2023-01-28 14:45:34.620365,0.01846518372871774
2023-01-28 14:45:34.625365,0.022333662956953014
2023-01-28 14:45:34.630365,0.02686914701597119
2023-01-28 14:45:34.635365,0.0323585681617259
2023-01-28 14:45:34.640365,0.0386658421956746
2023-01-28 14:45:34.645365,0.045556824654340695
2023-01-28 14:45:34.650365,0.05323586471825113
2023-01-28 14:45:34.655365,0.06188035011291502
2023-01-28 14:45:34.660365,0.07099648565341997
2023-01-28 14:45:34.665365,0.08000691980123507
2023-01-28 14:45:34.670365,0.08918129710545658
2023-01-28 14:45:34.675365,0.09921531379222862
2023-01-28 14:45:34.680365,0.11021489848580661
2023-01-28 14:45:34.685365,0.12190958112478252
2023-01-28 14:45:34.690365,0.13441810270734109
2023-01-28 14:45:34.695365,0.1476570069789886
2023-01-28 14:45:34.700365,0.16019941950254107
2023-01-28 14:45:34.705365,0.16999065876007075
2023-01-28 14:45:34.710365,0.17634220886458044
2023-01-28 14:45:34.715365,0.18015980720520003
2023-01-28 14:45:34.720365,0.18203763499978057
2023-01-28 14:45:34.725365,0.18119356036186202
2023-01-28 14:45:34.730365,0.17657559955928126
2023-01-28 14:45:34.735365,0.16797125339508046
2023-01-28 14:45:34.740365,0.1555335731922708
2023-01-28 14:45:34.745365,0.13912260532379148
2023-01-28 14:45:34.750365,0.11882234085841856
2023-01-28 14:45:34.755365,0.09560923278331747
2023-01-28 14:45:34.760365,0.07100266046506212
2023-01-28 14:45:34.765365,0.046422284096479374
2023-01-28 14:45:34.770365,0.023162034571515184
2023-01-28 14:45:34.775365,0.002452135086059525
2023-01-28 14:45:34.780365,-0.014933903569031752
2023-01-28 14:45:34.785365,-0.02889673039317129
2023-01-28 14:45:34.790365,-0.03963606931191269
2023-01-28 14:45:34.795365,-0.047383904457092216
2023-01-28 14:45:34.800365,-0.05263372683309836
2023-01-28 14:45:34.805365,-0.05618274211883541
2023-01-28 14:45:34.810365,-0.05867838715636034
2023-01-28 14:45:34.815365,-0.06038983911275858
2023-01-28 14:45:34.820365,-0.06150851731375463
2023-01-28 14:45:34.825365,-0.06228904053568841
2023-01-28 14:45:34.830365,-0.06277733755295128
2023-01-28 14:45:34.835365,-0.0627938956022262
2023-01-28 14:45:34.840365,-0.062336030874787486
2023-01-28 14:45:34.845365,-0.061663985252380274
2023-01-28 14:45:34.850365,-0.060901729982283805
2023-01-28 14:45:34.855365,-0.059909027069806976
2023-01-28 14:45:34.860365,-0.05862144520889173
2023-01-28 14:45:34.865365,-0.057144366204738575
2023-01-28 14:45:34.870365,-0.055441042708734296
2023-01-28 14:45:34.875365,-0.0533219203352928
2023-01-28 14:45:34.880365,-0.0508534342533181
2023-01-28 14:45:34.885365,-0.04844168946146956
2023-01-28 14:45:34.890365,-0.046445361240579984
2023-01-28 14:45:34.895365,-0.045027934014797134
2023-01-28 14:45:34.900365,-0.044375875271231234
2023-01-28 14:45:34.905365,-0.04461924359202376
2023-01-28 14:45:34.910365,-0.04544205047515046
2023-01-28 14:45:34.915365,-0.046157836914062486
2023-01-28 14:45:34.920365,-0.046292983016751256
2023-01-28 14:45:34.925365,-0.04582127183675761
2023-01-28 14:45:34.930365,-0.04485493414177046
2023-01-28 14:45:34.935365,-0.04351337999105452
2023-01-28 14:45:34.940365,-0.04213002324097123
2023-01-28 14:45:34.945365,-0.041157405823469134
2023-01-28 14:45:34.950365,-0.04074145719809775
2023-01-28 14:45:34.955365,-0.04070063680410384
2023-01-28 14:45:34.960365,-0.040957866590766494
2023-01-28 14:45:34.965365,-0.041638217866420704
2023-01-28 14:45:34.970365,-0.04270222543404147
2023-01-28 14:45:34.975365,-0.04384994506835929
2023-01-28 14:45:34.980365,-0.04485195025278376
2023-01-28 14:45:34.985365,-0.045652985572814914
2023-01-28 14:45:34.990365,-0.046139754382656634
2023-01-28 14:45:34.995365,-0.04618187993764872
2023-01-28 14:45:35.000365,-0.04595217297422207
2023-01-28 14:45:35.005365,-0.04584531113505358
2023-01-28 14:45:35.010365,-0.04600149454044826
2023-01-28 14:45:35.015365,-0.04620591923594469
2023-01-28 14:45:35.020365,-0.046275063428970704
2023-01-28 14:45:35.025365,-0.04622995853424068
2023-01-28 14:45:35.030365,-0.04610672384890764
2023-01-28 14:45:35.035365,-0.045965515077114105
2023-01-28 14:45:35.040365,-0.046105110333950636
2023-01-28 14:45:35.045365,-0.04687905311584466
2023-01-28 14:45:35.050365,-0.0481877381718629
2023-01-28 14:45:35.055365,-0.049403309822082506
2023-01-28 14:45:35.060365,-0.049797382081569704
2023-01-28 14:45:35.065365,-0.04877825826406466
2023-01-28 14:45:35.070365,-0.04581194463640844
2023-01-28 14:45:35.075365,-0.04058043286204325
2023-01-28 14:45:35.080365,-0.033375418014840126
2023-01-28 14:45:35.085365,-0.02512236498296261
2023-01-28 14:45:35.090365,-0.017026547140286678
2023-01-28 14:45:35.095365,-0.010409554466605098
2023-01-28 14:45:35.100365,-0.006689595634469901
2023-01-28 14:45:35.105365,-0.006947716232389213
2023-01-28 14:45:35.110365,-0.011265160242733937
2023-01-28 14:45:35.115365,-0.018631419166922458
2023-01-28 14:45:35.120365,-0.027484435934528092
2023-01-28 14:45:35.125365,-0.03620505332946767
2023-01-28 14:45:35.130365,-0.043396376383807764
2023-01-28 14:45:35.135365,-0.048297446221113184
2023-01-28 14:45:35.140365,-0.051114537664995116
2023-01-28 14:45:35.145365,-0.05269686505198472
2023-01-28 14:45:35.150365,-0.05382087240127815
2023-01-28 14:45:35.155365,-0.054908595979213694
2023-01-28 14:45:35.160365,-0.0562087362290692
2023-01-28 14:45:35.165365,-0.05779346078634258
2023-01-28 14:45:35.170365,-0.0593261270323258
2023-01-28 14:45:35.175365,-0.060077309608459396
2023-01-28 14:45:35.180365,-0.05907907627591217
2023-01-28 14:45:35.185365,-0.05498071759939195
2023-01-28 14:45:35.190365,-0.045964751046542726
2023-01-28 14:45:35.195365,-0.03041128441691389
2023-01-28 14:45:35.200365,-0.00794797666611375
2023-01-28 14:45:35.205365,0.020145973190665203
2023-01-28 14:45:35.210365,0.05133446122160307
2023-01-28 14:45:35.215365,0.08236289024353022
2023-01-28 14:45:35.220365,0.10977377906712596
2023-01-28 14:45:35.225365,0.13063630461692807
2023-01-28 14:45:35.230365,0.14310006623383714
2023-01-28 14:45:35.235365,0.1462145745754241
2023-01-28 14:45:35.240365,0.1395051315484174
2023-01-28 14:45:35.245365,0.12323181331157679
2023-01-28 14:45:35.250365,0.0991056421117659
2023-01-28 14:45:35.255365,0.07041474431753149
2023-01-28 14:45:35.260365,0.04132014443247248
2023-01-28 14:45:35.265365,0.015914838761091222
2023-01-28 14:45:35.270365,-0.002722863202358487
2023-01-28 14:45:35.275365,-0.013486742973327626
2023-01-28 14:45:35.280365,-0.017562357084089337
2023-01-28 14:45:35.285365,-0.01750151440501211
2023-01-28 14:45:35.290365,-0.01575207940377425
2023-01-28 14:45:35.295365,-0.013871392235159789
2023-01-28 14:45:35.300365,-0.012506585050397248
2023-01-28 14:45:35.305365,-0.011467337608337414
2023-01-28 14:45:35.310365,-0.00993259448239011
2023-01-28 14:45:35.315365,-0.007164081092923828
2023-01-28 14:45:35.320365,-0.0031524283061038472
2023-01-28 14:45:35.325365,0.001610716222785399
2023-01-28 14:45:35.330365,0.006751267318659839
2023-01-28 14:45:35.335365,0.012020270340144605
2023-01-28 14:45:35.340365,0.016960066980087812
2023-01-28 14:45:35.345365,0.021155675873160314
2023-01-28 14:45:35.350365,0.02478419687208182
2023-01-28 14:45:35.355365,0.0284640006721019
2023-01-28 14:45:35.360365,0.03261737964558849
2023-01-28 14:45:35.365365,0.03738304227590563
2023-01-28 14:45:35.370365,0.042997301391378646
2023-01-28 14:45:35.375365,0.04971583932638156
2023-01-28 14:45:35.380365,0.057388416570298736
2023-01-28 14:45:35.385365,0.0656066387891769
2023-01-28 14:45:35.390365,0.07428246837100198
2023-01-28 14:45:35.395365,0.08366107940673818
2023-01-28 14:45:35.400365,0.0938116061870284
2023-01-28 14:45:35.405365,0.10455231368541708
2023-01-28 14:45:35.410365,0.1158189843380694
2023-01-28 14:45:35.415365,0.12760719656944267
2023-01-28 14:45:35.420365,0.13953692741192203
2023-01-28 14:45:35.425365,0.1509265154600143
2023-01-28 14:45:35.430365,0.16131468543758173
2023-01-28 14:45:35.435365,0.1704955101013183
2023-01-28 14:45:35.440365,0.17806153603608177
2023-01-28 14:45:35.445365,0.18335720896720875
2023-01-28 14:45:35.450365,0.185873083815965
2023-01-28 14:45:35.455365,0.18523237109184257
2023-01-28 14:45:35.460365,0.18078758992649682
2023-01-28 14:45:35.465365,0.1717215776443481
2023-01-28 14:45:35.470365,0.15767345867887556
2023-01-28 14:45:35.475365,0.13897836208343503
2023-01-28 14:45:35.480365,0.11639335651568965
2023-01-28 14:45:35.485365,0.09106557071208944
2023-01-28 14:45:35.490365,0.06475109413770987
2023-01-28 14:45:35.495365,0.03949860855937
2023-01-28 14:45:35.500365,0.016856579357663246
2023-01-28 14:45:35.505365,-0.0024521350860595204
2023-01-28 14:45:35.510365,-0.018234385204763556
2023-01-28 14:45:35.515365,-0.030675729736685715
2023-01-28 14:45:35.520365,-0.04044648762384047
2023-01-28 14:45:35.525365,-0.0484176501631736
2023-01-28 14:45:35.530365,-0.055079050735437396
2023-01-28 14:45:35.535365,-0.060486000031232764
2023-01-28 14:45:35.540365,-0.06472098577640957
2023-01-28 14:45:35.545365,-0.06801068782806388
2023-01-28 14:45:35.550365,-0.07040688670738093
2023-01-28 14:45:35.555365,-0.07178505510091776
2023-01-28 14:45:35.560365,-0.07220259724880082
2023-01-28 14:45:35.565365,-0.07188121974468231
2023-01-28 14:45:35.570365,-0.0708271756922603
2023-01-28 14:45:35.575365,-0.06887614727020255
2023-01-28 14:45:35.580365,-0.0661617456834433
2023-01-28 14:45:35.585365,-0.06317853927612302
2023-01-28 14:45:35.590365,-0.06036036375220192
2023-01-28 14:45:35.595365,-0.05793770402669899
2023-01-28 14:45:35.600365,-0.05615616674791617
2023-01-28 14:45:35.605365,-0.05517303943634031
2023-01-28 14:45:35.610365,-0.05467067636286235
2023-01-28 14:45:35.615365,-0.05397101491689682
2023-01-28 14:45:35.620365,-0.05263776702294189
2023-01-28 14:45:35.625365,-0.05070149898529043
2023-01-28 14:45:35.630365,-0.048363271939310774
2023-01-28 14:45:35.635365,-0.04589339345693575
2023-01-28 14:45:35.640365,-0.04381581403755555
2023-01-28 14:45:35.645365,-0.04272004216909401
2023-01-28 14:45:35.650365,-0.04273571948648752
2023-01-28 14:45:35.655365,-0.04346529766917218
2023-01-28 14:45:35.660365,-0.044444557274746596
2023-01-28 14:45:35.665365,-0.045364499092101974
2023-01-28 14:45:35.670365,-0.045911297368523424
2023-01-28 14:45:35.675365,-0.04584531113505359
2023-01-28 14:45:35.680365,-0.04532681124084376
2023-01-28 14:45:35.685365,-0.04481156915426252
2023-01-28 14:45:35.690365,-0.04454708276641941
2023-01-28 14:45:35.695365,-0.044450961053371374
2023-01-28 14:45:35.700365,-0.04446326143171239
2023-01-28 14:45:35.705365,-0.04466732591390604
2023-01-28 14:45:35.710365,-0.04506263371396829
2023-01-28 14:45:35.715365,-0.04558086395263672
2023-01-28 14:45:35.720365,-0.04634505852732931
2023-01-28 14:45:35.725365,-0.04755219072103495
2023-01-28 14:45:35.730365,-0.049053074742351384
2023-01-28 14:45:35.735365,-0.05036493390798557
2023-01-28 14:45:35.740365,-0.051125157140586734
2023-01-28 14:45:35.745365,-0.051254432648420285
2023-01-28 14:45:35.750365,-0.05073974995455336
2023-01-28 14:45:35.755365,-0.049643717706203405
2023-01-28 14:45:35.760365,-0.048335462660939195
2023-01-28 14:45:35.765365,-0.047335825860500294
2023-01-28 14:45:35.770365,-0.04687091284692047
2023-01-28 14:45:35.775365,-0.04685501381754876
2023-01-28 14:45:35.780365,-0.047273212294133275
2023-01-28 14:45:35.785365,-0.04822532460093493
2023-01-28 14:45:35.790365,-0.0495849764996797
2023-01-28 14:45:35.795365,-0.0509419068694114
2023-01-28 14:45:35.800365,-0.05187301339489997
2023-01-28 14:45:35.805365,-0.05195160955190648
2023-01-28 14:45:35.810365,-0.0505420263872458
2023-01-28 14:45:35.815365,-0.04699925705790513
2023-01-28 14:45:35.820365,-0.041171380826507856
2023-01-28 14:45:35.825365,-0.03348847478628149
2023-01-28 14:45:35.830365,-0.02465401318347804
2023-01-28 14:45:35.835365,-0.015602311119437213
2023-01-28 14:45:35.840365,-0.007688018166339264
2023-01-28 14:45:35.845365,-0.0024521350860595204
2023-01-28 14:45:35.850365,-0.0010196171574721972
2023-01-28 14:45:35.855365,-0.003822445869445803
2023-01-28 14:45:35.860365,-0.010682811312750175
2023-01-28 14:45:35.865365,-0.020722946152090985
2023-01-28 14:45:35.870365,-0.03224230292481597
2023-01-28 14:45:35.875365,-0.0431768111884593
2023-01-28 14:45:35.880365,-0.05191979449700371
2023-01-28 14:45:35.885365,-0.05767325684428213
2023-01-28 14:45:35.890365,-0.06027728389505686
2023-01-28 14:45:35.895365,-0.06012539193034173
2023-01-28 14:45:35.900365,-0.05816359134160536
2023-01-28 14:45:35.905365,-0.05553364753723139
2023-01-28 14:45:35.910365,-0.05312577642302976
2023-01-28 14:45:35.915365,-0.051591001451015396
2023-01-28 14:45:35.920365,-0.05141856318551668
2023-01-28 14:45:35.925365,-0.05238433927297588
2023-01-28 14:45:35.930365,-0.05290100623463874
2023-01-28 14:45:35.935365,-0.05036493390798558
2023-01-28 14:45:35.940365,-0.042296692902262574
2023-01-28 14:45:35.945365,-0.027141770347952843
2023-01-28 14:45:35.950365,-0.004548626019350848
2023-01-28 14:45:35.955365,0.02425690554082387
2023-01-28 14:45:35.960365,0.05625907973908581
2023-01-28 14:45:35.965365,0.08743544667959208
2023-01-28 14:45:35.970365,0.11413326009054574
2023-01-28 14:45:35.975365,0.13371348381042475
2023-01-28 14:45:35.980365,0.14430322201448004
2023-01-28 14:45:35.985365,0.14472405612468708
2023-01-28 14:45:35.990365,0.13492116564140164
2023-01-28 14:45:35.995365,0.11616389453411097
2023-01-28 14:45:36.000365,0.09083320293816298
2023-01-28 14:45:36.005365,0.06231307983398426
2023-01-28 14:45:36.010365,0.0347754002872907
2023-01-28 14:45:36.015365,0.012116432189941358
2023-01-28 14:45:36.020365,-0.0035173397896006453
2023-01-28 14:45:36.025365,-0.012212594971060715
2023-01-28 14:45:36.030365,-0.015493853681001854
2023-01-28 14:45:36.035365,-0.015337864868342795
2023-01-28 14:45:36.040365,-0.01360520878942582
2023-01-28 14:45:36.045365,-0.011539459228515587
2023-01-28 14:45:36.050365,-0.009413298530079356
2023-01-28 14:45:36.055365,-0.006923675537109278
2023-01-28 14:45:36.060365,-0.00401132165046306
2023-01-28 14:45:36.065365,-0.0010097026824950888
2023-01-28 14:45:36.070365,0.0019258578279857468
2023-01-28 14:45:36.075365,0.005048513412475529
2023-01-28 14:45:36.080365,0.008626220353211044
2023-01-28 14:45:36.085365,0.012741486541926809
2023-01-28 14:45:36.090365,0.0175138202450599
2023-01-28 14:45:36.095365,0.023054879158735202
2023-01-28 14:45:36.100365,0.029101905071046454
2023-01-28 14:45:36.105365,0.035123229026794364
2023-01-28 14:45:36.110365,0.04092936734754814
2023-01-28 14:45:36.115365,0.04685501381754866
2023-01-28 14:45:36.120365,0.053295425347851214
2023-01-28 14:45:36.125365,0.06043791770935053
2023-01-28 14:45:36.130365,0.06847501542521049
2023-01-28 14:45:36.135365,0.07762690633535381
2023-01-28 14:45:36.140365,0.08781375751531859
2023-01-28 14:45:36.145365,0.09866237640380845
2023-01-28 14:45:36.150365,0.1099363783387138
2023-01-28 14:45:36.155365,0.12162109464406959
2023-01-28 14:45:36.160365,0.13352290522994353
2023-01-28 14:45:36.165365,0.14515678584575648
2023-01-28 14:45:36.170365,0.1561151106123782
2023-01-28 14:45:36.175365,0.16619226336479176
2023-01-28 14:45:36.180365,0.1750623372215226
2023-01-28 14:45:36.185365,0.18217921257019035
2023-01-28 14:45:36.190365,0.18706760637639835
2023-01-28 14:45:36.195365,0.1893673390150069
2023-01-28 14:45:36.200365,0.18853369826181
2023-01-28 14:45:36.205365,0.18388609588146193
2023-01-28 14:45:36.210365,0.17510116631615355
2023-01-28 14:45:36.215365,0.1623938530683517
2023-01-28 14:45:36.220365,0.1461884520160973
2023-01-28 14:45:36.225365,0.12695810198783863
2023-01-28 14:45:36.230365,0.10543598786862529
2023-01-28 14:45:36.235365,0.08260329812765112
2023-01-28 14:45:36.240365,0.05934116570331856
2023-01-28 14:45:36.245365,0.03637333959341039
2023-01-28 14:45:36.250365,0.014580407696999097
2023-01-28 14:45:36.255365,-0.005000432487577096
2023-01-28 14:45:36.260365,-0.02161987162808092
2023-01-28 14:45:36.265365,-0.03502706810832021
2023-01-28 14:45:36.270365,-0.04526160818380488
2023-01-28 14:45:36.275365,-0.05260070413351046
2023-01-28 14:45:36.280365,-0.057748709109240466
2023-01-28 14:45:36.285365,-0.06166398525238034
2023-01-28 14:45:36.290365,-0.06499286153778087
2023-01-28 14:45:36.295365,-0.06784240901470179
2023-01-28 14:45:36.300365,-0.07007658028321878
2023-01-28 14:45:36.305365,-0.07152061164379109
2023-01-28 14:45:36.310365,-0.07189775725487661
2023-01-28 14:45:36.315365,-0.07099171727895733
2023-01-28 14:45:36.320365,-0.06901945605739768
2023-01-28 14:45:36.325365,-0.06656825542449947
2023-01-28 14:45:36.330365,-0.064078711951044
2023-01-28 14:45:36.335365,-0.061615906655788366
2023-01-28 14:45:36.340365,-0.05911660884099971
2023-01-28 14:45:36.345365,-0.05651931092143047
2023-01-28 14:45:36.350365,-0.0536342131201415
2023-01-28 14:45:36.355365,-0.050268769264221115
2023-01-28 14:45:36.360365,-0.04660984040222619
2023-01-28 14:45:36.365365,-0.043224893510341596
2023-01-28 14:45:36.370365,-0.0406301361628844
2023-01-28 14:45:36.375365,-0.039089918136596624
2023-01-28 14:45:36.380365,-0.03878461722172664
2023-01-28 14:45:36.385365,-0.03978709504008293
2023-01-28 14:45:36.390365,-0.04178610190078649
2023-01-28 14:45:36.395365,-0.04413843154907217
2023-01-28 14:45:36.400365,-0.04629256642857536
2023-01-28 14:45:36.405365,-0.047960877418518025
2023-01-28 14:45:36.410365,-0.04893242908044912
2023-01-28 14:45:36.415365,-0.04906674474477758
2023-01-28 14:45:36.420365,-0.04851986537134396
2023-01-28 14:45:36.425365,-0.047672390937805106
2023-01-28 14:45:36.430365,-0.04676981579825489
2023-01-28 14:45:36.435365,-0.04586935043334957
2023-01-28 14:45:36.440365,-0.04512275491274118
2023-01-28 14:45:36.445365,-0.044811569154262446
2023-01-28 14:45:36.450365,-0.045071569734435976
2023-01-28 14:45:36.455365,-0.04582127183675754
2023-01-28 14:45:36.460365,-0.04693096267710954
2023-01-28 14:45:36.465365,-0.048201285302638994
2023-01-28 14:45:36.470365,-0.04924155490352001
2023-01-28 14:45:36.475365,-0.04969179630279539
2023-01-28 14:45:36.480365,-0.049562459715211254
2023-01-28 14:45:36.485365,-0.04911482334136956
2023-01-28 14:45:36.490365,-0.048509096916997396
2023-01-28 14:45:36.495365,-0.04786471650004383
2023-01-28 14:45:36.500365,-0.04750456219043315
2023-01-28 14:45:36.505365,-0.04769643396139137
2023-01-28 14:45:36.510365,-0.04818136124719403
2023-01-28 14:45:36.515365,-0.048345528542995404
2023-01-28 14:45:36.520365,-0.04784052636401808
2023-01-28 14:45:36.525365,-0.04668673127889629
2023-01-28 14:45:36.530365,-0.04484929606251476
2023-01-28 14:45:36.535365,-0.04214306920766828
2023-01-28 14:45:36.540365,-0.03852460661576798
2023-01-28 14:45:36.545365,-0.03404140472412095
2023-01-28 14:45:36.550365,-0.02850872515222458
2023-01-28 14:45:36.555365,-0.021732648834586057
2023-01-28 14:45:36.560365,-0.014192762272796632
2023-01-28 14:45:36.565365,-0.007188121788203635
2023-01-28 14:45:36.570365,-0.0022567456322857117
2023-01-28 14:45:36.575365,-0.0006731351604685187
2023-01-28 14:45:36.580365,-0.003262924999480106
2023-01-28 14:45:36.585365,-0.01002490520477288
2023-01-28 14:45:36.590365,-0.01972037070262893
2023-01-28 14:45:36.595365,-0.030243000015616372
2023-01-28 14:45:36.600365,-0.03965293357933714
2023-01-28 14:45:36.605365,-0.04680693149566646
2023-01-28 14:45:36.610365,-0.05127622056158789
2023-01-28 14:45:36.615365,-0.053249798715114476
2023-01-28 14:45:36.620365,-0.05358816204028137
2023-01-28 14:45:36.625365,-0.053442120552062856
2023-01-28 14:45:36.630365,-0.05354248635872845
2023-01-28 14:45:36.635365,-0.05401909351348864
2023-01-28 14:45:36.640365,-0.05478032455846114
2023-01-28 14:45:36.645365,-0.05555769056081768
2023-01-28 14:45:36.650365,-0.05547271183596569
2023-01-28 14:45:36.655365,-0.05298535153269758
2023-01-28 14:45:36.660365,-0.04645712262823256
2023-01-28 14:45:36.665365,-0.03459433838725088
2023-01-28 14:45:36.670365,-0.016565948827738465
2023-01-28 14:45:36.675365,0.0075968108139932156
2023-01-28 14:45:36.680365,0.03636490770882126
2023-01-28 14:45:36.685365,0.0667365416884422
2023-01-28 14:45:36.690365,0.09507935554350372
2023-01-28 14:45:36.695365,0.11789481341838828
2023-01-28 14:45:36.700365,0.13213748759127975
2023-01-28 14:45:36.705365,0.13568481802940358
2023-01-28 14:45:36.710365,0.12808323234477526
2023-01-28 14:45:36.715365,0.11082689464092246
2023-01-28 14:45:36.720365,0.08691692122711982
2023-01-28 14:45:36.725365,0.06029367446899409
2023-01-28 14:45:36.730365,0.03528973812941343
2023-01-28 14:45:36.735365,0.015602311119437204
2023-01-28 14:45:36.740365,0.003023757429500662
2023-01-28 14:45:36.745365,-0.0029569864273070673
2023-01-28 14:45:36.750365,-0.004346312269023609
2023-01-28 14:45:36.755365,-0.0035339593887328638
2023-01-28 14:45:36.760365,-0.002535893597575737
2023-01-28 14:45:36.765365,-0.002404054161161071
2023-01-28 14:45:36.770365,-0.0028740566453442627
2023-01-28 14:45:36.775365,-0.0028127431869506194
2023-01-28 14:45:36.780365,-0.0012640988237070942
2023-01-28 14:45:36.785365,0.0019713244400918198
2023-01-28 14:45:36.790365,0.006585218256374115
2023-01-28 14:45:36.795365,0.0120923919603228
2023-01-28 14:45:36.800365,0.017838911115546086
2023-01-28 14:45:36.805365,0.023151040077209424
2023-01-28 14:45:36.810365,0.02774253996710927
2023-01-28 14:45:36.815365,0.03178159520030022
2023-01-28 14:45:36.820365,0.03551631426205558
2023-01-28 14:45:36.825365,0.039138000458478914
2023-01-28 14:45:36.830365,0.0430506789365497
2023-01-28 14:45:36.835365,0.04788875579833979
2023-01-28 14:45:36.840365,0.05409381010807637
2023-01-28 14:45:36.845365,0.06168802827596662
2023-01-28 14:45:36.850365,0.07046984429587248
2023-01-28 14:45:36.855365,0.0801030844449996
2023-01-28 14:45:36.860365,0.08999022770777372
2023-01-28 14:45:36.865365,0.09947975724935533
2023-01-28 14:45:36.870365,0.1083950054772644
2023-01-28 14:45:36.875365,0.11712551116943348
2023-01-28 14:45:36.880365,0.1261233688143478
2023-01-28 14:45:36.885365,0.13554057478904719
2023-01-28 14:45:36.890365,0.14530666805041298
2023-01-28 14:45:36.895365,0.15513360500335688
2023-01-28 14:45:36.900365,0.16432252496506813
2023-01-28 14:45:36.905365,0.17191390693187714
2023-01-28 14:45:36.910365,0.17718290481117646
2023-01-28 14:45:36.915365,0.17975112795829765
2023-01-28 14:45:36.920365,0.17919303796108318
2023-01-28 14:45:36.925365,0.17489492893218986
2023-01-28 14:45:36.930365,0.16642971425506906
2023-01-28 14:45:36.935365,0.15381138026714314
2023-01-28 14:45:36.940365,0.13735670269753034
2023-01-28 14:45:36.945365,0.11765440553426738
2023-01-28 14:45:36.950365,0.09575503403739744
2023-01-28 14:45:36.955365,0.07301112264394755
2023-01-28 14:45:36.960365,0.05052401017252894
2023-01-28 14:45:36.965365,0.028944810852408364
2023-01-28 14:45:36.970365,0.008846979021260496
2023-01-28 14:45:36.975365,-0.009039243683218913
2023-01-28 14:45:36.980365,-0.024084328663096774
2023-01-28 14:45:36.985365,-0.03598868846893313
2023-01-28 14:45:36.990365,-0.044694802984692396
2023-01-28 14:45:36.995365,-0.05038897320628159
2023-01-28 14:45:37.000365,-0.05370008473435315
2023-01-28 14:45:37.005365,-0.05558172985911362
2023-01-28 14:45:37.010365,-0.05679568752465974
2023-01-28 14:45:37.015365,-0.05764921754598608
2023-01-28 14:45:37.020365,-0.05825530327629238
2023-01-28 14:45:37.025365,-0.05877912044525141
2023-01-28 14:45:37.030365,-0.05933641171066034
2023-01-28 14:45:37.035365,-0.059884987771511
2023-01-28 14:45:37.040365,-0.060329080614486406
2023-01-28 14:45:37.045365,-0.06058216094970703
2023-01-28 14:45:37.050365,-0.060506558139952524
2023-01-28 14:45:37.055365,-0.0599571093916893
2023-01-28 14:45:37.060365,-0.05886491210063055
2023-01-28 14:45:37.065365,-0.057120323181152274
2023-01-28 14:45:37.070365,-0.05449638553532234
2023-01-28 14:45:37.075365,-0.05096594616770739
2023-01-28 14:45:37.080365,-0.047018251735649164
2023-01-28 14:45:37.085365,-0.043369136750698034
2023-01-28 14:45:37.090365,-0.04041203380222876
2023-01-28 14:45:37.095365,-0.038200419396161985
2023-01-28 14:45:37.100365,-0.03679008163580684
2023-01-28 14:45:37.105365,-0.036181014031171695
2023-01-28 14:45:37.110365,-0.03601630104804651
2023-01-28 14:45:37.115365,-0.03582040593028061
2023-01-28 14:45:37.120365,-0.03557916970278388
2023-01-28 14:45:37.125365,-0.03570020198822019
2023-01-28 14:45:37.130365,-0.03637794806447404
2023-01-28 14:45:37.135365,-0.037358999252319294
2023-01-28 14:45:37.140365,-0.03830918095309719
2023-01-28 14:45:37.145365,-0.03899375721812242
2023-01-28 14:45:37.150365,-0.039105895168169695
2023-01-28 14:45:37.155365,-0.038416784256696715
2023-01-28 14:45:37.160365,-0.03723071967504517
2023-01-28 14:45:37.165365,-0.036301217973232214
2023-01-28 14:45:37.170365,-0.03615868844498044
2023-01-28 14:45:37.175365,-0.036806069314479835
2023-01-28 14:45:37.180365,-0.038067162493108216
2023-01-28 14:45:37.185365,-0.039811134338378906
2023-01-28 14:45:37.190365,-0.04176433250407893
2023-01-28 14:45:37.195365,-0.04353741928935051
2023-01-28 14:45:37.200365,-0.04499722817336
2023-01-28 14:45:37.205365,-0.0462780408561229
2023-01-28 14:45:37.210365,-0.04732493995933782
2023-01-28 14:45:37.215365,-0.04776855558156963
2023-01-28 14:45:37.220365,-0.047345254603329376
2023-01-28 14:45:37.225365,-0.04610975831747055
2023-01-28 14:45:37.230365,-0.044179734822292316
2023-01-28 14:45:37.235365,-0.04166225716471668
2023-01-28 14:45:37.240365,-0.03892527195718153
2023-01-28 14:45:37.245365,-0.036517582833766875
2023-01-28 14:45:37.250365,-0.03460821940744143
2023-01-28 14:45:37.255365,-0.03276725858449932
2023-01-28 14:45:37.260365,-0.030388139386588478
2023-01-28 14:45:37.265365,-0.027045607566833395
2023-01-28 14:45:37.270365,-0.02247443026418784
2023-01-28 14:45:37.275365,-0.016732215881347597
2023-01-28 14:45:37.280365,-0.010644552822046275
2023-01-28 14:45:37.285365,-0.005745689384639239
2023-01-28 14:45:37.290365,-0.0034833294888817665
2023-01-28 14:45:37.295365,-0.004543662071228056
2023-01-28 14:45:37.300365,-0.00882376552299743
2023-01-28 14:45:37.305365,-0.015578269958496
2023-01-28 14:45:37.310365,-0.023464175420678662
2023-01-28 14:45:37.315365,-0.03094017505645751
2023-01-28 14:45:37.320365,-0.0370349989275768
2023-01-28 14:45:37.325365,-0.04166225716471671
2023-01-28 14:45:37.330365,-0.04517835514796157
2023-01-28 14:45:37.335365,-0.047936838120222
2023-01-28 14:45:37.340365,-0.050307757593034436
2023-01-28 14:45:37.345365,-0.05267282575368882
2023-01-28 14:45:37.350365,-0.05511149527936576
2023-01-28 14:45:37.355365,-0.05728860944509499
2023-01-28 14:45:37.360365,-0.058736538016959265
2023-01-28 14:45:37.365365,-0.05892336368560788
2023-01-28 14:45:37.370365,-0.05690213560555374
2023-01-28 14:45:37.375365,-0.05125443264842028
2023-01-28 14:45:37.380365,-0.04069087554697211
2023-01-28 14:45:37.385365,-0.024665594100952128
2023-01-28 14:45:37.390365,-0.003518889416606913
2023-01-28 14:45:37.395365,0.02149224281311029
2023-01-28 14:45:37.400365,0.048084809918652466
2023-01-28 14:45:37.405365,0.07327556610107416
2023-01-28 14:45:37.410365,0.09426557285170892
2023-01-28 14:45:37.415365,0.10909597575664516
2023-01-28 14:45:37.420365,0.11659975203607954
2023-01-28 14:45:37.425365,0.11621197313070288
2023-01-28 14:45:37.430365,0.10814188757681711
2023-01-28 14:45:37.435365,0.0935417413711547
2023-01-28 14:45:37.440365,0.07431337377964395
2023-01-28 14:45:37.445365,0.052865147590637214
2023-01-28 14:45:37.450365,0.03198555034989565
2023-01-28 14:45:37.455365,0.01437624357640739
2023-01-28 14:45:37.460365,0.0017552846859055292
2023-01-28 14:45:37.465365,-0.005673567764461
2023-01-28 14:45:37.470365,-0.00885236752761964
2023-01-28 14:45:37.475365,-0.00913540553301567
2023-01-28 14:45:37.480365,-0.007842163453664777
2023-01-28 14:45:37.485365,-0.005986094474792376
2023-01-28 14:45:37.490365,-0.0039761191508516916
2023-01-28 14:45:37.495365,-0.0016347568016498806
2023-01-28 14:45:37.500365,0.0013059257757854065
2023-01-28 14:45:37.505365,0.004808108322322311
2023-01-28 14:45:37.510365,0.008664751944321253
2023-01-28 14:45:37.515365,0.012741486541926817
2023-01-28 14:45:37.520365,0.01686346383809664
2023-01-28 14:45:37.525365,0.020674865692853876
2023-01-28 14:45:37.530365,0.023890347144857296
2023-01-28 14:45:37.535365,0.026612877845764094
2023-01-28 14:45:37.540365,0.029244599540524385
2023-01-28 14:45:37.545365,0.03221432492136952
2023-01-28 14:45:37.550365,0.03595079274132503
2023-01-28 14:45:37.555365,0.04091700166463845
2023-01-28 14:45:37.560365,0.04733934537816713
2023-01-28 14:45:37.565365,0.054908595979213715
2023-01-28 14:45:37.570365,0.06297468136603557
2023-01-28 14:45:37.575365,0.0710638388991355
2023-01-28 14:45:37.580365,0.07908570084628491
2023-01-28 14:45:37.585365,0.0871469601988792
2023-01-28 14:45:37.590365,0.09545796681069987
2023-01-28 14:45:37.595365,0.10443210601806638
2023-01-28 14:45:37.600365,0.1145016427061131
2023-01-28 14:45:37.605365,0.12556374073028553
2023-01-28 14:45:37.610365,0.13676423980732605
2023-01-28 14:45:37.615365,0.14705598354339583
2023-01-28 14:45:37.620365,0.1558240705826566
2023-01-28 14:45:37.625365,0.16270637512207028
2023-01-28 14:45:37.630365,0.16705669896513256
2023-01-28 14:45:37.635365,0.168211668729782
2023-01-28 14:45:37.640365,0.16635822897960223
2023-01-28 14:45:37.645365,0.16239385306835163
2023-01-28 14:45:37.650365,0.15641650274863028
2023-01-28 14:45:37.655365,0.1468877047300337
2023-01-28 14:45:37.660365,0.1320620729742952
2023-01-28 14:45:37.665365,0.11207699775695797
2023-01-28 14:45:37.670365,0.08899046338175187
2023-01-28 14:45:37.675365,0.06498157978057856
2023-01-28 14:45:37.680365,0.04136916576996842
2023-01-28 14:45:37.685365,0.01930455490946762
2023-01-28 14:45:37.690365,0.00020152998246520326
2023-01-28 14:45:37.695365,-0.015169581398367805
2023-01-28 14:45:37.700365,-0.0273304211380398
2023-01-28 14:45:37.705365,-0.037238799035549094
2023-01-28 14:45:37.710365,-0.04525927470651648
2023-01-28 14:45:37.715365,-0.0514227151870727
2023-01-28 14:45:37.720365,-0.05608915491190331
2023-01-28 14:45:37.725365,-0.05966862291097639
2023-01-28 14:45:37.730365,-0.06208311406841691
2023-01-28 14:45:37.735365,-0.06317853927612299
2023-01-28 14:45:37.740365,-0.0634081080726779
2023-01-28 14:45:37.745365,-0.0635151118040084
2023-01-28 14:45:37.750365,-0.06376798023213504
2023-01-28 14:45:37.755365,-0.06404399871826169
2023-01-28 14:45:37.760365,-0.06438770713777416
2023-01-28 14:45:37.765365,-0.06486137956380837
2023-01-28 14:45:37.770365,-0.06503449691546609
2023-01-28 14:45:37.775365,-0.06426036357879629
2023-01-28 14:45:37.780365,-0.06240250756212847
2023-01-28 14:45:37.785365,-0.05981286615133276
2023-01-28 14:45:37.790365,-0.05676944193115626
2023-01-28 14:45:37.795365,-0.05349020287394516
2023-01-28 14:45:37.800365,-0.05054538859164406
2023-01-28 14:45:37.805365,-0.04860997200012195
2023-01-28 14:45:37.810365,-0.04777161000234429
2023-01-28 14:45:37.815365,-0.047528147697448654
2023-01-28 14:45:37.820365,-0.04738632498157993
2023-01-28 14:45:37.825365,-0.04699925705790505
2023-01-28 14:45:37.830365,-0.04587378691496387
2023-01-28 14:45:37.835365,-0.043585501611232674
2023-01-28 14:45:37.840365,-0.040363502476258334
2023-01-28 14:45:37.845365,-0.03702243417501437
2023-01-28 14:45:37.850365,-0.034308036530328954
2023-01-28 14:45:37.855365,-0.032671093940734766
2023-01-28 14:45:37.860365,-0.0325018483686391
2023-01-28 14:45:37.865365,-0.033969283103942774
2023-01-28 14:45:37.870365,-0.036571656741985224
2023-01-28 14:45:37.875365,-0.03933032602071759
2023-01-28 14:45:37.880365,-0.04152060697091095
2023-01-28 14:45:37.885365,-0.04291236400604233
2023-01-28 14:45:37.890365,-0.04345023951207247
2023-01-28 14:45:37.895365,-0.04322489351034156
2023-01-28 14:45:37.900365,-0.042725583667023746
2023-01-28 14:45:37.905365,-0.042575798928737536
2023-01-28 14:45:37.910365,-0.042916250663947685
2023-01-28 14:45:37.915365,-0.04341721534728994
2023-01-28 14:45:37.920365,-0.04387376656868269
2023-01-28 14:45:37.925365,-0.04437883943319311
2023-01-28 14:45:37.930365,-0.044969506259739944
2023-01-28 14:45:37.935365,-0.0455808639526367
2023-01-28 14:45:37.940365,-0.046337948247455234
2023-01-28 14:45:37.945365,-0.04740794748067844
2023-01-28 14:45:37.950365,-0.048518063235447176
2023-01-28 14:45:37.955365,-0.049042701721191385
2023-01-28 14:45:37.960365,-0.04859164354830909
2023-01-28 14:45:37.965365,-0.0471194609999656
2023-01-28 14:45:37.970365,-0.04449764525912793
2023-01-28 14:45:37.975365,-0.04046022891998291
2023-01-28 14:45:37.980365,-0.03502509111771733
2023-01-28 14:45:37.985365,-0.0285842027515172
2023-01-28 14:45:37.990365,-0.021620795835426528
2023-01-28 14:45:37.995365,-0.014808973297476675
2023-01-28 14:45:38.000365,-0.00938375405240316
2023-01-28 14:45:38.005365,-0.006851553916931105
2023-01-28 14:45:38.010365,-0.008089118641512088
2023-01-28 14:45:38.015365,-0.01290977001190179
2023-01-28 14:45:38.020365,-0.02037752841099766
2023-01-28 14:45:38.025365,-0.029113095253705916
2023-01-28 14:45:38.030365,-0.03742151403776682
2023-01-28 14:45:38.035365,-0.04382590577006335
2023-01-28 14:45:38.040365,-0.0478243375382949
2023-01-28 14:45:38.045365,-0.04993220418691626
2023-01-28 14:45:38.050365,-0.0509997546824586
2023-01-28 14:45:38.055365,-0.051783323287963826
2023-01-28 14:45:38.060365,-0.053009386590087804
2023-01-28 14:45:38.065365,-0.05522112175822248
2023-01-28 14:45:38.070365,-0.0583244141045897
2023-01-28 14:45:38.075365,-0.061543785035610095
2023-01-28 14:45:38.080365,-0.06379743258837231
2023-01-28 14:45:38.085365,-0.06375551223754877
2023-01-28 14:45:38.090365,-0.059654955981183984
2023-01-28 14:45:38.095365,-0.04973987862467758
2023-01-28 14:45:38.100365,-0.03328582208424876
2023-01-28 14:45:38.105365,-0.011130770668387331
2023-01-28 14:45:38.110365,0.014667547453262889
2023-01-28 14:45:38.115365,0.041373770684003774
2023-01-28 14:45:38.120365,0.06602896044297027
2023-01-28 14:45:38.125365,0.08616130053997025
2023-01-28 14:45:38.130365,0.10045566483530821
2023-01-28 14:45:38.135365,0.10854303836822496
2023-01-28 14:45:38.140365,0.11012160027372285
2023-01-28 14:45:38.145365,0.10464847087860098
2023-01-28 14:45:38.150365,0.09200181889451778
2023-01-28 14:45:38.155365,0.07320344448089583
2023-01-28 14:45:38.160365,0.050526104081666134
2023-01-28 14:45:38.165365,0.027189850807189903
2023-01-28 14:45:38.170365,0.006745034324019718
2023-01-28 14:45:38.175365,-0.00805358123034229
2023-01-28 14:45:38.180365,-0.016368255639651663
2023-01-28 14:45:38.185365,-0.01935263536870471
2023-01-28 14:45:38.190365,-0.01909103816397218
2023-01-28 14:45:38.195365,-0.017453432083129817
2023-01-28 14:45:38.200365,-0.015600122067151062
2023-01-28 14:45:38.205365,-0.013943513855338001
2023-01-28 14:45:38.210365,-0.01229364521757237
2023-01-28 14:45:38.215365,-0.010217229835688983
2023-01-28 14:45:38.220365,-0.007447998284231715
2023-01-28 14:45:38.225365,-0.004038810729980392
2023-01-28 14:45:38.230365,-0.0002972133035998373
2023-01-28 14:45:38.235365,0.003341635223478003
2023-01-28 14:45:38.240365,0.006617833314656238
2023-01-28 14:45:38.245365,0.009784500114619708
2023-01-28 14:45:38.250365,0.01337900764124375
2023-01-28 14:45:38.255365,0.01747747324407097
2023-01-28 14:45:38.260365,0.02151922083921955
2023-01-28 14:45:38.265365,0.025122364982962574
2023-01-28 14:45:38.270365,0.02867664099616197
2023-01-28 14:45:38.275365,0.032791297882795306
2023-01-28 14:45:38.280365,0.03759974775149798
2023-01-28 14:45:38.285365,0.04308065026998508
2023-01-28 14:45:38.290365,0.04963658189986538
2023-01-28 14:45:38.295365,0.05772133916616428
2023-01-28 14:45:38.300365,0.06715004484353981
2023-01-28 14:45:38.305365,0.07736246287822718
2023-01-28 14:45:38.310365,0.08813966210199335
2023-01-28 14:45:38.315365,0.09947975724935522
2023-01-28 14:45:38.320365,0.11099025434087885
2023-01-28 14:45:38.325365,0.12202978134155268
2023-01-28 14:45:38.330365,0.13229541022998534
2023-01-28 14:45:38.335365,0.14167091250419606
2023-01-28 14:45:38.340365,0.14963612568944495
2023-01-28 14:45:38.345365,0.15542209148406977
2023-01-28 14:45:38.350365,0.15862732147878425
2023-01-28 14:45:38.355365,0.15910029411315907
2023-01-28 14:45:38.360365,0.1563500400071021
2023-01-28 14:45:38.365365,0.14970044791698445
2023-01-28 14:45:38.370365,0.13898106430908244
2023-01-28 14:45:38.375365,0.12455403804779044
2023-01-28 14:45:38.380365,0.10682876056308495
2023-01-28 14:45:38.385365,0.08637766540050497
2023-01-28 14:45:38.390365,0.0644304411558785
2023-01-28 14:45:38.395365,0.04259983822703357
2023-01-28 14:45:38.400365,0.02208237495800636
2023-01-28 14:45:38.405365,0.003558000084012665
2023-01-28 14:45:38.410365,-0.012353112641068047
2023-01-28 14:45:38.415365,-0.025218527764081893
2023-01-28 14:45:38.420365,-0.03531855952199735
2023-01-28 14:45:38.425365,-0.04341721534728999
2023-01-28 14:45:38.430365,-0.05000188227507188
2023-01-28 14:45:38.435365,-0.05522112175822248
2023-01-28 14:45:38.440365,-0.05938868222054888
2023-01-28 14:45:38.445365,-0.0628900527954101
2023-01-28 14:45:38.450365,-0.06564737284547552
2023-01-28 14:45:38.455365,-0.06728947162628168
2023-01-28 14:45:38.460365,-0.06782307047484251
2023-01-28 14:45:38.465365,-0.06760200113058087
2023-01-28 14:45:38.470365,-0.06675777057092822
2023-01-28 14:45:38.475365,-0.06527006626129148
2023-01-28 14:45:38.480365,-0.06349535119552398
2023-01-28 14:45:38.485365,-0.06197651475667949
2023-01-28 14:45:38.490365,-0.060760669474151006
2023-01-28 14:45:38.495365,-0.059476297348737696
2023-01-28 14:45:38.500365,-0.05799720460427906
2023-01-28 14:45:38.505365,-0.05644718930125225
2023-01-28 14:45:38.510365,-0.054678969632776
2023-01-28 14:45:38.515365,-0.05240837857127178
2023-01-28 14:45:38.520365,-0.04981014721413649
2023-01-28 14:45:38.525365,-0.04738390445709221
2023-01-28 14:45:38.530365,-0.04532943000748425
2023-01-28 14:45:38.535365,-0.04365762323141086
2023-01-28 14:45:38.540365,-0.04276399504497686
2023-01-28 14:45:38.545365,-0.043176811188459265
2023-01-28 14:45:38.550365,-0.04475998351309902
2023-01-28 14:45:38.555365,-0.04675885289907446
2023-01-28 14:45:38.560365,-0.04853905747972125
2023-01-28 14:45:38.565365,-0.04971583932638155
2023-01-28 14:45:38.570365,-0.04980777000364795
2023-01-28 14:45:38.575365,-0.04856189340353002
2023-01-28 14:45:38.580365,-0.046567285142462084
2023-01-28 14:45:38.585365,-0.044835608452558476
2023-01-28 14:45:38.590365,-0.04378311534695493
2023-01-28 14:45:38.595365,-0.043176811188459244
2023-01-28 14:45:38.600365,-0.042862781881034255
2023-01-28 14:45:38.605365,-0.04284024238586418
2023-01-28 14:45:38.610365,-0.04282804414053632
2023-01-28 14:45:38.615365,-0.04257579892873757
2023-01-28 14:45:38.620365,-0.04251830528686367
2023-01-28 14:45:38.625365,-0.04336913675069799
2023-01-28 14:45:38.630365,-0.04513244762388594
2023-01-28 14:45:38.635365,-0.04716753959655752
2023-01-28 14:45:38.640365,-0.049023371591120773
2023-01-28 14:45:38.645365,-0.05048513412475579
2023-01-28 14:45:38.650365,-0.05108771330372314
2023-01-28 14:45:38.655365,-0.05050917714834204
2023-01-28 14:45:38.660365,-0.0493417019449897
2023-01-28 14:45:38.665365,-0.04863401502370835
2023-01-28 14:45:38.670365,-0.048736607301619474
2023-01-28 14:45:38.675365,-0.049259066581726
2023-01-28 14:45:38.680365,-0.04981582602380062
2023-01-28 14:45:38.685365,-0.04990816116332996
2023-01-28 14:45:38.690365,-0.048385265887573914
2023-01-28 14:45:38.695365,-0.044114392250776194
2023-01-28 14:45:38.700365,-0.03717194698785133
2023-01-28 14:45:38.705365,-0.028632283210754308
2023-01-28 14:45:38.710365,-0.01953597258345155
2023-01-28 14:45:38.715365,-0.010986527428030898
2023-01-28 14:45:38.720365,-0.00477101686605475
2023-01-28 14:45:38.725365,-0.0025723378639667988
2023-01-28 14:45:38.730365,-0.004620895940626442
2023-01-28 14:45:38.735365,-0.010024905204772956
2023-01-28 14:45:38.740365,-0.017990679618221816
2023-01-28 14:45:38.745365,-0.02759854122996328
2023-01-28 14:45:38.750365,-0.03697339821371236
2023-01-28 14:45:38.755365,-0.04423459619283667
2023-01-28 14:45:38.760365,-0.049074169396791184
2023-01-28 14:45:38.765365,-0.052143931388854876
2023-01-28 14:45:38.770365,-0.053433821762619696
2023-01-28 14:45:38.775365,-0.052817068994045216
2023-01-28 14:45:38.780365,-0.051553459322090434
2023-01-28 14:45:38.785365,-0.05125443264842032
2023-01-28 14:45:38.790365,-0.05174058428989136
2023-01-28 14:45:38.795365,-0.05192756652832026
2023-01-28 14:45:38.800365,-0.05215477127396398
2023-01-28 14:45:38.805365,-0.05286514759063718
2023-01-28 14:45:38.810365,-0.05129064006151941
2023-01-28 14:45:38.815365,-0.042936407029628636
2023-01-28 14:45:38.820365,-0.02709204029058671
2023-01-28 14:45:38.825365,-0.0075968108139931895
2023-01-28 14:45:38.830365,0.012961985950111776
2023-01-28 14:45:38.835365,0.03620505332946767
2023-01-28 14:45:38.840365,0.06298546902471402
2023-01-28 14:45:38.845365,0.08875767886638637
2023-01-28 14:45:38.850365,0.10722183309924363
2023-01-28 14:45:38.855365,0.11666874587535844
2023-01-28 14:45:38.860365,0.11957753684356028
2023-01-28 14:45:38.865365,0.11734187602996822
2023-01-28 14:45:38.870365,0.10874760328553874
2023-01-28 14:45:38.875365,0.0931570976972579
2023-01-28 14:45:38.880365,0.07220122035744023
2023-01-28 14:45:38.885365,0.04827340692281718
2023-01-28 14:45:38.890365,0.023841030194170432
2023-01-28 14:45:38.895365,0.002428094623610292
2023-01-28 14:45:38.900365,-0.012150027096140633
2023-01-28 14:45:38.905365,-0.018487175926566114
2023-01-28 14:45:38.910365,-0.018331351357491938
2023-01-28 14:45:38.915365,-0.014448365196585588
2023-01-28 14:45:38.920365,-0.008954255809250241
2023-01-28 14:45:38.925365,-0.0035580000840126948
2023-01-28 14:45:38.930365,0.00040618589835947697
2023-01-28 14:45:38.935365,0.00286082434467968
2023-01-28 14:45:38.940365,0.004826465023682322
2023-01-28 14:45:38.945365,0.006971756927668935
2023-01-28 14:45:38.950365,0.009110156632865818
2023-01-28 14:45:38.955365,0.011130770668387331
2023-01-28 14:45:38.960365,0.01335421455504194
2023-01-28 14:45:38.965365,0.015794634819030685
2023-01-28 14:45:38.970365,0.018054986526886727
2023-01-28 14:45:38.975365,0.02019405364990227
2023-01-28 14:45:38.980365,0.022882448982055353
2023-01-28 14:45:38.985365,0.02654075622558591
2023-01-28 14:45:38.990365,0.031066063509385816
2023-01-28 14:45:38.995365,0.036469500511884585
2023-01-28 14:45:39.000365,0.04299456635044775
2023-01-28 14:45:39.005365,0.05050917714834209
2023-01-28 14:45:39.010365,0.058527577341672986
2023-01-28 14:45:39.015365,0.0669529065489768
2023-01-28 14:45:39.020365,0.07615253287495392
2023-01-28 14:45:39.025365,0.08625745773315414
2023-01-28 14:45:39.030365,0.09702049228655989
2023-01-28 14:45:39.035365,0.10835071653127666
2023-01-28 14:45:39.040365,0.1203014061491413
2023-01-28 14:45:39.045365,0.13248741626739494
2023-01-28 14:45:39.050365,0.14414095412069708
2023-01-28 14:45:39.055365,0.1547729969024657
2023-01-28 14:45:39.060365,0.16420266451481005
2023-01-28 14:45:39.065365,0.17196199297904952
2023-01-28 14:45:39.070365,0.17728036226048152
2023-01-28 14:45:39.075365,0.17965495586395253
2023-01-28 14:45:39.080365,0.17886883774624793
2023-01-28 14:45:39.085365,0.17448624968528725
2023-01-28 14:45:39.090365,0.1659370979708946
2023-01-28 14:45:39.095365,0.15313825011253346
2023-01-28 14:45:39.100365,0.13655423181155593
2023-01-28 14:45:39.105365,0.1167408674955368
2023-01-28 14:45:39.110365,0.09439714999735978
2023-01-28 14:45:39.115365,0.07079939544200888
2023-01-28 14:45:39.120365,0.04756093799580992
2023-01-28 14:45:39.125365,0.02586762234568586
2023-01-28 14:45:39.130365,0.0063218383944512666
2023-01-28 14:45:39.135365,-0.01062591932713984
2023-01-28 14:45:39.140365,-0.024665108720874376
2023-01-28 14:45:39.145365,-0.03598868846893311
2023-01-28 14:45:39.150365,-0.045122344128832564
2023-01-28 14:45:39.155365,-0.0523843392729759
2023-01-28 14:45:39.160365,-0.05793664581412289
2023-01-28 14:45:39.165365,-0.062240958213806125
2023-01-28 14:45:39.170365,-0.06591127804046175
2023-01-28 14:45:39.175365,-0.06911655515432347
2023-01-28 14:45:39.180365,-0.07156469847650482
2023-01-28 14:45:39.185365,-0.07301112264394755
2023-01-28 14:45:39.190365,-0.07336594373742165
2023-01-28 14:45:39.195365,-0.07245819270610798
2023-01-28 14:45:39.200365,-0.07024952348625796
2023-01-28 14:45:39.205365,-0.06726543605327599
2023-01-28 14:45:39.210365,-0.06435419447183348
2023-01-28 14:45:39.215365,-0.06202459335327133
2023-01-28 14:45:39.220365,-0.06036299313955776
2023-01-28 14:45:39.225365,-0.05942821502685538
2023-01-28 14:45:39.230365,-0.059237167092720026
2023-01-28 14:45:39.235365,-0.05945225805044169
2023-01-28 14:45:39.240365,-0.05957324842619012
2023-01-28 14:45:39.245365,-0.0594282150268554
2023-01-28 14:45:39.250365,-0.05912063685377476
2023-01-28 14:45:39.255365,-0.05863487720489493
2023-01-28 14:45:39.260365,-0.057930019006341864
2023-01-28 14:45:39.265365,-0.05728860944509501
2023-01-28 14:45:39.270365,-0.057074233102878486
2023-01-28 14:45:39.275365,-0.05716840550303447
2023-01-28 14:45:39.280365,-0.05703609351071824
2023-01-28 14:45:39.285365,-0.056278906762599876
2023-01-28 14:45:39.290365,-0.05478808297669202
2023-01-28 14:45:39.295365,-0.052552621811628245
2023-01-28 14:45:39.300365,-0.04980593598755592
2023-01-28 14:45:39.305365,-0.04726370424032214
2023-01-28 14:45:39.310365,-0.045718690381217064
2023-01-28 14:45:39.315365,-0.045364499092101954
2023-01-28 14:45:39.320365,-0.045815448706855354
2023-01-28 14:45:39.325365,-0.04666268825530996
2023-01-28 14:45:39.330365,-0.04766002068048121
2023-01-28 14:45:39.335365,-0.048561893403530065
2023-01-28 14:45:39.340365,-0.04927379648476563
2023-01-28 14:45:39.345365,-0.0501004867255687
2023-01-28 14:45:39.350365,-0.0514029625084036
2023-01-28 14:45:39.355365,-0.05300939083099351
2023-01-28 14:45:39.360365,-0.05428028589334886
2023-01-28 14:45:39.365365,-0.05466818809509264
2023-01-28 14:45:39.370365,-0.05392599770043402
2023-01-28 14:45:39.375365,-0.05199968814849846
2023-01-28 14:45:39.380365,-0.04921316317270684
2023-01-28 14:45:39.385365,-0.04649440571665756
2023-01-28 14:45:39.390365,-0.04494832148120911
2023-01-28 14:45:39.395365,-0.045100055634975336
2023-01-28 14:45:39.400365,-0.04672165210842402
2023-01-28 14:45:39.405365,-0.049210987985134035
2023-01-28 14:45:39.410365,-0.051815376462941744
2023-01-28 14:45:39.415365,-0.0536825284361839
2023-01-28 14:45:39.420365,-0.054159046127751395
2023-01-28 14:45:39.425365,-0.053057473152875845
2023-01-28 14:45:39.430365,-0.05039337640827057
2023-01-28 14:45:39.435365,-0.046013593673706
2023-01-28 14:45:39.440365,-0.039800265894290386
2023-01-28 14:45:39.445365,-0.03211816400289528
2023-01-28 14:45:39.450365,-0.02379867171060047
2023-01-28 14:45:39.455365,-0.015890797600150122
2023-01-28 14:45:39.460365,-0.009717104651192363
2023-01-28 14:45:39.465365,-0.00682751368731264
2023-01-28 14:45:39.470365,-0.00827318476773253
2023-01-28 14:45:39.475365,-0.013823310844600228
2023-01-28 14:45:39.480365,-0.022109162505540885
2023-01-28 14:45:39.485365,-0.03142098709940909
2023-01-28 14:45:39.490365,-0.04021943004018126
2023-01-28 14:45:39.495365,-0.04733582586050028
2023-01-28 14:45:39.500365,-0.05233521778007151
2023-01-28 14:45:39.505365,-0.055701933801174094
2023-01-28 14:45:39.510365,-0.058283737285490266
2023-01-28 14:45:39.515365,-0.06053408235311498
2023-01-28 14:45:39.520365,-0.06246956260009389
2023-01-28 14:45:39.525365,-0.06409208476543415
2023-01-28 14:45:39.530365,-0.06540160685003991
2023-01-28 14:45:39.535365,-0.06603936851024617
2023-01-28 14:45:39.540365,-0.06518113705444761
2023-01-28 14:45:39.545365,-0.06161590665578838
2023-01-28 14:45:39.550365,-0.05368444094006523
2023-01-28 14:45:39.555365,-0.039546690881252164
2023-01-28 14:45:39.560365,-0.018263190657341357
2023-01-28 14:45:39.565365,0.00908732414245601
2023-01-28 14:45:39.570365,0.039423001868017636
2023-01-28 14:45:39.575365,0.06870786845684049
2023-01-28 14:45:39.580365,0.09309166011158025
2023-01-28 14:45:39.585365,0.10979314893484102
2023-01-28 14:45:39.590365,0.11776014392687678
2023-01-28 14:45:39.595365,0.11763036251068101
2023-01-28 14:45:39.600365,0.11074467431092999
2023-01-28 14:45:39.605365,0.09818156808614727
2023-01-28 14:45:39.610365,0.08086418331898705
2023-01-28 14:45:39.615365,0.06029367446899405
2023-01-28 14:45:39.620365,0.0387573342935313
2023-01-28 14:45:39.625365,0.018871825188398278
2023-01-28 14:45:39.630365,0.0030352143117398783
2023-01-28 14:45:39.635365,-0.007164081092923837
2023-01-28 14:45:39.640365,-0.01165329607885623
2023-01-28 14:45:39.645365,-0.011996230110525996
2023-01-28 14:45:39.650365,-0.010400438251994592
2023-01-28 14:45:39.655365,-0.008462270721793097
2023-01-28 14:45:39.660365,-0.006809127567724158
2023-01-28 14:45:39.665365,-0.00545720290392634
2023-01-28 14:45:39.670365,-0.004034309415539163
2023-01-28 14:45:39.675365,-0.0018992027034983132
2023-01-28 14:45:39.680365,0.0014020487479310664
2023-01-28 14:45:39.685365,0.005745689384639211
2023-01-28 14:45:39.690365,0.010693551523930868
2023-01-28 14:45:39.695365,0.01593887805938721
2023-01-28 14:45:39.700365,0.021205361713497163
2023-01-28 14:45:39.705365,0.025987824425101162
2023-01-28 14:45:39.710365,0.029860036495173933
2023-01-28 14:45:39.715365,0.03295958042144769
2023-01-28 14:45:39.720365,0.03585943068349193
2023-01-28 14:45:39.725365,0.039113961160182883
2023-01-28 14:45:39.730365,0.043216310851264796
2023-01-28 14:45:39.735365,0.04873017594218252
2023-01-28 14:45:39.740365,0.05598964225160238
2023-01-28 14:45:39.745365,0.06474117934703821
2023-01-28 14:45:39.750365,0.07441230194283494
2023-01-28 14:45:39.755365,0.0846227034926414
2023-01-28 14:45:39.760365,0.09516628875107384
2023-01-28 14:45:39.765365,0.10573029518127441
2023-01-28 14:45:39.770365,0.11603562153167714
2023-01-28 14:45:39.775365,0.12611667811870567
2023-01-28 14:45:39.780365,0.13610674856280575
2023-01-28 14:45:39.785365,0.1458780020475387
2023-01-28 14:45:39.790365,0.15520128508761036
2023-01-28 14:45:39.795365,0.16405265033245078
2023-01-28 14:45:39.800365,0.17235431338829438
2023-01-28 14:45:39.805365,0.17951071262359608
2023-01-28 14:45:39.810365,0.18450992840982205
2023-01-28 14:45:39.815365,0.18633823096752158
2023-01-28 14:45:39.820365,0.18403359928931004
2023-01-28 14:45:39.825365,0.1766498982906341
2023-01-28 14:45:39.830365,0.16371812334684224
2023-01-28 14:45:39.835365,0.1457577943801879
2023-01-28 14:45:39.840365,0.12406045765246096
2023-01-28 14:45:39.845365,0.10008077323436727
2023-01-28 14:45:39.850365,0.0752465862543443
2023-01-28 14:45:39.855365,0.05101402848958959
2023-01-28 14:45:39.860365,0.028557850890190962
2023-01-28 14:45:39.865365,0.008414189331233477
2023-01-28 14:45:39.870365,-0.009282343839115609
2023-01-28 14:45:39.875365,-0.024353068321943186
2023-01-28 14:45:39.880365,-0.036671953380137616
2023-01-28 14:45:39.885365,-0.04649440571665758
2023-01-28 14:45:39.890365,-0.05427426582852113
2023-01-28 14:45:39.895365,-0.06024559587240209
2023-01-28 14:45:39.900365,-0.06449446602109023
2023-01-28 14:45:39.905365,-0.06726543605327598
2023-01-28 14:45:39.910365,-0.06882058430826211
2023-01-28 14:45:39.915365,-0.0691405981779098
2023-01-28 14:45:39.920365,-0.0681509091425256
2023-01-28 14:45:39.925365,-0.06613552570343006
2023-01-28 14:45:39.930365,-0.06357588229889795
2023-01-28 14:45:39.935365,-0.06070236489176746
2023-01-28 14:45:39.940365,-0.05755280092693751
2023-01-28 14:45:39.945365,-0.05433162301778789
2023-01-28 14:45:39.950365,-0.05132186619119583
2023-01-28 14:45:39.955365,-0.04853785037994377
2023-01-28 14:45:39.960365,-0.04583366654154447
2023-01-28 14:45:39.965365,-0.04327297210693349
2023-01-28 14:45:39.970365,-0.041045035303072845
2023-01-28 14:45:39.975365,-0.0391139611601829
2023-01-28 14:45:39.980365,-0.037327429921849724
2023-01-28 14:45:39.985365,-0.035820405930280595
2023-01-28 14:45:39.990365,-0.03495357022165592
2023-01-28 14:45:39.995365,-0.03485878556966779
2023-01-28 14:45:40.000365,-0.03533117700387021
2023-01-28 14:45:40.005365,-0.036132931709289454
2023-01-28 14:45:40.010365,-0.037128015262034866
2023-01-28 14:45:40.015365,-0.03815233707427967
2023-01-28 14:45:40.020365,-0.03900745686912514
2023-01-28 14:45:40.025365,-0.039570730179548194
2023-01-28 14:45:40.030365,-0.03974259729346717
2023-01-28 14:45:40.035365,-0.03937840461730952
2023-01-28 14:45:40.040365,-0.03845437958373917
2023-01-28 14:45:40.045365,-0.03719071671366689
2023-01-28 14:45:40.050365,-0.03585592712132542
2023-01-28 14:45:40.055365,-0.03461837768554677
2023-01-28 14:45:40.060365,-0.03374840784814644
2023-01-28 14:45:40.065365,-0.03370483964681619
2023-01-28 14:45:40.070365,-0.03472514380386393
2023-01-28 14:45:40.075365,-0.036469500511884564
2023-01-28 14:45:40.080365,-0.0382799335343486
2023-01-28 14:45:40.085365,-0.039618812501430484
2023-01-28 14:45:40.090365,-0.04010614577406011
2023-01-28 14:45:40.095365,-0.03947456926107402
2023-01-28 14:45:40.100365,-0.03785595589204772
2023-01-28 14:45:40.105365,-0.03591656684875484
2023-01-28 14:45:40.110365,-0.03436046334930799
2023-01-28 14:45:40.115365,-0.03339231014251696
2023-01-28 14:45:40.120365,-0.03285182113598804
2023-01-28 14:45:40.125365,-0.0326230153441429
2023-01-28 14:45:40.130365,-0.03263237392055777
2023-01-28 14:45:40.135365,-0.032695136964321095
2023-01-28 14:45:40.140365,-0.0327052355861155
2023-01-28 14:45:40.145365,-0.0327912978827953
2023-01-28 14:45:40.150365,-0.032961345980761086
2023-01-28 14:45:40.155365,-0.03274321556091302
2023-01-28 14:45:40.160365,-0.031448108775080974
2023-01-28 14:45:40.165365,-0.02863228321075432
2023-01-28 14:45:40.170365,-0.02411440549824988
2023-01-28 14:45:40.175365,-0.01788616180419922
2023-01-28 14:45:40.180365,-0.010434434815822746
2023-01-28 14:45:40.185365,-0.003005067585036092
2023-01-28 14:45:40.190365,0.002816029533961237
2023-01-28 14:45:40.195365,0.005769729614257765
2023-01-28 14:45:40.200365,0.005143266647546511
2023-01-28 14:45:40.205365,0.0007933378219604208
2023-01-28 14:45:40.210365,-0.006587268148050128
2023-01-28 14:45:40.215365,-0.01543402671813963
2023-01-28 14:45:40.220365,-0.024007289462119163
2023-01-28 14:45:40.225365,-0.031180581077933353
2023-01-28 14:45:40.230365,-0.036502558252388975
2023-01-28 14:45:40.235365,-0.03988325595855714
2023-01-28 14:45:40.240365,-0.0416052085354882
2023-01-28 14:45:40.245365,-0.042383473366498885
2023-01-28 14:45:40.250365,-0.04295346377680667
2023-01-28 14:45:40.255365,-0.043633580207824714
2023-01-28 14:45:40.260365,-0.04446813890532454
2023-01-28 14:45:40.265365,-0.04548470303416255
2023-01-28 14:45:40.270365,-0.046389215494704976
2023-01-28 14:45:40.275365,-0.046133797615766525
2023-01-28 14:45:40.280365,-0.04310810444128673
2023-01-28 14:45:40.285365,-0.03567616268992416
2023-01-28 14:45:40.290365,-0.022444836883842276
2023-01-28 14:45:40.295365,-0.00254829740151762
2023-01-28 14:45:40.300365,0.023616595057269846
2023-01-28 14:45:40.305365,0.05382677167654035
2023-01-28 14:45:40.310365,0.0844639235917036
2023-01-28 14:45:40.315365,0.11157214641571041
2023-01-28 14:45:40.320365,0.13166456900886067
2023-01-28 14:45:40.325365,0.14224788546562184
2023-01-28 14:45:40.330365,0.14238620806561988
2023-01-28 14:45:40.335365,0.13292014598846424
2023-01-28 14:45:40.340365,0.1159311567958635
2023-01-28 14:45:40.345365,0.09402255713939664
2023-01-28 14:45:40.350365,0.07009304979289235
2023-01-28 14:45:40.355365,0.047215621918439796
2023-01-28 14:45:40.360365,0.028021310434160007
2023-01-28 14:45:40.365365,0.014015635475516305
2023-01-28 14:45:40.370365,0.0055224944855148264
2023-01-28 14:45:40.375365,0.0019953649025410388
2023-01-28 14:45:40.380365,0.002156193417043654
2023-01-28 14:45:40.385365,0.004231135360896482
2023-01-28 14:45:40.390365,0.006633530221285077
2023-01-28 14:45:40.395365,0.008534392341971283
2023-01-28 14:45:40.400365,0.00974067796388808
2023-01-28 14:45:40.405365,0.010361473076045532
2023-01-28 14:45:40.410365,0.010883849020561316
2023-01-28 14:45:40.415365,0.012260675430297794
2023-01-28 14:45:40.420365,0.015450348810437584
2023-01-28 14:45:40.425365,0.020843148231506268
2023-01-28 14:45:40.430365,0.028203517985768357
2023-01-28 14:45:40.435365,0.036854147911071646
2023-01-28 14:45:40.440365,0.045682331555455785
2023-01-28 14:45:40.445365,0.05334595963358866
2023-01-28 14:45:40.450365,0.0589728876667029
2023-01-28 14:45:40.455365,0.0626736879348754
2023-01-28 14:45:40.460365,0.0652715855408182
2023-01-28 14:45:40.465365,0.06777028739452359
2023-01-28 14:45:40.470365,0.07118605026749622
2023-01-28 14:45:40.475365,0.07642488181591028
2023-01-28 14:45:40.480365,0.08386542397887072
2023-01-28 14:45:40.485365,0.09318113327026363
2023-01-28 14:45:40.490365,0.10376799731278641
2023-01-28 14:45:40.495365,0.11513014882802963
2023-01-28 14:45:40.500365,0.12673662959359916
2023-01-28 14:45:40.505365,0.1379205882549285
2023-01-28 14:45:40.510365,0.14824056610704459
2023-01-28 14:45:40.515365,0.15768191218376149
2023-01-28 14:45:40.520365,0.1662883473117478
2023-01-28 14:45:40.525365,0.1738852262496947
2023-01-28 14:45:40.530365,0.18030988577220503
2023-01-28 14:45:40.535365,0.1854968070983885
2023-01-28 14:45:40.540365,0.18908967485028474
2023-01-28 14:45:40.545365,0.19032895565032942
2023-01-28 14:45:40.550365,0.18851858725790555
2023-01-28 14:45:40.555365,0.183237001299858
2023-01-28 14:45:40.560365,0.17401136389747973
2023-01-28 14:45:40.565365,0.16037444770336146
2023-01-28 14:45:40.570365,0.1425150936819441
2023-01-28 14:45:40.575365,0.121404729783535
2023-01-28 14:45:40.580365,0.09813928630087415
2023-01-28 14:45:40.585365,0.0737323388457298
2023-01-28 14:45:40.590365,0.04959515432189205
2023-01-28 14:45:40.595365,0.027286013588309222
2023-01-28 14:45:40.600365,0.0074163475839338746
2023-01-28 14:45:40.605365,-0.010337432846426907
2023-01-28 14:45:40.610365,-0.02577754781224229
2023-01-28 14:45:40.615365,-0.037815771996974876
2023-01-28 14:45:40.620365,-0.04619020479057006
2023-01-28 14:45:40.625365,-0.05240837857127182
2023-01-28 14:45:40.630365,-0.057936155708804636
2023-01-28 14:45:40.635365,-0.06231307983398432
2023-01-28 14:45:40.640365,-0.06422245369875719
2023-01-28 14:45:40.645365,-0.0637314766645431
2023-01-28 14:45:40.650365,-0.062188938634793654
2023-01-28 14:45:40.655365,-0.06038983911275856
2023-01-28 14:45:40.660365,-0.05819423580233071
2023-01-28 14:45:40.665365,-0.05572597309947007
2023-01-28 14:45:40.670365,-0.053592467241427896
2023-01-28 14:45:40.675365,-0.051831405609846115
2023-01-28 14:45:40.680365,-0.04974800359229364
2023-01-28 14:45:40.685365,-0.04697521775960917
2023-01-28 14:45:40.690365,-0.04383826089176862
2023-01-28 14:45:40.695365,-0.040628515183925545
2023-01-28 14:45:40.700365,-0.03740795737827484
2023-01-28 14:45:40.705365,-0.03461837768554677
2023-01-28 14:45:40.710365,-0.03299321399498523
2023-01-28 14:45:40.715365,-0.03262301534414286
2023-01-28 14:45:40.720365,-0.032757958566004136
2023-01-28 14:45:40.725365,-0.03264705464243877
2023-01-28 14:45:40.730365,-0.03197589501364605
2023-01-28 14:45:40.735365,-0.030531486496329245
2023-01-28 14:45:40.740365,-0.028248373395556768
2023-01-28 14:45:40.745365,-0.025747418403625377
2023-01-28 14:45:40.750365,-0.024133455023384997
2023-01-28 14:45:40.755365,-0.024016499519348068
2023-01-28 14:45:40.760365,-0.02517601480714861
2023-01-28 14:45:40.765365,-0.02716581150889388
2023-01-28 14:45:40.770365,-0.029645327328756414
2023-01-28 14:45:40.775365,-0.032118164002895286
2023-01-28 14:45:40.780365,-0.034054172419027105
2023-01-28 14:45:40.785365,-0.03545979782938947
2023-01-28 14:45:40.790365,-0.03681120196541852
2023-01-28 14:45:40.795365,-0.03832062333822244
2023-01-28 14:45:40.800365,-0.03973511823960434
2023-01-28 14:45:40.805365,-0.04084488004446018
2023-01-28 14:45:40.810365,-0.04162495180028538
2023-01-28 14:45:40.815365,-0.04185458272695537
2023-01-28 14:45:40.820365,-0.0411995852412572
2023-01-28 14:45:40.825365,-0.039787095040082904
2023-01-28 14:45:40.830365,-0.03820008789468215
2023-01-28 14:45:40.835365,-0.036830108612775775
2023-01-28 14:45:40.840365,-0.035681085828938315
2023-01-28 14:45:40.845365,-0.03476262092590332
2023-01-28 14:45:40.850365,-0.034088543833487805
2023-01-28 14:45:40.855365,-0.033224027603864566
2023-01-28 14:45:40.860365,-0.03138583230818974
2023-01-28 14:45:40.865365,-0.028127431869506826
2023-01-28 14:45:40.870365,-0.023554483352081285
2023-01-28 14:45:40.875365,-0.017958283424377434
2023-01-28 14:45:40.880365,-0.011813273778949196
2023-01-28 14:45:40.885365,-0.006154378410428658
2023-01-28 14:45:40.890365,-0.0023506590812290254
2023-01-28 14:45:40.895365,-0.0012981891632080078
2023-01-28 14:45:40.900365,-0.0031223543300085196
2023-01-28 14:45:40.905365,-0.0075246891938148975
2023-01-28 14:45:40.910365,-0.013855657717942687
2023-01-28 14:45:40.915365,-0.02089123055338853
2023-01-28 14:45:40.920365,-0.027212384640951482
2023-01-28 14:45:40.925365,-0.032046042382717105
2023-01-28 14:45:40.930365,-0.035435817610918935
2023-01-28 14:45:40.935365,-0.03769556805491439
2023-01-28 14:45:40.940365,-0.039206205604635176
2023-01-28 14:45:40.945365,-0.0406525544822216
2023-01-28 14:45:40.950365,-0.04277177092628277
2023-01-28 14:45:40.955365,-0.04567702859640117
2023-01-28 14:45:40.960365,-0.048809802311275505
2023-01-28 14:45:40.965365,-0.05149483680725088
2023-01-28 14:45:40.970365,-0.05300541092624643
2023-01-28 14:45:40.975365,-0.05211989209055899
2023-01-28 14:45:40.980365,-0.04726420817242961
2023-01-28 14:45:40.985365,-0.03728687763214106
2023-01-28 14:45:40.990365,-0.02177174557021197
2023-01-28 14:45:40.995365,-0.0007933378219604421
2023-01-28 14:45:41.000365,0.02488546576460744
2023-01-28 14:45:41.005365,0.0532257556915283
2023-01-28 14:45:41.010365,0.08110638874270205
2023-01-28 14:45:41.015365,0.10534565150737757
2023-01-28 14:45:41.020365,0.12331510317796464
2023-01-28 14:45:41.025365,0.13289611041545848
2023-01-28 14:45:41.030365,0.1327859296635057
2023-01-28 14:45:41.035365,0.12323181331157675
2023-01-28 14:45:41.040365,0.10608219384791183
2023-01-28 14:45:41.045365,0.08402168750762931
2023-01-28 14:45:41.050365,0.06008196519225873
2023-01-28 14:45:41.055365,0.03757536411285393
2023-01-28 14:45:41.060365,0.01944713312660776
2023-01-28 14:45:41.065365,0.007140040397644005
2023-01-28 14:45:41.070365,0.0003565628817670472
2023-01-28 14:45:41.075365,-0.0020434460602700142
2023-01-28 14:45:41.080365,-0.0013399081510115137
2023-01-28 14:45:41.085365,0.0010577838402241184
2023-01-28 14:45:41.090365,0.0038534127687681803
2023-01-28 14:45:41.095365,0.006490945816039972
2023-01-28 14:45:41.100365,0.009089830788561406
2023-01-28 14:45:41.105365,0.011635622009634887
2023-01-28 14:45:41.110365,0.013774111684577277
2023-01-28 14:45:41.115365,0.015482108108699311
2023-01-28 14:45:41.120365,0.01726218884236147
2023-01-28 14:45:41.125365,0.019448798149824073
2023-01-28 14:45:41.130365,0.021922874242395234
2023-01-28 14:45:41.135365,0.0247136764228343
2023-01-28 14:45:41.140365,0.028236793692478123
2023-01-28 14:45:41.145365,0.032671093940734794
2023-01-28 14:45:41.150365,0.03773044601528863
2023-01-28 14:45:41.155365,0.043345093727111816
2023-01-28 14:45:41.160365,0.04992513906160515
2023-01-28 14:45:41.165365,0.057601135224103914
2023-01-28 14:45:41.170365,0.0658496406579762
2023-01-28 14:45:41.175365,0.07428526878356928
2023-01-28 14:45:41.180365,0.08318547733994197
2023-01-28 14:45:41.185365,0.0927484035491943
2023-01-28 14:45:41.190365,0.1024885919740377
2023-01-28 14:45:41.195365,0.11200487613677963
2023-01-28 14:45:41.200365,0.12174581090836781
2023-01-28 14:45:41.205365,0.13217489421367637
2023-01-28 14:45:41.210365,0.14256040214620488
2023-01-28 14:45:41.215365,0.15152752399444572
2023-01-28 14:45:41.220365,0.1587181372216905
2023-01-28 14:45:41.225365,0.1650383174419403
2023-01-28 14:45:41.230365,0.1711343608462254
2023-01-28 14:45:41.235365,0.17636141180992118
2023-01-28 14:45:41.240365,0.1795408613334743
2023-01-28 14:45:41.245365,0.18011173605918876
2023-01-28 14:45:41.250365,0.17803475870232094
2023-01-28 14:45:41.255365,0.1728995740413664
2023-01-28 14:45:41.260365,0.16371556569889995
2023-01-28 14:45:41.265365,0.14967641234397872
2023-01-28 14:45:41.270365,0.1309020137407259
2023-01-28 14:45:41.275365,0.10844688117504106
2023-01-28 14:45:41.280365,0.08387955430566515
2023-01-28 14:45:41.285365,0.0589714460074901
2023-01-28 14:45:41.290365,0.03546828912347144
2023-01-28 14:45:41.295365,0.014664730057120356
2023-01-28 14:45:41.300365,-0.0030222435492832885
2023-01-28 14:45:41.305365,-0.01795828342437738
2023-01-28 14:45:41.310365,-0.03068516910921058
2023-01-28 14:45:41.315365,-0.04146993160247792
2023-01-28 14:45:41.320365,-0.05038705347144511
2023-01-28 14:45:41.325365,-0.057529013603925705
2023-01-28 14:45:41.330365,-0.06294829371189876
2023-01-28 14:45:41.335365,-0.06659229844808565
2023-01-28 14:45:41.340365,-0.06851399619534479
2023-01-28 14:45:41.345365,-0.06902039051055897
2023-01-28 14:45:41.350365,-0.0684468094928792
2023-01-28 14:45:41.355365,-0.06695290654897681
2023-01-28 14:45:41.360365,-0.06473728624569251
2023-01-28 14:45:41.365365,-0.06226500123739238
2023-01-28 14:45:41.370365,-0.06001696185615642
2023-01-28 14:45:41.375365,-0.05813002586364733
2023-01-28 14:45:41.380365,-0.05649916415144085
2023-01-28 14:45:41.385365,-0.055076878517866044
2023-01-28 14:45:41.390365,-0.05382961716807178
2023-01-28 14:45:41.395365,-0.05257666110992427
2023-01-28 14:45:41.400365,-0.05117829404264373
2023-01-28 14:45:41.405365,-0.04976391792297359
2023-01-28 14:45:41.410365,-0.048490041209764814
2023-01-28 14:45:41.415365,-0.0471915826201438
2023-01-28 14:45:41.420365,-0.04555434079578051
2023-01-28 14:45:41.425365,-0.04351337999105445
2023-01-28 14:45:41.430365,-0.04121194729479289
2023-01-28 14:45:41.435365,-0.03872931003570547
2023-01-28 14:45:41.440365,-0.03617934613054936
2023-01-28 14:45:41.445365,-0.03394524380564677
2023-01-28 14:45:41.450365,-0.03245489351414497
2023-01-28 14:45:41.455365,-0.03178159520030019
2023-01-28 14:45:41.460365,-0.03174306589393421
2023-01-28 14:45:41.465365,-0.032262407243251794
2023-01-28 14:45:41.470365,-0.03330598943506932
2023-01-28 14:45:41.475365,-0.03459433838725088
2023-01-28 14:45:41.480365,-0.035744475021887274
2023-01-28 14:45:41.485365,-0.036637783050537054
2023-01-28 14:45:41.490365,-0.03734918491986858
2023-01-28 14:45:41.495365,-0.03783981129527085
2023-01-28 14:45:41.500365,-0.03806873306019852
2023-01-28 14:45:41.505365,-0.03829658031463619
2023-01-28 14:45:41.510365,-0.03890203994621629
2023-01-28 14:45:41.515365,-0.039955377578735254
2023-01-28 14:45:41.520365,-0.041285114214330475
2023-01-28 14:45:41.525365,-0.04284024238586421
2023-01-28 14:45:41.530365,-0.04461351871027286
2023-01-28 14:45:41.535365,-0.04630208015441882
2023-01-28 14:45:41.540365,-0.04742854177733672
2023-01-28 14:45:41.545365,-0.04774451255798328
2023-01-28 14:45:41.550365,-0.04718713290100641
2023-01-28 14:45:41.555365,-0.045556824654340695
2023-01-28 14:45:41.560365,-0.04263303444913648
2023-01-28 14:45:41.565365,-0.038536988198757116
2023-01-28 14:45:41.570365,-0.03360489245749384
2023-01-28 14:45:41.575365,-0.027983188629150293
2023-01-28 14:45:41.580365,-0.021750314454080048
2023-01-28 14:45:41.585365,-0.015409986488521004
2023-01-28 14:45:41.590365,-0.009922230529072824
2023-01-28 14:45:41.595365,-0.006298621650785217
2023-01-28 14:45:41.600365,-0.005437741628387044
2023-01-28 14:45:41.605365,-0.00810166262090199
2023-01-28 14:45:41.610365,-0.014461331368163986
2023-01-28 14:45:41.615365,-0.0235837697982788
2023-01-28 14:45:41.620365,-0.03373678714992767
2023-01-28 14:45:41.625365,-0.04327297210693349
2023-01-28 14:45:41.630365,-0.05107894446929703
2023-01-28 14:45:41.635365,-0.05649527162313461
2023-01-28 14:45:41.640365,-0.059389612698234256
2023-01-28 14:45:41.645365,-0.06031771749258036
2023-01-28 14:45:41.650365,-0.06015178759584819
2023-01-28 14:45:41.655365,-0.05945225805044167
2023-01-28 14:45:41.660365,-0.05842134550084891
2023-01-28 14:45:41.665365,-0.05726456642150871
2023-01-28 14:45:41.670365,-0.05608339437082251
2023-01-28 14:45:41.675365,-0.054379701614379806
2023-01-28 14:45:41.680365,-0.05102709914329964
2023-01-28 14:45:41.685365,-0.0447394475340843
2023-01-28 14:45:41.690365,-0.03435897495897146
2023-01-28 14:45:41.695365,-0.01901606842875478
2023-01-28 14:45:41.700365,0.0013083418314968137
2023-01-28 14:45:41.705365,0.025218527764081903
2023-01-28 14:45:41.710365,0.05022151212253079
2023-01-28 14:45:41.715365,0.0736602172255516
2023-01-28 14:45:41.720365,0.09321736639449209
2023-01-28 14:45:41.725365,0.1069082841277122
2023-01-28 14:45:41.730365,0.11328142842896992
2023-01-28 14:45:41.735365,0.11178851127624508
2023-01-28 14:45:41.740365,0.10273291178675632
2023-01-28 14:45:41.745365,0.0870507955551147
2023-01-28 14:45:41.750365,0.06656764326189131
2023-01-28 14:45:41.755365,0.04425863549113272
2023-01-28 14:45:41.760365,0.02356210191309549
2023-01-28 14:45:41.765365,0.007116000168025403
2023-01-28 14:45:41.770365,-0.0038809298587337555
2023-01-28 14:45:41.775365,-0.009544095024466449
2023-01-28 14:45:41.780365,-0.011092942865060995
2023-01-28 14:45:41.785365,-0.010457634925842124
2023-01-28 14:45:41.790365,-0.009290086611397044
2023-01-28 14:45:41.795365,-0.008149743080139084
2023-01-28 14:45:41.800365,-0.006879334157037116
2023-01-28 14:45:41.805365,-0.005481243133544865
2023-01-28 14:45:41.810365,-0.0041012117475969865
2023-01-28 14:45:41.815365,-0.0024521350860594753
2023-01-28 14:45:41.820365,-1.9160477787721675e-05
2023-01-28 14:45:41.825365,0.0032214324455708074
2023-01-28 14:45:41.830365,0.006960845104252049
2023-01-28 14:45:41.835365,0.011371175758540625
2023-01-28 14:45:41.840365,0.017015079070721854
2023-01-28 14:45:41.845365,0.023848216980695666
2023-01-28 14:45:41.850365,0.030940301616885914
2023-01-28 14:45:41.855365,0.03728687763214112
2023-01-28 14:45:41.860365,0.04235750304660985
2023-01-28 14:45:41.865365,0.045893393456935806
2023-01-28 14:45:41.870365,0.04795011099764189
2023-01-28 14:45:41.875365,0.04937927052378647
2023-01-28 14:45:41.880365,0.0516505174650917
2023-01-28 14:45:41.885365,0.05587021633982651
2023-01-28 14:45:41.890365,0.06228131581334445
2023-01-28 14:45:41.895365,0.07067918777465818
2023-01-28 14:45:41.900365,0.08070813892366842
2023-01-28 14:45:41.905365,0.09164254367351532
2023-01-28 14:45:41.910365,0.10251420881817062
2023-01-28 14:45:41.915365,0.11275013536214815
2023-01-28 14:45:41.920365,0.12230414196119306
2023-01-28 14:45:41.925365,0.13106903433799735
2023-01-28 14:45:41.930365,0.13862090288270545
2023-01-28 14:45:41.935365,0.14460384845733631
2023-01-28 14:45:41.940365,0.14881557876235815
2023-01-28 14:45:41.945365,0.15075823664665217
2023-01-28 14:45:41.950365,0.14960530266872724
2023-01-28 14:45:41.955365,0.1447961777448653
2023-01-28 14:45:41.960365,0.13627795492587938
2023-01-28 14:45:41.965365,0.12414535135030733
2023-01-28 14:45:41.970365,0.10859841900056666
2023-01-28 14:45:41.975365,0.09039243310689918
2023-01-28 14:45:41.980365,0.07081273900447327
2023-01-28 14:45:41.985365,0.05101402848958959
2023-01-28 14:45:41.990365,0.03175675365870792
2023-01-28 14:45:41.995365,0.01377522945404053
2023-01-28 14:45:42.000365,-0.0022005458034689554
2023-01-28 14:45:42.005365,-0.01596291922032828
2023-01-28 14:45:42.010365,-0.0278746111864821
2023-01-28 14:45:42.015365,-0.03824850171804416
2023-01-28 14:45:42.020365,-0.047103043719290076
2023-01-28 14:45:42.025365,-0.05454798787832258
2023-01-28 14:45:42.030365,-0.06082122288784048
2023-01-28 14:45:42.035365,-0.06579896062612522
2023-01-28 14:45:42.040365,-0.06902635422973434
2023-01-28 14:45:42.045365,-0.0704387873411178
2023-01-28 14:45:42.050365,-0.07060529919700428
2023-01-28 14:45:42.055365,-0.07015030086040488
2023-01-28 14:45:42.060365,-0.06941485984984107
2023-01-28 14:45:42.065365,-0.0687319040298461
2023-01-28 14:45:42.070365,-0.06840691922149712
2023-01-28 14:45:42.075365,-0.06822705268859862
2023-01-28 14:45:42.080365,-0.0675358217110484
2023-01-28 14:45:42.085365,-0.06601532548666002
2023-01-28 14:45:42.090365,-0.06395163737447308
2023-01-28 14:45:42.095365,-0.06163994595408429
2023-01-28 14:45:42.100365,-0.0590794083547548
2023-01-28 14:45:42.105365,-0.056375067681074066
2023-01-28 14:45:42.110365,-0.053838950359417326
2023-01-28 14:45:42.115365,-0.0514948368072509
2023-01-28 14:45:42.120365,-0.049033907529864106
2023-01-28 14:45:42.125365,-0.04644632339477527
2023-01-28 14:45:42.130365,-0.044154529865430586
2023-01-28 14:45:42.135365,-0.042359434068202875
2023-01-28 14:45:42.140365,-0.04082792226650266
2023-01-28 14:45:42.145365,-0.03949860855936995
2023-01-28 14:45:42.150365,-0.03869588053441535
2023-01-28 14:45:42.155365,-0.0385369881987571
2023-01-28 14:45:42.160365,-0.03871776502491253
2023-01-28 14:45:42.165365,-0.03908991813659658
2023-01-28 14:45:42.170365,-0.03983920268503328
2023-01-28 14:45:42.175365,-0.04086891934275617
2023-01-28 14:45:42.180365,-0.0416377978630487
2023-01-28 14:45:42.185365,-0.041878622025251305
2023-01-28 14:45:42.190365,-0.041888716684975444
2023-01-28 14:45:42.195365,-0.041878622025251264
2023-01-28 14:45:42.200365,-0.04167373682581295
2023-01-28 14:45:42.205365,-0.0413256883621215
2023-01-28 14:45:42.210365,-0.041359113606788414
2023-01-28 14:45:42.215365,-0.04209498688578599
2023-01-28 14:45:42.220365,-0.043340299821207795
2023-01-28 14:45:42.225365,-0.04500389099121084
2023-01-28 14:45:42.230365,-0.04730435557836077
2023-01-28 14:45:42.235365,-0.05000432580709444
2023-01-28 14:45:42.240365,-0.0521106204523144
2023-01-28 14:45:42.245365,-0.052720904350280685
2023-01-28 14:45:42.250365,-0.05156219878759778
2023-01-28 14:45:42.255365,-0.04844168946146958
2023-01-28 14:45:42.260365,-0.04300992916080761
2023-01-28 14:45:42.265365,-0.03558000177144997
2023-01-28 14:45:42.270365,-0.027496896878677693
2023-01-28 14:45:42.275365,-0.02021809481084335
2023-01-28 14:45:42.280365,-0.014654156077143885
2023-01-28 14:45:42.285365,-0.011707743629813104
2023-01-28 14:45:42.290365,-0.012474060644812936
2023-01-28 14:45:42.295365,-0.017188986763358075
2023-01-28 14:45:42.300365,-0.024666282371617013
2023-01-28 14:45:42.305365,-0.0333682708442211
2023-01-28 14:45:42.310365,-0.04234052336735742
2023-01-28 14:45:42.315365,-0.05065342038869852
2023-01-28 14:45:42.320365,-0.05701215379896198
2023-01-28 14:45:42.325365,-0.06084660813212389
2023-01-28 14:45:42.330365,-0.062998518520179
2023-01-28 14:45:42.335365,-0.064476728439331
2023-01-28 14:45:42.340365,-0.06534482328631204
2023-01-28 14:45:42.345365,-0.0656547173857688
2023-01-28 14:45:42.350365,-0.0663460108226369
2023-01-28 14:45:42.355365,-0.06786644458770748
2023-01-28 14:45:42.360365,-0.06868825302992666
2023-01-28 14:45:42.365365,-0.06652017682790749
2023-01-28 14:45:42.370365,-0.060176754817078106
2023-01-28 14:45:42.375365,-0.04885037988424296
2023-01-28 14:45:42.380365,-0.030811317362624074
2023-01-28 14:45:42.385365,-0.005457202903926296
2023-01-28 14:45:42.390365,0.023537592097924925
2023-01-28 14:45:42.395365,0.049836039543151814
2023-01-28 14:45:42.400365,0.0700164657126485
2023-01-28 14:45:42.405365,0.08558432757854458
2023-01-28 14:45:42.410365,0.09874433701571088
2023-01-28 14:45:42.415365,0.1083987951278686
2023-01-28 14:45:42.420365,0.11173563596394107
2023-01-28 14:45:42.425365,0.10784586519002905
2023-01-28 14:45:42.430365,0.09769901481673904
2023-01-28 14:45:42.435365,0.08176188170909877
2023-01-28 14:45:42.440365,0.060124101426768294
2023-01-28 14:45:42.445365,0.03493090718984599
2023-01-28 14:45:42.450365,0.01072103920504271
2023-01-28 14:45:42.455365,-0.008293986320495625
2023-01-28 14:45:42.460365,-0.020427202605159886
2023-01-28 14:45:42.465365,-0.026132067665457705
2023-01-28 14:45:42.470365,-0.026832107981965784
2023-01-28 14:45:42.475365,-0.024545392021536813
2023-01-28 14:45:42.480365,-0.021423690902052393
2023-01-28 14:45:42.485365,-0.01863141916692253
2023-01-28 14:45:42.490365,-0.01590885977342852
2023-01-28 14:45:42.495365,-0.012573203071951795
2023-01-28 14:45:42.500365,-0.008556269536706499
2023-01-28 14:45:42.505365,-0.004231135360896497
2023-01-28 14:45:42.510365,0.0001952875423698496
2023-01-28 14:45:42.515365,0.004615783691406165
2023-01-28 14:45:42.520365,0.008701941826107552
2023-01-28 14:45:42.525365,0.01214047335088252
2023-01-28 14:45:42.530365,0.015028682009385588
2023-01-28 14:45:42.535365,0.017693838104605605
2023-01-28 14:45:42.540365,0.02029452896366569
2023-01-28 14:45:42.545365,0.02293467521667483
2023-01-28 14:45:42.550365,0.026021550008593256
2023-01-28 14:45:42.555365,0.030146837234497022
2023-01-28 14:45:42.560365,0.03565234752215214
2023-01-28 14:45:42.565365,0.04257579892873761
