0.91
-0.03
-0.9
-1.65
-2.27
-2.87
-3.52
-4.24
-5.02
-5.78
-6.5
-7.29
-8.37
-9.9
-12.01
-14.63
-17.66
-20.95
-24.42
-27.94
-31.19
-33.6
-34.47
-33.24
-29.74
-24.29
-17.66
-10.75
-4.36
0.96
4.97
7.59
8.9
9.06
8.36
7.14
5.74
4.34
2.99
1.67
0.35
-0.82
-1.65
-1.92
-1.58
-0.77
0.13
0.66
0.43
-0.76
-2.87
-5.66
-8.8
-12.01
-15.11
-18.08
-20.99
-24
-27.24
-30.76
-34.42
-37.85
-40.46
-41.49
-40.26
-36.38
-30.01
-21.83
-12.94
-4.45
2.79
8.4
12.45
15.25
17.17
18.48
19.29
19.66
19.62
19.22
18.54
17.6
16.43
15.11
13.8
12.69
11.93
11.49
11.19
10.73
9.8
8.2
5.94
3.21
0.28
-2.56
-5.18
-7.65
-10.18
-13.07
-16.46
-20.15
-23.58
-25.89
-26.26
-24.18
-19.7
-13.4
-6.22
0.83
6.86
11.31
13.93
14.76
14.1
12.35
9.93
7.18
4.3
1.44
-1.27
-3.66
-5.56
-6.86
-7.64
-8.13
-8.6
-9.22
-9.98
-10.68
-11.05
-10.88
-10.13
-8.91
-7.47
-6.07
-4.99
-4.44
-4.55
-5.32
-6.53
-7.71
-8.2
-7.32
-4.66
-0.18
5.7
12.23
18.61
24.23
28.76
32.19
34.66
36.33
37.27
37.43
36.63
34.73
31.68
27.62
22.9
18.07
13.67
10.11
7.61
6.13
5.45
5.27
5.26
5.16
4.75
3.9
2.61
0.96
-0.91
-2.88
-4.88
-7.01
-9.41
-12.33
-15.9
-20.06
-24.39
-28.17
-30.47
-30.48
-27.78
-22.56
-15.58
-7.95
-0.76
5.22
9.76
13.03
15.44
17.32
18.8
19.87
20.42
20.45
20.08
19.53
18.98
18.49
17.97
17.25
16.2
14.76
12.98
10.92
8.64
6.17
3.49
0.59
-2.47
-5.62
-8.8
-12.01
-15.37
-18.99
-22.86
-26.69
-29.81
-31.41
-30.73
-27.44
-21.82
-14.66
-7.05
0.06
6.1
10.92
14.7
17.67
19.96
21.5
22.25
22.2
21.53
20.54
19.55
18.75
18.16
17.69
17.18
16.48
15.51
14.28
12.82
11.18
9.4
7.44
5.24
2.7
-0.28
-3.76
-7.73
-12.12
-16.71
-21.1
-24.73
-26.94
-27.13
-25
-20.68
-14.79
-8.24
-2.01
3.15
6.86
9.11
10.13
10.24
9.73
8.83
7.67
6.34
4.95
3.66
2.64
2.1
2.13
2.69
3.56
4.41
4.93
4.95
4.48
3.68
2.69
1.56
0.22
-1.45
-3.56
-6.11
-9.03
-12.27
-15.75
-19.35
-22.72
-25.24
-26.1
-24.61
-20.52
-14.21
-6.68
0.83
7.24
11.92
14.81
16.28
16.82
16.84
16.56
16.01
15.16
13.99
12.53
10.91
9.28
7.8
6.59
5.71
5.1
4.65
4.21
3.68
3.01
2.26
1.42
0.46
-0.69
-2.09
-3.72
-5.5
-7.32
-9.19
-11.26
-13.77
-16.8
-20.06
-22.87
-24.26
-23.36
-19.81
-13.93
-6.66
0.72
7.08
11.77
14.73
16.37
17.29
17.94
18.5
18.88
18.86
18.29
17.21
15.82
14.37
13.07
11.97
11.08
10.34
9.73
9.22
8.73
8.08
7.05
5.45
3.25
0.6
-2.24
-5
-7.57
-9.97
-12.4
-15.09
-18.15
-21.44
-24.5
-26.63
-27.04
-25.21
-21.03
-15.01
-8.06
-1.26
4.46
8.56
10.95
11.89
11.78
11.07
10.06
8.95
7.75
6.44
5.04
3.64
2.43
1.57
1.13
1
0.94
0.75
0.25
-0.57
-1.66
-2.95
-4.46
-6.23
-8.26
-10.41
-12.46
-14.18
-15.46
-16.34
-16.96
-17.39
-17.46
-16.73
-14.69
-10.97
-5.6
0.92
7.73
13.9
18.68
21.73
23.12
23.22
22.44
21.19
19.71
18.13
16.5
14.85
13.24
11.72
10.34
9.13
8.05
7.01
5.92
4.73
3.45
2.18
1.03
0.06
-0.74
-1.53
-2.51
-3.88
-5.73
-8.03
-10.69
-13.58
-16.59
-19.58
-22.24
-24.05
-24.4
-22.77
-19.07
-13.73
-7.62
-1.76
2.99
6.27
8.13
8.92
8.99
8.53
7.56
6.05
4.12
2.06
0.28
-0.93
-1.55
-1.81
-2.11
-2.81
-4
-5.51
-6.94
-7.96
-8.39
-8.39
-8.33
-8.64
-9.65
-11.52
-14.15
-17.23
-20.23
-22.53
-23.51
-22.7
-19.99
-15.64
-10.25
-4.55
0.83
5.44
9.05
11.59
13.06
13.47
12.89
11.5
9.59
7.51
5.59
4.05
2.92
2.09
1.32
0.39
-0.85
-2.39
-4.08
-5.68
-7.04
-8.13
-9.11
-10.26
-11.83
-14.04
-16.91
-20.26
-23.71
-26.68
-28.5
-28.59
-26.62
-22.71
-17.4
-11.51
-5.87
-1.08
2.64
5.32
7.1
8
7.99
7
5.06
2.4
-0.64
-3.72
-6.65
-9.48
-12.4
-15.58
-19.03
-22.58
-25.94
-28.82
-31.07
-32.69
-33.79
-34.53
-35.08
-35.66
-36.52
-37.89
-39.89
-42.29
-44.48
-45.58
-44.64
-40.98
-34.33
-24.97
-13.48
-0.65
12.77
26.12
38.75
50.05
59.33
66.03
69.77
70.59
68.93
65.51
61.08
56.2
51.08
45.7
40.02
34.2
28.6
23.64
19.5
16
12.52
8.32
2.81
-4.2
-12.47
-21.41
-30.24
-38.14
-44.26
-47.81
-48.12
-44.87
-38.21
-28.91
-18.16
-7.28
2.6
10.82
17.16
21.69
24.56
25.82
25.5
23.75
20.99
17.77
14.7
12.16
10.17
8.52
6.94
5.34
3.92
3.03
2.93
3.6
4.66
5.53
5.7
4.86
3.01
0.39
-2.66
-5.81
-8.72
-11.02
-12.34
-12.27
-10.62
-7.46
-3.14
1.79
6.76
11.28
15
17.64
19.01
19.01
17.71
15.49
12.93
10.72
9.44
9.33
10.17
11.48
12.71
13.47
13.67
13.46
13.08
12.7
12.26
11.5
10.07
7.66
4.22
0.09
-4.04
-7.2
-8.48
-7.33
-3.8
1.54
7.71
13.7
18.77
22.51
24.86
25.95
25.98
25.24
24.04
22.69
21.45
20.48
19.83
19.54
19.7
20.43
21.77
23.57
25.43
26.9
27.61
27.5
26.83
25.89
24.82
23.39
21.09
17.43
12.2
5.64
-1.65
-8.86
-15.25
-20.22
-23.37
-24.5
-23.63
-21.03
-17.25
-13.04
-9.17
-6.26
-4.59
-4.07
-4.33
-4.95
-5.69
-6.56
-7.77
-9.55
-11.89
-14.53
-16.97
-18.73
-19.5
-19.38
-18.68
-17.81
-17.09
-16.57
-16.21
-15.93
-15.75
-15.8
-16.26
-17.16
-18.39
-19.73
-20.99
-22.19
-23.48
-25.06
-26.93
-28.65
-29.46
-28.51
-25.3
-19.96
-13.22
-6.21
-0.01
4.68
7.7
9.29
9.92
10.01
9.8
9.28
8.29
6.55
3.86
0.26
-3.95
-8.14
-11.5
-13.3
-13.11
-11.01
-7.53
-3.48
0.32
3.24
4.97
5.5
5.07
4.11
3.24
3.07
4.03
6.17
9.07
12.06
14.55
16.24
17.27
18.01
18.76
19.57
20.21
20.45
20.2
19.59
18.79
17.72
15.98
12.98
8.19
1.66
-5.95
-13.32
-18.96
-21.73
-21.4
-18.78
-15.45
-13.11
-12.8
-14.53
-17.45
-20.34
-22.26
-22.86
-22.34
-20.97
-18.76
-15.4
-10.53
-4.2
2.95
9.89
15.68
19.85
22.6
24.56
26.38
28.42
30.59
32.61
34.19
35.22
35.75
35.87
35.51
34.47
32.51
29.54
25.71
21.41
17.05
12.94
9.13
5.52
1.94
-1.69
-5.24
-8.46
-11.04
-12.72
-13.43
-13.33
-12.72
-12.03
-11.61
-11.74
-12.55
-14.01
-15.94
-17.99
-19.71
-20.6
-20.22
-18.36
-15.12
-10.91
-6.39
-2.22
1.1
3.35
4.62
5.15
5.26
5.19
5.08
4.97
4.86
4.7
4.36
3.74
2.67
1.1
-0.92
-3.19
-5.48
-7.58
-9.43
-11.19
-13.13
-15.6
-18.79
-22.65
-26.8
-30.61
-33.28
-34.03
-32.36
-28.17
-21.97
-14.76
-7.83
-2.35
1.02
2.43
2.72
3.15
4.83
8.29
13.26
18.89
24.16
28.37
31.34
33.42
35.11
36.81
38.61
40.32
41.72
42.69
43.2
43.28
42.79
41.52
39.16
35.53
30.55
24.36
17.21
9.42
1.37
-6.53
-13.81
-19.97
-24.53
-27.22
-28.06
-27.44
-25.99
-24.48
-23.53
-23.43
-24.15
-25.38
-26.83
-28.32
-29.87
-31.52
-33.14
-34.37
-34.69
-33.69
-31.27
-27.7
-23.53
-19.35
-15.52
-12.1
-8.89
-5.63
-2.17
1.43
5
8.42
11.65
14.85
18.14
21.52
24.79
27.62
29.74
30.99
31.41
31.1
30.19
28.78
26.99
25.02
23.1
21.43
20.05
18.79
17.34
15.3
12.34
8.26
3.08
-2.88
-9.06
-14.73
-19.26
-22.35
-24.11
-24.91
-25.15
-24.94
-24.08
-22.25
-19.26
-15.3
-10.82
-6.49
-2.94
-0.72
-0.17
-1.49
-4.59
-9.02
-14.11
-19.07
-23.31
-26.59
-28.92
-30.43
-31.15
-31.06
-30.14
-28.59
-26.88
-25.6
-25.2
-25.78
-26.96
-28.08
-28.34
-27.06
-23.83
-18.55
-11.44
-2.98
6.21
15.48
24.38
32.76
40.77
48.71
56.77
64.81
72.26
78.16
81.5
81.52
78.04
71.43
62.46
52.08
41.18
30.5
20.73
12.47
6.22
2.2
0.24
-0.21
0.08
0.37
0.22
-0.53
-1.77
-3.3
-4.89
-6.3
-7.29
-7.64
-7.26
-6.27
-4.92
-3.6
-2.57
-1.89
-1.41
-0.92
-0.25
0.51
1.14
1.34
0.93
0.01
-1.18
-2.27
-3.04
-3.52
-3.94
-4.63
-5.86
-7.72
-10.15
-13.03
-16.19
-19.43
-22.52
-25.14
-27.07
-28.27
-28.97
-29.61
-30.62
-32.21
-34.25
-36.38
-38.23
-39.62
-40.65
-41.5
-42.15
-42.24
-41.12
-38.11
-32.89
-25.76
-17.59
-9.53
-2.6
2.72
6.47
9.08
11.13
13.04
14.96
16.85
18.5
19.57
19.69
18.57
16.24
13.37
11.22
11.32
14.72
21.28
29.47
36.88
41.27
41.45
37.81
31.92
25.79
21.11
18.92
19.61
23.1
28.77
35.43
41.2
44
42.31
36.02
26.87
18.03
12.91
13.63
19.98
29.36
37.67
40.98
37.05
26.05
10.32
-6.95
-23.11
-37.06
-49.33
-61.44
-74.76
-89.69
-105.39
-119.98
-131.06
-136.37
-134.55
-125.54
-110.77
-93.06
-76.02
-63.29
-57.55
-59.61
-67.79
-77.95
-84.4
-81.78
-67
-40.86
-7.92
25.11
52.21
70.44
80.88
87.54
94.82
105.13
117.68
128.98
134.61
131.23
117.81
95.7
68.05
38.68
11.55
-9.8
-22.64
-25.71
-19.66
-7.12
7.91
21.3
30.13
33.69
33.54
32.71
34.37
40.38
50.54
62.71
73.49
79.35
77.79
68.08
51.59
31.56
12.26
-2.01
-7.92
-3.8
9.87
30.53
53.9
74.91
89.15
94.15
90.06
79.41
66.01
53.53
44.29
38.75
35.64
32.49
26.33
14.3
-5.67
-34.14
-69.84
-109.73
-149.78
-185.94
-215.11
-235.74
-247.74
-252.18
-250.6
-244.68
-235.9
-225.46
-214.12
-202.31
-190.08
-177.42
-164.38
-151.13
-137.92
-124.97
-112.36
-100.02
-87.74
-75.22
-62.16
-48.5
-34.49
-20.62
-7.47
4.49
14.96
23.82
31
36.45
40.1
41.97
42.02
40.04
35.49
27.44
14.85
-3.01
-25.96
-52.52
-79.73
-103.55
-119.71
-124.77
-117.15
-97.7
-69.43
-36.61
-3.52
26.62
52.08
72.44
87.9
98.78
105.21
107.29
105.43
100.47
93.7
86.55
80.32
75.94
73.82
73.8
75.23
77.16
78.59
78.73
77.15
73.85
69.14
63.38
56.93
50.06
43.01
36.05
29.4
23.12
17.14
11.3
5.59
0.33
-3.77
-5.87
-5.29
-1.85
4.04
11.48
19.43
26.89
33.14
37.8
40.82
42.4
42.86
42.55
41.77
40.57
38.82
36.29
32.8
28.38
23.43
18.52
14.27
11.07
8.83
7.07
5.03
1.93
-2.78
-9.33
-17.48
-26.59
-35.59
-43.25
-48.55
-51.13
-51.55
-51.05
-50.92
-51.64
-52.57
-52.01
-48.11
-39.79
-27.42
-12.8
1.51
13.07
20.41
23.41
23.14
21.45
20.27
21.06
24.2
28.86
33.08
34.49
31.15
22.49
9.63
-4.83
-17.62
-25.76
-27.51
-22.7
-12.65
0.38
13.9
25.71
34.29
38.78
38.99
35.24
28.34
19.35
9.49
-0.03
-8.2
-14.27
-17.83
-18.78
-17.26
-13.59
-8.15
-1.39
6.22
14.15
21.78
28.42
33.42
36.33
37.1
36.15
34.23
32.12
30.33
28.91
27.52
25.68
23.05
19.63
15.81
12.19
9.42
7.96
7.94
9.21
11.29
13.58
15.47
16.4
16.09
14.51
11.93
8.78
5.47
2.34
-0.4
-2.46
-3.45
-2.79
-0.01
4.93
11.46
18.43
24.59
28.98
31.34
32.05
31.92
31.73
31.99
32.83
34.14
35.66
37.14
38.41
39.35
39.9
40.03
39.74
38.98
37.77
36.1
33.97
31.47
28.64
25.5
22.06
18.28
14.07
9.41
4.4
-0.65
-5.18
-8.52
-10.11
-9.7
-7.55
-4.38
-1.13
1.36
2.66
2.81
2.26
1.53
1.04
0.98
1.35
2.08
3.1
4.37
5.77
7.08
7.97
8.16
7.48
5.98
3.89
1.5
-0.97
-3.4
-5.81
-8.36
-11.24
-14.66
-18.61
-22.81
-26.6
-29.08
-29.36
-26.99
-22.16
-15.72
-8.89
-2.76
1.96
5.13
6.97
7.77
7.73
6.9
5.34
3.28
1.11
-0.69
-1.8
-2.17
-2.06
-1.81
-1.71
-1.85
-2.17
-2.55
-2.97
-3.52
-4.41
-5.82
-7.77
-10.01
-12.08
-13.41
-13.49
-12.06
-9.16
-5.17
-0.72
3.49
6.74
8.56
8.83
7.88
6.34
4.95
4.13
3.84
3.6
2.73
0.77
-2.21
-5.63
-8.58
-10.27
-10.29
-8.66
-5.78
-2.22
1.45
4.68
7.04
8.27
8.43
7.89
7.26
7.3
8.61
11.59
16.23
22.17
28.78
35.22
40.7
44.61
46.72
47.2
46.55
45.38
44.13
43.06
42.17
41.51
41.29
41.93
43.91
47.46
52.29
57.59
62.24
65.2
65.86
64.24
60.76
55.91
49.83
42.24
32.67
20.98
7.89
-5.02
-15.76
-22.74
-25.46
-24.78
-22.48
-20.52
-20.32
-22.5
-26.98
-33.22
-40.47
-47.76
-53.91
-57.78
-58.7
-56.88
-53.57
-50.57
-49.57
-51.36
-55.68
-61.46
-67.47
-72.79
-77.09
-80.49
-83.26
-85.66
-87.91
-90.29
-93.13
-96.5
-99.9
-102.09
-101.27
-95.69
-84.48
-68.18
-48.75
-28.91
-11.22
2.78
12.95
20.23
25.96
31.2
36.45
41.67
46.62
51.07
54.85
57.77
59.54
59.86
58.51
55.56
51.32
46.19
40.54
34.58
28.4
22.09
15.78
9.71
4.12
-0.8
-4.93
-8.23
-10.67
-12.27
-13.22
-13.82
-14.56
-15.85
-17.88
-20.45
-22.89
-24.3
-23.81
-21.02
-16.14
-9.99
-3.72
1.62
5.49
7.91
9.36
10.43
11.5
12.64
13.69
14.42
14.71
14.65
14.37
14.05
13.79
13.66
13.66
13.82
14.17
14.69
15.37
16.11
16.76
17.16
17.09
16.39
15.02
13.1
10.86
8.6
6.48
4.56
2.77
0.97
-0.91
-2.93
-5.14
-7.6
-10.43
-13.61
-16.92
-19.9
-21.93
-22.45
-21.19
-18.25
-14.05
-9.25
-4.43
0.01
3.93
7.34
10.3
12.78
14.63
15.75
16.1
15.88
15.44
15.17
15.31
15.87
16.62
17.26
17.59
17.63
17.65
17.94
18.71
19.89
21.19
22.21
22.59
22.15
20.9
18.98
16.54
13.75
10.67
7.36
3.88
0.32
-3.2
-6.48
-9.34
-11.57
-13
-13.56
-13.27
-12.28
-10.85
-9.22
-7.66
-6.29
-5.15
-4.17
-3.18
-2.04
-0.64
0.97
2.6
3.91
4.59
4.4
3.36
1.68
-0.33
-2.34
-4.2
-5.88
-7.44
-8.94
-10.36
-11.6
-12.55
-13.12
-13.29
-13.08
-12.44
-11.38
-9.96
-8.33
-6.81
-5.71
-5.36
-5.86
-7.14
-8.89
-10.73
-12.22
-13.01
-12.86
-11.69
-9.57
-6.64
-3.1
0.94
5.38
10.17
15.21
20.24
24.78
28.13
29.46
28.01
23.44
16.04
6.76
-2.97
-11.7
-18.5
-23.19
-26.31
-28.71
-31.18
-34.03
-37.09
-39.81
-41.62
-42.01
-40.73
-37.79
-33.4
-28.02
-22.3
-16.96
-12.65
-9.74
-8.22
-7.8
-7.98
-8.32
-8.46
-8.19
-7.39
-6.14
-4.62
-3.2
-2.33
-2.31
-3.23
-4.81
-6.49
-7.66
-7.78
-6.66
-4.4
-1.39
1.86
4.85
7.17
8.64
9.26
9.18
8.63
7.79
6.72
5.4
3.75
1.64
-0.92
-3.82
-6.7
-9.05
-10.29
-10.02
-8.14
-4.99
-1.2
2.59
5.95
8.76
11.15
13.26
15.02
16.18
16.45
15.68
14
11.76
9.4
7.3
5.64
4.44
3.57
2.84
2.08
1.22
0.24
-0.76
-1.67
-2.44
-3.1
-3.8
-4.7
-5.95
-7.63
-9.67
-11.9
-13.97
-15.45
-15.86
-14.9
-12.49
-8.95
-4.82
-0.68
3.01
6.04
8.38
10.07
11.13
11.5
11.18
10.3
9.14
8.03
7.23
6.8
6.58
6.25
5.53
4.26
2.51
0.56
-1.26
-2.62
-3.37
-3.61
-3.67
-3.97
-4.92
-6.75
-9.35
-12.26
-14.77
-16.13
-15.83
-13.77
-10.32
-6.16
-1.97
1.74
4.77
7.16
9.08
10.61
11.74
12.37
12.38
11.81
10.78
9.5
8.21
7.11
6.28
5.7
5.24
4.71
3.98
3.03
1.9
0.68
-0.56
-1.85
-3.25
-4.81
-6.59
-8.59
-10.82
-13.25
-15.76
-18.01
-19.46
-19.5
-17.68
-14
-8.96
-3.44
1.66
5.75
8.69
10.73
12.23
13.43
14.32
14.74
14.59
13.93
13.03
12.16
11.48
10.93
10.34
9.57
8.64
7.71
7
6.61
6.47
6.34
6.02
5.42
4.6
3.72
2.86
1.98
0.91
-0.56
-2.51
-4.84
-7.26
-9.47
-11.27
-12.63
-13.72
-14.75
-15.95
-17.45
-19.27
-21.33
-23.37
-24.96
-25.53
-24.53
-21.66
-17.04
-11.23
-5.15
0.3
4.51
7.32
8.97
9.88
10.49
11.01
11.49
11.87
12.07
12.04
11.84
11.55
11.26
10.99
10.69
10.3
9.73
8.96
8.05
7.08
6.13
5.24
4.38
3.44
2.33
1
-0.49
-2.05
-3.53
-4.8
-5.82
-6.62
-7.31
-8.02
-8.86
-9.95
-11.36
-13.14
-15.32
-17.92
-20.75
-23.37
-25.14
-25.31
-23.37
-19.29
-13.57
-7.14
-1.01
4.07
7.79
10.26
11.79
12.7
13.18
13.28
13
12.36
11.46
10.41
9.31
8.26
7.38
6.77
6.57
6.78
7.3
7.88
8.25
8.19
7.67
6.81
5.79
4.7
3.54
2.2
0.62
-1.15
-2.95
-4.59
-5.98
-7.17
-8.3
-9.51
-10.79
-12.11
-13.42
-14.82
-16.5
-18.57
-20.88
-22.9
-23.83
-22.96
-19.95
-15.07
-9.13
-3.18
1.9
5.62
7.97
9.22
9.76
9.92
9.9
9.87
9.95
10.21
10.65
11.16
11.6
11.87
11.94
11.88
11.79
11.69
11.55
11.28
10.81
10.14
9.34
8.45
7.48
6.43
5.21
3.76
2.01
-0.06
-2.42
-4.92
-7.37
-9.56
-11.34
-12.76
-14.01
-15.36
-17.1
-19.36
-22.07
-24.87
-27.21
-28.34
-27.62
-24.65
-19.57
-12.98
-5.84
0.86
6.42
10.56
13.42
15.37
16.78
17.89
18.78
19.42
19.73
19.73
19.53
19.35
19.44
19.99
20.97
22.14
23.14
23.6
23.34
22.46
21.27
20.19
19.55
19.42
19.57
19.55
18.74
16.52
12.46
6.42
-1.4
-10.47
-20.05
-29.37
-37.8
-45.04
-51.02
-55.91
-59.9
-63.04
-65.12
-65.69
-64.19
-60.18
-53.51
-44.52
-33.96
-22.86
-12.26
-3.08
4.12
9.08
11.94
13.09
13.12
12.64
12.15
11.96
12.08
12.34
12.56
12.6
12.48
12.26
12.06
11.86
11.65
11.41
11.13
10.83
10.49
9.98
9.07
7.59
5.48
2.87
0.01
-2.81
-5.44
-7.95
-10.6
-13.71
-17.46
-21.62
-25.62
-28.52
-29.44
-27.8
-23.62
-17.45
-10.28
-3.15
3.14
8.16
11.82
14.24
15.65
16.27
16.34
16.04
15.56
15.02
14.44
13.86
13.24
12.64
12.09
11.64
11.29
11
10.64
10.1
9.28
8.12
6.59
4.68
2.47
0.04
-2.51
-5.09
-7.68
-10.38
-13.34
-16.75
-20.76
-25.32
-30.12
-34.47
-37.45
-38.18
-36.06
-31.07
-23.84
-15.4
-6.93
0.64
6.82
11.55
15.03
17.55
19.32
20.52
21.25
21.6
21.68
21.58
21.39
21.2
21.04
20.85
20.48
19.8
18.73
17.34
15.81
14.39
13.15
12.02
10.74
9.01
6.71
3.92
0.94
-1.92
-4.47
-6.72
-8.88
-11.21
-13.92
-17.11
-20.8
-24.97
-29.55
-34.34
-38.82
-42.23
-43.63
-42.28
-37.95
-31.1
-22.76
-14.18
-6.41
-0
5.05
9.09
12.54
15.63
18.35
20.52
21.89
22.4
22.14
21.43
20.64
20.09
19.91
19.95
19.9
19.45
18.44
16.97
15.29
13.67
12.25
10.99
9.69
8.19
6.4
4.35
2.11
-0.3
-2.91
-5.74
-8.68
-11.41
-13.54
-14.73
-14.9
-14.3
-13.33
-12.46
-11.99
-12.01
-12.47
-13.36
-14.73
-16.6
-18.76
-20.57
-21.06
-19.26
-14.62
-7.31
1.74
11.17
19.76
26.76
32.06
36.01
39.07
41.51
43.31
44.24
43.99
42.41
39.5
35.52
30.87
26.09
21.7
18.09
15.46
13.73
12.71
12.1
11.71
11.39
11.05
10.52
9.62
8.19
6.24
3.99
1.79
0
-1.2
-1.93
-2.56
-3.54
-5.18
-7.54
-10.4
-13.44
-16.31
-18.84
-21
-22.93
-24.84
-26.99
-29.67
-33.04
-37.07
-41.35
-45.09
-47.3
-47.07
-43.96
-38.13
-30.35
-21.73
-13.29
-5.74
0.61
5.81
10.01
13.34
15.84
17.49
18.35
18.53
18.27
17.81
17.34
16.97
16.71
16.52
16.44
16.48
16.66
16.87
16.84
16.25
14.83
12.5
9.47
6.12
2.89
0.06
-2.3
-4.41
-6.6
-9.24
-12.62
-16.83
-21.69
-26.7
-31.04
-33.76
-34.02
-31.42
-26.17
-19.05
-11.18
-3.67
2.65
7.45
10.85
13.21
14.94
16.35
17.53
18.4
18.82
18.63
17.82
16.51
14.94
13.4
12.14
11.28
10.8
10.55
10.3
9.82
8.95
7.6
5.79
3.6
1.16
-1.48
-4.25
-7.22
-10.5
-14.29
-18.68
-23.56
-28.49
-32.65
-35.09
-34.99
-31.96
-26.21
-18.52
-9.99
-1.68
5.58
11.32
15.44
18.09
19.58
20.25
20.45
20.42
20.29
20.06
19.69
19.11
18.32
17.38
16.38
15.37
14.34
13.2
11.8
10.05
7.92
5.5
2.87
0.15
-2.63
-5.48
-8.48
-11.71
-15.26
-19.22
-23.61
-28.27
-32.73
-36.27
-38.01
-37.25
-33.74
-27.8
-20.25
-12.09
-4.19
2.9
8.96
13.99
18.04
21.19
23.48
25.02
25.96
26.47
26.7
26.7
26.45
25.85
24.84
23.44
21.76
20.03
18.46
17.15
16.05
14.95
13.58
11.73
9.32
6.41
3.19
-0.16
-3.48
-6.7
-9.83
-12.96
-16.32
-20.14
-24.62
-29.67
-34.89
-39.52
-42.56
-43.16
-40.79
-35.54
-28.03
-19.25
-10.23
-1.81
5.5
11.58
16.49
20.42
23.56
26.01
27.84
29.1
29.83
30.11
30.03
29.68
29.22
28.75
28.39
28.2
28.12
28
27.64
26.86
25.54
23.71
21.44
18.87
16.13
13.34
10.59
7.91
5.26
2.57
-0.28
-3.31
-6.5
-9.68
-12.67
-15.31
-17.57
-19.61
-21.8
-24.58
-28.28
-32.94
-38.06
-42.7
-45.62
-45.72
-42.48
-36.17
-27.73
-18.48
-9.62
-1.93
4.33
9.31
13.34
16.75
19.73
22.38
24.65
26.48
27.78
28.49
28.63
28.29
27.64
26.86
26.07
25.36
24.73
24.15
23.5
22.68
21.55
20.05
18.14
15.86
13.32
10.61
7.86
5.13
2.45
-0.19
-2.81
-5.43
-8.03
-10.56
-13.01
-15.38
-17.75
-20.26
-23.11
-26.5
-30.45
-34.64
-38.36
-40.67
-40.63
-37.72
-32.1
-24.61
-16.51
-8.95
-2.7
2.14
5.9
9.07
11.95
14.52
16.57
17.89
18.49
18.62
18.62
18.73
18.94
18.95
18.42
17.17
15.31
13.27
11.51
10.37
9.83
9.56
9.09
8.04
6.31
4.03
1.53
-0.87
-2.99
-4.78
-6.39
-8.04
-10.05
-12.77
-16.41
-20.95
-25.89
-30.33
-33.14
-33.33
-30.46
-24.86
-17.5
-9.59
-2.22
4.03
9.04
13.01
16.19
18.72
20.64
21.98
22.8
23.21
23.3
23.11
22.66
22.02
21.28
20.59
20
19.48
18.89
18.16
17.31
16.42
15.55
14.59
13.31
11.44
8.87
5.73
2.37
-0.8
-3.5
-5.66
-7.41
-9.05
-10.89
-13.18
-16.13
-19.81
-24.1
-28.6
-32.6
-35.22
-35.67
-33.52
-28.9
-22.53
-15.43
-8.6
-2.71
2.04
5.85
9.08
12.04
14.81
17.36
19.52
21.21
22.39
23.11
23.41
23.32
22.9
22.2
21.34
20.48
19.78
19.34
19.17
19.16
19.11
18.79
18
16.68
14.94
13.02
11.15
9.49
7.95
6.33
4.37
1.95
-0.87
-3.87
-6.76
-9.36
-11.61
-13.59
-15.45
-17.34
-19.44
-21.95
-25.05
-28.81
-33.05
-37.2
-40.36
-41.6
-40.21
-36.08
-29.73
-22.15
-14.44
-7.46
-1.67
2.9
6.45
9.25
11.53
13.44
15.07
16.47
17.65
18.59
19.21
19.47
19.36
18.9
18.19
17.39
16.68
16.25
16.21
16.5
16.92
17.12
16.8
15.8
14.17
12.18
10.15
8.38
7
5.96
5.01
3.88
2.27
0.06
-2.66
-5.64
-8.52
-11.06
-13.18
-14.97
-16.69
-18.62
-21
-23.93
-27.32
-30.86
-33.98
-35.91
-35.89
-33.42
-28.54
-21.83
-14.35
-7.25
-1.42
2.8
5.56
7.37
8.79
10.19
11.68
13.15
14.43
15.41
16.06
16.43
16.57
16.54
16.37
16.12
15.87
15.72
15.72
15.85
16.02
16.06
15.76
14.98
13.62
11.76
9.57
7.33
5.34
3.77
2.58
1.56
0.4
-1.18
-3.22
-5.53
-7.76
-9.61
-10.93
-11.9
-12.82
-14.01
-15.69
-17.96
-20.76
-24.01
-27.53
-30.94
-33.59
-34.65
-33.42
-29.62
-23.64
-16.49
-9.45
-3.6
0.58
3.23
4.95
6.32
7.69
9.03
10.09
10.65
10.71
10.44
10.12
9.94
9.98
10.17
10.39
10.57
10.62
10.51
10.2
9.69
9.04
8.36
7.71
7.08
6.33
5.25
3.7
1.69
-0.61
-2.94
-5.1
-6.97
-8.62
-10.12
-11.58
-13.08
-14.71
-16.64
-19.06
-21.99
-25.09
-27.7
-28.93
-28.02
-24.71
-19.4
-13.03
-6.74
-1.43
2.53
5.25
7.13
8.63
9.93
11.03
11.79
12.13
12.09
11.87
11.7
11.71
11.89
12.04
11.95
11.53
10.86
10.08
9.37
8.78
8.27
7.72
7
6.06
4.83
3.25
1.27
-1.09
-3.68
-6.24
-8.51
-10.37
-11.86
-13.21
-14.7
-16.53
-18.77
-21.37
-24.17
-26.87
-29.03
-30.09
-29.51
-26.98
-22.58
-16.82
-10.53
-4.54
0.51
4.38
7.2
9.3
11.07
12.72
14.28
15.6
16.48
16.83
16.72
16.31
15.85
15.49
15.27
15.13
14.98
14.78
14.58
14.45
14.4
14.33
14.06
13.41
12.24
10.58
8.6
6.56
4.74
3.27
2.17
1.27
0.32
-0.9
-2.55
-4.62
-7
-9.45
-11.73
-13.66
-15.17
-16.38
-17.52
-18.95
-20.98
-23.77
-27.19
-30.75
-33.72
-35.26
-34.7
-31.77
-26.73
-20.27
-13.39
-7.03
-1.81
2.12
5.03
7.33
9.43
11.48
13.39
14.96
16
16.48
16.48
16.23
15.88
15.58
15.38
15.34
15.43
15.61
15.82
15.89
15.72
15.23
14.46
13.54
12.58
11.63
10.62
9.43
7.99
6.32
4.56
2.88
1.35
-0.12
-1.71
-3.6
-5.81
-8.14
-10.31
-12.09
-13.39
-14.36
-15.26
-16.38
-17.97
-20.17
-23.02
-26.38
-29.92
-33.02
-34.94
-34.95
-32.65
-28.13
-21.95
-15.05
-8.36
-2.61
1.87
5.07
7.23
8.63
9.57
10.34
11.14
12.08
13.17
14.31
15.29
15.97
16.27
16.28
16.14
16
15.96
16.05
16.22
16.41
16.51
16.37
15.86
14.92
13.59
12.07
10.59
9.28
8.14
7.03
5.74
4.14
2.28
0.34
-1.44
-2.88
-3.91
-4.65
-5.29
-6.12
-7.36
-9.14
-11.34
-13.73
-15.91
-17.57
-18.63
-19.31
-20.09
-21.54
-24.03
-27.48
-31.3
-34.5
-36.04
-35.19
-31.78
-26.26
-19.54
-12.61
-6.32
-1.13
2.82
5.65
7.59
8.92
9.87
10.69
11.54
12.48
13.47
14.41
15.2
15.77
16.14
16.32
16.39
16.38
16.28
16.11
15.89
15.64
15.38
15.09
14.68
14.05
13.1
11.79
10.2
8.49
6.8
5.24
3.78
2.31
0.69
-1.17
-3.24
-5.41
-7.52
-9.49
-11.32
-13.07
-14.81
-16.56
-18.33
-20.23
-22.45
-25.2
-28.47
-31.85
-34.51
-35.48
-34
-29.91
-23.79
-16.71
-9.85
-4.02
0.42
3.54
5.69
7.2
8.34
9.34
10.34
11.44
12.61
13.71
14.53
14.94
14.95
14.7
14.39
14.13
13.9
13.6
13.12
12.47
11.75
11.07
10.51
10.02
9.45
8.64
7.49
5.95
4.08
2.01
-0.14
-2.23
-4.23
-6.13
-8.01
-9.93
-11.91
-13.97
-16.12
-18.51
-21.29
-24.55
-28.06
-31.27
-33.32
-33.38
-30.98
-26.19
-19.74
-12.65
-5.97
-0.45
3.61
6.34
8.09
9.31
10.32
11.26
12.13
12.89
13.46
13.84
14.01
13.96
13.66
13.13
12.5
11.98
11.74
11.81
12.03
12.11
11.78
10.94
9.7
8.27
6.83
5.38
3.82
2.01
-0.1
-2.43
-4.83
-7.17
-9.41
-11.56
-13.7
-15.9
-18.25
-20.86
-23.81
-27.12
-30.55
-33.61
-35.55
-35.62
-33.33
-28.71
-22.32
-15.1
-8.05
-1.9
2.97
6.58
9.17
11.05
12.51
13.78
14.98
16.12
17.09
17.76
18
17.8
17.3
16.75
16.38
16.28
16.39
16.5
16.37
15.86
14.91
13.59
11.99
10.19
8.25
6.19
4.02
1.74
-0.6
-2.92
-5.13
-7.18
-9.07
-10.87
-12.65
-14.45
-16.31
-18.29
-20.54
-23.28
-26.66
-30.59
-34.62
-37.88
-39.36
-38.24
-34.26
-27.84
-19.95
-11.74
-4.2
2.13
7.16
11.13
14.34
17.01
19.26
21.14
22.71
24.07
25.31
26.43
27.35
27.96
28.17
28.03
27.67
27.26
26.92
26.68
26.46
26.16
25.68
24.94
23.91
22.52
20.75
18.65
16.32
14
11.85
10
8.4
6.85
5.14
3.02
0.4
-2.64
-5.88
-9.01
-11.74
-13.96
-15.74
-17.35
-19.13
-21.42
-24.43
-28.12
-32.12
-35.78
-38.27
-38.81
-36.87
-32.42
-25.96
-18.4
-10.78
-3.93
1.66
5.93
9.12
11.56
13.59
15.44
17.28
19.13
20.97
22.63
23.89
24.57
24.61
24.14
23.5
23
22.89
23.18
23.69
24.14
24.29
24.02
23.35
22.4
21.23
19.86
18.26
16.38
14.26
11.98
9.64
7.37
5.23
3.29
1.57
0.07
-1.33
-2.79
-4.51
-6.65
-9.2
-12.01
-14.78
-17.22
-19.2
-20.79
-22.28
-24.08
-26.53
-29.8
-33.64
-37.46
-40.32
-41.24
-39.54
-35.07
-28.37
-20.47
-12.62
-5.83
-0.69
2.78
4.92
6.22
7.13
7.93
8.76
9.62
10.49
11.26
11.9
12.36
12.68
12.94
13.26
13.74
14.4
15.17
15.87
16.35
16.49
16.24
15.57
14.52
13.09
11.35
9.4
7.38
5.39
3.52
1.75
0.07
-1.57
-3.23
-4.94
-6.78
-8.84
-11.28
-14.24
-17.76
-21.67
-25.56
-28.77
-30.5
-30.09
-27.28
-22.34
-16.01
-9.3
-3.16
1.83
5.55
8.22
10.22
11.89
13.43
14.91
16.3
17.51
18.42
18.98
19.15
18.99
18.61
18.11
17.57
17.01
16.44
15.88
15.4
15
14.67
14.24
13.5
12.29
10.58
8.54
6.41
4.38
2.49
0.62
-1.41
-3.72
-6.26
-8.86
-11.34
-13.57
-15.63
-17.71
-20.09
-22.99
-26.42
-30.13
-33.52
-35.83
-36.3
-34.42
-30.19
-24.13
-17.12
-10.16
-3.98
1.06
5
8.12
10.7
12.94
14.87
16.45
17.62
18.39
18.87
19.19
19.46
19.71
19.87
19.84
19.53
18.93
18.2
17.56
17.2
17.21
17.48
17.71
17.56
16.74
15.19
13.05
10.63
8.25
6.11
4.24
2.53
0.84
-0.99
-3
-5.16
-7.35
-9.49
-11.48
-13.28
-14.91
-16.45
-18.02
-19.8
-21.98
-24.67
-27.84
-31.14
-33.92
-35.31
-34.51
-31.09
-25.26
-17.88
-10.17
-3.34
1.89
5.4
7.58
9.05
10.33
11.6
12.83
13.83
14.52
14.9
15.1
15.23
15.32
15.31
15.13
14.75
14.24
13.78
13.47
13.32
13.19
12.86
12.16
11.04
9.59
7.9
6.06
4.07
1.92
-0.39
-2.77
-5.12
-7.26
-9.12
-10.7
-12.13
-13.63
-15.47
-17.91
-21.06
-24.78
-28.6
-31.72
-33.26
-32.54
-29.38
-24.17
-17.78
-11.25
-5.41
-0.75
2.71
5.23
7.13
8.69
10.02
11.12
11.93
12.37
12.42
12.09
11.45
10.61
9.72
8.9
8.24
7.83
7.62
7.52
7.35
6.89
5.94
4.4
2.3
-0.2
-2.85
-5.44
-7.84
-10.07
-12.23
-14.56
-17.21
-20.25
-23.49
-26.42
-28.33
-28.49
-26.52
-22.5
-17.03
-10.96
-5.12
-0.02
4.2
7.67
10.59
13.11
15.25
16.97
18.27
19.2
19.82
20.2
20.31
20.12
19.59
18.7
17.56
16.3
15.09
14.05
13.19
12.37
11.42
10.14
8.39
6.23
3.79
1.3
-1.06
-3.18
-5.08
-6.91
-8.91
-11.3
-14.27
-17.81
-21.67
-25.35
-28.15
-29.37
-28.5
-25.48
-20.67
-14.81
-8.71
-3.07
1.71
5.55
8.6
11.07
13.13
14.89
16.38
17.63
18.72
19.66
20.46
21.05
21.34
21.24
20.78
20.1
19.37
18.74
18.27
17.88
17.47
16.93
16.21
15.34
14.36
13.25
12.04
10.72
9.35
8.05
6.89
5.88
4.95
3.93
2.68
1.08
-0.92
-3.27
-5.85
-8.51
-11.02
-13.2
-14.92
-16.23
-17.33
-18.53
-20.23
-22.66
-25.91
-29.74
-33.6
-36.68
-38.08
-37.1
-33.48
-27.57
-20.24
-12.66
-5.91
-0.62
3.15
5.76
7.81
9.76
11.81
13.87
15.69
17.03
17.83
18.15
18.17
18.04
17.84
17.58
17.25
16.92
16.71
16.78
17.13
17.61
17.93
17.77
16.93
15.46
13.57
11.55
9.61
7.87
6.31
4.95
3.77
2.76
1.81
0.69
-0.86
-2.99
-5.65
-8.51
-11.17
-13.38
-15.07
-16.49
-17.98
-19.88
-22.35
-25.37
-28.66
-31.78
-34.14
-35.11
-34.17
-31.1
-26.11
-19.84
-13.24
-7.24
-2.46
0.88
2.99
4.31
5.3
6.23
7.17
8.02
8.68
9.1
9.39
9.68
10.04
10.43
10.65
10.48
9.81
8.72
7.47
6.35
5.56
5.05
4.59
3.89
2.74
1.16
-0.67
-2.47
-4.03
-5.28
-6.28
-7.18
-8.13
-9.31
-10.87
-12.9
-15.4
-18.12
-20.6
-22.14
-22.1
-20.09
-16.21
-11.01
-5.3
0.05
4.49
7.8
10.12
11.74
12.99
14.06
14.96
15.57
15.73
15.37
14.56
13.5
12.41
11.46
10.68
10.06
9.53
9.04
8.62
8.23
7.78
7.08
5.94
4.21
1.93
-0.69
-3.31
-5.64
-7.48
-8.88
-10.18
-11.84
-14.29
-17.66
-21.57
-25.19
-27.45
-27.5
-24.97
-20.27
-14.29
-8.19
-2.85
1.31
4.34
6.63
8.55
10.33
11.98
13.44
14.61
15.48
16.09
16.48
16.66
16.61
16.31
15.74
14.91
13.89
12.75
11.61
10.54
9.64
8.85
8.1
7.21
6.05
4.57
2.83
0.93
-0.97
-2.77
-4.46
-6.08
-7.7
-9.41
-11.28
-13.38
-15.79
-18.51
-21.43
-24.23
-26.46
-27.58
-27.15
-25
-21.27
-16.43
-11.1
-5.89
-1.28
2.51
5.44
7.66
9.35
10.71
11.91
13.07
14.22
15.35
16.35
17.11
17.55
17.63
17.42
17.01
16.54
16.1
15.76
15.55
15.46
15.45
15.37
15.1
14.47
13.41
11.92
10.16
8.3
6.52
4.93
3.54
2.28
1.05
-0.25
-1.67
-3.2
-4.8
-6.36
-7.75
-8.95
-10
-11.07
-12.36
-14.05
-16.24
-18.93
-22.02
-25.28
-28.29
-30.44
-31.03
-29.53
-25.83
-20.41
-14.23
-8.39
-3.66
-0.28
2.08
4.03
6.02
8.22
10.45
12.41
13.89
14.87
15.52
16.02
16.47
16.87
17.16
17.28
17.24
17.07
16.83
16.57
16.28
15.9
15.36
14.55
13.41
11.96
10.32
8.67
7.21
6.04
5.09
4.19
3.08
1.56
-0.44
-2.76
-5.19
-7.43
-9.35
-10.89
-12.14
-13.22
-14.27
-15.49
-17.07
-19.13
-21.6
-24.09
-25.91
-26.29
-24.74
-21.3
-16.56
-11.44
-6.78
-3.06
-0.25
1.97
3.94
5.74
7.25
8.29
8.76
8.79
8.56
8.3
8.08
7.89
7.68
7.43
7.22
7.16
7.31
7.66
8.08
8.38
8.36
7.88
6.84
5.23
3.2
0.98
-1.13
-2.92
-4.29
-5.35
-6.27
-7.33
-8.69
-10.44
-12.53
-14.7
-16.55
-17.55
-17.23
-15.37
-12.13
-8.02
-3.77
-0.02
2.89
4.97
6.48
7.72
8.86
9.91
10.8
11.49
11.95
12.24
12.4
12.45
12.36
12.08
11.63
11.03
10.37
9.75
9.28
8.96
8.77
8.51
8.01
7.1
5.77
4.13
2.41
0.78
-0.66
-1.94
-3.19
-4.5
-5.94
-7.53
-9.29
-11.19
-13.25
-15.44
-17.71
-19.91
-21.77
-22.92
-22.94
-21.5
-18.52
-14.32
-9.5
-4.83
-0.89
2.02
4.01
5.38
6.47
7.46
8.39
9.19
9.8
10.26
10.67
11.16
11.78
12.48
13.12
13.48
13.41
12.86
11.95
10.96
10.17
9.78
9.76
9.91
9.92
9.52
8.63
7.32
5.79
4.2
2.65
1.17
-0.24
-1.55
-2.7
-3.66
-4.42
-5.1
-5.81
-6.68
-7.76
-9.02
-10.39
-11.82
-13.33
-15.05
-17.11
-19.56
-22.22
-24.64
-26.17
-26.14
-24.17
-20.32
-15.18
-9.67
-4.68
-0.82
1.77
3.32
4.27
4.99
5.69
6.42
7.14
7.81
8.45
9.09
9.72
10.26
10.59
10.61
10.34
9.88
9.46
9.27
9.42
9.84
10.36
10.69
10.63
10.08
9.07
7.7
6.19
4.72
3.44
2.46
1.76
1.25
0.76
0.11
-0.86
-2.17
-3.76
-5.53
-7.29
-8.9
-10.28
-11.42
-12.39
-13.28
-14.26
-15.46
-16.96
-18.72
-20.53
-22.01
-22.7
-22.14
-20.11
-16.71
-12.32
-7.51
-2.87
1.16
4.32
6.52
7.77
8.2
8.04
7.65
7.41
7.61
8.27
9.2
10.01
10.41
10.32
9.91
9.5
9.36
9.54
9.89
10.12
9.97
9.33
8.27
6.91
5.43
3.9
2.43
1.04
-0.24
-1.42
-2.55
-3.68
-4.87
-6.08
-7.22
-8.2
-8.99
-9.68
-10.43
-11.42
-12.7
-14.24
-15.88
-17.38
-18.4
-18.61
-17.7
-15.55
-12.29
-8.32
-4.24
-0.6
2.23
4.22
5.55
6.5
7.31
8.03
8.59
8.87
8.81
8.41
7.78
7.09
6.45
5.96
5.64
5.44
5.29
5.13
4.92
4.66
4.34
3.9
3.32
2.5
1.43
0.13
-1.37
-2.98
-4.61
-6.15
-7.52
-8.67
-9.68
-10.75
-12.13
-14.02
-16.45
-19.11
-21.44
-22.77
-22.57
-20.68
-17.34
-13.13
-8.73
-4.66
-1.22
1.6
3.91
5.86
7.45
8.64
9.38
9.71
9.82
9.91
10.13
10.49
10.84
10.98
10.82
10.35
9.76
9.26
9.08
9.26
9.72
10.2
10.43
10.2
9.39
8.08
6.45
4.76
3.24
1.99
1
0.14
-0.78
-1.95
-3.44
-5.19
-7
-8.67
-10.05
-11.11
-12.03
-13.05
-14.45
-16.4
-18.86
-21.57
-23.98
-25.48
-25.49
-23.68
-20.18
-15.51
-10.43
-5.67
-1.7
1.35
3.61
5.25
6.46
7.34
8
8.6
9.28
10.12
11.08
11.97
12.54
12.61
12.13
11.21
10.1
9.1
8.48
8.41
8.87
9.64
10.35
10.6
10.12
8.87
7.07
5.12
3.43
2.25
1.53
1.04
0.41
-0.67
-2.29
-4.3
-6.4
-8.27
-9.78
-10.95
-12
-13.16
-14.69
-16.75
-19.35
-22.38
-25.43
-27.89
-29.03
-28.28
-25.47
-20.93
-15.44
-9.91
-5.17
-1.66
0.52
1.62
2.04
2.25
2.65
3.5
4.83
6.48
8.15
9.48
10.24
10.37
10
9.39
8.8
8.4
8.26
8.35
8.51
8.58
8.45
8.06
7.41
6.5
5.36
3.97
2.37
0.62
-1.14
-2.77
-4.2
-5.45
-6.57
-7.68
-8.89
-10.29
-12.02
-14.23
-17.01
-20.31
-23.76
-26.74
-28.47
-28.29
-25.94
-21.65
-16.09
-10.18
-4.74
-0.34
2.83
4.83
5.97
6.57
6.99
7.44
8.07
8.85
9.65
10.29
10.61
10.55
10.1
9.34
8.39
7.39
6.5
5.83
5.41
5.12
4.73
3.95
2.61
0.7
-1.58
-3.93
-6.1
-8.02
-9.77
-11.63
-13.89
-16.75
-20.11
-23.56
-26.4
-27.84
-27.27
-24.47
-19.76
-13.92
-7.93
-2.62
1.54
4.57
6.79
8.62
10.37
12.08
13.64
14.9
15.78
16.35
16.71
16.96
17.09
16.98
16.55
15.81
14.87
14
13.38
13.08
12.94
12.7
12.02
10.72
8.76
6.27
3.51
0.7
-2.04
-4.64
-7.13
-9.57
-12.06
-14.8
-18.01
-21.8
-25.98
-30.03
-33.12
-34.42
-33.36
-29.87
-24.4
-17.84
-11.15
-5.14
-0.25
3.47
6.23
8.38
10.23
11.98
13.71
15.4
16.99
18.38
19.49
20.22
20.51
20.4
19.99
19.51
19.15
19.09
19.4
20
20.76
21.45
21.88
21.87
21.31
20.18
18.56
16.64
14.65
12.82
11.31
10.07
8.94
7.65
5.94
3.71
1.05
-1.77
-4.46
-6.91
-9.18
-11.58
-14.42
-17.97
-22.27
-27.17
-32.26
-36.97
-40.58
-42.38
-41.78
-38.54
-32.86
-25.48
-17.39
-9.67
-3.1
1.97
5.66
8.41
10.75
13.07
15.52
18.03
20.36
22.33
23.81
24.83
25.46
25.78
25.87
25.81
25.7
25.63
25.68
25.87
26.09
26.22
26.11
25.62
24.68
23.24
21.3
18.96
16.44
14.01
11.94
10.34
9.07
7.85
6.31
4.22
1.53
-1.52
-4.59
-7.32
-9.53
-11.26
-12.81
-14.57
-16.91
-20.01
-23.82
-28.08
-32.32
-35.97
-38.31
-38.67
-36.58
-32.01
-25.46
-17.87
-10.38
-3.87
1.27
5.13
8.11
10.62
12.84
14.77
16.39
17.73
18.91
20.09
21.28
22.36
23.05
23.2
22.8
22.06
21.29
20.79
20.63
20.72
20.8
20.54
19.72
18.29
16.39
14.27
12.2
10.32
8.66
7.11
5.46
3.55
1.3
-1.22
-3.85
-6.34
-8.49
-10.23
-11.64
-13.01
-14.75
-17.22
-20.6
-24.66
-28.71
-31.77
-32.84
-31.29
-27.1
-20.9
-13.76
-6.79
-0.87
3.65
6.86
9.14
10.88
12.32
13.5
14.34
14.76
14.81
14.66
14.56
14.7
15.1
15.57
15.81
15.57
14.78
13.65
12.49
11.6
11.05
10.64
10.02
8.87
7.1
4.86
2.43
0.06
-2.12
-4.16
-6.13
-8.13
-10.19
-12.31
-14.6
-17.19
-20.2
-23.54
-26.9
-29.66
-31.1
-30.64
-28.01
-23.47
-17.63
-11.38
-5.53
-0.61
3.26
6.25
8.67
10.78
12.69
14.38
15.81
17.02
18.13
19.3
20.56
21.8
22.78
23.27
23.13
22.45
21.44
20.39
19.53
18.97
18.65
18.42
18.02
17.23
15.92
14.08
11.9
9.67
7.73
6.3
5.34
4.59
3.69
2.34
0.45
-1.84
-4.2
-6.35
-8.14
-9.65
-11.04
-12.53
-14.22
-16.22
-18.6
-21.45
-24.66
-27.93
-30.56
-31.76
-30.84
-27.58
-22.35
-16.04
-9.68
-4.13
0.19
3.32
5.55
7.29
8.84
10.42
12.1
13.86
15.62
17.26
18.65
19.72
20.45
20.91
21.23
21.53
21.92
22.37
22.83
23.17
23.27
23.08
22.58
21.77
20.66
19.24
17.54
15.61
13.56
11.44
9.26
6.95
4.39
1.48
-1.69
-4.88
-7.79
-10.15
-11.87
-13.08
-14.07
-15.13
-16.48
-18.18
-20.21
-22.52
-25.11
-28
-31.14
-34.28
-36.91
-38.33
-37.93
-35.41
-30.96
-25.22
-19.08
-13.35
-8.57
-4.93
-2.31
-0.43
0.97
2.14
3.25
4.41
5.59
6.7
7.56
8.01
8.03
7.72
7.32
7.09
7.17
7.55
8.12
8.72
9.16
9.27
8.98
8.23
7.04
5.52
3.79
1.99
0.23
-1.44
-2.94
-4.26
-5.39
-6.42
-7.52
-8.89
-10.7
-13.02
-15.67
-18.23
-20.17
-20.95
-20.19
-17.82
-14.12
-9.62
-4.97
-0.78
2.55
4.8
6.01
6.39
6.2
5.77
5.37
5.15
5.12
5.16
5.11
4.87
4.52
4.2
4.1
4.3
4.67
4.98
4.92
4.29
3.09
1.5
-0.2
-1.79
-3.2
-4.55
-6.01
-7.73
-9.73
-11.92
-14.21
-16.57
-19.02
-21.42
-23.37
-24.24
-23.39
-20.49
-15.85
-10.25
-4.71
-0.05
3.35
5.57
6.99
7.99
8.85
9.67
10.42
11
11.27
11.12
10.49
9.5
8.36
7.34
6.55
5.9
5.18
4.17
2.82
1.28
-0.22
-1.55
-2.75
-3.99
-5.46
-7.21
-9.2
-11.35
-13.65
-16.08
-18.59
-20.86
-22.36
-22.52
-20.94
-17.67
-13.16
-8.18
-3.47
0.45
3.43
5.63
7.34
8.85
10.29
11.73
13.07
14.2
14.98
15.28
15.02
14.23
13.02
11.59
10.15
8.86
7.75
6.78
5.83
4.8
3.63
2.31
0.85
-0.74
-2.52
-4.54
-6.93
-9.75
-13
-16.46
-19.71
-22.15
-23.12
-22.16
-19.22
-14.66
-9.18
-3.61
1.4
5.5
8.63
10.91
12.55
13.72
14.58
15.29
15.97
16.73
17.6
18.54
19.4
20.03
20.28
20.07
19.47
18.6
17.68
16.92
16.42
16.21
16.21
16.26
16.18
15.83
15.12
14.1
12.85
11.54
10.36
9.4
8.64
7.88
6.91
5.57
3.9
2.09
0.45
-0.83
-1.67
-2.26
-2.92
-3.97
-5.64
-7.91
-10.56
-13.29
-15.79
-17.9
-19.62
-21.08
-22.49
-24.12
-26.19
-28.75
-31.64
-34.42
-36.36
-36.69
-34.84
-30.7
-24.7
-17.77
-10.88
-4.89
-0.21
3.12
5.38
6.92
8.07
9.07
10.01
10.96
11.94
12.92
13.94
14.95
15.92
16.77
17.34
17.48
17.17
16.53
15.88
15.53
15.66
16.16
16.7
16.89
16.46
15.44
14.14
12.95
12.15
11.67
11.2
10.36
8.93
7
4.96
3.29
2.25
1.83
1.71
1.43
0.6
-0.94
-3.11
-5.62
-8.13
-10.38
-12.21
-13.63
-14.74
-15.77
-16.97
-18.6
-20.84
-23.7
-26.96
-30.12
-32.47
-33.25
-31.92
-28.37
-23.04
-16.8
-10.6
-5.2
-0.94
2.21
4.47
6.13
7.36
8.3
9.02
9.66
10.34
11.07
11.77
12.28
12.46
12.33
12.01
11.72
11.6
11.64
11.76
11.84
11.8
11.64
11.35
10.91
10.24
9.25
7.93
6.34
4.64
2.97
1.43
0.01
-1.37
-2.83
-4.44
-6.21
-8.07
-9.93
-11.7
-13.43
-15.24
-17.41
-20.15
-23.44
-26.92
-29.84
-31.33
-30.65
-27.57
-22.47
-16.23
-9.93
-4.49
-0.4
2.36
4.18
5.58
6.95
8.44
9.96
11.33
12.4
13.11
13.54
13.78
13.91
13.95
13.89
13.73
13.49
13.26
13.07
12.89
12.62
12.14
11.39
10.42
9.32
8.23
7.16
6.05
4.71
3
0.87
-1.53
-3.94
-6.12
-7.95
-9.52
-11.04
-12.84
-15.13
-18.01
-21.43
-25.11
-28.6
-31.26
-32.45
-31.7
-28.86
-24.25
-18.53
-12.49
-6.86
-2.08
1.69
4.54
6.68
8.32
9.67
10.92
12.19
13.54
14.95
16.25
17.23
17.7
17.61
17.11
16.49
16.05
16.03
16.4
16.96
17.33
17.2
16.4
14.99
13.22
11.42
9.85
8.6
7.55
6.43
4.97
2.97
0.45
-2.37
-5.21
-7.81
-10.06
-11.96
-13.61
-15.15
-16.79
-18.8
-21.43
-24.8
-28.73
-32.62
-35.54
-36.53
-34.95
-30.77
-24.62
-17.5
-10.55
-4.56
0.05
3.31
5.48
6.93
8.04
9.12
10.45
12.11
14.04
15.95
17.49
18.34
18.39
17.76
16.73
15.63
14.76
14.28
14.23
14.51
14.89
15.09
14.83
13.92
12.41
10.49
8.51
6.75
5.31
4.12
2.97
1.65
-0
-2.04
-4.42
-7.07
-9.85
-12.67
-15.47
-18.3
-21.3
-24.63
-28.37
-32.28
-35.79
-38.07
-38.31
-36.04
-31.35
-24.92
-17.78
-10.95
-5.19
-0.82
2.2
4.17
5.45
6.31
7
7.69
8.47
9.38
10.39
11.37
12.22
12.81
13.09
13.11
12.98
12.83
12.79
12.93
13.2
13.46
13.44
12.84
11.46
9.3
6.56
3.63
0.89
-1.43
-3.32
-4.94
-6.57
-8.48
-10.86
-13.84
-17.43
-21.5
-25.63
-29.16
-31.26
-31.2
-28.62
-23.72
-17.23
-10.2
-3.61
1.85
5.97
8.91
11.08
12.89
14.56
16.16
17.56
18.64
19.33
19.74
20.01
20.26
20.5
20.62
20.43
19.8
18.76
17.52
16.35
15.45
14.85
14.36
13.62
12.37
10.45
7.94
5.07
2.1
-0.75
-3.39
-5.86
-8.26
-10.7
-13.33
-16.32
-19.86
-24
-28.51
-32.79
-35.98
-37.17
-35.78
-31.78
-25.74
-18.65
-11.52
-5.13
0.15
4.29
7.45
9.92
11.94
13.77
15.67
17.73
19.91
21.96
23.54
24.37
24.37
23.71
22.72
21.81
21.2
20.95
20.9
20.78
20.32
19.36
17.9
16.03
13.94
11.78
9.6
7.34
4.93
2.32
-0.45
-3.24
-5.87
-8.22
-10.23
-11.97
-13.63
-15.45
-17.73
-20.76
-24.65
-29.19
-33.74
-37.32
-38.84
-37.54
-33.25
-26.58
-18.66
-10.77
-3.92
1.44
5.41
8.43
11
13.47
15.95
18.36
20.56
22.44
23.93
24.99
25.58
25.67
25.26
24.41
23.32
22.22
21.37
20.92
20.83
20.93
20.94
20.63
19.87
18.63
17.04
15.27
13.47
11.77
10.22
8.74
7.23
5.53
3.5
1.09
-1.65
-4.57
-7.44
-10.09
-12.43
-14.51
-16.52
-18.72
-21.41
-24.7
-28.51
-32.39
-35.62
-37.31
-36.71
-33.49
-27.9
-20.83
-13.46
-6.94
-1.96
1.4
3.6
5.28
6.97
8.87
10.88
12.75
14.32
15.53
16.42
17.01
17.25
17.05
16.42
15.47
14.45
13.65
13.24
13.22
13.37
13.37
12.9
11.76
9.91
7.5
4.79
2.07
-0.41
-2.57
-4.43
-6.21
-8.19
-10.7
-13.94
-17.91
-22.23
-26.22
-28.93
-29.49
-27.42
-22.82
-16.42
-9.36
-2.76
2.55
6.3
8.7
10.22
11.39
12.56
13.89
15.33
16.74
17.92
18.73
19.08
19.01
18.66
18.18
17.65
17.07
16.38
15.52
14.58
13.73
13.13
12.76
12.41
11.68
10.23
7.92
4.96
1.78
-1.14
-3.52
-5.4
-7.07
-8.93
-11.24
-14.13
-17.51
-21.22
-25.01
-28.54
-31.33
-32.84
-32.54
-30.18
-25.88
-20.16
-13.8
-7.63
-2.27
1.98
5.14
7.45
9.21
10.67
11.93
12.95
13.59
13.69
13.26
12.47
11.65
11.21
11.43
12.39
13.98
16.02
18.27
20.64
23.03
25.39
27.59
29.46
30.75
31.32
31.09
30.17
28.8
27.21
25.57
23.89
22
19.67
16.74
13.2
9.28
5.37
1.82
-1.1
-3.35
-5.06
-6.46
-7.89
-9.67
-12.12
-15.51
-19.93
-25.13
-30.47
-34.98
-37.6
-37.58
-34.73
-29.58
-23.14
-16.56
-10.76
-6.2
-2.92
-0.63
1.04
2.46
3.84
5.31
6.84
8.3
9.53
10.39
10.87
11.11
11.23
11.33
11.39
11.34
11.16
10.96
10.91
11.15
11.61
12.07
12.21
11.81
10.86
9.47
7.87
6.21
4.56
2.96
1.44
0.08
-1.05
-2.02
-3
-4.2
-5.75
-7.59
-9.48
-11.18
-12.52
-13.51
-14.37
-15.37
-16.76
-18.7
-21.2
-24.16
-27.36
-30.31
-32.41
-33.04
-31.72
-28.39
-23.43
-17.6
-11.78
-6.69
-2.73
0.1
2.07
3.52
4.79
6.02
7.2
8.23
8.96
9.31
9.31
9.1
8.81
8.52
8.18
7.73
7.12
6.45
5.87
5.53
5.47
5.53
5.4
4.81
3.64
1.96
-0.01
-2
-3.83
-5.44
-6.87
-8.2
-9.56
-11.05
-12.82
-15.01
-17.69
-20.78
-23.91
-26.45
-27.68
-26.98
-24.19
-19.65
-14.12
-8.48
-3.41
0.73
3.93
6.37
8.21
9.57
10.5
11.09
11.48
11.8
12.12
12.37
12.45
12.26
11.79
11.17
10.58
10.16
9.98
10.02
10.19
10.45
10.72
10.95
11.03
10.83
10.2
9.04
7.4
5.47
3.52
1.78
0.35
-0.9
-2.21
-3.89
-6.16
-8.99
-12.13
-15.11
-17.4
-18.46
-17.96
-15.82
-12.27
-7.84
-3.19
1.05
4.39
6.66
7.92
8.41
8.43
8.26
8.11
8.13
8.38
8.85
9.43
9.93
10.16
9.99
9.42
8.61
7.8
7.16
6.81
6.71
6.72
6.66
6.35
5.67
4.54
3.03
1.28
-0.43
-1.81
-2.66
-3.04
-3.23
-3.62
-4.5
-5.96
-7.78
-9.64
-11.24
-12.47
-13.42
-14.32
-15.42
-16.91
-18.89
-21.34
-24.07
-26.64
-28.41
-28.69
-27.04
-23.42
-18.32
-12.52
-6.91
-2.15
1.46
3.87
5.27
5.88
5.94
5.65
5.25
4.92
4.78
4.87
5.13
5.43
5.63
5.63
5.41
4.99
4.49
4.06
3.82
3.79
3.86
3.79
3.32
2.25
0.57
-1.52
-3.7
-5.61
-7.08
-8.14
-9.06
-10.24
-11.99
-14.44
-17.42
-20.5
-23.06
-24.49
-24.31
-22.31
-18.6
-13.62
-7.99
-2.35
2.71
6.85
9.92
11.95
13.08
13.5
13.4
12.94
12.22
11.32
10.28
9.2
8.18
7.35
6.77
6.4
6.13
5.78
5.15
4.12
2.64
0.75
-1.37
-3.51
-5.48
-7.17
-8.62
-9.95
-11.34
-12.96
-14.93
-17.33
-20.21
-23.47
-26.78
-29.5
-30.81
-29.96
-26.7
-21.37
-14.87
-8.35
-2.73
1.57
4.64
6.92
8.89
10.83
12.72
14.34
15.42
15.85
15.7
15.24
14.75
14.42
14.21
13.99
13.58
12.91
12.06
11.17
10.39
9.76
9.22
8.61
7.79
6.65
5.15
3.31
1.19
-1.07
-3.29
-5.34
-7.13
-8.7
-10.17
-11.74
-13.58
-15.88
-18.72
-22.04
-25.54
-28.67
-30.71
-30.94
-28.91
-24.63
-18.63
-11.77
-5.09
0.61
4.87
7.68
9.39
10.49
11.46
12.57
13.9
15.37
16.83
18.18
19.35
20.32
21.04
21.45
21.5
21.19
20.66
20.08
19.7
19.65
19.89
20.21
20.27
19.84
18.88
17.58
16.28
15.23
14.43
13.64
12.49
10.79
8.66
6.47
4.64
3.37
2.51
1.65
0.39
-1.51
-3.99
-6.73
-9.38
-11.67
-13.55
-15.14
-16.65
-18.33
-20.37
-22.91
-25.98
-29.46
-33
-35.99
-37.63
-37.2
-34.27
-28.98
-22.03
-14.49
-7.45
-1.66
2.65
5.65
7.79
9.5
11.03
12.51
13.96
15.36
16.69
17.89
18.85
19.45
19.62
19.41
18.98
18.59
18.41
18.45
18.6
18.6
18.25
17.5
16.41
15.16
13.95
12.85
11.86
10.9
9.93
8.88
7.73
6.46
5.07
3.54
1.88
0.09
-1.8
-3.73
-5.65
-7.46
-9.1
-10.52
-11.73
-12.74
-13.67
-14.71
-16.13
-18.24
-21.22
-24.91
-28.75
-31.83
-33.13
-31.96
-28.26
-22.62
-16.06
-9.61
-3.96
0.64
4.28
7.21
9.6
11.49
12.86
13.72
14.15
14.35
14.51
14.72
15.02
15.32
15.46
15.37
15.08
14.74
14.55
14.66
15.02
15.4
15.48
15.01
13.89
12.3
10.57
9.02
7.85
7.03
6.34
5.49
4.2
2.32
-0.11
-2.88
-5.7
-8.25
-10.33
-11.95
-13.25
-14.5
-15.97
-17.91
-20.39
-23.27
-26.17
-28.46
-29.41
-28.38
-25.11
-19.8
-13.19
-6.28
-0.07
4.74
7.92
9.64
10.37
10.62
10.83
11.29
12.07
13.09
14.11
14.94
15.4
15.46
15.21
14.78
14.28
13.8
13.35
12.95
12.6
12.24
11.77
11.04
9.95
8.48
6.73
4.9
3.15
1.54
0.02
-1.49
-3.08
-4.77
-6.51
-8.26
-10
-11.77
-13.67
-15.83
-18.37
-21.33
-24.6
-27.74
-30.07
-30.78
-29.26
-25.44
-19.81
-13.29
-6.94
-1.49
2.74
5.88
8.24
10.07
11.45
12.39
12.94
13.3
13.73
14.46
15.5
16.68
17.65
18.11
17.91
17.14
16.06
15
14.24
13.89
13.89
14.05
14.09
13.74
12.82
11.35
9.46
7.41
5.43
3.62
1.97
0.32
-1.44
-3.34
-5.34
-7.31
-9.16
-10.86
-12.42
-13.87
-15.3
-16.85
-18.7
-21.09
-24.17
-27.82
-31.52
-34.43
-35.58
-34.28
-30.33
-24.23
-16.95
-9.67
-3.31
1.62
5.09
7.35
8.77
9.64
10.22
10.69
11.22
11.91
12.73
13.54
14.13
14.34
14.14
13.67
13.11
12.65
12.36
12.25
12.23
12.25
12.25
12.12
11.75
11.01
9.85
8.39
6.88
5.58
4.71
4.21
3.76
2.92
1.36
-1.02
-3.96
-6.94
-9.49
-11.35
-12.62
-13.65
-14.88
-16.66
-19.12
-22.21
-25.72
-29.35
-32.64
-34.98
-35.69
-34.23
-30.46
-24.71
-17.81
-10.81
-4.63
0.15
3.45
5.57
7
8.18
9.35
10.51
11.53
12.27
12.67
12.84
12.93
13.13
13.47
13.91
14.3
14.45
14.27
13.73
12.93
12.02
11.11
10.26
9.39
8.36
7.01
5.28
3.19
0.9
-1.38
-3.5
-5.39
-7.1
-8.75
-10.48
-12.35
-14.43
-16.78
-19.47
-22.51
-25.7
-28.62
-30.57
-30.79
-28.75
-24.39
-18.21
-11.15
-4.27
1.6
6.06
9.18
11.25
12.66
13.68
14.44
14.98
15.29
15.37
15.28
15.09
14.87
14.67
14.48
14.24
13.91
13.43
12.79
12.09
11.42
10.83
10.31
9.74
8.99
7.97
6.68
5.19
3.55
1.78
-0.16
-2.29
-4.54
-6.77
-8.83
-10.66
-12.36
-14.17
-16.46
-19.46
-23.17
-27.22
-30.89
-33.28
-33.6
-31.35
-26.65
-20.1
-12.67
-5.41
0.9
5.85
9.44
11.93
13.71
15.09
16.29
17.42
18.45
19.35
20.1
20.69
21.15
21.45
21.53
21.31
20.74
19.9
18.95
18.1
17.47
17.04
16.64
15.98
14.89
13.31
11.41
9.46
7.71
6.3
5.16
4.05
2.64
0.68
-1.89
-4.89
-7.95
-10.7
-12.9
-14.55
-15.85
-17.17
-18.87
-21.29
-24.67
-29.08
-34.32
-39.83
-44.72
-47.95
-48.56
-46.04
-40.55
-32.86
-24.14
-15.55
-7.95
-1.78
2.9
6.27
8.6
10.24
11.49
12.69
14.04
15.59
17.24
18.72
19.83
20.45
20.7
20.79
20.99
21.46
22.22
23.13
23.98
24.56
24.68
24.26
23.31
21.97
20.41
18.83
17.36
15.98
14.61
13.1
11.4
9.55
7.67
5.9
4.24
2.57
0.69
-1.62
-4.4
-7.55
-10.83
-13.97
-16.78
-19.19
-21.25
-23.17
-25.22
-27.7
-30.87
-34.77
-39.08
-43.13
-45.94
-46.53
-44.25
-39.01
-31.42
-22.55
-13.67
-5.81
0.42
4.99
8.22
10.59
12.48
14.13
15.59
16.88
18.03
19.07
20.01
20.8
21.33
21.51
21.39
21.11
20.89
20.93
21.21
21.62
21.92
21.93
21.53
20.7
19.48
17.9
16.04
14
11.94
10
8.25
6.65
5.06
3.37
1.51
-0.51
-2.66
-4.97
-7.49
-10.21
-13.04
-15.76
-18.16
-20.15
-21.84
-23.52
-25.57
-28.26
-31.67
-35.51
-39.23
-41.96
-42.81
-41.08
-36.55
-29.63
-21.25
-12.65
-4.88
1.39
6.01
9.23
11.43
13.01
14.2
15.13
15.88
16.55
17.18
17.77
18.22
18.39
18.15
17.49
16.51
15.43
14.47
13.81
13.48
13.4
13.41
13.33
12.98
12.24
10.99
9.23
6.99
4.44
1.76
-0.84
-3.23
-5.43
-7.51
-9.58
-11.76
-14.14
-16.85
-20.08
-23.95
-28.39
-32.96
-36.78
-38.77
-37.99
-34.05
-27.37
-19.02
-10.42
-2.8
3.1
7.2
9.89
11.76
13.31
14.78
16.22
17.56
18.72
19.67
20.42
20.97
21.33
21.5
21.5
21.41
21.33
21.32
21.39
21.36
21.02
20.16
18.75
16.9
14.84
12.8
10.85
8.9
6.76
4.25
1.31
-1.96
-5.39
-8.78
-11.97
-14.93
-17.71
-20.42
-23.21
-26.27
-29.76
-33.68
-37.68
-41.1
-42.99
-42.42
-38.86
-32.48
-24.12
-15.06
-6.6
0.39
5.6
9.22
11.77
13.72
15.42
17.03
18.59
20.07
21.4
22.49
23.28
23.74
23.9
23.84
23.61
23.25
22.77
22.15
21.41
20.55
19.58
18.44
17.07
15.46
13.68
11.84
10.06
8.37
6.68
4.82
2.6
-0.12
-3.31
-6.81
-10.37
-13.7
-16.64
-19.2
-21.62
-24.29
-27.59
-31.73
-36.49
-41.27
-45.12
-47
-46.13
-42.26
-35.72
-27.39
-18.42
-9.88
-2.52
3.36
7.89
11.36
14.14
16.47
18.5
20.26
21.81
23.2
24.46
25.55
26.39
26.89
26.97
26.71
26.23
25.7
25.26
24.92
24.58
24.12
23.38
22.24
20.67
18.7
16.41
13.94
11.47
9.1
6.87
4.73
2.52
0.08
-2.69
-5.76
-8.99
-12.21
-15.25
-18.07
-20.7
-23.33
-26.21
-29.6
-33.64
-38.18
-42.67
-46.21
-47.74
-46.42
-41.96
-34.77
-25.87
-16.6
-8.16
-1.34
3.59
6.8
8.77
10.01
10.96
11.95
13.09
14.32
15.51
16.43
16.91
16.84
16.22
15.12
13.72
12.26
11.01
10.16
9.72
9.43
8.86
7.54
5.23
2.02
-1.63
-5.15
-8.07
-10.23
-11.77
-12.96
-13.99
-14.85
-15.35
-15.31
-14.71
-13.79
-12.96
-12.6
-13.03
-14.4
-16.63
-19.47
-22.36
-24.54
-25.13
-23.47
-19.37
-13.41
-6.75
-0.75
3.58
6
7.02
7.65
8.77
10.76
13.38
15.99
17.96
18.99
19.24
19.12
19.09
19.39
19.92
20.38
20.51
20.22
19.7
19.37
19.59
20.49
21.84
23.17
24.01
24.17
23.86
23.51
23.58
24.22
25.26
26.3
26.89
26.74
25.63
23.4
20.03
15.73
11.17
7.4
5.61
6.66
10.67
16.9
24.08
30.83
36.14
39.54
41.03
40.88
39.41
36.91
33.61
29.77
25.65
21.5
17.51
13.79
10.39
7.26
4.39
1.72
-0.7
-2.88
-4.78
-6.4
-7.78
-8.99
-10.09
-11.16
-12.31
-13.61
-15.16
-16.96
-18.94
-20.92
-22.76
-24.35
-25.67
-26.74
-27.64
-28.52
-29.6
-31.21
-33.6
-36.81
-40.46
-43.74
-45.55
-44.93
-41.33
-34.94
-26.54
-17.37
-8.65
-1.29
4.29
8.17
10.77
12.6
14.09
15.47
16.84
18.21
19.57
20.93
22.25
23.39
24.18
24.42
24.08
23.33
22.49
21.88
21.65
21.76
21.98
22.04
21.74
20.97
19.75
18.15
16.36
14.63
13.21
12.25
11.64
11.05
10.09
8.49
6.25
3.7
1.3
-0.6
-1.89
-2.84
-3.84
-5.3
-7.38
-9.95
-12.67
-15.12
-17.08
-18.55
-19.84
-21.39
-23.6
-26.68
-30.55
-34.91
-39.16
-42.5
-44.05
-43.06
-39.2
-32.76
-24.64
-16.09
-8.31
-2.08
2.37
5.32
7.24
8.6
9.75
10.92
12.27
13.9
15.78
17.73
19.5
20.76
21.32
21.19
20.58
19.8
19.18
18.92
19.03
19.37
19.68
19.69
19.24
18.3
17.04
15.66
14.38
13.28
12.31
11.3
10.09
8.61
6.87
5.02
3.24
1.72
0.56
-0.23
-0.8
-1.4
-2.27
-3.62
-5.49
-7.75
-10.2
-12.59
-14.74
-16.6
-18.25
-19.88
-21.77
-24.15
-27.05
-30.15
-32.75
-33.96
-33.04
-29.69
-24.24
-17.59
-10.85
-4.95
-0.41
2.71
4.65
5.77
6.39
6.78
7.13
7.64
8.41
9.45
10.66
11.82
12.72
13.17
13.16
12.77
12.23
11.77
11.6
11.78
12.2
12.6
12.64
12.07
10.79
8.93
6.77
4.69
2.96
1.71
0.88
0.23
-0.54
-1.67
-3.23
-5.12
-7.1
-8.92
-10.41
-11.57
-12.56
-13.6
-14.95
-16.78
-19.07
-21.59
-23.84
-25.21
-25.08
-23.05
-19.15
-13.83
-7.9
-2.24
2.48
5.89
8.05
9.24
9.9
10.42
11.08
12
13.11
14.23
15.08
15.46
15.3
14.69
13.89
13.23
12.95
13.13
13.68
14.36
14.85
14.89
14.2
12.7
10.43
7.62
4.66
1.95
-0.17
-1.59
-2.42
-2.92
-3.41
-4.15
-5.29
-6.83
-8.65
-10.62
-12.58
-14.46
-16.21
-17.87
-19.52
-21.37
-23.57
-26.13
-28.77
-30.83
-31.5
-30.11
-26.45
-20.92
-14.49
-8.24
-3.09
0.56
2.84
4.12
4.89
5.49
6.17
7
8
9.08
10.06
10.73
10.92
10.6
9.93
9.24
8.84
8.95
9.59
10.52
11.41
11.98
12.1
11.82
11.25
10.45
9.4
8
6.29
4.44
2.76
1.55
0.83
0.36
-0.29
-1.5
-3.41
-5.84
-8.38
-10.64
-12.41
-13.71
-14.75
-15.81
-17.09
-18.74
-20.81
-23.24
-25.86
-28.31
-30.06
-30.51
-29.15
-25.81
-20.79
-14.82
-8.8
-3.58
0.36
2.91
4.32
4.98
5.28
5.48
5.73
6.06
6.45
6.85
7.21
7.49
7.65
7.69
7.63
7.52
7.45
7.45
7.62
7.96
8.42
8.85
9.09
9
8.57
7.94
7.27
6.71
6.24
5.74
5.02
3.95
2.53
0.92
-0.64
-1.95
-2.91
-3.57
-4.14
-4.86
-5.98
-7.59
-9.61
-11.83
-13.97
-15.86
-17.5
-19.08
-20.81
-22.86
-25.24
-27.8
-30.28
-32.34
-33.51
-33.31
-31.28
-27.22
-21.35
-14.34
-7.15
-0.75
4.15
7.34
9.01
9.62
9.68
9.63
9.74
10.09
10.64
11.23
11.68
11.86
11.72
11.31
10.73
10.13
9.65
9.42
9.45
9.7
9.99
10.04
9.64
8.67
7.24
5.65
4.19
3.05
2.11
1.12
-0.24
-2.06
-4.21
-6.38
-8.24
-9.69
-10.8
-11.85
-13.14
-14.87
-17.08
-19.62
-22.19
-24.32
-25.49
-25.23
-23.28
-19.7
-14.89
-9.52
-4.3
0.16
3.53
5.77
7.1
7.86
8.43
9.04
9.74
10.43
10.94
11.15
11.1
10.93
10.81
10.79
10.84
10.86
10.77
10.56
10.28
9.92
9.41
8.59
7.34
5.61
3.5
1.19
-1.14
-3.4
-5.57
-7.62
-9.53
-11.3
-13.01
-14.83
-17
-19.7
-22.84
-26.06
-28.75
-30.25
-30.04
-27.97
-24.22
-19.29
-13.79
-8.36
-3.53
0.41
3.36
5.46
6.95
8.07
9.02
9.88
10.66
11.37
12.07
12.82
13.63
14.43
15.07
15.4
15.36
15.01
14.53
14.14
13.93
13.87
13.81
13.56
12.96
11.95
10.54
8.86
7.06
5.3
3.66
2.14
0.6
-1.08
-3.04
-5.28
-7.74
-10.25
-12.66
-14.82
-16.67
-18.27
-19.79
-21.54
-23.89
-27.1
-31.13
-35.57
-39.59
-42.23
-42.67
-40.54
-36.02
-29.77
-22.7
-15.76
-9.69
-4.94
-1.62
0.46
1.71
2.61
3.6
4.94
6.65
8.53
10.28
11.64
12.44
12.69
12.47
11.96
11.32
10.74
10.31
10.1
10.05
10.01
9.82
9.36
8.59
7.56
6.31
4.86
3.16
1.13
-1.27
-3.98
-6.79
-9.42
-11.49
-12.71
-12.93
-12.25
-11.04
-9.91
-9.47
-10.23
-12.34
-15.61
-19.56
-23.65
-27.37
-30.46
-32.88
-34.73
-36.15
-37.16
-37.56
-36.87
-34.47
-29.83
-22.7
-13.33
-2.37
9.31
20.84
31.58
41.2
49.49
56.31
61.43
64.58
65.51
64.24
61.06
56.63
51.74
47.15
43.34
40.42
38.15
36.07
33.78
31.01
27.72
24.02
20.07
15.96
11.78
7.6
3.55
-0.21
-3.57
-6.51
-9.11
-11.48
-13.68
-15.6
-17.11
-18.04
-18.38
-18.33
-18.29
-18.7
-19.95
-22.23
-25.41
-29.03
-32.38
-34.61
-35.04
-33.35
-29.76
-25.02
-20.09
-15.8
-12.51
-10.06
-7.91
-5.56
-2.82
0.09
2.72
4.68
5.94
6.81
7.78
9.28
11.37
13.79
16.1
17.94
19.26
20.35
21.6
23.21
24.92
26.04
25.7
23.32
18.99
13.47
7.97
3.5
0.5
-1.41
-3.14
-5.68
-9.74
-15.49
-22.68
-30.82
-39.22
-47.04
-53.18
-56.47
-55.96
-51.39
-43.38
-33.34
-22.95
-13.59
-5.89
0.24
5.35
9.98
14.44
18.73
22.74
26.33
29.45
31.97
33.65
34.17
33.28
31
27.74
24.15
20.93
18.55
17.13
16.51
16.33
16.32
16.29
16.2
16.02
15.75
15.43
15.09
14.8
14.64
14.58
14.53
14.39
14.04
13.46
12.73
11.93
11.14
10.43
9.83
9.35
8.95
8.62
8.28
7.85
7.28
6.65
6.12
5.91
6.16
6.9
7.97
9.1
10.09
10.82
11.34
11.74
12.12
12.47
12.77
12.96
13.08
13.24
13.54
14.01
14.57
15.07
15.36
15.38
15.15
14.79
14.43
14.18
14.06
14
13.93
13.81
13.64
13.48
13.35
13.2
12.89
12.24
11.16
9.65
7.87
6.02
4.29
2.75
1.36
0.07
-1.18
-2.33
-3.34
-4.14
-4.73
-5.14
-5.39
-5.49
-5.39
-5.05
-4.49
-3.75
-2.94
-2.16
-1.48
-0.94
-0.56
-0.31
-0.19
-0.17
-0.22
-0.33
-0.48
-0.63
-0.74
-0.74
-0.58
-0.26
0.15
0.52
0.68
0.59
0.23
-0.3
-0.94
-1.68
-2.59
-3.75
-5.13
-6.63
-8.1
-9.41
-10.57
-11.68
-12.88
-14.26
-15.83
-17.51
-19.22
-20.89
-22.41
-23.68
-24.44
-24.44
-23.47
-21.48
-18.66
-15.33
-11.89
-8.67
-5.92
-3.68
-1.93
-0.6
0.4
1.08
1.44
1.48
1.26
0.93
0.75
1
1.86
3.33
5.2
7.1
8.64
9.48
9.45
8.51
6.73
4.23
1.17
-2.3
-6.02
-9.84
-13.62
-17.22
-20.64
-24.07
-27.8
-32.04
-36.68
-41.05
-44.05
-44.53
-41.83
-36.14
-28.51
-20.43
-13.2
-7.54
-3.37
-0.18
2.66
5.49
8.33
10.93
13.03
14.47
15.23
15.47
15.34
15.03
14.59
13.99
13.16
12
10.46
8.58
6.42
4.04
1.53
-1.1
-3.83
-6.55
-9.16
-11.56
-13.68
-15.55
-17.31
-19.14
-21.08
-23.06
-24.74
-25.62
-25.13
-22.92
-18.99
-13.82
-8.15
-2.75
1.89
5.67
8.83
11.68
14.44
17.08
19.37
21.11
22.2
22.72
22.83
22.69
22.4
21.94
21.26
20.33
19.15
17.79
16.31
14.84
13.46
12.18
10.95
9.62
8.04
6.09
3.81
1.31
-1.19
-3.53
-5.58
-7.37
-9.02
-10.73
-12.7
-15.13
-18.14
-21.71
-25.56
-29.11
-31.5
-31.86
-29.64
-24.89
-18.31
-11.04
-4.21
1.44
5.7
8.83
11.28
13.43
15.38
17.1
18.53
19.69
20.73
21.81
23.01
24.22
25.2
25.7
25.58
24.91
23.98
23.13
22.58
22.39
22.41
22.4
22.17
21.62
20.78
19.74
18.61
17.46
16.39
15.44
14.63
13.89
13.09
12.14
10.98
9.63
8.18
6.66
5.1
3.49
1.84
0.28
-1.11
-2.24
-3.2
-4.16
-5.35
-6.93
-8.89
-11.09
-13.3
-15.29
-16.97
-18.35
-19.54
-20.76
-22.29
-24.39
-27.23
-30.76
-34.55
-37.86
-39.69
-39.19
-35.89
-30.03
-22.46
-14.49
-7.33
-1.81
1.92
4.27
5.89
7.38
9.05
10.86
12.59
13.98
14.94
15.52
15.88
16.17
16.42
16.57
16.51
16.19
15.72
15.27
15
14.97
15.07
15.05
14.71
13.92
12.78
11.48
10.26
9.26
8.53
8.03
7.65
7.28
6.82
6.19
5.33
4.26
3.05
1.86
0.77
-0.13
-0.87
-1.53
-2.23
-3.12
-4.28
-5.74
-7.43
-9.19
-10.81
-12.13
-13.08
-13.86
-14.76
-16.19
-18.36
-21.28
-24.59
-27.64
-29.6
-29.77
-27.76
-23.69
-18.15
-12.01
-6.13
-1.13
2.75
5.57
7.53
8.88
9.79
10.41
10.89
11.33
11.83
12.37
12.9
13.31
13.53
13.48
13.16
12.61
11.9
11.2
10.68
10.43
10.41
10.39
10.14
9.53
8.58
7.5
6.54
5.78
5.13
4.33
3.09
1.22
-1.25
-4.09
-6.95
-9.5
-11.53
-13.08
-14.39
-15.81
-17.66
-20
-22.56
-24.75
-25.82
-25.16
-22.55
-18.22
-12.83
-7.2
-2.06
2.13
5.24
7.33
8.57
9.08
8.94
8.33
7.48
6.75
6.51
6.95
8.04
9.56
11.15
12.56
13.71
14.72
15.76
16.92
18.12
19.1
19.53
19.17
18.02
16.28
14.33
12.59
11.32
10.61
10.35
10.26
9.97
9.16
7.66
5.48
2.89
0.33
-1.72
-2.95
-3.39
-3.51
-4.05
-5.75
-9.05
-13.81
-19.28
-24.27
-27.55
-28.25
-26.23
-22.08
-16.93
-12.06
-8.46
-6.6
-6.36
-7.24
-8.63
-9.98
-10.96
-11.38
-11.18
-10.35
-8.96
-7.21
-5.39
-3.78
-2.61
-1.87
-1.38
-0.87
-0.14
0.89
2.06
3.1
3.72
3.71
3.05
1.85
0.28
-1.41
-2.97
-4.21
-5.01
-5.45
-5.75
-6.22
-7.13
-8.57
-10.43
-12.44
-14.33
-15.9
-17.13
-18.12
-19.04
-20.09
-21.51
-23.46
-25.96
-28.81
-31.46
-33.1
-32.94
-30.52
-25.91
-19.76
-13.03
-6.64
-1.22
3.02
6.23
8.65
10.53
12.01
13.16
14.07
14.8
15.41
15.94
16.34
16.54
16.48
16.15
15.64
15.1
14.75
14.76
15.14
15.74
16.27
16.42
16.01
15.09
13.85
12.46
11.05
9.59
8.02
6.35
4.7
3.26
2.2
1.54
1.13
0.7
-0.02
-1.15
-2.68
-4.48
-6.38
-8.27
-10.17
-12.12
-14.24
-16.63
-19.36
-22.46
-25.79
-29.01
-31.45
-32.31
-30.88
-26.88
-20.74
-13.48
-6.4
-0.55
3.54
5.97
7.27
8.06
8.81
9.69
10.7
11.81
12.94
14.08
15.15
16.07
16.74
17.12
17.21
17.07
16.74
16.25
15.63
14.99
14.44
14.1
14
14.09
14.19
14.07
13.52
12.46
10.95
9.12
7.21
5.45
3.98
2.86
2
1.18
0.15
-1.31
-3.22
-5.46
-7.77
-9.91
-11.73
-13.24
-14.58
-15.9
-17.4
-19.23
-21.5
-24.12
-26.81
-29.01
-29.98
-29.05
-25.92
-20.83
-14.51
-7.94
-2.04
2.67
6.03
8.21
9.5
10.14
10.38
10.42
10.5
10.78
11.34
12.07
12.79
13.28
13.45
13.27
12.84
12.26
11.68
11.23
11.04
11.12
11.37
11.55
11.41
10.76
9.61
8.14
6.67
5.44
4.57
3.94
3.27
2.22
0.57
-1.72
-4.4
-7.09
-9.42
-11.19
-12.45
-13.48
-14.69
-16.4
-18.76
-21.64
-24.68
-27.31
-28.85
-28.69
-26.47
-22.21
-16.44
-10.06
-4.06
0.8
4.19
6.3
7.58
8.51
9.41
10.34
11.26
12.14
13
13.91
14.9
15.84
16.55
16.84
16.65
16.09
15.37
14.71
14.21
13.83
13.42
12.82
11.92
10.74
9.38
8.05
6.92
6.11
5.55
5.04
4.29
3.11
1.42
-0.66
-2.94
-5.16
-7.15
-8.87
-10.3
-11.52
-12.54
-13.46
-14.37
-15.43
-16.82
-18.7
-21.15
-24.09
-27.18
-29.85
-31.35
-30.97
-28.3
-23.44
-17.06
-10.16
-3.76
1.45
5.25
7.84
9.54
10.65
11.35
11.75
11.97
12.19
12.59
13.24
14.04
14.77
15.25
15.38
15.24
15
14.87
14.92
15.06
15.19
15.21
15.13
15.06
15.05
15.07
14.93
14.4
13.37
11.85
10.02
8.08
6.27
4.75
3.62
2.93
2.57
2.36
2.01
1.27
0.1
-1.36
-2.8
-3.98
-4.89
-5.74
-6.85
-8.41
-10.35
-12.4
-14.22
-15.65
-16.72
-17.61
-18.58
-19.84
-21.53
-23.74
-26.43
-29.3
-31.76
-33
-32.25
-29.13
-23.9
-17.42
-10.79
-5
-0.55
2.58
4.74
6.37
7.74
8.98
10.07
11.05
11.93
12.78
13.56
14.18
14.51
14.5
14.21
13.8
13.48
13.38
13.51
13.75
13.93
13.95
13.74
13.31
12.66
11.74
10.54
9.04
7.36
5.68
4.18
2.93
1.91
1
0.1
-0.82
-1.75
-2.65
-3.59
-4.69
-6.06
-7.75
-9.66
-11.59
-13.31
-14.7
-15.8
-16.87
-18.23
-20.21
-22.94
-26.23
-29.54
-32.1
-33.05
-31.8
-28.19
-22.65
-16.04
-9.46
-3.85
0.23
2.69
3.79
3.99
3.73
3.33
3.02
2.85
2.86
2.98
3.13
3.16
2.9
2.25
1.21
-0.06
-1.33
-2.32
-2.87
-3
-2.95
-3.05
-3.61
-4.77
-6.38
-8.1
-9.48
-10.19
-10.03
-9.07
-7.49
-5.55
-3.47
-1.35
0.78
2.93
5.09
7.17
8.99
10.28
10.84
10.55
9.55
8.19
7.01
6.53
7.05
8.54
10.67
12.92
14.79
15.93
16.19
15.58
14.22
12.29
10.08
7.99
6.41
5.59
5.49
5.8
6.07
5.94
5.28
4.27
3.22
2.39
1.87
1.52
1.1
0.39
-0.67
-2
-3.4
-4.72
-5.88
-6.98
-8.17
-9.65
-11.58
-13.97
-16.71
-19.56
-22.23
-24.51
-26.31
-27.76
-29.17
-30.88
-33.1
-35.77
-38.47
-40.54
-41.24
-40.03
-36.7
-31.5
-25.03
-18.05
-11.32
-5.39
-0.52
3.26
6.13
8.39
10.32
12.12
13.9
15.64
17.24
18.6
19.65
20.32
20.63
20.64
20.44
20.17
19.97
19.97
20.23
20.74
21.34
21.79
21.91
21.55
20.7
19.46
18.03
16.62
15.38
14.35
13.42
12.38
11.03
9.28
7.18
4.95
2.87
1.12
-0.26
-1.42
-2.65
-4.19
-6.18
-8.52
-11.02
-13.4
-15.58
-17.58
-19.59
-21.8
-24.41
-27.56
-31.35
-35.78
-40.66
-45.47
-49.32
-51.17
-50.14
-45.88
-38.81
-30.04
-21.01
-12.96
-6.66
-2.25
0.62
2.52
4.03
5.54
7.26
9.2
11.22
13.18
14.9
16.35
17.48
18.35
19
19.52
20
20.62
21.49
22.67
24.02
25.25
26.05
26.2
25.74
24.9
24
23.27
22.77
22.4
21.99
21.47
20.82
20.07
19.21
18.15
16.77
15.04
13.03
10.9
8.83
6.83
4.79
2.5
-0.23
-3.5
-7.21
-11.07
-14.73
-17.9
-20.43
-22.43
-24.2
-26.15
-28.61
-31.75
-35.57
-39.93
-44.62
-49.43
-54.08
-58.24
-61.57
-63.84
-65.14
-65.89
-66.79
-68.49
-71.39
-75.44
-80.14
-84.85
-88.86
-91.53
-92.16
-89.83
-83.36
-71.64
-54.05
-30.97
-3.85
25.04
53.23
78.68
100.12
117.11
129.75
138.36
143.3
144.9
143.52
139.63
133.73
126.35
118
109.22
100.55
92.43
85.09
78.45
72.16
65.76
58.93
51.55
43.76
35.91
28.36
21.43
15.24
9.76
4.8
0.06
-4.82
-10.15
-16.04
-22.33
-28.46
-33.52
-36.47
-36.56
-33.58
-28.15
-21.58
-15.52
-11.5
-10.4
-12.27
-16.39
-21.59
-26.61
-30.5
-32.76
-33.35
-32.52
-30.67
-28.18
-25.3
-22.1
-18.54
-14.57
-10.18
-5.6
-1.12
2.87
6.14
8.73
11.01
13.57
17.03
21.89
28.36
36.25
45.07
54.12
62.65
70.08
76.11
80.76
84.25
86.92
88.96
90.45
91.22
90.87
88.88
84.7
78.08
69.32
59.42
49.78
41.52
34.8
28.61
21.22
11.02
-2.5
-18.49
-35.16
-50.57
-63.37
-72.99
-79.36
-82.48
-82.23
-78.58
-72.05
-63.86
-55.82
-49.7
-46.63
-46.7
-49
-52.02
-54.28
-54.79
-53.3
-50.15
-45.92
-41.09
-35.91
-30.48
-24.9
-19.38
-14.16
-9.39
-5.04
-0.98
2.78
5.94
7.96
8.25
6.58
3.18
-1.3
-6.07
-10.46
-14.14
-17.04
-19.27
-21.05
-22.6
-24.23
-26.22
-28.65
-31.27
-33.35
-33.88
-31.98
-27.26
-20.14
-11.72
-3.34
3.84
9.27
12.96
15.35
16.94
18.08
18.95
19.56
19.86
19.84
19.43
18.6
17.34
15.71
13.88
11.99
10.17
8.46
6.83
5.26
3.84
2.75
2.19
2.19
2.52
2.72
2.3
1.01
-0.96
-3
-4.39
-4.67
-3.96
-2.99
-2.8
-4.31
-7.97
-13.6
-20.57
-27.94
-34.67
-39.75
-42.29
-41.69
-37.84
-31.26
-23.06
-14.58
-6.89
-0.51
4.72
9.28
13.56
17.57
20.95
23.3
24.46
24.71
24.55
24.4
24.29
23.76
22.19
19.11
14.62
9.32
4.06
-0.44
-3.87
-6.36
-8.29
-9.94
-11.31
-12.13
-12.03
-10.86
-8.82
-6.48
-4.62
-4.02
-5.25
-8.44
-13.23
-18.75
-23.8
-27.19
-28.08
-26.23
-22.03
-16.29
-9.9
-3.54
2.46
7.93
12.81
16.96
20.21
22.51
24
25.02
25.92
26.87
27.8
28.46
28.58
28.06
26.96
25.47
23.82
22.16
20.66
19.48
18.84
18.9
19.72
21.11
22.72
24.11
24.88
24.82
23.92
22.27
19.98
17.18
14.03
10.76
7.76
5.44
4.17
4.13
5.17
6.88
8.71
10.15
10.92
11.08
10.86
10.63
10.66
11.06
11.73
12.45
12.98
13.12
12.75
11.83
10.34
8.3
5.78
2.91
-0.04
-2.73
-4.83
-6.05
-6.29
-5.67
-4.54
-3.38
-2.61
-2.46
-2.84
-3.35
-3.45
-2.67
-0.81
1.86
4.65
6.61
6.87
5
1.24
-3.56
-8.14
-11.27
-12.2
-10.86
-7.82
-4.02
-0.35
2.57
4.5
5.5
5.75
5.37
4.45
3
1.03
-1.44
-4.49
-8.25
-12.84
-18.24
-24.04
-29.4
-33.3
-34.83
-33.64
-30.08
-25.09
-19.88
-15.45
-12.4
-10.81
-10.43
-10.83
-11.58
-12.37
-13.04
-13.59
-14.18
-14.95
-15.99
-17.19
-18.17
-18.44
-17.5
-15.06
-11.23
-6.48
-1.53
2.93
6.47
9.09
11.09
12.92
14.88
16.96
18.86
20.15
20.55
20.01
18.69
16.72
14.06
10.49
5.64
-0.71
-8.38
-16.7
-24.61
-30.98
-34.97
-36.3
-35.33
-32.84
-29.67
-26.41
-23.19
-19.84
-16.1
-11.87
-7.37
-3.09
0.38
2.57
3.27
2.61
1.06
-0.75
-2.22
-2.94
-2.83
-2.12
-1.15
-0.28
0.3
0.4
-0.32
-2.56
-7.08
-14.08
-22.51
-29.74
-32.16
-26.48
-11.38
11.62
38.41
63.71
82.89
93.2
94.04
86.37
71.87
52.59
31.02
10.24
-6.41
-16.12
-17.69
-12.03
-1.83
9.55
19.29
25.94
29.4
30.45
30.03
28.88
27.46
26.12
25.18
24.88
25.28
26.14
26.96
27.18
26.33
24.18
20.84
16.7
12.31
8.32
5.17
2.95
1.29
-0.62
-3.7
-8.52
-15.05
-22.45
-29.34
-34.23
-36.08
-34.55
-30.03
-23.43
-15.77
-7.99
-0.85
5.02
9.13
11.18
11.14
9.39
6.7
3.95
1.85
0.71
0.39
0.52
0.79
1.19
1.94
3.28
5.24
7.54
9.54
10.48
9.55
6.03
-0.69
-10.9
-24.27
-39.62
-54.95
-67.96
-76.88
-81.32
-82.49
-82.85
-85.01
-90.52
-98.92
-107.64
-113.03
-111.87
-102.74
-86.13
-63.74
-37.45
-8.97
19.77
45.93
65.77
75.79
74.43
63.41
47.53
32.9
24.38
23.9
30.25
40.3
50.78
59.38
64.94
66.93
65.01
59.16
49.91
38.67
27.56
19
14.96
16.19
21.78
29.28
35.58
38.16
36.27
31.2
25.47
21.5
20.24
20.79
21.07
19.07
13.89
6.05
-2.95
-11.55
-19.02
-25.5
-31.67
-38.02
-44.34
-49.85
-53.57
-54.89
-53.98
-51.68
-49.17
-47.48
-47.12
-47.95
-49.36
-50.47
-50.56
-49.28
-46.78
-43.66
-40.65
-38.21
-36.23
-33.99
-30.54
-25.29
-18.57
-11.61
-5.92
-2.5
-1.19
-0.73
0.58
3.98
9.61
16.49
23.09
28.06
30.79
31.39
30.43
28.54
26.18
23.61
21.03
18.6
16.47
14.69
13.26
12.17
11.48
11.33
11.88
13.27
15.44
18.08
20.59
22.16
22.03
19.77
15.6
10.51
6.03
3.87
5.38
11.06
20.47
32.29
44.72
55.96
64.44
69.09
69.41
65.42
57.62
46.88
34.41
21.62
9.84
-0
-7.72
-13.86
-19.38
-25.07
-31.04
-36.56
-40.43
-41.66
-40.04
-36.37
-32.13
-28.76
-27.11
-27.13
-28.16
-29.33
-30.04
-29.99
-29.09
-27.27
-24.43
-20.53
-15.85
-11.06
-7.05
-4.63
-4.1
-5.11
-6.79
-8.1
-8.26
-7.03
-4.69
-1.82
0.99
3.41
5.35
6.92
8.22
9.21
9.74
9.66
8.94
7.73
6.35
5.11
4.17
3.47
2.76
1.8
0.43
-1.36
-3.45
-5.65
-7.73
-9.38
-10.22
-9.86
-8.09
-5.05
-1.29
2.38
5.18
6.75
7.2
7.1
7.08
7.52
8.44
9.51
10.37
10.85
10.97
10.94
10.96
11.09
11.22
11.25
11.11
10.89
10.78
10.95
11.38
11.82
11.76
10.62
7.97
3.7
-1.85
-8.02
-13.93
-18.84
-22.2
-23.79
-23.6
-21.78
-18.57
-14.31
-9.35
-4.04
1.44
7.11
13.11
19.47
25.87
31.5
35.3
36.34
34.22
29.28
22.51
15.13
8.22
2.43
-2.02
-5.15
-7.05
-7.85
-7.75
-7.05
-6.19
-5.63
-5.71
-6.59
-8.2
-10.31
-12.63
-14.87
-16.78
-18.22
-19.09
-19.31
-18.79
-17.38
-14.96
-11.46
-7.05
-2.1
2.92
7.55
11.57
14.99
17.97
20.62
22.83
24.21
24.28
22.68
19.4
14.86
9.77
4.86
0.7
-2.52
-4.86
-6.55
-7.8
-8.77
-9.52
-10.05
-10.41
-10.65
-10.94
-11.52
-12.64
-14.51
-17.14
-20.22
-23.17
-25.18
-25.53
-23.87
-20.36
-15.63
-10.59
-6.05
-2.43
0.27
2.44
4.56
6.9
9.37
11.54
12.94
13.26
12.63
11.48
10.41
9.83
9.79
9.94
9.8
8.97
7.31
4.98
2.34
-0.25
-2.58
-4.59
-6.35
-8.02
-9.75
-11.66
-13.83
-16.2
-18.49
-20.29
-21.06
-20.33
-17.97
-14.24
-9.76
-5.26
-1.34
1.78
4.22
6.24
8.07
9.7
11.03
11.93
12.46
12.81
13.16
13.58
13.97
14.15
13.9
13.05
11.43
9.01
5.81
2.07
-1.76
-5.18
-7.78
-9.5
-10.56
-11.42
-12.49
-14
-15.89
-17.86
-19.46
-20.18
-19.59
-17.46
-13.87
-9.28
-4.38
0.11
3.77
6.54
8.72
10.63
12.48
14.17
15.45
16.08
15.99
15.39
14.63
14.07
13.94
14.2
14.61
14.8
14.42
13.31
11.58
9.55
7.65
6.13
5
3.91
2.36
-0.03
-3.37
-7.33
-11.31
-14.57
-16.46
-16.58
-14.83
-11.46
-7.02
-2.3
1.88
4.89
6.46
6.76
6.33
5.78
5.61
6.03
6.92
8
8.97
9.61
9.85
9.78
9.5
9.08
8.56
7.92
7.21
6.48
5.82
5.21
4.54
3.64
2.38
0.81
-0.79
-2.12
-3.04
-3.79
-4.92
-7.03
-10.37
-14.58
-18.77
-21.81
-22.75
-21.19
-17.41
-12.18
-6.49
-1.24
2.98
5.96
7.76
8.65
8.91
8.84
8.63
8.32
7.9
7.27
6.31
4.93
3.1
0.94
-1.3
-3.29
-4.68
-5.24
-4.94
-3.96
-2.73
-1.77
-1.57
-2.46
-4.46
-7.36
-10.69
-13.93
-16.55
-18.07
-18.03
-16.04
-11.94
-5.9
1.43
9.01
15.7
20.55
23.19
23.86
23.25
22.24
21.48
21.31
21.64
22.06
22.04
21.1
19
15.83
12.02
8.23
5.13
3.19
2.49
2.65
2.99
2.75
1.3
-1.56
-5.59
-10.23
-14.84
-18.96
-22.45
-25.63
-28.95
-32.79
-37.16
-41.57
-45.22
-47.25
-47.19
-45.06
-41.38
-36.89
-32.12
-27.12
-21.32
-13.54
-2.33
13.44
33.9
57.67
81.96
103.17
118.01
124.54
122.65
113.81
100.28
84.31
67.5
50.94
35.26
20.88
7.89
-4.01
-15.27
-26.05
-35.92
-43.96
-49.5
-52.77
-55.18
-58.65
-64.6
-72.99
-82.23
-89.93
-94.03
-93.68
-89.34
-82.21
-73.36
-63.37
-52.28
-40.07
-27.14
-14.35
-2.84
6.33
12.56
16.02
17.37
17.58
17.43
17.22
16.68
15.36
12.92
9.53
5.84
2.61
0.39
-0.77
-1.33
-1.91
-2.97
-4.61
-6.6
-8.5
-9.91
-10.51
-10.1
-8.61
-6.08
-2.76
0.89
4.32
7.02
8.69
9.27
8.91
7.77
5.96
3.58
0.77
-2.13
-4.58
-5.96
-5.77
-3.81
-0.3
4.22
9.05
13.57
17.43
20.63
23.44
26.24
29.29
32.62
35.94
38.8
40.79
41.75
41.78
41.18
40.22
38.99
37.34
35.03
31.96
28.28
24.41
20.9
18.15
16.33
15.27
14.67
14.2
13.64
12.84
11.71
10.1
7.85
4.83
1
-3.43
-8.08
-12.47
-16.2
-19.11
-21.35
-23.24
-25.09
-26.98
-28.71
-29.85
-29.96
-28.74
-26.1
-22.19
-17.32
-11.86
-6.29
-1.06
3.43
6.88
9.23
10.57
11.14
11.2
10.98
10.64
10.27
9.89
9.45
8.85
8.01
6.91
5.69
4.62
3.99
3.92
4.24
4.45
3.98
2.38
-0.45
-4.28
-8.6
-12.99
-17.11
-20.76
-23.79
-25.97
-26.97
-26.47
-24.39
-20.95
-16.75
-12.61
-9.28
-7.34
-6.92
-7.75
-9.23
-10.63
-11.3
-10.85
-9.27
-6.77
-3.78
-0.69
2.23
4.9
7.37
9.79
12.23
14.66
16.92
18.76
19.89
20.14
19.41
17.78
15.48
12.87
10.27
7.97
6.01
4.34
2.78
1.22
-0.33
-1.73
-2.82
-3.53
-3.96
-4.36
-4.96
-5.91
-7.17
-8.54
-9.78
-10.72
-11.32
-11.67
-11.94
-12.31
-12.97
-14.03
-15.54
-17.42
-19.46
-21.42
-23.05
-24.28
-25.19
-25.99
-26.88
-27.94
-29.1
-30.29
-31.44
-32.51
-33.38
-33.69
-32.91
-30.52
-26.35
-20.7
-14.36
-8.26
-3.09
0.84
3.65
5.56
6.75
7.23
6.96
6.03
4.75
3.48
2.51
1.92
1.55
1.18
0.65
-0.06
-0.85
-1.56
-2.12
-2.52
-2.88
-3.38
-4.27
-5.79
-8.09
-11.08
-14.38
-17.29
-18.99
-18.82
-16.53
-12.45
-7.28
-1.88
3.04
7.11
10.34
12.92
15
16.53
17.25
16.8
14.94
11.67
7.34
2.53
-2.17
-6.32
-9.76
-12.51
-14.71
-16.43
-17.68
-18.41
-18.63
-18.5
-18.29
-18.36
-19
-20.44
-22.7
-25.63
-28.82
-31.67
-33.44
-33.44
-31.3
-27.03
-21.17
-14.5
-7.8
-1.63
3.72
8.21
11.88
14.69
16.57
17.42
17.36
16.67
15.78
15.06
14.64
14.39
13.98
13.12
11.71
9.87
7.88
6
4.41
3.16
2.17
1.26
0.16
-1.53
-4.21
-8.09
-13.02
-18.34
-22.98
-25.78
-25.89
-23.03
-17.61
-10.55
-2.96
4.15
10.17
14.84
18.28
20.73
22.41
23.42
23.75
23.37
22.36
20.96
19.52
18.41
17.81
17.7
17.84
17.83
17.31
16.04
13.99
11.33
8.36
5.4
2.6
-0.1
-2.97
-6.4
-10.73
-16.1
-22.25
-28.58
-34.17
-38.01
-39.25
-37.47
-32.87
-26.27
-18.86
-11.88
-6.24
-2.25
0.33
2.01
3.26
4.27
4.88
4.73
3.51
1.15
-2.04
-5.43
-8.31
-9.99
-10.11
-8.65
-5.89
-2.34
1.47
5.1
8.22
10.63
12.16
12.66
11.95
9.91
6.52
1.93
-3.49
-9.12
-14.19
-17.8
-19.19
-17.97
-14.23
-8.61
-2.09
4.4
10.19
15.06
19.08
22.32
24.73
26.05
26.07
24.87
22.89
20.86
19.38
18.71
18.54
18.26
17.31
15.52
13.23
11.1
9.74
9.36
9.64
9.92
9.49
7.91
5.1
1.3
-3.17
-7.96
-12.72
-16.96
-20.07
-21.38
-20.47
-17.32
-12.39
-6.43
-0.19
5.84
11.45
16.63
21.35
25.4
28.52
30.46
31.23
31.1
30.55
30.01
29.72
29.6
29.41
28.86
27.8
26.3
24.59
22.9
21.38
20.03
18.69
17.21
15.44
13.32
10.77
7.81
4.54
1.23
-1.71
-3.85
-4.9
-4.82
-3.86
-2.37
-0.65
1.13
2.98
4.92
6.94
8.92
10.75
12.4
14
15.68
17.58
19.63
21.66
23.45
24.91
26.06
27.05
28.03
29.02
29.94
30.59
30.81
30.55
29.89
28.9
27.68
26.14
24.08
21.3
17.65
13.16
8.02
2.57
-2.78
-7.6
-11.57
-14.51
-16.41
-17.39
-17.61
-17.18
-16.17
-14.55
-12.41
-9.92
-7.36
-5
-3.05
-1.6
-0.7
-0.39
-0.76
-1.87
-3.62
-5.73
-7.71
-9.09
-9.54
-8.96
-7.56
-5.66
-3.6
-1.66
0.03
1.41
2.41
2.97
3.01
2.5
1.56
0.49
-0.34
-0.61
-0.32
0.14
0.22
-0.59
-2.55
-5.54
-9.21
-13.25
-17.52
-21.95
-26.4
-30.42
-33.24
-34.02
-32.28
-28.2
-22.65
-16.91
-12.18
-9.2
-7.96
-7.88
-8.05
-7.6
-6.05
-3.53
-0.65
1.66
2.61
1.94
0.08
-1.96
-2.95
-2.08
0.79
5.06
9.75
13.88
16.8
18.22
18.08
16.41
13.32
9.12
4.4
-0.01
-3.29
-4.83
-4.51
-2.67
0
2.74
4.85
5.93
5.91
5.08
4.07
3.56
4.14
6.06
9.24
13.31
17.78
22.17
26.13
29.35
31.58
32.64
32.45
31.12
28.9
26.16
23.24
20.36
17.59
14.91
12.23
9.47
6.55
3.36
-0.11
-3.8
-7.48
-10.82
-13.47
-15.16
-15.81
-15.51
-14.5
-13.08
-11.56
-10.23
-9.36
-9.1
-9.5
-10.45
-11.69
-12.94
-13.96
-14.65
-15.05
-15.29
-15.54
-15.89
-16.31
-16.66
-16.81
-16.59
-15.97
-14.98
-13.67
-12.14
-10.43
-8.61
-6.82
-5.26
-4.17
-3.74
-3.97
-4.72
-5.73
-6.72
-7.56
-8.21
-8.64
-8.74
-8.35
-7.32
-5.62
-3.49
-1.36
0.32
1.29
1.55
1.36
1.07
0.88
0.85
0.79
0.53
-0.05
-0.87
-1.78
-2.64
-3.45
-4.27
-5.13
-5.96
-6.62
-6.94
-6.97
-6.92
-7.14
-7.83
-8.94
-10.07
-10.67
-10.24
-8.54
-5.73
-2.19
1.55
5.02
7.82
9.8
10.91
11.32
11.28
11.08
10.93
10.94
11.04
11.08
10.89
10.28
9.18
7.68
5.92
4.12
2.42
0.86
-0.7
-2.43
-4.5
-6.9
-9.45
-11.89
-14.03
-15.84
-17.45
-19.12
-21.12
-23.62
-26.63
-29.92
-32.99
-35.14
-35.64
-33.95
-30.03
-24.33
-17.71
-11.13
-5.3
-0.6
2.95
5.47
7.07
7.79
7.73
7.07
6.15
5.34
4.88
4.74
4.68
4.35
3.52
2.16
0.46
-1.31
-2.91
-4.26
-5.46
-6.68
-8.12
-9.92
-12.21
-15.03
-18.36
-21.96
-25.26
-27.5
-27.88
-25.96
-21.82
-16.1
-9.75
-3.7
1.47
5.57
8.71
11.1
12.84
13.89
14.11
13.48
12.08
10.18
8.14
6.29
4.89
4.02
3.57
3.34
3.07
2.58
1.81
0.86
-0.21
-1.31
-2.44
-3.63
-4.82
-5.89
-6.61
-6.77
-6.28
-5.26
-3.93
-2.5
-1.07
0.42
2.17
4.3
6.74
9.24
11.45
13.07
13.96
14.19
13.92
13.32
12.49
11.51
10.43
9.42
8.62
8.15
7.95
7.85
7.59
6.95
5.83
4.24
2.28
0.06
-2.32
-4.77
-7.25
-9.78
-12.5
-15.62
-19.28
-23.44
-27.64
-31.07
-32.78
-32.05
-28.65
-23.01
-16.12
-9.13
-3.03
1.64
4.82
6.76
7.78
8.12
7.91
7.22
6.18
5
3.96
3.28
3.1
3.36
3.86
4.36
4.56
4.33
3.66
2.69
1.64
0.7
-0.03
-0.6
-1.18
-1.96
-3.11
-4.77
-7.06
-10.04
-13.58
-17.22
-20.18
-21.48
-20.31
-16.42
-10.27
-2.98
4.19
10.22
14.75
17.9
20.05
21.5
22.25
22.15
21.14
19.41
17.4
15.61
14.33
13.62
13.21
12.75
11.94
10.67
9.01
7.16
5.35
3.71
2.24
0.77
-0.92
-3.08
-5.88
-9.38
-13.56
-18.26
-23.1
-27.46
-30.48
-31.3
-29.32
-24.48
-17.38
-9.09
-0.81
6.49
12.3
16.58
19.59
21.64
22.93
23.46
23.22
22.21
20.59
18.64
16.72
15.1
13.9
13.04
12.29
11.38
10.09
8.28
6
3.38
0.64
-2
-4.4
-6.57
-8.67
-10.92
-13.62
-16.95
-20.94
-25.34
-29.58
-32.84
-34.19
-32.92
-28.83
-22.35
-14.42
-6.2
1.33
7.62
12.55
16.29
19.03
20.85
21.75
21.8
21.21
20.3
19.36
18.57
17.95
17.36
16.67
15.78
14.72
13.52
12.27
10.98
9.61
8.06
6.21
4
1.45
-1.33
-4.18
-6.93
-9.52
-11.96
-14.35
-16.86
-19.62
-22.68
-25.81
-28.6
-30.4
-30.57
-28.66
-24.7
-19.18
-12.89
-6.63
-0.87
4.35
9.36
14.53
20.02
25.69
31.14
35.93
39.78
42.62
44.47
45.36
45.22
43.95
41.54
38.17
34.2
30.07
26.16
22.64
19.5
16.62
13.86
11.18
8.58
6.05
3.55
0.92
-2.04
-5.52
-9.62
-14.31
-19.36
-24.26
-28.28
-30.56
-30.46
-27.73
-22.74
-16.35
-9.64
-3.55
1.43
5.31
8.29
10.6
12.22
12.94
12.61
11.3
9.44
7.66
6.51
6.19
6.5
6.92
6.88
6.01
4.26
1.92
-0.58
-2.84
-4.63
-5.96
-7.08
-8.33
-10.11
-12.67
-16.02
-19.83
-23.43
-25.93
-26.44
-24.37
-19.65
-12.79
-4.8
3.08
9.74
14.45
17.06
17.89
17.53
16.55
15.36
14.16
13
11.93
10.99
10.24
9.62
9.01
8.2
7.05
5.58
3.91
2.28
0.9
-0.16
-0.98
-1.76
-2.79
-4.39
-6.82
-10.2
-14.35
-18.69
-22.31
-24.22
-23.7
-20.55
-15.29
-8.83
-2.25
3.67
8.58
12.53
15.72
18.27
20.1
21.01
20.82
19.58
17.59
15.3
13.15
11.46
10.22
9.22
8.16
6.81
5.11
3.25
1.44
-0.12
-1.4
-2.61
-4.02
-5.96
-8.67
-12.24
-16.55
-21.21
-25.54
-28.67
-29.72
-28.16
-23.99
-17.83
-10.73
-3.79
2.21
6.98
10.6
13.3
15.25
16.39
16.66
16.06
14.78
13.19
11.66
10.42
9.52
8.79
7.96
6.78
5.14
3.13
1.03
-0.87
-2.32
-3.33
-4.19
-5.29
-7.06
-9.77
-13.35
-17.41
-21.3
-24.21
-25.37
-24.26
-20.78
-15.32
-8.67
-1.81
4.42
9.53
13.37
16.07
17.75
18.49
18.27
17.15
15.34
13.23
11.21
9.55
8.27
7.15
5.94
4.44
2.65
0.76
-1
-2.44
