-25.42
-27.57
-28.54
-27.75
-24.96
-20.34
-14.5
-8.31
-2.69
1.69
4.53
5.92
6.26
5.98
5.54
5.26
5.39
6.07
7.26
8.83
10.55
12.1
13.15
13.48
12.95
11.55
9.43
6.74
3.69
0.31
-3.38
-7.45
-11.9
-16.52
-21
-24.83
-27.69
-29.38
-29.99
-29.74
-28.77
-27.15
-24.74
-21.25
-16.08
-8.55
2.01
15.83
32.42
50.36
67.29
80.49
87.57
87.16
79.35
65.71
48.81
31.4
15.83
3.47
-5.23
-10.55
-13.11
-13.55
-12.36
-9.74
-5.77
-0.36
6.43
14.28
22.28
29.07
33.06
32.95
28.21
19.22
7.23
-6.18
-19.66
-32.45
-44.27
-55.03
-64.57
-72.41
-78.01
-81.05
-81.67
-80.55
-78.55
-76.23
-73.55
-70.08
-65.21
-58.73
-50.79
-41.84
-32.3
-22.54
-12.98
-4.16
3.2
8.68
12.41
15.26
18.48
23.03
29.03
35.53
41.21
45.06
47.1
48.17
49.34
51.08
52.97
53.92
52.78
48.97
42.71
34.98
26.89
19.34
12.79
7.24
2.46
-1.84
-5.82
-9.48
-12.61
-14.73
-15.49
-14.67
-12.6
-9.91
-7.44
-5.86
-5.48
-6.15
-7.4
-8.81
-10.09
-11.25
-12.43
-13.82
-15.31
-16.61
-17.22
-16.59
-14.42
-10.6
-5.32
1.03
7.83
14.54
20.66
25.9
30.2
33.62
36.21
37.84
38.23
37.11
34.34
30.02
24.43
17.93
10.85
3.52
-3.57
-9.66
-13.92
-15.75
-15.36
-13.68
-11.97
-11.23
-11.61
-12.44
-12.63
-11.36
-8.43
-4.32
0.3
4.96
9.5
13.88
17.92
21.12
22.8
22.44
20.05
16.13
11.51
6.94
2.93
-0.36
-2.99
-5.09
-6.72
-7.91
-8.74
-9.39
-10.25
-11.71
-14.06
-17.35
-21.32
-25.45
-29.03
-31.39
-32.03
-30.72
-27.58
-23.06
-17.82
-12.62
-8.07
-4.53
-2.02
-0.4
0.53
0.91
0.79
0.18
-0.78
-1.74
-2.33
-2.19
-1.16
0.75
3.52
7.24
12.14
18.29
25.46
32.77
38.87
42.35
42.24
38.5
32.05
24.43
17.14
11.13
6.55
2.89
-0.47
-3.82
-6.88
-8.95
-9.27
-7.51
-3.9
0.83
5.87
10.65
14.95
18.87
22.61
26.18
29.25
31.22
31.4
29.3
25.03
19.2
12.96
7.58
4.02
2.72
3.37
5.15
7.07
8.37
8.6
7.69
5.71
2.73
-1.24
-6.15
-11.72
-17.51
-22.85
-27.24
-30.41
-32.46
-33.72
-34.55
-35.17
-35.59
-35.87
-36.13
-36.64
-37.59
-38.94
-40.31
-41.07
-40.62
-38.58
-35.13
-30.74
-26
-21.34
-16.89
-12.6
-8.41
-4.37
-0.73
2.13
3.88
4.44
4.1
3.51
3.45
4.54
6.81
9.63
11.93
12.76
11.7
8.98
5.35
1.5
-2.27
-6.04
-9.89
-13.44
-15.78
-15.78
-12.85
-7.3
-0.4
6.2
11.24
14.31
15.79
16.46
17
17.72
18.67
19.74
20.8
21.73
22.31
22.15
20.89
18.43
15
11.23
7.82
5.32
4.01
3.77
4.36
5.53
7.29
9.75
13.13
17.7
23.44
30.1
37.03
43.37
48.26
51.15
51.91
50.69
47.75
43.17
36.95
29.15
20.32
11.39
3.53
-2.37
-5.97
-7.66
-8.2
-8.19
-7.87
-7.02
-5.34
-2.76
0.5
4.12
8.01
12.27
17.27
23.22
29.94
36.99
43.8
49.92
55.15
59.47
62.82
64.94
65.45
63.97
60.49
55.4
49.42
43.25
37.36
31.92
26.99
22.74
19.52
17.9
18.29
20.8
25.09
30.52
36.26
41.47
45.29
46.84
45.35
40.29
31.68
20.19
7.01
-6.49
-19.1
-30.05
-39.07
-46.24
-51.87
-56.11
-58.91
-59.92
-58.73
-55.1
-49.12
-41.42
-32.93
-24.61
-17.16
-10.8
-5.31
-0.21
5
10.6
16.68
23.11
29.74
36.42
42.99
49.14
54.53
58.58
60.65
60.07
56.25
48.77
37.51
22.7
4.9
-14.85
-35.17
-54.5
-71.43
-85.09
-95.27
-102.48
-107.7
-111.89
-115.77
-119.5
-122.82
-125.12
-125.7
-123.99
-119.69
-112.97
-104.43
-95.08
-86.03
-78.25
-72.16
-67.63
-64.06
-60.72
-56.96
-52.32
-46.56
-39.49
-31.16
-21.86
-12.33
-3.65
3.12
7.61
10.42
12.73
15.7
19.43
22.85
24.27
22.42
17.44
10.88
5
1.45
0.5
1.11
1.78
1.53
0.25
-1.28
-2.21
-2.07
-1.01
0.45
1.76
2.6
3.02
3.26
3.75
4.82
6.77
9.62
13.17
16.94
20.26
22.65
23.98
24.63
25.2
26.31
28.1
30.21
31.93
32.51
31.79
30.2
28.77
28.54
30.21
33.91
39.24
45.61
52.45
59.4
66.27
72.99
79.5
85.65
91.3
96.33
100.75
104.54
107.72
110.04
111.16
110.72
108.41
104.18
98.28
91.33
84.05
77.29
71.58
67.1
63.59
60.59
57.62
54.32
50.63
46.7
42.78
39.2
36.2
33.92
32.21
30.7
28.64
25.17
19.5
11.1
-0.06
-13.75
-29.38
-46.25
-63.56
-80.45
-96.04
-109.61
-120.74
-129.29
-135.53
-139.78
-142.4
-143.59
-143.41
-142.01
-139.64
-136.77
-133.86
-131.28
-129.04
-126.94
-124.72
-122.19
-119.36
-116.32
-113.26
-110.11
-106.75
-102.98
-98.63
-93.68
-88.21
-82.34
-75.97
-68.89
-60.61
-50.66
-38.78
-25.22
-10.81
3.22
15.51
25.21
32.1
36.66
39.58
41.51
42.76
43.26
42.96
41.81
40.01
37.78
35.26
32.45
29.37
26.26
23.63
22.09
22.07
23.67
26.54
30.06
33.56
36.45
38.43
39.38
39.35
38.54
37.15
35.42
33.5
31.48
29.29
26.86
24.2
21.47
18.94
16.87
15.41
14.48
13.95
13.64
13.45
13.4
13.53
13.85
14.26
14.59
14.67
14.51
14.22
13.98
13.87
13.86
13.84
13.71
13.46
13.24
13.21
13.5
14.15
15.1
16.24
17.43
18.51
19.38
19.94
20.08
19.77
19.06
18.07
16.98
15.94
15.15
14.72
14.77
15.23
15.96
16.78
17.5
17.95
17.96
17.33
15.77
13.03
8.92
3.49
-3.08
-10.53
-18.63
-27.16
-35.92
-44.64
-52.97
-60.59
-67.33
-73.25
-78.47
-83.16
-87.2
-90.37
-92.43
-93.31
-93.2
-92.45
-91.32
-89.75
-87.31
-83.34
-77.25
-68.89
-58.62
-47.43
-36.66
-27.63
-21.33
-18.22
-18.15
-20.47
-24.26
-28.45
-32.25
-35.16
-37
-37.92
-38.22
-38.27
-38.32
-38.49
-38.51
-38.02
-36.51
-33.58
-29.16
-23.42
-16.76
-9.63
-2.43
4.65
11.48
17.91
23.73
28.67
32.53
35.25
36.93
37.83
38.22
38.34
38.23
37.87
37.1
35.79
33.88
31.37
28.38
25.02
21.45
17.84
14.4
11.25
8.54
6.29
4.31
2.33
0.07
-2.56
-5.34
-7.72
-9.18
-9.35
-8.24
-6.22
-3.76
-1.36
0.84
2.82
4.66
6.45
8.15
9.66
10.87
11.76
12.35
12.75
13.06
13.43
14
14.87
16.1
17.64
19.39
21.1
22.46
23.09
22.64
20.97
18.16
14.61
10.83
7.33
4.51
2.67
1.96
2.54
4.43
7.39
10.95
14.46
17.3
19.19
20.38
21.48
23.17
25.99
29.97
34.74
39.6
43.79
46.75
48.33
48.86
48.92
49.11
49.67
50.5
51.34
52.08
52.98
54.49
57.04
60.52
64.2
66.87
67.41
65.14
60.04
52.68
43.76
33.9
23.45
12.64
1.72
-8.87
-18.59
-27.04
-34.11
-40.15
-45.86
-51.95
-58.94
-66.87
-75.45
-84.05
-92.16
-99.23
-104.91
-108.82
-110.61
-110.01
-106.92
-101.5
-94.01
-84.71
-73.71
-61.27
-47.83
-34.3
-22.02
-12.29
-5.98
-3.16
-3.2
-5
-7.45
-9.73
-11.41
-12.38
-12.67
-12.39
-11.63
-10.49
-9.02
-7.19
-4.92
-2.1
1.19
4.79
8.19
10.9
12.51
12.88
12.17
10.78
9.23
7.9
7.07
6.6
6.14
5.28
3.69
1.34
-1.56
-4.5
-7.01
-8.7
-9.43
-9.34
-8.72
-7.98
-7.36
-7.01
-6.7
-6.05
-4.52
-1.66
2.7
8.41
15.08
22.3
29.68
37.03
44.06
50.34
55.31
58.34
59.11
57.72
54.76
51
47.13
43.48
40.03
36.7
33.35
30.1
26.97
23.97
20.9
17.55
13.8
9.69
5.51
1.45
-2.48
-6.44
-10.78
-15.64
-20.76
-25.42
-28.66
-29.52
-27.56
-22.93
-16.21
-8.32
-0.14
7.65
14.62
20.51
25.13
28.31
29.89
29.92
28.58
26.32
23.6
20.81
18.13
15.55
12.94
10.17
7.26
4.29
1.51
-0.8
-2.48
-3.43
-3.72
-3.44
-2.8
-1.93
-1.02
-0.2
0.5
1.05
1.55
2.11
2.93
4.13
5.78
7.88
10.31
12.92
15.41
17.58
19.18
20.04
20.05
19.13
17.3
14.62
11.28
7.47
3.55
-0.12
-3.19
-5.41
-6.69
-7.06
-6.71
-5.77
-4.45
-2.85
-1.15
0.49
1.94
3.03
3.71
3.81
3.24
1.84
-0.48
-3.61
-7.21
-10.55
-12.79
-13.02
-10.69
-5.71
1.31
9.24
16.72
22.49
25.86
26.69
25.48
22.91
19.87
16.95
14.42
12.08
9.29
5.33
-0.42
-7.95
-16.61
-25.11
-32.09
-36.62
-38.6
-38.75
-38.09
-37.5
-37.27
-37.21
-36.97
-36.4
-35.59
-34.88
-34.54
-34.53
-34.64
-34.51
-34.01
-33.15
-32.05
-30.74
-28.95
-26.37
-22.57
-17.38
-10.87
-3.53
3.92
10.67
16.05
19.77
21.92
22.89
23.11
22.95
22.53
21.89
21.23
20.8
20.95
21.78
23.07
24.27
24.84
24.61
23.88
23.36
23.56
24.52
25.62
25.87
24.46
21.11
16.34
11.17
6.66
3.34
1.22
-0.15
-1.26
-2.17
-2.53
-1.76
0.49
4.03
8.14
11.91
14.66
16.21
16.96
17.5
18.36
19.58
20.78
21.37
20.88
19.19
16.61
13.86
11.59
10.23
9.74
9.69
9.57
8.98
7.81
6.16
4.27
2.27
0.26
-1.62
-3.16
-4
-3.9
-2.77
-0.8
1.72
4.45
7.19
9.88
12.5
15.21
18.15
21.52
25.39
29.67
34.04
38.08
41.44
43.87
45.43
46.24
46.42
45.93
44.67
42.63
39.89
36.73
33.36
29.94
26.47
22.9
19.21
15.44
11.77
8.4
5.62
3.57
2.26
1.51
1.03
0.55
-0.07
-0.8
-1.48
-1.89
-2.06
-2.14
-2.39
-3.04
-4
-4.96
-5.53
-5.41
-4.61
-3.43
-2.31
-1.55
-1.2
-1.04
-0.78
-0.35
0.06
0.06
-0.73
-2.44
-4.84
-7.57
-10.19
-12.48
-14.33
-15.78
-16.89
-17.72
-18.34
-18.79
-19.13
-19.34
-19.43
-19.43
-19.49
-19.9
-20.91
-22.62
-24.83
-27.1
-28.83
-29.49
-28.76
-26.51
-22.95
-18.47
-13.75
-9.56
-6.75
-6.01
-7.74
-12.08
-18.8
-27.6
-38.09
-49.92
-62.7
-75.89
-88.78
-100.38
-109.71
-115.83
-118.09
-116.21
-110.2
-100.4
-87.46
-72.36
-56.22
-40.33
-25.76
-13.4
-3.67
3.28
7.56
9.47
9.26
7.35
4.24
0.63
-2.69
-4.78
-4.77
-2.1
3.5
11.71
21.7
32.38
42.63
51.66
59.1
65.05
69.63
73.05
75.28
76.13
75.41
73.04
69.25
64.4
58.94
53.13
47.06
40.62
33.68
26.32
18.73
11.23
4.01
-2.94
-9.97
-17.35
-25.23
-33.29
-40.73
-46.6
-50.03
-50.63
-48.48
-44.12
-38.2
-31.34
-24.06
-16.71
-9.82
-3.8
0.91
4.1
5.87
6.6
6.82
6.91
7.07
7.08
6.73
5.88
4.61
3.27
2.23
1.71
1.65
1.82
1.77
1.27
0.16
-1.56
-3.83
-6.61
-9.78
-13.13
-16.36
-19.24
-21.65
-23.62
-25.43
-27.24
-29.22
-31.24
-32.97
-33.8
-32.98
-29.84
-24.09
-15.98
-6.26
3.91
13.49
21.75
28.47
33.79
37.95
41.09
43.16
44.13
43.98
42.84
40.9
38.42
35.79
33.34
31.48
30.29
29.54
28.61
26.68
23.13
17.8
11.14
3.98
-2.79
-8.55
-13.05
-16.42
-19.03
-21.21
-23.28
-25.33
-27.25
-28.62
-28.9
-27.4
-23.54
-17.05
-8.16
2.26
12.82
21.89
28.2
31.12
30.9
28.53
25.24
22.11
19.69
18.05
16.97
16.28
16
16.25
17.11
18.35
19.56
20.13
19.63
17.86
14.88
10.93
6.26
1.13
-4.24
-9.55
-14.46
-18.64
-21.83
-24.07
-25.58
-26.67
-27.63
-28.6
-29.68
-30.96
-32.58
-34.64
-37.13
-39.59
-41.32
-41.4
-39.11
-34.22
-27.13
-18.77
-10.16
-2.08
5.23
11.93
18.33
24.48
29.96
34.12
36.3
36.25
34.3
31.21
27.84
24.87
22.8
21.93
22.86
26.31
32.99
43.02
55.61
69
80.86
89.14
92.56
91.16
85.82
77.82
68.1
57.01
44.63
30.98
16.58
2.33
-10.54
-21.13
-28.98
-34.2
-37.37
-39.14
-39.99
-40.18
-39.84
-38.97
-37.7
-36.24
-34.86
-33.89
-33.51
-33.84
-34.78
-36.13
-37.64
-39.07
-40.37
-41.51
-42.66
-43.88
-45.14
-46.24
-46.9
-47
-46.57
-45.88
-45.19
-44.69
-44.32
-43.94
-43.43
-42.85
-42.49
-42.74
-43.84
-45.74
-48.18
-50.8
-53.24
-55.21
-56.48
-56.77
-55.84
-53.45
-49.49
-44.11
-37.55
-30.16
-22.19
-13.68
-4.59
5.21
15.75
26.87
38.25
49.36
59.6
68.42
75.49
80.76
84.38
86.68
87.92
88.25
87.68
86.1
83.42
79.66
75.01
69.74
64.15
58.52
53.04
47.95
43.47
39.77
36.89
34.77
33.28
32.35
32.17
33.14
35.69
40.08
46.19
53.53
61.44
69.39
76.98
83.97
90.14
95.12
98.54
100.06
99.44
96.55
91.19
83.19
72.47
59.35
44.6
29.37
14.64
0.9
-12.02
-24.76
-37.77
-50.96
-63.51
-74.21
-82.01
-86.66
-88.69
-89.09
-88.77
-88.18
-87.17
-85.29
-82.15
-77.69
-72.16
-65.99
-59.42
-52.53
-45.29
-37.69
-30.04
-22.74
-16.39
-11.31
-7.64
-5.11
-3.38
-2.15
-1.22
-0.62
-0.28
-0.21
-0.3
-0.43
-0.59
-0.87
-1.53
-2.78
-4.76
-7.29
-10.17
-13.04
-15.71
-18.15
-20.5
-22.99
-25.81
-29.04
-32.55
-36.2
-39.77
-43.16
-46.25
-48.78
-50.37
-50.47
-48.67
-44.9
-39.51
-33.15
-26.49
-19.94
-13.33
-6.23
1.87
11.13
21.21
31.43
41.09
49.75
57.2
63.57
68.74
72.45
74.12
73.27
69.74
63.97
56.76
48.95
41.11
33.21
24.94
16.02
6.65
-2.3
-9.68
-14.55
-16.74
-16.91
-16.21
-15.67
-15.68
-15.88
-15.41
-13.49
-9.84
-4.83
0.8
6.26
11.04
15
18.18
20.76
22.78
24.22
25.02
25.13
24.56
23.29
21.42
19.11
16.69
14.48
12.73
11.47
10.48
9.45
8.14
6.5
4.59
2.53
0.25
-2.39
-5.52
-9.17
-13.05
-16.75
-19.8
-22.05
-23.67
-25.1
-26.84
-29.15
-31.91
-34.55
-36.34
-36.62
-35.07
-31.97
-27.94
-23.82
-20.39
-18.24
-17.69
-18.81
-21.42
-25.04
-29.08
-32.91
-36.05
-38.31
-39.81
-40.69
-41.08
-40.88
-39.89
-38.09
-35.65
-33.01
-30.68
-29
-27.91
-27.11
-26.07
-24.26
-21.32
-17.06
-11.52
-4.94
2.24
9.47
16.15
21.72
25.86
28.46
29.65
29.79
29.34
28.83
28.71
29.25
30.45
32.08
33.78
35.2
36.11
36.41
36.11
35.2
33.71
31.64
29.06
26.13
23.07
20.1
17.35
14.85
12.56
10.43
8.42
6.59
4.99
3.63
2.44
1.29
0.1
-1.19
-2.51
-3.86
-5.22
-6.77
-8.74
-11.21
-14.12
-17.03
-19.26
-20.12
-19.18
-16.39
-12.14
-7.11
-1.99
2.74
6.98
10.92
15.03
19.68
25.02
30.84
36.57
41.56
45.18
47.06
47.18
45.75
43.16
39.84
36.21
32.62
29.4
26.59
23.98
21.09
17.37
12.62
7.18
2
-1.73
-3.06
-1.77
1.54
5.69
9.43
11.96
13.14
13.46
13.6
14.24
15.77
18.28
21.58
25.23
28.77
31.64
33.38
33.64
32.34
29.79
26.53
23.27
20.45
18.17
16.05
13.41
9.6
4.32
-2.22
-9.55
-17.13
-24.65
-32.08
-39.51
-47.04
-54.54
-61.67
-67.93
-72.76
-75.62
-76.05
-73.86
-69.06
-62.12
-53.81
-45.06
-36.74
-29.41
-23.16
-17.8
-12.99
-8.42
-3.97
0.38
4.53
8.39
11.89
14.96
17.61
19.77
21.44
22.57
23.13
23.06
22.32
20.89
18.9
16.62
14.33
12.29
10.52
8.86
7.03
4.85
2.37
-0.15
-2.31
-3.92
-5.01
-5.9
-6.95
-8.34
-10.05
-11.81
-13.43
-14.88
-16.41
-18.19
-20.19
-21.97
-22.8
-22.03
-19.34
-14.96
-9.51
-3.86
1.3
5.58
8.95
11.65
13.95
16.09
18.14
20.09
21.85
23.4
24.74
25.96
27.2
28.48
29.82
31.07
32.08
32.64
32.56
31.78
30.33
28.55
26.89
25.88
25.79
26.46
27.34
27.53
26.22
22.72
16.84
8.7
-1.16
-11.92
-22.59
-32.08
-39.51
-44.36
-46.63
-46.74
-45.39
-43.26
-40.88
-38.58
-36.48
-34.65
-33.04
-31.54
-29.96
-28.13
-25.96
-23.47
-20.78
-18.02
-15.27
-12.41
-9.19
-5.46
-1.28
2.81
6.09
7.83
7.62
5.58
2.27
-1.47
-5.05
-8.06
-10.57
-12.78
-14.86
-16.82
-18.55
-19.94
-20.92
-21.6
-21.92
-21.81
-21
-19.17
-16.02
-11.44
-5.62
1.01
7.85
14.5
20.65
26.24
31.32
35.88
39.98
43.54
46.53
48.87
50.49
51.24
50.91
49.43
46.83
43.53
40.05
36.88
34.17
31.67
28.93
25.5
21.3
16.42
11.19
5.73
0.02
-6.11
-12.7
-19.51
-26.15
-32.2
-37.7
-43.1
-49.16
-56.43
-64.8
-73.49
-81.26
-87.11
-90.63
-92.2
-92.46
-91.93
-90.52
-87.74
-83.17
-76.81
-69.24
-61.15
-53.01
-44.7
-35.83
-26.2
-16.06
-6.35
1.96
8.26
12.69
15.95
18.87
21.98
25.22
28.13
30.06
30.62
29.79
28
25.99
24.55
24.28
25.37
27.7
30.88
34.6
38.75
43.39
48.72
54.7
61.08
67.21
72.31
75.43
75.78
72.8
66.4
57.24
46.4
35.18
24.51
14.76
5.74
-2.81
-10.93
-18.13
-23.65
-26.88
-27.76
-26.86
-25.09
-23.32
-22.02
-21.28
-20.99
-21.06
-21.63
-22.86
-24.76
-27.08
-29.25
-30.54
-30.24
-28.04
-24.15
-19.28
-14.28
-9.85
-6.39
-3.84
-2
-0.66
0.2
0.43
-0.15
-1.61
-3.82
-6.46
-9.01
-10.97
-11.9
-11.55
-10.05
-7.79
-5.37
-3.35
-2.14
-1.74
-1.95
-2.49
-3.17
-4
-5.05
-6.4
-8
-9.63
-11.07
-12.3
-13.45
-14.82
-16.69
-19.06
-21.63
-23.77
-24.74
-24.01
-21.38
-17.17
-11.97
-6.57
-1.62
2.33
5.03
6.34
6.16
4.44
1.17
-3.46
-9.09
-15.13
-20.98
-26
-29.67
-31.56
-31.33
-28.77
-23.88
-16.93
-8.42
0.95
10.45
19.54
27.78
34.92
40.6
44.35
45.65
44.06
39.53
32.36
23.26
13.06
2.6
-7.44
-16.44
-23.88
-29.24
-32.03
-32.02
-29.26
-24.26
-17.75
-10.62
-3.63
2.72
8.25
13.09
17.38
21.35
25.08
28.61
31.98
35.33
38.9
42.9
47.47
52.4
57.33
61.73
65.15
67.28
68
67.24
64.84
60.63
54.4
46.28
36.68
26.2
15.4
4.58
-6.13
-16.6
-26.42
-34.97
-41.41
-45.03
-45.46
-42.57
-36.54
-27.66
-16.35
-3.25
10.74
24.53
36.97
47.05
54.2
58.25
59.49
58.43
55.71
51.84
47.12
41.74
35.81
29.61
23.53
18.05
13.48
9.92
7.16
4.85
2.59
0.1
-2.74
-5.88
-9.18
-12.39
-15.3
-17.75
-19.75
-21.46
-23.09
-24.9
-26.97
-29.2
-31.25
-32.56
-32.5
-30.57
-26.57
-20.74
-13.84
-6.92
-1.05
3.1
5.45
6.44
6.77
7.01
7.46
8
8.38
8.35
7.87
7.13
6.37
5.83
5.52
5.28
4.85
4.02
2.59
0.59
-1.88
-4.6
-7.29
-9.76
-11.82
-13.43
-14.61
-15.46
-16.18
-16.94
-17.94
-19.2
-20.52
-21.37
-21.12
-19.08
-14.87
-8.56
-0.67
7.96
16.56
24.57
31.78
38.1
43.5
47.84
50.91
52.55
52.71
51.53
49.15
45.73
41.27
35.73
29.13
21.56
13.36
4.9
-3.4
-11.33
-18.87
-26.13
-33.14
-39.72
-45.55
-50.17
-53.37
-55.17
-55.9
-55.98
-55.72
-55.17
-54.18
-52.68
-50.58
-48.05
-45.21
-42.13
-38.71
-34.71
-29.93
-24.31
-18.13
-11.91
-6.35
-2.05
0.77
2.35
3.33
4.41
6.07
8.35
10.91
13.28
15.11
16.38
17.22
17.79
18.03
17.78
16.8
15.02
12.62
9.96
7.52
5.65
4.57
4.11
3.92
3.47
2.37
0.5
-1.97
-4.46
-6.27
-6.7
-5.27
-1.84
3.26
9.38
15.69
21.36
25.92
29.14
31.05
31.67
30.95
28.81
25.4
21.17
16.82
13.02
10.08
7.74
5.51
2.9
-0.25
-3.75
-7.25
-10.59
-13.88
-17.44
-21.59
-26.33
-31.46
-36.52
-41.15
-45.15
-48.52
-51.41
-54.01
-56.54
-59.08
-61.64
-63.99
-65.74
-66.37
-65.29
-62.05
-56.54
-49.14
-40.56
-31.69
-23.25
-15.49
-8.39
-1.85
4.02
8.81
11.92
12.99
12.1
9.77
6.81
3.95
1.62
-0.14
-1.45
-2.58
-3.78
-5.28
-7.06
-8.9
-10.31
-10.71
-9.74
-7.4
-4.16
-0.68
2.35
4.35
5.02
4.11
1.58
-2.33
-7.01
-11.5
-14.7
-15.76
-14.38
-10.8
-5.65
0.44
6.93
13.42
19.4
24.16
26.89
26.91
24.17
19.34
13.77
8.9
5.81
4.83
5.58
7.37
9.46
11.54
13.52
15.51
17.5
19.3
20.54
20.83
20.05
18.28
15.9
13.4
11.14
9.35
7.99
6.82
5.48
3.63
0.96
-2.67
-7.21
-12.28
-17.23
-21.26
-23.62
-23.89
-22.07
-18.6
-14.13
-9.33
-4.9
-1.43
0.43
0.22
-2.17
-6.23
-11
-15.25
-17.85
-18.17
-16.08
-11.8
-5.8
1.34
8.8
15.65
20.88
23.8
24.14
22.28
19.01
15.23
11.59
8.32
5.42
2.69
0.03
-2.67
-5.4
-8.21
-11.21
-14.55
-18.38
-22.59
-26.81
-30.36
-32.55
-32.79
-30.94
-27.28
-22.35
-16.82
-11.15
-5.6
-0.18
5.13
10.22
14.95
19.08
22.59
25.55
28.13
30.31
31.94
32.71
32.2
30.25
26.92
22.56
17.47
11.84
5.65
-1.19
-8.69
-16.69
-24.87
-32.91
-40.5
-47.38
-53.16
-57.3
-59.15
-58.32
-54.89
-49.5
-43.2
-36.95
-31.23
-25.93
-20.46
-14.31
-7.33
0.09
7.31
13.7
18.99
23.39
27.29
30.97
34.35
37.08
38.73
39.14
38.51
37.26
35.91
34.69
33.55
32.19
30.36
27.92
24.97
21.7
18.22
14.66
10.97
7.13
3.19
-0.71
-4.36
-7.55
-10.11
-12.13
-13.69
-15.07
-16.48
-17.98
-19.58
-21.09
-22.22
-22.6
-21.93
-19.91
-16.52
-11.9
-6.35
-0.36
5.7
11.46
16.74
21.31
25.06
27.81
29.53
30.32
30.27
29.6
28.4
26.86
25.15
23.63
22.57
22.11
22.18
22.31
22.1
21.18
19.53
17.49
15.48
13.78
12.43
11.3
10.14
8.94
7.81
6.94
6.49
6.33
6.16
5.63
4.76
3.95
3.97
5.64
9.39
15.14
22.25
29.98
37.68
45.03
51.72
57.28
60.96
61.91
59.7
54.53
47.34
39.39
31.84
25.37
20.09
15.73
11.89
8.32
4.9
1.75
-1.1
-3.7
-6.32
-9.35
-13.13
-17.79
-23.03
-28.33
-33.07
-36.95
-40.11
-42.91
-45.61
-47.98
-49.17
-47.92
-43.21
-34.71
-23.05
-9.7
3.66
15.6
25.32
32.67
37.95
41.49
43.54
44.19
43.4
41.28
37.97
33.76
28.92
23.73
18.42
13.07
7.69
2.03
-3.97
-10.32
-16.68
-22.57
-27.64
-31.81
-35.39
-38.85
-42.74
-47.32
-52.5
-57.82
-62.6
-66.16
-67.79
-66.98
-63.4
-57.09
-48.42
-38.1
-27
-15.96
-5.76
3.08
10.19
15.46
18.96
20.83
21.32
20.68
19.3
17.52
15.82
14.54
14.01
14.4
15.67
17.56
19.6
21.3
22.2
22.11
21.02
19.15
16.81
14.25
11.62
8.94
6.17
3.31
0.35
-2.63
-5.46
-7.81
-9.24
-9.16
-7.2
-3.2
2.58
9.47
16.62
23.24
28.79
33.07
36.3
38.72
40.59
42.03
42.93
43.17
42.65
41.39
39.56
37.42
35.15
32.79
30.2
26.89
22.42
16.45
9.05
0.58
-8.29
-17.1
-25.64
-34.07
-42.73
-51.71
-60.88
-69.87
-78.31
-86.02
-92.97
-99
-103.56
-105.88
-105.01
-100.48
-92.52
-82.03
-70.29
-58.48
-47.43
-37.39
-28.4
-20.28
-13
-6.66
-1.37
2.74
5.65
7.41
8.23
8.29
7.85
7.11
6.3
5.65
5.23
5.06
4.99
4.85
4.47
3.9
3.42
3.39
4.22
6
8.64
11.76
14.92
17.71
19.8
21.08
21.64
21.84
22.21
23.36
25.62
28.9
32.67
36.17
38.72
39.98
40.15
39.73
39.25
39.01
38.93
38.62
37.48
35.01
30.95
25.49
19.23
13.06
7.83
3.97
1.41
-0.47
-2.46
-5.26
-9.13
-13.81
-18.64
-22.76
-25.39
-26
-24.6
-21.55
-17.66
-13.97
-11.52
-11.16
-13.19
-17.4
-22.91
-28.58
-33.12
-35.54
-35.39
-32.74
-28.22
-22.65
-16.85
-11.42
-6.72
-2.88
0.15
2.43
4.11
5.15
5.44
4.77
2.95
0
-3.7
-7.44
-10.49
-12.26
-12.69
-12.21
-11.49
-11.07
-11.09
-11.19
-10.71
-9.13
-6.24
-2.35
1.92
5.83
8.75
10.4
10.71
9.98
8.69
7.46
6.97
7.73
10.06
13.8
18.57
23.69
28.47
32.35
35.05
36.52
36.81
36.1
34.36
31.69
28.19
24.13
19.95
16.08
12.88
10.39
8.48
6.84
5.34
3.9
2.59
1.52
0.67
-0.02
-0.78
-1.84
-3.36
-5.4
-7.9
-10.82
-13.98
-17.25
-20.27
-22.57
-23.54
-22.58
-19.41
-14.12
-7.37
-0
6.93
12.75
17.14
20.19
22.23
23.57
24.43
24.8
24.66
23.89
22.57
20.88
19.07
17.49
16.31
15.64
15.29
15
14.41
13.27
11.59
9.42
7.03
4.55
2.03
-0.68
-3.81
-7.53
-11.97
-17.04
-22.59
-28.21
-33.39
-37.49
-39.89
-40.2
-38.29
-34.38
-28.88
-22.4
-15.46
-8.63
-2.39
2.92
7.1
10.21
12.38
13.94
15.1
16.15
17.19
18.34
19.81
21.69
24.07
26.76
29.53
32.01
33.96
35.31
36.01
36.12
35.49
33.89
30.94
26.36
20.08
12.29
3.44
-6.01
-15.45
-24.34
-31.96
-37.66
-40.84
-41.19
-38.79
-34.12
-27.93
-20.97
-13.96
-7.42
-1.82
2.45
5.13
6.16
5.86
4.66
3.14
1.69
0.5
-0.3
-0.72
-0.67
-0.2
0.69
1.83
3.06
4.24
5.38
6.6
8.01
9.64
11.29
12.64
13.34
13.18
12.15
10.59
9.15
8.56
9.59
12.67
17.79
24.55
32.21
40.01
47.22
53.38
58.05
61.06
62.27
61.71
59.42
55.45
49.82
42.4
33.18
22.32
10.4
-1.73
-13.18
-23.37
-32.17
-39.81
-46.64
-52.78
-58.14
-62.4
-65.36
-67.21
-68.37
-69.41
-70.65
-72.1
-73.5
-74.62
-75.38
-75.77
-75.77
-74.96
-72.75
-68.48
-61.96
-53.6
-44.41
-35.63
-28.23
-22.69
-18.87
-16.39
-14.68
-13.3
-11.79
-9.75
-6.85
-2.81
2.28
8.25
14.75
21.49
28.22
34.77
40.87
46.14
50.22
52.74
53.6
52.89
50.93
48.09
44.64
40.83
36.78
32.66
28.55
24.44
20.16
15.44
10.18
4.64
-0.4
-3.88
-4.87
-2.99
1.34
6.91
12.19
15.96
17.64
17.44
16.03
14.12
12.19
10.31
8.37
6.23
4.01
1.94
0.38
-0.43
-0.44
0.28
1.54
3.23
5.2
7.34
9.37
11.01
11.95
11.99
11.07
9.17
6.43
3.03
-0.69
-4.28
-7.34
-9.54
-10.88
-11.45
-11.33
-10.25
-7.61
-2.51
5.81
17.58
32.33
48.83
65.57
81.08
94.37
104.95
112.83
118.26
121.58
123.08
122.94
121.38
118.58
114.7
109.79
103.82
96.72
88.42
79.03
68.77
57.97
46.92
35.84
24.89
14.12
3.59
-6.7
-16.75
-26.49
-35.81
-44.51
-52.45
-59.49
-65.78
-71.56
-77.2
-82.99
-89.04
-95.28
-101.36
-106.86
-111.14
-113.61
-113.8
-111.59
-107.35
-101.9
-96.33
-91.52
-87.92
-85.35
-83.26
-81.13
-78.73
-76.09
-73.25
-69.96
-65.5
-59.11
-50.27
-39.18
-26.74
-14.16
-2.6
7.24
15.07
20.84
24.46
25.74
24.52
20.83
15.18
8.4
1.57
-4.38
-8.77
-11.48
-12.78
-13.17
-13.28
-13.59
-14.48
-16.16
-18.62
-21.55
-24.35
-26.17
-26.04
-23.43
-18.3
-11.34
-3.59
3.91
10.49
15.9
20.18
23.48
25.78
26.99
26.97
25.75
23.62
21.1
18.81
17.29
16.99
18.03
20.41
23.83
27.83
31.81
35.03
36.82
36.62
34.06
29.01
21.62
12.19
1.14
-11.07
-24.1
-37.62
-51.39
-65.09
-78.31
-90.31
-100.17
-106.9
-109.68
-108.14
-102.55
-93.72
-82.83
-71.17
-59.73
-49.07
-39.35
-30.53
-22.59
-15.64
-9.9
-5.4
-1.85
1.33
4.83
9.04
13.85
18.68
22.85
25.92
27.82
28.89
29.48
29.86
29.95
29.55
28.4
26.36
23.44
19.76
15.57
11.06
6.45
1.76
-3.02
-8.01
-13.35
-19.02
-24.82
-30.17
-34.28
-36.21
-35.15
-30.73
-23.13
-13.18
-2.02
9.08
19.24
28.01
35.39
41.55
46.63
50.66
53.55
55.34
56.15
56.26
55.97
55.43
54.65
53.45
51.8
49.64
47.13
44.33
41.14
37.28
32.31
25.96
18.14
9.25
-0.15
-9.38
-17.9
-25.41
-31.81
-37.31
-42.1
-46.6
-51.15
-55.97
-60.87
-65.3
-68.31
-68.91
-66.51
-60.97
-52.87
-43.24
-33.23
-23.82
-15.68
-9.13
-4.16
-0.78
1.22
1.97
1.62
0.42
-1.4
-3.62
-6.1
-8.65
-11.15
-13.39
-15.2
-16.45
-17.08
-17.21
-16.98
-16.62
-16.22
-15.89
-15.6
-15.23
-14.62
-13.58
-12.17
-10.75
-10
-10.66
-13.15
-17.24
-21.98
-26.09
-28.37
-28.4
-26.54
-23.69
-20.66
-17.8
-14.88
-11.49
-7.61
-3.79
-1.06
-0.37
-2.03
-5.49
-9.54
-12.98
-15.09
-15.89
-15.9
-15.62
-15.15
-14.06
-11.72
-7.72
-2.31
3.76
9.28
13.15
14.79
14.17
11.85
8.6
5.13
1.71
-1.6
-5.1
-9.01
-13.36
-17.86
-21.89
-24.55
-24.88
-22.07
-15.67
-5.75
7.14
22.08
37.95
53.64
68.19
80.93
91.54
100.04
106.72
111.98
116.32
119.99
122.98
125.01
125.55
124
119.84
112.67
102.38
89.31
74.13
57.88
41.59
26.2
12.33
0.33
-9.72
-17.86
-24.07
-28.36
-30.64
-30.96
-29.41
-26.35
-22.32
-18.06
-14.36
-11.74
-10.24
-9.23
-7.76
-4.99
-0.64
4.75
10.15
14.55
17.41
18.92
19.75
20.49
21.31
21.86
21.56
20.15
17.78
15.08
12.76
11.33
10.97
11.5
12.58
13.82
14.89
15.43
15.2
14.15
12.43
10.45
8.61
7.19
6.24
5.63
5.13
4.45
3.36
1.56
-1.16
-4.75
-8.7
-12.05
-13.59
-12.41
-8.24
-1.62
6.28
14.21
21.21
27.01
31.76
35.75
39.06
41.41
42.33
41.35
38.31
33.29
26.57
18.41
8.87
-2.07
-14.39
-27.84
-41.96
-56.05
-69.51
-81.91
-93.06
-103.07
-112.07
-120.21
-127.49
-133.73
-138.57
-141.6
-142.58
-141.46
-138.53
-134.15
-128.61
-121.79
-113.22
-102.24
-88.36
-71.68
-52.93
-33.37
-14.27
3.29
18.71
31.94
43.09
52.42
60.08
66.1
70.38
72.84
73.4
72
68.72
63.67
57.18
49.8
42.23
35.15
28.98
23.67
18.69
13.38
7.22
0.2
-7.17
-14.07
-19.76
-23.95
-26.89
-29.29
-31.9
-35.25
-39.43
-44.08
-48.47
-51.61
-52.57
-50.59
-45.47
-37.53
-27.78
-17.6
-8.36
-1.09
3.84
6.65
8.05
8.82
9.65
10.89
12.7
15.07
17.93
21.31
25.26
29.96
35.47
41.77
48.62
55.67
62.45
68.47
73.4
77.01
79.35
80.62
81.15
81.27
81.23
81.12
80.78
80
78.45
75.87
72.17
67.46
62.06
56.42
51.01
46.11
41.83
38.09
34.73
31.73
29.13
27.1
25.65
24.8
24.41
24.43
24.73
25.25
25.92
26.64
27.31
27.84
28.3
28.79
29.48
30.37
31.35
32.16
32.33
31.33
28.59
23.75
16.8
8.1
-1.64
-11.69
-21.42
-30.6
-39.3
-47.82
-56.47
-65.37
-74.27
-82.55
-89.35
-93.74
-95.16
-93.53
-89.39
-83.9
-78.41
-74.19
-71.91
-71.54
-72.26
-72.87
-72.14
-69.2
-63.95
-56.95
-49.21
-41.74
-35.3
-30.16
-26.29
-23.52
-21.62
-20.41
-19.57
-18.64
-17.17
-14.92
-11.95
-8.61
-5.42
-2.8
-1.03
-0.1
0.19
0.07
-0.22
-0.67
-1.37
-2.54
-4.19
-6.01
-7.13
-6.41
-2.8
4.16
14.04
25.6
37.22
47.49
55.59
61.43
65.46
68.26
70.34
71.87
72.7
72.46
70.7
66.97
61.04
53.01
43.22
32.32
21.05
10.08
-0.2
-9.72
-18.64
-27.3
-35.83
-44.2
-52.16
-59.38
-65.5
-70.4
-74.17
-77.15
-79.92
-83
-86.76
-91.14
-95.64
-99.23
-100.71
-99.13
-94.07
-86.02
-76.05
-65.48
-55.23
-45.62
-36.26
-26.46
-15.76
-4.15
7.79
19.31
29.7
38.57
45.85
51.64
56.17
59.77
62.89
65.92
69.09
72.26
74.79
75.88
74.85
71.35
65.58
58.18
49.8
41.05
32.34
23.84
15.7
8.14
1.52
-3.68
-6.89
-7.75
-6.19
-2.55
2.52
8.3
14.18
19.83
25.11
29.95
34.21
37.6
39.77
40.2
38.58
34.69
28.64
20.93
12.37
3.94
-3.45
-9.06
-12.58
-13.98
-13.58
-11.85
-9.44
-6.98
-5.01
-3.8
-3.26
-3.07
-2.9
-2.61
-2.45
-2.87
-4.33
-6.9
-10.23
-13.39
-15.41
-15.58
-13.71
-10.29
-6.12
-2.02
1.58
4.58
7.25
9.79
12.18
14.17
15.37
15.59
14.97
14.03
13.31
13.25
13.94
15.14
16.55
17.88
19.04
20.04
20.96
21.76
22.31
22.44
21.99
20.98
19.38
17.2
14.3
10.6
6.19
1.4
-3.09
-6.53
-8.21
-7.73
-5.08
-0.66
4.84
10.64
15.94
20.21
23.08
24.5
24.58
23.48
21.44
18.72
15.63
12.45
9.56
7.13
5.23
3.73
2.46
1.29
0.26
-0.43
-0.5
0.28
1.9
4.05
6.13
7.41
7.29
5.5
2.12
-2.55
-8.09
-14.08
-20.03
-25.25
-28.99
-30.44
-29.19
-25.31
-19.44
-12.52
-5.57
0.61
5.66
9.44
12.12
13.87
14.87
15.15
14.61
13.15
10.73
7.73
4.73
2.45
1.39
1.59
2.72
4.21
5.68
6.93
8.1
9.34
10.67
11.85
12.49
12.31
11.22
9.43
7.17
4.66
1.86
-1.47
-5.6
-10.65
-16.35
-22.01
-26.82
-30.11
-31.61
-31.46
-29.96
-27.35
-23.6
-18.39
-11.28
-1.93
9.72
23.33
38.12
53.03
66.97
78.9
88.18
94.5
97.84
98.25
95.77
90.48
82.66
73.1
62.93
53.35
45.17
38.49
32.76
27.12
20.89
13.87
6.42
-0.93
-7.81
-14.3
-20.96
-28.48
-37.35
-47.42
-57.94
-67.62
-75.15
-79.58
-80.65
-78.77
-74.74
-69.39
-63.29
-56.73
-49.75
-42.46
-35.14
-28.16
-21.86
-16.25
-11.18
-6.36
-1.63
2.93
7.09
10.55
13.17
14.93
16.03
16.7
17.13
17.39
17.44
17.09
16.05
14.11
11.14
7.33
3.04
-1.32
-5.54
-9.75
-14.37
-19.93
-26.56
-33.94
-41.1
-46.81
-49.94
-49.85
-46.58
-40.73
-33.26
-25.06
-16.81
-8.94
-1.63
4.89
10.46
14.83
17.91
19.8
20.76
21.16
21.32
21.46
21.57
21.59
21.34
20.75
19.74
18.35
16.62
14.51
12.12
9.5
6.89
4.48
2.5
1.06
0.17
-0.24
-0.34
-0.32
-0.47
-1.21
-3.01
-6.28
-10.98
-16.58
-22.01
-26.09
-27.96
-27.47
-25.22
-22.19
-19.35
-17.22
-15.92
-15.25
-15.08
-15.45
-16.55
-18.61
-21.62
-25.42
-29.61
-33.83
-37.74
-41.14
-43.81
-45.44
-45.68
-44.18
-40.87
-35.98
-30.19
-24.42
-19.48
-15.82
-13.38
-11.85
-10.9
-10.57
-11.22
-13.33
-17.06
-22.04
-27.49
-32.45
-36.25
-38.45
-38.85
-37.18
-33.02
-25.95
-15.72
-2.85
11.37
25.04
36.26
43.71
46.98
46.45
42.82
36.69
28.16
17.3
4.47
-9.13
-21.81
-31.96
-38.81
-42.73
-44.72
-45.59
-45.14
-42.37
-36.2
-26.5
-14.5
-2.36
7.92
15.41
20.49
24.41
28.06
31.3
32.97
31.64
26.6
18.36
8.44
-1.39
-9.75
-16.15
-20.75
-23.92
-25.77
-25.95
-23.95
-19.49
-12.96
-5.42
1.72
7.15
10.23
11.09
10.52
9.52
8.85
8.77
9.05
9.19
8.75
7.63
6
4.19
2.47
1.03
-0.06
-0.76
-1.05
-0.94
-0.55
-0.08
0.21
0.12
-0.36
-1.09
-1.86
-2.54
-3.15
-3.89
-5.1
-7.14
-10.16
-14
-18
-21.11
-22.17
-20.31
-15.41
-8.09
0.35
8.5
15.22
19.91
22.55
23.39
22.74
20.87
18.06
14.62
11.04
7.86
5.52
4.4
4.63
6.19
8.91
12.62
17.04
21.94
26.97
31.72
35.62
37.99
38.11
35.49
30.02
21.98
12.1
1.28
-9.53
-19.58
-28.35
-35.45
-40.55
-43.24
-43.16
-40.05
-33.91
-25.2
-14.69
-3.45
7.49
17.31
25.54
32.01
36.74
39.76
41.06
40.71
38.83
35.8
32.13
28.35
24.79
21.51
18.26
14.62
10.32
5.28
-0.25
-5.79
-10.86
-15.14
-18.68
-21.75
-24.72
-27.77
-30.94
-34.16
-37.5
-41.17
-45.42
-50.21
-54.96
-58.73
-60.6
-60.28
-58.35
-55.98
-54.2
-53.08
-51.59
-48.08
-41.24
-30.92
-18.24
-5.09
6.74
16.24
23.18
27.84
30.55
31.61
31.57
31.51
32.8
36.56
42.81
50.22
56.41
58.74
55.31
45.46
29.87
10.13
-11.64
-33.25
-52.7
-68.47
-79.78
-86.65
-89.76
-89.9
-87.56
-82.64
-74.7
-63.59
-49.85
-34.75
-19.89
-6.61
4.45
13.24
20.08
25.28
28.92
31.01
31.72
31.54
31.2
31.31
32.16
33.53
34.95
35.91
36.21
35.93
35.41
34.9
34.44
33.94
33.14
31.9
30.11
27.76
24.97
21.96
19.03
16.57
15.06
14.97
16.68
20.44
26.26
33.87
42.71
51.89
60.42
67.3
71.75
73.44
72.39
68.89
63.3
55.95
47.15
37.27
26.97
16.98
8.2
1.31
-3.36
-5.92
-6.87
-6.89
-6.69
-6.76
-7.44
-8.71
-10.34
-11.98
-13.38
-14.57
-15.96
-18.24
-21.99
-27.35
-33.59
-39.26
-42.54
-41.9
-36.78
-27.66
-16.04
-3.77
7.51
16.82
23.97
29.19
32.92
35.4
36.73
36.75
35.4
32.69
28.85
24.27
19.42
14.76
10.59
7.14
4.43
2.53
1.5
1.37
2.26
4.17
7.2
11.42
17
23.94
31.69
38.86
43.26
42.69
35.74
22.75
5.83
-11.61
-26.12
-35.21
-37.97
-34.96
-27.49
-17.18
-5.38
6.71
17.95
27.26
33.82
37.29
37.91
36.57
34.36
32.29
31.02
30.6
30.6
30.31
29
26.15
21.61
15.67
8.87
1.92
-4.58
-10.25
-15.04
-19.16
-23.02
-26.93
-31.01
-35.26
-39.62
-44.07
-48.5
-52.63
-55.82
-57.26
-56.16
-52.19
-45.66
-37.49
-28.93
-21.11
-14.69
-9.79
-6.16
-3.41
-1.21
0.69
2.53
4.56
7
9.93
13.26
16.7
19.9
22.53
24.39
25.46
25.82
25.55
24.76
23.49
21.76
19.52
16.74
13.42
9.58
5.31
0.67
-4.34
-9.79
-15.71
-22.1
-28.77
-35.29
-40.9
-44.7
-45.78
-43.52
-37.77
-28.99
-18.21
-6.79
3.86
12.65
19.03
22.97
24.81
24.96
23.78
21.55
18.56
15.25
12.14
9.79
8.53
8.39
9.05
10.07
11.14
12.05
12.68
12.71
11.76
9.46
5.7
0.72
-4.83
-10.22
-14.86
-18.48
-21.22
-23.37
-25.29
-27.32
-29.74
-32.77
-36.5
-40.68
-44.62
-47.3
-47.63
-44.95
-39.35
-31.65
-23.18
-15.2
-8.51
-3.27
0.79
4.07
6.71
8.57
9.52
9.53
8.87
7.97
7.32
7.17
7.58
8.44
9.5
10.59
11.52
12.19
12.48
12.35
11.64
10.15
7.68
4.08
-0.5
-5.75
-11.17
-16.36
-21.12
-25.55
-29.88
-34.25
-38.67
-42.88
-46.61
-49.56
-51.37
-51.6
-49.69
-45.24
-38.11
-28.81
-18.26
-7.72
1.69
9.37
15.28
19.98
24.18
28.53
33.24
38.15
42.78
46.54
49.18
50.72
51.56
52.2
52.98
53.94
54.93
55.72
56.07
55.83
54.7
52.22
47.76
40.78
31.17
19.4
6.46
-6.52
-18.66
-29.66
-39.66
-48.94
-57.54
-65.05
-70.78
-73.96
-74.06
-70.79
-64.18
-54.46
-41.93
-27.12
-10.77
6
21.88
35.59
46.24
53.54
57.79
59.79
60.41
60.33
59.78
58.63
56.62
53.69
50.17
46.68
43.88
42.06
41.07
40.31
39.2
37.39
34.87
31.92
28.75
25.4
21.62
17.17
12.11
6.82
1.93
-2.08
-5.06
-7.3
-9.23
-11.25
-13.38
-15.29
-16.57
-17.05
-17.08
-17.35
-18.63
-21.17
-24.46
-27.33
-28.38
-26.7
-22.24
-15.95
-9.27
-3.62
-0
1.25
0.3
-2.32
-5.95
-9.76
-13
-14.99
-15.44
-14.42
-12.35
-9.91
-7.66
-6.12
-5.46
-5.67
-6.53
-7.7
-8.85
-9.74
-10.46
-11.25
-12.56
-14.74
-17.87
-21.67
-25.47
-28.49
-29.94
-29.44
-26.94
-22.8
-17.6
-11.97
-6.54
-1.73
2.16
5.11
7.16
8.51
9.29
9.59
9.5
9.03
8.36
7.72
7.47
7.87
9.07
10.95
13.21
15.44
17.2
18.23
18.32
17.41
15.51
12.67
9.06
4.85
0.33
-4.32
-8.97
-13.62
-18.37
-23.25
-28.18
-32.85
-36.88
-39.77
-41.16
-40.82
-38.7
-35.04
-30.22
-24.76
-19.16
-13.8
-8.84
-4.29
-0.08
3.82
7.25
9.99
11.74
12.42
12.14
11.23
10.15
9.25
8.75
8.63
8.74
8.88
8.94
8.93
8.9
8.91
8.86
8.52
7.59
5.92
3.45
0.34
-3.16
-6.87
-10.63
-14.32
-17.68
-20.26
-21.43
-20.6
-17.52
-12.38
-5.9
0.91
7.05
11.86
15.15
17.16
18.3
18.96
19.32
19.43
19.37
19.22
19.26
19.69
20.5
21.49
22.35
22.82
22.86
22.59
22.13
21.51
20.53
18.94
16.64
13.73
10.6
7.61
4.87
2.23
-0.7
-4.22
-8.49
-13.38
-18.64
-23.94
-29.04
-33.6
-37.21
-39.35
-39.5
-37.53
-33.73
-28.93
-24.13
-20.13
-17.19
-15.09
-13.34
-11.54
-9.74
-8.25
-7.51
-7.74
-8.71
-9.93
-10.88
-11.31
-11.27
-11.01
-10.77
-10.65
-10.66
-10.72
-10.81
-10.99
-11.33
-11.95
-12.9
-14.18
-15.65
-17.06
-18.05
-18.33
-17.73
-16.37
-14.62
-12.94
-11.68
-10.8
-10.06
-8.89
-6.76
-3.28
1.68
7.92
14.95
22.04
28.5
33.66
37.09
38.57
38.13
35.95
32.38
27.9
23.13
18.66
15.08
12.84
12.16
12.96
14.76
16.66
17.63
16.74
13.56
8.36
2.07
-4.18
-9.55
-13.78
-17.34
-20.97
-25.38
-31
-38.02
-46.54
-56.58
-68.01
-80.11
-91.58
-100.63
-105.61
-105.49
-100.29
-90.9
-78.67
-64.93
-50.61
-36.35
-22.56
-9.81
1.36
10.48
17.45
22.58
26.41
29.56
32.33
34.76
36.59
37.54
37.48
36.52
35.01
33.38
31.97
30.86
29.9
28.84
27.43
25.63
23.54
21.44
19.49
17.79
16.21
14.62
13.01
11.49
10.3
9.6
9.51
9.99
10.99
12.4
14.08
15.87
17.6
19.22
20.75
22.4
24.39
26.97
30.17
33.82
37.61
41.03
43.53
44.31
42.54
37.56
29.26
18.39
6.46
-4.52
-12.77
-17.12
-17.37
-14.09
-8.28
-1.02
6.8
14.48
21.58
27.75
32.86
37.05
40.6
43.84
47.04
50.28
53.45
56.37
58.78
60.51
61.48
61.68
61.13
59.77
57.45
53.83
48.59
41.64
33.25
24.12
15.16
7.18
0.67
-4.27
-7.88
-10.47
-12.33
-13.77
-15.13
-16.91
-19.73
-24.16
-30.6
-39.14
-49.66
-61.78
-74.95
-88.32
-100.87
-111.54
-119.37
-123.79
-124.56
-121.75
-115.51
-106.1
-93.89
-79.6
-64.36
-49.51
-36.36
-25.72
-17.74
-11.9
-7.4
-3.45
0.35
3.99
7.19
9.58
10.93
11.18
10.46
9.02
7.14
5.13
3.26
1.7
0.41
-0.87
-2.59
-5.16
-8.73
-13.03
-17.34
-20.86
-22.97
-23.44
-22.48
-20.46
-17.77
-14.58
-10.97
-7.03
-2.98
0.83
4.04
6.45
8.07
9.04
9.58
9.84
9.88
9.67
9.14
8.24
6.95
5.32
3.39
1.23
-1.08
-3.39
-5.41
-6.79
-7.03
-5.72
-2.63
2.17
8.29
15.14
22.19
29.03
35.4
41.09
45.83
49.31
51.21
51.38
49.91
47.1
43.31
38.81
33.79
28.44
23.01
17.92
13.61
10.41
8.4
7.38
6.97
6.85
6.86
7.01
7.39
7.96
8.49
8.52
7.62
5.52
2.26
-1.8
-6.1
-10.01
-13.06
-14.86
-15.2
-13.97
-11.22
-7.29
-2.75
1.64
5.35
8.11
10.14
11.92
14.02
16.9
20.76
25.58
31.14
37.12
43.06
48.38
52.44
54.61
54.48
51.85
46.77
39.46
30.29
19.71
8.23
-3.66
-15.55
-27.1
-38.09
-48.25
-57.23
-64.53
-69.81
-72.99
-74.26
-74.08
-72.7
-70.04
-65.62
-58.93
-49.8
-38.74
-26.82
-15.32
-5.31
2.73
8.85
13.34
16.52
18.55
19.57
19.66
19.01
17.79
16.25
14.62
13.13
11.94
11.09
10.51
10.04
9.53
8.91
8.22
7.49
6.65
5.52
3.82
1.37
-1.85
-5.66
-9.76
-13.87
-17.7
-20.93
-23.08
-23.67
-22.21
-18.42
-12.26
-4.01
5.83
16.65
27.79
38.7
48.95
58.31
66.72
74.35
81.41
88
94.17
99.82
104.85
109.28
113.2
116.68
119.72
122.1
123.51
123.73
122.73
120.72
117.96
114.54
110.2
104.4
96.65
86.63
74.56
60.94
46.46
31.77
17.32
3.35
-9.92
-22.11
-32.73
-41.06
-46.63
-49.25
-49.18
-47.13
-43.92
-40.32
-36.73
-33.23
-29.75
-26.38
-23.37
-21.08
-19.82
-19.69
-20.59
-22.15
-23.89
-25.26
-25.69
-24.78
-22.42
-18.94
-15.02
-11.62
-9.58
-9.39
-11.04
-14.08
-17.82
-21.58
-24.93
-27.76
-30.38
-33.3
-37.05
-41.92
-47.73
-53.8
-59.04
-62.29
-62.48
-59.15
-52.5
-43.51
-33.77
-25.01
-18.71
-15.76
-16.33
-19.84
-25.3
-31.55
-37.36
-41.77
-44.01
-43.67
-40.74
-35.58
-28.92
-21.89
-15.94
-12.58
-13.16
-18.27
-27.45
-39.08
-50.84
-60.35
-66.02
-67.54
-65.68
-61.96
-57.86
-54.47
-52.36
-51.69
-52.5
-54.74
-58.23
-62.45
-66.6
-69.72
-70.98
-70.01
-66.79
-61.65
-55.03
-47.29
-38.7
-29.59
-20.46
-11.87
-4.42
1.58
6.13
9.51
12.16
14.42
16.48
18.31
19.88
21.15
22.26
23.43
24.97
27.25
30.5
34.75
39.66
44.69
49.19
52.7
55.2
57.05
58.96
61.57
65.23
69.84
74.9
79.65
83.38
85.6
86.2
85.49
84
82.2
80.15
77.37
72.97
65.97
55.8
42.5
26.86
10.2
-5.81
-19.66
-30.27
-37.25
-40.92
-42.14
-41.93
-41.12
-40.27
-39.6
-39.27
-39.41
-39.98
-40.59
-40.24
-37.65
-31.74
-22.34
-10.29
2.68
14.68
24.24
30.71
34.15
35.03
33.99
31.6
28.45
25.05
21.82
18.88
15.98
12.63
8.48
3.59
-1.5
-5.97
-9.22
-11.12
-12.06
-12.61
-13.13
-13.59
-13.57
-12.62
-10.66
-8.13
-5.94
-5.11
-6.37
-9.87
-15.22
-21.69
-28.38
-34.43
-39.07
-41.59
-41.43
-38.23
-32.01
-23.32
-13.25
-3.19
5.54
12
15.86
17.4
17.22
15.94
14.03
11.78
9.45
7.49
6.53
7.3
10.31
15.59
22.47
29.83
36.32
40.88
42.89
42.33
39.63
35.56
31.03
26.83
23.41
20.73
18.31
15.4
11.39
6.06
-0.34
-7.15
-13.59
-18.96
-22.87
-25.21
-26.3
-26.63
-26.9
-27.79
-29.68
-32.57
-35.98
-39.3
-41.92
-43.56
-44.22
-44.01
-43.18
-41.89
-40.36
-38.8
-37.39
-36.22
-35.18
-34.07
-32.64
-30.77
-28.45
-25.87
-23.26
-20.84
-18.79
-17.21
-16.27
-16.1
-16.79
-18.31
-20.44
-22.79
-24.79
-25.81
-25.29
-22.89
-18.63
-12.98
-6.79
-1.13
3.03
5.06
4.82
2.61
-0.99
-5.26
-9.63
-13.69
-17.24
-20.2
-22.54
-24.41
-26.03
-27.74
-29.86
-32.5
-35.49
-38.31
-40.31
-40.85
-39.57
-36.54
-32.24
-27.49
-23.12
-19.8
-17.8
-17.04
-17.11
-17.45
-17.43
-16.5
-14.27
-10.56
-5.43
0.89
7.94
15.17
22.03
28.08
33.11
37.16
40.47
43.32
45.93
48.42
50.74
52.8
54.54
56.01
57.27
58.29
58.92
58.89
58
56.14
53.41
49.89
45.62
40.49
34.35
27.29
19.72
12.36
6.03
1.38
-1.26
-1.85
-0.52
2.52
7.13
13.01
19.73
26.66
33.17
38.65
42.79
45.56
47.12
47.74
47.59
46.84
45.69
44.57
44.16
45.28
48.58
54.25
61.76
69.88
77.03
81.82
83.54
82.37
79.23
75.18
71.03
66.9
62.36
56.71
49.5
40.63
30.32
18.87
6.46
-6.79
-20.54
-33.99
-45.91
-54.99
-60.43
-62.35
-61.75
-60.14
-58.93
-58.96
-60.31
-62.51
-64.88
-66.88
-68.19
-68.71
-68.45
-67.53
-66.24
-65.1
-64.91
-66.57
-70.74
-77.53
-86.21
-95.26
-102.69
-106.65
-106
-100.73
-91.8
-80.73
-69.06
-57.9
-47.88
-39.12
-31.52
-24.84
-18.76
-12.95
-7.09
-1.06
5.04
10.84
15.95
19.92
22.62
24.12
24.75
24.95
25.15
25.67
26.67
28.24
30.44
33.44
37.43
42.56
48.84
56.07
63.98
72.29
80.88
89.61
98.32
106.53
113.54
118.62
121.2
121.03
118.15
112.74
105.03
95.44
84.68
73.73
63.72
55.3
48.44
42.42
36.23
29.18
21.26
13.16
5.89
0.34
-3.25
-5.23
-6.29
-7.21
-8.45
-10.17
-12.2
-14.2
-15.88
-17.25
-18.68
-20.83
-24.3
-29.38
-35.75
-42.59
-49.04
-54.66
-59.76
-65.2
-71.87
-80.13
-89.38
-98.34
-105.48
-109.79
-110.99
-109.53
-106.19
-101.68
-96.46
-90.75
-84.61
-78.16
-71.56
-64.99
-58.64
-52.74
-47.46
-42.92
-39
-35.35
-31.59
-27.51
-23.2
-19.15
-16.04
-14.39
-14.35
-15.61
-17.59
-19.63
-21.31
-22.46
-23.13
-23.48
-23.63
-23.67
-23.58
-23.34
-22.92
-22.27
-21.18
-19.31
-16.24
-11.56
-5.2
2.56
11.07
19.5
27.15
33.61
38.85
43.05
46.46
49.21
51.4
53.14
54.65
56.26
58.28
60.81
63.68
66.55
69.06
71.01
72.44
73.57
74.69
76.08
77.91
80.4
83.76
88.22
93.95
100.98
109.05
117.75
126.43
134.35
140.78
144.86
145.75
142.58
134.68
121.7
103.88
82.06
57.54
31.88
6.53
-17.28
-38.54
-56.33
-69.84
-78.4
-81.67
-79.89
-73.84
-64.62
-53.45
-41.4
-29.41
-18.19
-8.26
0.16
7.16
13.15
18.57
23.79
28.88
33.49
37.16
39.29
39.31
36.77
31.36
22.99
11.98
-0.99
-15.03
-29.21
-42.9
-55.75
-67.56
-78.02
-86.55
-92.37
-94.76
-93.51
-89.09
-82.6
-75.49
-69.11
-64.41
-61.89
-61.48
-62.72
-64.77
-66.63
-67.39
-66.38
-63.36
-58.57
-52.56
-45.95
-39.41
-33.52
-28.85
-26.05
-25.76
-28.42
-34.07
-42.24
-52.03
-62.26
-71.66
-79.05
-83.49
-84.43
-81.7
-75.57
-66.6
-55.51
-43.07
-30.01
-17.05
-4.9
5.79
14.62
21.47
26.67
30.79
34.36
37.64
40.5
42.55
43.38
42.85
41.18
38.81
36.26
33.77
31.25
28.43
25.02
21.01
16.77
12.87
9.87
8.01
7
6.24
5.16
3.44
1.19
-1.31
-3.74
-6.02
-8.18
-10.17
-11.65
-12.05
-10.76
-7.54
-2.66
3.18
9.01
14.09
17.92
20.38
21.47
21.3
20.12
18.38
16.69
15.77
16.15
17.96
20.88
24.32
27.55
30.01
31.34
31.37
30.1
27.57
24
19.82
15.76
12.72
11.55
12.76
16.39
21.96
28.58
35.26
41.15
45.73
48.79
50.54
51.32
51.54
51.55
51.54
51.58
51.71
51.93
52.17
52.2
51.53
49.53
45.7
39.88
32.52
24.66
17.68
12.84
10.88
11.67
14.24
17.2
19.12
19.02
16.63
12.27
6.6
0.28
-6.41
-13.52
-21.2
-29.5
-38.09
-46.38
-53.83
-60.04
-64.83
-68.18
-69.93
-69.62
-66.6
-60.27
-50.53
-38.01
-23.92
-9.81
2.97
13.6
21.83
27.87
32.09
34.85
36.37
36.93
36.84
36.55
36.53
37.14
38.5
40.5
42.91
45.42
47.85
50.1
52.07
53.74
54.99
55.7
55.75
55.08
53.59
51.38
48.58
45.42
42.14
38.87
35.64
32.32
28.77
24.88
20.58
15.9
10.98
6.02
1.15
-3.61
-8.54
-14.11
-20.97
-29.53
-39.85
-51.46
-63.45
-74.89
-84.99
-93.2
-99.21
-102.64
-103.14
-100.51
-95
-87.26
-78.29
-68.98
-59.99
-51.73
-44.49
-38.73
-34.95
-33.6
-34.64
-37.62
-41.81
-46.54
-51.35
-55.75
-59.09
-60.36
-58.38
-52.22
-41.58
-27.08
-10.16
7.24
23.14
35.76
43.88
46.92
44.89
38.44
28.57
16.58
3.67
-9.06
-20.8
-31
-39.27
-45.54
-49.89
-52.57
-53.95
-54.45
-54.43
-54.2
-53.86
-53.43
-52.91
-52.37
-52.03
-52.06
-52.65
-53.76
-55.19
-56.62
-57.68
-58.14
-57.68
-56.07
-53
-48.27
-41.87
-34.07
-25.46
-16.67
-8.37
-0.95
5.41
10.65
14.73
17.55
18.97
18.92
17.61
15.39
12.92
10.83
9.59
9.47
10.39
12.09
14.1
16.02
17.43
18.07
17.77
16.53
14.43
11.58
8.12
4.07
-0.54
-5.65
-11.05
-16.39
-21.29
-25.28
-27.99
-29.14
-28.49
-25.86
-21.18
-14.54
-6.36
2.58
11.32
18.89
24.66
28.54
30.95
32.69
34.6
37.24
40.65
44.48
48.13
51.01
52.82
53.49
53.15
51.94
50.08
47.75
45.12
42.17
38.6
33.82
27.07
17.92
6.68
-5.3
-15.88
-22.78
-24.33
-20.12
-10.94
1.45
15.1
28.25
39.76
48.98
55.63
59.69
61.29
60.86
58.96
56.45
54.06
52.21
50.75
48.94
45.73
40.05
31.37
19.87
6.52
-7.26
-20.08
-30.89
-39.32
-45.48
-49.9
-53.21
-55.99
-58.63
-61.29
-63.88
-66.11
-67.75
-68.58
-68.74
-68.57
-68.56
-69.1
-70.31
-72
-73.74
-75.14
-75.84
-75.58
-74.09
-71.12
-66.49
-60.27
-52.8
-44.74
-36.78
-29.35
-22.58
-16.2
-9.86
-3.33
3.37
10.01
16.33
22.2
27.67
32.75
37.33
41
43.23
43.6
42.13
39.38
36.3
33.88
32.71
32.9
34.07
35.59
36.86
37.45
37.16
35.93
33.77
30.78
27.22
23.55
20.42
18.57
18.63
20.86
24.97
29.98
34.35
36.34
34.62
28.66
18.95
6.83
-5.97
-17.84
-27.63
-34.7
-38.92
-40.3
-38.95
-35.08
-28.98
-21.19
-12.47
-3.72
4.15
10.42
14.67
16.89
17.39
16.73
15.47
14.09
12.88
12.01
11.65
11.94
12.98
14.71
17.04
19.82
23.04
26.93
31.81
37.99
45.52
54.11
63.09
71.76
79.4
85.48
89.69
91.89
92.22
90.91
88.38
85.04
81.34
77.65
74.21
71.27
68.96
67.26
65.99
64.78
63.11
60.61
57.15
52.92
48.49
44.37
40.78
37.44
33.58
28.27
20.9
11.45
0.58
-10.54
-20.81
-29.47
-36.05
-40.43
-42.56
-42.44
-40.32
-36.83
-32.85
-29.59
-28.19
-29.41
-33.49
-40.09
-48.38
-57.29
-65.73
-72.71
-77.59
-80.07
-80.13
-78.04
-74.31
-69.59
-64.7
-60.45
-57.54
-56.34
-56.79
-58.37
-60.35
-61.94
-62.65
-62.43
-61.59
-60.66
-59.98
-59.48
-58.51
-56.28
-51.93
-45.03
-35.78
-24.87
-13.27
-1.9
8.54
17.69
25.4
31.67
36.54
40.06
42.32
43.42
43.53
42.68
40.86
38.1
34.41
29.95
24.94
19.72
14.5
9.41
4.52
-0.13
-4.41
-8.13
-11.08
-13.3
-14.89
-16.24
-17.76
-19.78
-22.43
-25.53
-28.59
-30.88
-31.62
-30.2
-26.47
-20.82
-14.04
-7.04
-0.54
5.18
10.17
14.66
18.77
22.41
25.38
27.46
28.6
28.95
28.73
28.2
27.52
26.77
25.94
24.96
23.7
22.04
19.98
17.55
14.87
12.04
9.14
6.13
2.94
-0.53
-4.4
-8.7
-13.36
-18.12
-22.55
-26.05
-28.02
-28.03
-25.94
-22.01
-16.83
-11.14
-5.63
-0.81
3.08
6.16
8.66
10.93
13.22
15.58
17.92
20.06
21.96
23.7
25.59
27.85
30.58
33.61
36.59
39.15
41.03
42.07
42.16
41.14
38.7
34.68
29.06
22.11
14.33
6.21
-1.89
-9.88
-17.82
-25.8
-33.63
-40.8
-46.57
-50.21
-51.27
-49.77
-46.23
-41.33
-35.72
-29.73
-23.43
-16.81
-10.01
-3.42
2.49
7.36
11.06
13.77
15.74
17.2
18.23
18.83
18.91
18.46
17.53
16.25
14.81
13.35
12.07
11.11
10.56
10.39
10.53
10.84
11.16
11.32
11.07
10.18
8.46
5.87
2.64
-0.75
-3.66
-5.43
-5.61
-4.1
-1.1
2.93
7.44
12.04
16.49
20.7
24.65
28.27
31.42
33.95
35.74
36.85
37.45
37.62
37.26
36.04
33.6
29.8
24.76
19.02
13.2
7.79
2.88
-1.76
-6.41
-11.13
-15.62
-19.43
-22.11
-23.52
-23.87
-23.64
-23.17
-22.58
-21.66
-19.9
-16.65
-11.32
-3.5
6.95
19.73
34.22
49.36
63.84
76.34
85.77
91.47
93.28
91.56
86.98
80.42
72.83
65.07
57.87
51.69
46.79
43.14
40.52
38.57
36.81
34.78
32.05
28.46
24.08
19.32
14.83
11.24
9.09
8.55
9.47
11.5
14.12
16.84
19.18
20.73
21.1
20.01
17.34
13.19
8.04
2.66
-2.12
-5.61
-7.57
-8.24
-8.2
-8.13
-8.49
-9.46
-11
-12.93
-15.2
-17.78
-20.69
-23.87
-27.17
-30.35
-33.18
-35.51
-37.31
-38.65
-39.71
-40.57
-41.34
-41.97
-42.34
-42.36
-41.99
-41.32
-40.58
-40.05
-39.95
-40.42
-41.43
-42.91
-44.69
-46.56
-48.18
-49.14
-48.96
-47.28
-43.98
-39.27
-33.63
-27.73
-22.17
-17.31
-13.29
-10.12
-7.81
-6.42
-6.01
-6.62
-8.11
-10.21
-12.59
-14.99
-17.24
-19.29
-21.18
-22.89
-24.37
-25.57
-26.46
-27.15
-27.74
-28.27
-28.67
-28.76
-28.36
-27.5
-26.36
-25.23
-24.31
-23.44
-22.1
-19.59
-15.29
-8.91
-0.65
8.9
18.94
28.64
37.35
44.56
50.02
53.66
55.58
55.99
55.14
53.33
50.82
47.87
44.65
41.28
37.7
33.61
28.66
22.75
16.11
9.29
2.97
-2.38
-6.66
-10.1
-13.04
-15.68
-18.03
-20.21
-22.71
-26.32
-31.87
-39.57
-48.68
-57.59
-64.36
-67.55
-66.72
-62.46
-55.96
-48.5
-41.03
-33.99
-27.58
-21.81
-16.72
-12.39
-8.79
-5.79
-3.3
-1.31
0.13
0.91
0.9
0.16
-1.24
-3.05
-4.98
-6.82
-8.33
-9.33
-9.63
-9.12
-7.71
-5.48
-2.62
0.49
3.35
5.43
6.25
5.53
3.27
-0.11
-3.91
-7.18
-9.12
-9.29
-7.71
-4.87
-1.51
1.63
4.02
5.4
5.72
5.09
3.64
1.59
-0.75
-2.98
-4.78
-5.98
-6.73
-7.36
-8.25
-9.56
-11.11
-12.56
-13.43
-13.44
-12.6
-11.2
-9.62
-8.2
-7.13
-6.41
-5.95
-5.52
-4.94
-4.05
-2.83
-1.36
0.17
1.53
2.55
3.17
3.49
3.81
4.63
6.52
9.84
14.65
20.53
26.72
32.34
36.65
39.29
40.24
39.69
37.85
34.87
30.9
26.22
21.23
16.38
12.07
8.45
5.49
3.03
0.91
-0.95
-2.54
-3.89
-5.1
-6.32
-7.73
-9.39
-11.31
-13.37
-15.46
-17.54
-19.61
-21.71
-23.8
-25.79
-27.46
-28.5
-28.58
-27.36
-24.69
-20.52
-15.08
-8.82
-2.36
3.69
8.84
12.83
15.59
17.18
17.76
17.45
16.44
14.92
13.1
11.2
9.32
7.51
5.59
3.41
0.77
-2.47
-6.33
-10.68
-15.34
-20.08
-24.67
-28.91
-32.62
-35.61
-37.78
-39.04
-39.47
-39.22
-38.51
-37.46
-35.97
-33.76
-30.49
-25.99
-20.32
-13.87
-7.24
-1.04
4.26
8.43
11.44
13.43
14.53
14.96
14.88
14.31
13.19
11.45
9.1
6.39
3.79
1.82
0.84
0.89
1.61
2.48
3.03
2.96
2.16
0.71
-1.31
-3.84
-6.88
-10.38
-14.23
-18.34
-22.56
-26.72
-30.43
-33.17
-34.21
-33.04
-29.53
-24.04
-17.49
-11.05
-5.77
-2.18
-0.27
0.64
1.45
2.99
5.67
9.38
13.64
17.82
21.46
24.3
26.39
27.95
29.05
29.75
29.94
29.61
28.79
27.71
26.61
25.65
24.93
24.24
23.34
21.76
19.16
15.24
9.98
3.65
-3.27
-10.06
-16.05
-20.61
-23.36
-24.14
-23.01
-20.26
-16.38
-12.05
-8
-4.92
-3.25
-3.08
-4.21
-6.18
-8.49
-10.71
-12.63
-14.13
-15.21
-15.84
-15.98
-15.7
-15.13
-14.5
-14.08
-13.99
-14.21
-14.5
-14.62
-14.38
-13.86
-13.17
-12.51
-11.97
-11.52
-11.12
-10.71
-10.21
-9.36
-7.79
-4.82
0.12
7.27
16.29
26.21
35.69
43.45
48.71
51.24
51.54
50.38
48.62
46.85
45.25
43.66
41.66
38.9
35.23
30.89
26.29
21.81
17.69
13.72
9.55
4.69
-1.13
-7.89
-15.29
-22.88
-30.26
-37.15
-43.54
-49.57
-55.46
-61.27
-66.75
-71.34
-74.2
-74.56
-71.8
-65.76
-56.68
-45.08
-31.7
-17.31
-2.72
11.32
24.15
35.3
44.43
51.51
56.72
60.36
62.81
64.36
65.27
65.7
65.76
65.46
64.64
63.06
60.33
56.05
50.02
42.37
33.61
24.49
15.75
7.75
0.55
-6.15
-12.67
-19.22
-25.82
-32.35
-38.64
-44.55
-49.89
-54.33
-57.3
-58.06
-55.91
-50.59
-42.34
-32.01
-20.84
-10.17
-1.12
5.55
9.69
11.67
12.2
12.15
12.18
12.74
14.01
16.12
19.32
23.89
30.03
37.6
45.98
54.11
60.82
64.95
65.68
62.6
55.76
45.77
33.79
21.43
10.33
1.74
-3.96
-7.34
-9.73
-12.67
-17.49
-24.87
-34.68
-46.06
-57.51
-67.27
-73.66
-75.5
-72.46
-65.08
-54.65
-42.72
-30.68
-19.38
-9.25
-0.4
7.15
13.25
17.83
20.96
22.96
24.29
25.45
26.73
28.25
30.03
32.14
34.8
38.2
42.27
46.46
49.88
51.54
50.82
47.69
42.78
36.94
30.91
24.95
18.88
12.32
5.11
-2.49
-9.96
-16.63
-22.17
-26.57
-30.16
-33.33
-36.3
-39.05
-41.28
-42.61
-42.65
-41.18
-38.14
-33.8
-28.61
-23.18
-18.18
-14.07
-11.08
-9.09
-7.78
-6.71
-5.58
-4.21
-2.58
-0.77
1.21
3.41
6.02
9.21
13.19
17.99
23.4
29.02
34.11
37.82
39.17
37.35
31.96
23.2
11.99
-0.25
-11.9
-21.59
-28.45
-32.24
-33.23
-31.91
-28.88
-24.68
-19.89
-15.07
-10.83
-7.63
-5.69
-4.87
-4.74
-4.73
-4.26
-3
-0.78
2.23
5.71
9.19
12.22
14.47
15.7
15.9
15.08
13.37
10.89
7.81
4.39
0.87
-2.44
-5.31
-7.51
-8.81
-8.93
-7.49
-4.1
1.59
9.61
19.71
31.31
43.67
56.06
67.89
78.87
89.01
98.48
107.22
114.88
120.77
124.14
124.42
121.55
115.86
107.92
98.4
87.87
76.92
66.16
56.28
47.88
41.33
36.61
33.32
30.81
28.33
25.18
20.84
14.96
7.51
-1.24
-10.72
-20.18
-28.86
-36.12
-41.54
-44.86
-46.1
-45.4
-43.13
-39.77
-35.9
-31.99
-28.24
-24.54
-20.53
-15.89
-10.51
-4.73
0.82
5.46
8.73
10.54
11.14
10.87
9.95
8.34
5.75
1.77
-3.91
-11.39
-20.47
-30.68
-41.39
-51.9
-61.44
-69.32
-75.01
-78.08
-78.44
-76.15
-71.47
-64.59
-55.69
-44.8
-31.98
-17.61
-2.49
12.18
25.11
35.19
41.87
45.06
45.02
42.06
36.45
28.5
18.62
7.54
-3.8
-14.55
-24.08
-32.22
-39.07
-44.8
-49.38
-52.59
-54.04
-53.45
-50.76
-46.07
-39.64
-31.75
-22.85
-13.43
-4.18
4.12
10.75
15.27
17.63
18.02
16.89
14.67
11.88
9.07
6.81
5.69
6.11
8.19
11.64
15.91
20.3
24.2
27.06
28.47
28.05
25.48
20.71
14.06
6.38
-1.07
-7.07
-10.77
-12.11
-11.72
-10.77
-10.42
-11.54
-14.4
-18.78
-24.16
-29.88
-35.48
-40.64
-45.24
-49.23
-52.46
-54.73
-55.77
-55.5
-53.9
-51.09
-47.19
-42.23
-36.16
-29.02
-21.01
-12.54
-4.23
3.36
9.79
14.73
18.03
19.61
19.44
17.7
14.85
11.52
8.5
6.36
5.25
4.85
4.45
3.18
0.33
-4.41
-10.82
-18.28
-25.97
-33.09
-39.11
-43.83
-47.39
-50.04
-52.01
-53.25
-53.28
-51.37
-46.85
-39.53
-30.03
-19.76
-10.4
-3.41
0.52
1.71
1.24
0.41
0.31
1.47
3.82
6.86
9.8
11.76
12.01
10.21
6.59
1.95
-2.52
-5.65
-6.8
-6.12
-4.52
-3.18
-3.14
-4.69
-7.49
-10.74
-13.71
-16.01
-17.66
-18.79
-19.25
-18.52
-15.79
-10.3
-1.7
9.77
23.49
38.69
54.58
70.33
84.82
96.59
104.15
106.27
102.54
93.5
80.65
65.83
50.81
36.81
24.48
13.93
4.96
-2.71
-9.45
-15.6
-21.51
-27.34
-33.17
-38.79
-43.84
-47.8
-50.18
-50.7
-49.38
-46.61
-42.95
-39.04
-35.29
-31.7
-27.9
-23.34
-17.61
-10.72
-3.11
4.51
11.41
17.09
21.38
24.34
26.12
26.83
26.51
25.16
23.04
20.69
18.94
18.53
19.72
22.07
24.55
25.86
25
21.72
16.56
10.62
5.04
0.61
-2.38
-4.12
-5.08
-5.87
-7.06
-9.06
-11.94
-15.41
-18.91
-21.88
-24.01
-25.27
-25.86
-25.92
-25.46
-24.21
-21.79
-17.9
-12.54
-6.14
0.59
6.83
11.86
15.26
16.93
17.08
15.92
13.73
10.68
7
3.04
-0.74
-3.96
-6.55
-8.82
-11.31
-14.43
-18.06
-21.43
-23.42
-23.01
-19.86
-14.41
-7.69
-0.89
5.11
9.78
12.82
14.03
13.25
10.64
6.91
3.24
0.97
1.02
3.53
7.82
12.72
17.09
20.19
21.85
22.29
21.97
21.27
20.45
19.53
18.36
16.79
14.86
12.86
11.34
10.95
12.04
14.66
18.38
22.57
26.54
29.64
31.32
31.05
28.53
23.6
16.52
7.88
-1.51
-10.89
-19.76
-27.95
-35.55
-42.75
-49.69
-56.29
-62.16
-66.8
-69.56
-69.89
-67.5
-62.51
-55.41
-47.06
-38.42
-30.29
-23.3
-17.64
-13.27
-10.02
-7.72
-6.24
-5.43
-5.14
-5.11
-5.19
-5.15
-4.96
-4.67
-4.39
-4.22
-4.16
-4.14
-4.01
-3.71
-3.3
-2.96
-3
-3.62
-4.96
-6.92
-9.2
-11.44
-13.36
-14.84
-15.98
-17.05
-18.21
-19.49
-20.57
-20.91
-19.84
-16.9
-11.98
-5.51
1.66
8.57
14.28
18.28
20.48
21.18
21
20.49
19.99
19.58
19.06
18.17
16.75
14.81
12.53
10.22
8.12
6.38
5.06
4.17
3.65
3.37
3.12
2.71
2.08
1.28
0.54
0.1
0.12
0.53
1.13
1.62
1.73
1.31
0.24
-1.55
-4.05
-7.13
-10.49
-13.68
-16.06
-17.12
-16.54
-14.37
-11.04
-7.19
-3.52
-0.57
1.42
2.57
3.06
3.16
3
2.64
2.13
1.62
1.34
1.46
1.94
2.5
2.82
2.63
1.88
0.81
-0.28
-1.19
-1.86
-2.45
-3.15
-4.02
-4.95
-5.71
-6
-5.63
-4.66
-3.31
-1.96
-0.81
0.22
1.58
3.88
7.64
12.91
19.25
25.84
31.84
36.66
40.19
42.59
44.12
44.9
44.81
43.68
41.47
38.42
35.07
32.01
29.61
27.88
26.53
25.13
23.5
21.75
20.2
19.15
18.67
18.47
18.05
16.89
14.66
11.36
7.21
2.6
-2.05
-6.43
-10.38
-13.82
-16.8
-19.48
-22.08
-24.77
-27.64
-30.54
-33.08
-34.65
-34.61
-32.48
-28.21
-22.23
-15.34
-8.41
-2.19
2.97
7.02
10.14
12.57
14.51
16.07
17.29
18.13
18.44
18.16
17.25
15.86
14.31
12.99
12.21
12.1
12.5
13.04
13.36
13.11
12.07
10.2
7.56
4.32
0.72
-3.1
-7.09
-11.36
-16.06
-21.19
-26.48
-31.33
-34.93
-36.55
-35.78
-32.6
-27.43
-20.97
-13.97
-7.03
-0.64
4.93
9.59
13.27
15.99
17.76
18.64
18.79
18.43
17.76
16.98
16.24
15.53
14.88
14.3
13.84
13.57
13.38
12.97
11.97
10.03
7.07
3.34
-0.72
-4.63
-8.1
-11.09
-13.8
-16.43
-19.1
-21.86
-24.6
-27.19
-29.35
-30.65
-30.53
-28.63
-24.96
-20.06
-14.91
-10.45
-7.2
-5.07
-3.51
-1.87
0.19
2.62
5.02
6.99
8.31
9.03
9.26
9.13
8.64
7.78
6.66
5.5
4.55
4.04
4.06
4.43
4.85
4.96
4.44
3.18
1.19
-1.4
-4.37
-7.48
-10.52
-13.36
-16.07
-18.85
-21.92
-25.23
-28.44
-30.84
-31.67
-30.38
-26.88
-21.57
-15.22
-8.65
-2.44
2.99
7.49
11.06
13.74
15.71
17.19
18.47
19.78
21.3
23
24.73
26.27
27.32
27.7
27.34
26.48
25.51
24.95
25.07
25.78
26.58
26.75
25.66
23.02
18.99
14.08
9.01
4.35
0.47
-2.56
-4.94
-7
-9.21
-12
-15.62
-19.94
-24.41
-28.16
-30.22
-29.95
-27.13
-22.14
-15.74
-8.83
-2.19
3.68
8.49
12.17
14.74
16.27
16.87
16.72
16.01
15.01
14.02
13.28
12.96
13.04
13.22
13.1
12.38
10.97
9.18
7.52
6.4
5.92
5.7
5.13
3.65
1.08
-2.3
-5.87
-8.96
-11.23
-12.75
-13.89
-15.07
-16.53
-18.2
-19.82
-21.08
-21.82
-22.09
-22.08
-21.94
-21.64
-20.9
-19.37
-16.8
-13.24
-9.03
-4.73
-0.91
2.05
4.08
5.32
6.07
6.53
6.76
6.63
6.02
4.96
3.7
2.61
2.18
2.73
4.39
7
10.23
13.71
17.09
20.1
22.5
24.13
24.77
24.33
22.82
20.4
17.35
13.94
10.41
6.9
3.51
0.29
-2.69
-5.42
-7.96
-10.49
-13.3
-16.61
-20.45
-24.55
-28.41
-31.24
-32.32
-31.17
-27.75
-22.49
-16.18
-9.81
-4.18
0.14
3.04
4.68
5.27
4.98
3.83
1.75
-1.33
-5.2
-9.48
-13.53
-16.81
-18.96
-19.92
-19.91
-19.24
-18.25
-17.09
-15.91
-14.8
-13.94
-13.54
-13.77
-14.65
-15.97
-17.37
-18.36
-18.62
-18.05
-16.81
-15.22
-13.56
-11.99
-10.57
-9.42
-8.77
-8.95
-10.15
-12.17
-14.2
-15
-13.36
-8.63
-1.03
8.34
17.95
26.39
32.8
36.99
39.3
40.22
40.1
39.13
37.37
34.89
31.77
28.19
24.24
19.98
15.48
10.93
6.76
3.56
1.9
2.06
4.04
7.46
11.71
16.21
20.38
23.78
26.01
26.7
25.57
22.49
17.65
11.49
4.74
-1.8
-7.45
-11.85
-15.08
-17.69
-20.49
-24.16
-28.98
-34.54
-39.88
-43.93
-45.99
-46.2
-45.43
-44.83
-45.19
-46.42
-47.55
-47.31
-44.7
-39.57
-32.73
-25.45
-19.05
-14.34
-11.55
-10.5
-10.8
-12.13
-14.14
-16.37
-18.17
-18.74
-17.38
-13.73
-8.02
-1.01
6.22
12.62
17.52
20.64
22.1
22.21
21.27
19.49
17.06
14.16
10.97
7.61
4.11
0.47
-3.25
-6.61
-8.96
-9.52
-7.65
-3.1
3.86
12.6
22.41
32.67
43.07
53.38
63.44
73.02
81.87
89.81
96.72
102.5
106.94
109.74
110.6
109.31
105.85
100.28
92.66
82.94
70.94
56.67
40.62
23.79
7.46
-7.17
-19.45
-29.19
-36.71
-42.51
-46.95
-50.16
-52.12
-52.97
-53.03
-52.86
-52.96
-53.58
-54.51
-55.08
-54.32
-51.38
-45.89
-37.96
-28.18
-17.21
-5.53
6.74
19.55
32.68
45.54
57.25
67.05
74.49
79.63
82.9
84.68
84.84
82.6
76.76
66.2
50.55
30.47
7.7
-15.41
-36.53
-54.07
-67.42
-76.88
-83.4
-88.04
-91.74
-95.14
-98.51
-101.88
-105
-107.45
-108.63
-108.07
-105.4
-100.6
-93.89
-85.55
-75.94
-65.38
-54.22
-42.98
-32.23
-22.46
-13.94
-6.67
-0.42
5.04
9.76
13.64
16.45
18.04
18.47
18.01
17.07
16.02
15.11
14.33
13.59
12.77
11.81
10.78
9.73
8.7
7.62
6.35
4.69
2.55
-0.08
-3.05
-6.15
-9.22
-12.15
-14.96
-17.77
-20.76
-24.09
-27.77
-31.55
-34.91
-37.12
-37.46
-35.38
-30.7
-23.73
-15.16
-5.95
2.97
10.88
17.39
22.48
26.34
29.29
31.63
33.61
35.47
37.39
39.46
41.55
43.28
44.08
43.47
41.25
37.62
33.12
28.3
23.58
18.94
14.18
9.03
3.47
-2.24
-7.62
-12.21
-15.74
-18.16
-19.51
-19.88
-19.31
-17.82
-15.56
-12.8
-9.9
-7.18
-4.7
-2.21
0.69
4.36
8.78
13.53
17.91
21.3
23.32
23.96
23.36
21.71
19.14
15.65
11.25
5.93
-0.15
-6.64
-12.91
-18.19
-21.75
-23.22
-22.84
-21.3
-19.46
-17.85
-16.43
-14.65
-11.93
-8.1
-3.48
1.17
5.19
8.28
10.58
12.57
14.8
17.66
21.28
25.63
30.42
35.33
40.01
44.18
47.78
51.01
54.32
58.27
63.33
69.56
76.71
84.1
90.95
96.54
100.31
102
101.62
99.38
95.69
91.12
86.25
81.57
77.45
73.88
70.74
67.76
64.66
61.26
57.5
53.45
49.24
45.04
40.98
37.04
33.13
29.06
24.64
19.68
14.07
7.77
0.9
-6.26
-13.34
-20.01
-26.14
-31.67
-36.64
-40.91
-44.06
-45.46
-44.67
-41.74
-37.51
-33.5
-31.25
-31.82
-35.31
-40.85
-47.15
-53.09
-58.18
-62.59
-66.8
-71
-74.82
-77.46
-78.17
-76.7
-73.54
-69.7
-66.18
-63.54
-61.63
-59.9
-57.68
-54.6
-50.76
-46.61
-42.7
-39.4
-36.79
-34.68
-32.93
-31.56
-30.83
-31.16
-32.78
-35.62
-39.24
-42.98
-46.2
-48.42
-49.39
-48.97
-47.11
-43.7
-38.77
-32.5
-25.2
-17.27
-9.11
-0.94
7.15
15.07
22.8
30.14
36.92
43.05
48.65
54.11
60.03
67
75.24
84.43
93.58
101.39
106.68
108.75
107.59
103.68
97.8
90.56
82.42
73.6
64.32
54.84
45.44
36.56
28.57
21.74
16.13
11.49
7.21
2.58
-2.9
-9.21
-15.57
-20.96
-24.61
-26.44
-27.15
-27.79
-29.24
-31.74
-34.83
-37.59
-39
-38.27
-35.01
-29.16
-20.95
-10.88
0.48
12.51
24.65
36.36
47.19
56.78
64.79
70.93
74.81
75.81
73.08
65.76
53.45
36.64
16.74
-4.23
-24.26
-41.84
-56.3
-67.6
-75.98
-81.7
-85.03
-86.45
-86.77
-86.9
-87.58
-88.96
-90.51
-91.17
-89.8
-85.66
-78.66
-69.46
-59.1
-48.68
-38.95
-30.19
-22.22
-14.78
-7.65
-0.85
5.44
11.09
15.99
20.12
23.48
26.04
27.79
28.86
29.51
30.1
30.91
31.88
32.48
31.79
28.82
22.96
14.17
3.09
-9.12
-21.06
-31.46
-39.43
-44.54
-46.9
-46.97
-45.41
-42.89
-39.88
-36.67
-33.4
-30.09
-26.72
-23.26
-19.64
-15.67
-11.04
-5.41
1.32
8.89
16.68
23.88
29.69
33.73
35.98
36.88
37.05
37.03
37.17
37.63
38.39
39.23
39.78
39.41
37.24
32.47
24.64
13.98
1.52
-11.24
-22.67
-31.6
-37.58
-41.05
-42.94
-44.25
-45.74
-47.64
-49.83
-51.99
-53.78
-55.08
-55.89
-56.31
-56.41
-56.07
-55.03
-52.9
-49.24
-43.67
-36.05
-26.5
-15.46
-3.61
8.22
19.15
28.24
34.67
37.84
37.65
34.61
29.76
24.39
19.64
16.26
14.57
14.65
16.46
19.83
24.43
29.56
34.27
37.59
38.92
38.22
35.93
32.64
28.79
24.6
20.07
15.23
10.25
5.31
0.63
-3.82
-8.18
-12.61
-17.03
-21.21
-24.8
-27.61
-29.7
-31.37
-33.14
-35.27
-37.71
-39.95
-41.2
-40.7
-38.09
-33.57
-27.83
-21.79
-16.21
-11.46
-7.49
-3.96
-0.6
2.57
5.25
7.13
8.08
8.41
8.61
9.21
10.53
12.46
14.65
16.66
18.19
19.16
19.7
19.86
19.63
18.89
17.48
15.4
12.79
9.93
7.06
4.37
1.9
-0.4
-2.57
-4.7
-6.83
-9
-11.11
-12.89
-13.86
-13.46
-11.31
-7.47
-2.52
2.53
6.7
9.33
10.37
10.23
9.49
8.6
7.78
7.01
6.25
5.51
4.93
4.7
4.93
5.67
6.87
8.53
10.66
13.21
16.06
18.91
21.48
23.51
24.95
25.88
26.53
27.2
28.16
29.63
31.73
34.6
38.27
42.75
47.9
53.52
59.29
64.88
70.09
74.93
79.6
84.3
88.95
93.03
95.63
95.97
93.86
89.87
85.09
80.55
76.76
73.49
70.1
65.97
60.84
54.75
47.73
39.51
29.71
18.26
5.73
-6.57
-17.07
-24.58
-28.82
-30.37
-30.44
-30.16
-30.19
-30.69
-31.45
-32.34
-33.56
-35.7
-39.54
-45.68
-54.28
-64.78
-76.03
-86.48
-94.79
-100.08
-102.11
-101.21
-98
-93.12
-87.02
-80.03
-72.41
-64.59
-57.16
-50.71
-45.64
-41.94
-39.18
-36.76
-34.13
-30.98
-27.32
-23.36
-19.33
-15.33
-11.21
-6.68
-1.44
4.72
11.73
19.24
26.6
33.04
37.81
40.62
41.56
41.11
39.84
38.16
36.27
34.04
31.45
28.62
25.96
23.95
22.93
22.99
23.87
25.3
27.1
29.28
31.95
35.12
38.45
41.35
43.2
43.52
42.24
39.54
35.69
30.84
24.94
17.83
9.48
0.13
-9.81
-19.8
-29.44
-38.43
-46.6
-53.71
-59.34
-63
-64.29
-63.11
-59.81
-55.18
-50.2
-45.8
-42.54
-40.53
-39.45
-38.67
-37.59
-35.75
-32.97
-29.41
-25.4
-21.43
-17.9
-15.11
-13.11
-11.81
-11
-10.49
-10.22
-10.23
-10.67
-11.6
-12.97
-14.59
-16.23
-17.77
-19.14
-20.4
-21.46
-22.16
-22.14
-21.08
-18.87
-15.73
-12.19
-8.73
-5.77
-3.33
-1.24
0.71
2.58
4.15
5.11
5.16
4.22
2.32
-0.35
-3.54
-6.87
-9.77
-11.61
-11.73
-9.81
-6
-0.94
4.43
9.27
13
15.5
16.94
17.74
18.26
18.82
19.6
20.61
21.81
23.05
24.21
25.09
25.59
25.59
25.04
23.97
22.44
20.62
18.72
16.93
15.35
13.89
12.34
10.46
8.16
5.46
2.6
-0.12
-2.37
-3.95
-4.83
-5.19
-5.32
-5.47
-5.93
-6.81
-8.07
-9.42
-10.46
-10.71
-9.81
-7.67
-4.41
-0.46
3.69
7.61
10.96
13.65
15.75
17.36
18.6
19.54
20.17
20.45
20.36
19.85
19
17.96
16.91
16.03
15.4
14.99
14.66
14.3
13.82
13.31
12.89
12.58
12.23
11.5
10.02
7.55
4.17
0.22
-3.8
-7.47
-10.58
-13.17
-15.52
-17.85
-20.38
-23.18
-26.14
-28.96
-31.15
-32.2
-31.66
-29.47
-25.92
-21.7
-17.61
-14.26
-11.83
-10.12
-8.72
-7.25
-5.59
-3.75
-1.89
-0.07
1.83
4
6.66
9.86
13.37
16.81
19.7
21.6
22.31
21.88
20.45
18.32
15.76
12.93
9.95
6.77
3.28
-0.62
-4.94
-9.59
-14.17
-18.19
-21.28
-23.23
-24.25
-24.78
-25.23
-25.71
-26.01
-25.54
-23.72
-20.3
-15.47
-9.79
-3.95
1.51
6.32
10.42
13.78
16.36
18.05
18.81
18.7
17.94
16.82
15.54
14.2
12.75
11.17
9.45
7.76
6.17
4.77
3.59
2.62
1.8
1.05
0.2
-0.96
-2.61
-4.78
-7.3
-9.76
-11.72
-12.84
-13.09
-12.66
-11.91
-11.11
-10.38
-9.68
-8.91
-7.98
-6.8
-5.25
-3.22
-0.6
2.69
6.62
11.07
15.95
21.13
26.55
32.18
38.06
44.29
51.07
58.67
67.32
77.17
88.07
99.74
111.69
123.3
133.74
142.04
147.26
148.69
146.14
139.86
130.44
118.58
104.94
90.12
74.62
58.96
43.53
28.67
14.64
1.8
-9.26
-17.88
-23.6
-26.58
-27.67
-28.26
-29.62
-32.4
-36.32
-40.44
-43.68
-45.2
-44.86
-43.09
-40.69
-38.38
-36.58
-35.31
-34.35
-33.46
-32.53
-31.67
-31.07
-30.8
-30.69
-30.43
-29.74
-28.56
-27.14
-25.86
-25.04
-24.71
-24.59
-24.33
-23.62
-22.45
-21.04
-19.74
-18.85
-18.5
-18.62
-18.97
-19.45
-19.98
-20.6
-21.42
-22.52
-23.94
-25.75
-27.93
-30.38
-32.86
-34.81
-35.53
-34.36
-30.9
-25.29
-18.2
-10.65
-3.74
1.69
5.27
7.16
7.88
8.16
8.64
9.66
11.15
12.65
13.58
13.51
12.26
10.03
7.27
4.45
1.8
-0.65
-2.98
-5.23
-7.29
-8.93
-9.96
-10.34
-10.3
-10.33
-10.9
-12.38
-14.88
-18.27
-22.25
-26.46
-30.51
-33.92
-36.28
-37.15
-36.29
-33.78
-30.06
-25.8
-21.83
-18.76
-16.86
-15.97
-15.65
-15.38
-14.72
-13.35
-11.21
-8.48
-5.57
-2.89
-0.8
0.66
1.6
2.2
2.56
2.54
1.91
0.52
-1.41
-3.3
-4.43
-4.27
-2.75
-0.21
2.7
5.28
6.89
7.16
5.8
2.75
-1.96
-7.94
-14.4
-20.16
-23.81
-24.2
-20.92
-14.67
-7.16
-0.54
3.58
4.83
4.2
3.53
4.44
7.54
12.18
16.97
20.64
22.66
23.39
23.63
23.99
24.57
24.97
24.65
23.37
21.43
19.42
17.92
17.13
16.83
16.58
15.95
14.91
13.67
12.61
11.86
11.25
10.35
8.77
6.26
2.84
-1.2
-5.56
-9.92
-14.07
-17.84
-21.2
-24.29
-27.36
-30.61
-33.99
-37.15
-39.65
-41.2
-41.92
-42.26
-42.85
-43.96
-45.29
-46
-45.1
-41.86
-36.21
-28.64
-19.86
-10.67
-1.54
7.35
16.04
24.48
32.43
39.26
44.14
46.36
45.56
41.95
36.17
28.96
20.91
12.26
3.01
-6.84
-17.01
-26.88
-35.59
-42.4
-46.92
-49.14
-49.37
-48.02
-45.39
-41.6
-36.7
-30.75
-24.03
-17.12
-10.68
-5.31
-1.34
1.23
2.7
3.36
3.45
3.04
2.18
1.1
0.23
0.03
0.8
2.47
4.52
6.13
6.52
5.15
1.98
-2.65
-8.13
-13.74
-18.76
-22.59
-24.82
-25.28
-24.27
-22.44
-20.67
-19.76
-20.04
-21.32
-22.99
-24.23
-24.45
-23.51
-21.7
-19.54
-17.54
-15.85
-14.22
-12.12
-9.07
-4.85
0.36
6.02
11.62
16.78
21.39
25.4
28.73
31.02
31.86
30.88
28.01
23.63
18.41
13.16
8.53
4.91
2.43
0.98
0.25
-0.13
-0.54
-1.4
-2.97
-5.33
-8.24
-11.2
-13.72
-15.66
-17.32
-19.38
-22.44
-26.39
-30.24
-32.26
-30.69
-24.6
-14.36
-1.65
11.37
22.77
31.55
37.72
41.91
44.96
47.54
50.13
52.9
55.89
58.91
61.57
63.36
63.83
62.77
60.37
57.1
53.44
49.58
45.31
40.09
33.38
25.01
15.46
5.81
-2.43
-7.85
-9.51
-7.36
-2.37
3.82
9.13
11.75
10.57
5.54
-2.26
-10.88
-18.09
-22.03
-21.73
-17.35
-10.02
-1.32
7.11
13.93
18.27
19.73
18.34
14.65
9.6
4.31
-0.14
-3.12
-4.44
-4.19
-2.53
0.45
4.64
9.71
15.02
19.76
23.15
24.75
24.52
22.62
19.18
14.26
7.92
0.37
-7.95
-16.55
-25.11
-33.59
-42.25
-51.21
-60.24
-68.68
-75.53
-79.84
-81.06
-79.11
-74.33
-67.31
-58.68
-49.09
-39.21
-29.63
-20.9
-13.35
-7.14
-2.22
1.54
4.28
6.09
7.1
7.5
7.57
7.57
7.66
7.88
8.18
8.54
8.92
9.38
9.91
10.53
11.16
11.67
11.74
11
9.03
5.52
0.5
-5.58
-11.91
-17.6
-22.02
-25.04
-26.87
-27.79
-27.89
-26.93
-24.6
-20.71
-15.43
-9.25
-2.63
4.14
11.02
18.11
25.41
32.68
39.55
45.76
51.24
56.19
60.86
65.42
69.88
74.18
78.24
81.97
85.28
87.93
89.49
89.4
87.2
82.69
76.01
67.56
57.82
47.24
36.13
24.78
13.47
2.57
-7.61
-16.93
-25.43
-33.24
-40.28
-46.16
-50.21
-51.75
-50.52
-46.91
-41.84
-36.43
-31.6
-27.72
-24.72
-22.33
-20.23
-18.28
-16.41
-14.63
-12.94
-11.47
-10.44
-10.1
-10.63
-11.96
-13.86
-15.94
-17.85
-19.3
-20.09
-20.23
-19.88
-19.57
-19.89
-21.39
-24.1
-27.48
-30.54
-32.4
-32.7
-31.74
-30.39
-29.32
-29.02
-29.49
-30.57
-32.13
-33.97
-35.72
-36.68
-36.16
-33.61
-29.12
-23.38
-17.29
-11.64
-6.69
-2.25
2.16
6.8
11.77
16.91
21.92
26.48
30.13
32.53
33.39
32.77
30.94
28.32
25.23
21.71
17.61
12.7
7.02
0.88
-5.1
-10.32
-14.45
-17.52
-19.97
-22.3
-24.96
-28.05
-31.47
-34.96
-38.21
-41.02
-43.23
-44.75
-45.41
-44.96
-43.06
-39.42
-33.91
-26.53
-17.63
-7.65
2.72
12.99
22.72
31.7
39.75
46.64
52.1
55.83
57.72
57.89
56.7
54.55
51.66
47.99
43.45
38.05
32.08
26.09
20.61
15.92
11.93
8.19
4.23
-0.24
-5.23
-10.48
-15.66
-20.52
-25.05
-29.29
-33.34
-37.2
-40.79
-43.99
-46.66
-48.74
-50.24
-51.21
-51.59
-51.15
-49.52
-46.37
-41.64
-35.63
-28.96
-22.4
-16.6
-11.86
-8.15
-5.2
-2.74
-0.66
1.05
2.39
3.56
4.9
6.78
9.42
12.79
16.75
21.04
25.5
29.98
34.37
38.48
42.02
44.73
46.36
46.88
46.32
44.79
42.37
39.12
35.07
30.27
24.74
18.36
10.99
2.57
-6.68
-16.13
-24.81
-31.63
-35.75
-36.81
-35.05
-31.2
-26.19
-20.81
-15.56
-10.7
-6.26
-2.38
0.77
2.89
3.83
3.65
2.68
1.45
0.49
0.19
0.64
1.74
3.21
4.87
6.54
7.98
8.93
9.02
7.96
5.73
2.6
-0.9
-4.24
-7.06
-9.33
-11.23
-13.08
-15.24
-17.84
-20.89
-24.14
-27.12
-29.21
-29.77
-28.24
-24.4
-18.38
-10.67
-2.06
6.69
14.99
22.59
29.51
35.9
41.78
46.93
50.95
53.4
54.08
53.17
51.1
48.38
45.36
42.14
38.7
34.98
31
26.89
22.8
18.67
14.43
10
5.44
0.96
-3.15
-6.68
-9.52
-11.77
-13.65
-15.46
-17.54
-20.18
-23.65
-27.97
-33
-38.24
-43
-46.45
-47.84
-46.78
-43.33
-37.98
-31.5
-24.65
-17.89
-11.32
-4.75
2.06
9.14
16.13
22.37
27.15
29.99
30.79
30.02
28.41
26.77
25.61
24.93
24.33
23.17
20.95
17.52
13.17
8.42
3.79
-0.5
-4.59
-8.77
-13.27
-18
-22.68
-26.82
-30.08
-32.32
-33.71
-34.53
-35.07
-35.46
-35.7
-35.84
-35.95
-36.09
-36.15
-35.71
-34.16
-30.81
-25.37
-17.98
-9.36
-0.48
7.81
15.02
21.11
26.28
30.77
34.64
37.81
40.09
41.41
41.84
41.64
41.15
40.58
39.95
39.04
37.58
35.34
32.35
28.81
25.1
21.58
18.42
15.47
12.31
8.42
3.53
-2.24
-8.36
-14.13
-18.92
-22.55
-25.27
-27.6
-29.98
-32.6
-35.32
-37.96
-40.5
-43.06
-45.71
-48.23
-50.03
-50.27
-48.34
-44.17
-38.33
-31.85
-25.72
-20.57
-16.44
-12.98
-9.7
-6.23
-2.39
1.8
6.22
10.62
14.69
18.09
20.55
21.97
22.4
22.08
21.34
20.52
19.86
19.48
19.31
19.28
19.25
19.24
19.32
19.6
20.09
20.7
21.11
20.95
20.06
18.48
16.55
14.7
13.27
12.38
11.93
11.58
10.89
9.43
6.86
3.2
-1.24
-5.77
-9.55
-11.78
-11.97
-10.12
-6.6
-2.08
2.85
7.7
12.17
16.01
18.97
20.92
21.88
22.11
21.84
21.26
20.22
18.39
15.5
11.63
7.27
3.19
0.04
-1.92
-2.94
-3.57
-4.36
-5.51
-6.83
-7.98
-8.62
-8.74
-8.62
-8.79
-9.68
-11.47
-13.99
-16.8
-19.42
-21.56
-23.22
-24.61
-26
-27.52
-29.08
-30.47
-31.44
-31.89
-31.78
-31.04
-29.44
-26.56
-22.03
-15.75
-8.09
0.23
8.34
15.62
21.81
27.02
31.56
35.55
38.94
41.47
42.95
43.37
43.02
42.36
41.78
41.5
41.47
41.42
41.04
40.06
38.37
36
33.12
29.9
26.48
22.88
19.13
15.21
11.2
7.15
3.03
-1.23
-5.86
-11.02
-16.71
-22.76
-28.74
-34.22
-38.84
-42.53
-45.36
-47.56
-49.29
-50.56
-51.13
-50.63
-48.65
-44.91
-39.44
-32.58
-24.95
-17.24
-10
-3.55
2
6.66
10.44
13.33
15.3
16.32
16.48
15.95
14.98
13.89
13.02
12.63
12.85
13.54
14.35
14.86
14.83
14.25
13.44
12.82
12.66
12.91
13.17
12.96
11.85
9.85
7.27
4.6
2.23
0.28
-1.32
-2.73
-4.02
-5.16
-6.11
-6.92
-7.77
-8.88
-10.2
-11.26
-11.31
-9.53
-5.53
0.51
7.87
15.64
23.16
30.18
36.81
43.25
49.56
55.51
60.73
64.87
67.63
68.91
68.66
66.93
63.81
59.48
54.19
48.25
41.96
35.61
29.47
23.77
18.71
14.41
10.77
7.49
4.09
0.13
-4.71
-10.49
-17.08
-24.22
-31.68
-39.28
-46.9
-54.36
-61.33
-67.43
-72.28
-75.64
-77.3
-77.05
-74.67
-69.9
-62.72
-53.39
-42.62
-31.28
-20.28
-10.23
-1.43
6.12
12.59
18.11
22.78
26.67
29.94
32.69
35.05
37.11
38.9
40.46
41.76
42.89
43.96
45.17
46.65
48.33
50.04
51.46
52.29
52.37
51.85
51.05
50.36
49.89
49.25
47.55
43.56
36.33
25.44
11.25
-5.24
-22.67
-39.75
-55.43
-68.85
-79.37
-86.36
-89.45
-88.47
-83.41
-74.19
-60.63
-42.48
-19.78
6.65
34.8
61.64
83.79
98.63
105.11
104.07
97.67
88.52
78.46
68.17
57.33
45.45
32.72
20.32
10.16
3.94
2.27
4.21
7.7
10.55
11.28
9.71
6.53
2.86
-0.57
-3.75
-7.15
-11.29
-16.23
-21.55
-26.46
-30.2
-32.32
-32.71
-31.72
-29.75
-27.19
-24.28
-21.14
-17.78
-14.14
-10.26
-6.24
-2.42
0.86
3.18
4.31
4.24
3.17
1.59
-0.04
-1.38
-2.52
-3.85
-5.98
-9.42
-14.16
-19.72
-25.2
-29.67
-32.5
-33.6
-33.29
-32.03
-30.27
-28.16
-25.78
-23.1
-20.14
-16.89
-13.37
-9.76
-6.41
-4.08
-3.64
-5.88
-10.86
-17.88
-25.46
-31.85
-35.7
-36.38
-34.13
-29.67
-23.95
-17.69
-11.32
-4.94
1.51
8.09
14.7
20.97
26.35
30.22
32.13
32.06
30.37
27.73
24.83
22.1
19.58
17.06
14.37
11.46
8.57
5.99
3.93
2.21
0.49
-1.77
-4.87
-8.74
-13.05
-17.34
-21.3
-24.81
-27.89
-30.55
-32.76
-34.44
-35.48
-35.83
-35.43
-34.35
-32.48
-29.77
-26.05
-21.2
-15.18
-8.15
-0.56
6.94
13.55
18.7
22.17
24.16
25.24
26
26.85
27.73
28.35
28.3
27.29
25.27
22.34
18.74
14.63
10.11
5.19
-0.02
-5.38
-10.65
-15.52
-19.73
-23.01
-25.19
-26.15
-25.85
-24.29
-21.5
-17.66
-12.95
-7.64
-2.01
3.54
8.65
12.95
16.1
18.01
18.66
18.27
17.08
15.24
12.76
9.53
5.45
0.58
-4.72
-9.92
-14.43
-17.83
-20.03
-21.16
-21.57
-21.51
-21.16
-20.46
-19.32
-17.69
-15.69
-13.61
-11.79
-10.5
-9.78
-9.38
-8.89
-7.92
-6.28
-4.07
-1.68
0.45
1.89
2.5
2.4
1.95
1.54
1.43
1.66
1.96
2.03
1.59
0.53
-1.08
-3.12
-5.52
-8.23
-10.97
-13.32
-14.57
-14.17
-11.92
-8.25
-4
-0.11
2.82
4.84
6.45
8.31
10.79
13.79
16.81
19.23
20.68
21.02
20.48
19.41
18.11
16.73
15.26
13.68
11.95
10.21
8.6
7.25
6.19
5.29
4.32
3.02
1.27
-0.99
-3.62
-6.51
-9.46
-12.34
-15.05
-17.44
-19.54
-21.36
-23.02
-24.68
-26.41
-28.12
-29.54
-30.23
-29.63
-27.36
-23.24
-17.48
-10.7
-3.65
2.89
8.4
12.58
15.42
16.94
17.18
16.19
14.03
10.93
7.2
3.14
-1
-5.05
-8.91
-12.48
-15.56
-17.98
-19.45
-19.71
-18.61
-16.12
-12.4
-7.87
-3.09
1.4
5.19
8.24
10.64
12.54
13.98
14.77
14.64
13.43
11.2
8.21
4.91
1.74
-0.9
-2.66
-3.31
-2.69
-0.9
1.82
4.92
7.86
10.13
11.42
11.71
11.21
10.26
9.15
8.06
6.91
5.64
4.17
2.53
1.02
-0.09
-0.56
-0.41
0.18
0.87
1.37
1.53
1.26
0.65
-0.3
-1.56
-3.14
-5.03
-7.24
-9.76
-12.5
-15.33
-17.93
-20.05
-21.41
-21.85
-21.42
-20.32
-18.92
-17.58
-16.67
-16.31
-16.57
-17.19
-17.78
-17.88
-16.91
-14.52
-10.54
-5.25
0.79
6.71
11.66
15.05
16.7
16.98
16.45
15.7
15.08
14.65
14.22
13.59
12.68
11.39
9.88
8.15
6.22
4.19
2.13
0.07
-2.08
-4.53
-7.71
-11.8
-16.89
-22.79
-29.07
-35.36
-41.43
-47.27
-53
-58.91
-65.08
-71.48
-77.88
-83.74
-88.35
-90.88
-90.67
-87.35
-81.03
-71.98
-60.69
-47.7
-33.47
-18.53
-3.44
11.07
24.18
34.98
42.73
46.94
47.54
45.02
40.19
34.23
28.27
23.16
19.4
17.02
15.64
14.62
13.34
11.17
7.83
3.44
-1.52
-6.46
-10.85
-14.44
-17.19
-18.96
-19.47
-18.05
-13.94
-6.56
4.23
17.99
33.81
50.39
66.31
80.08
90.4
96.4
97.86
95.31
89.93
83.09
76.04
69.47
63.52
57.91
52.23
46.15
39.56
32.66
25.84
19.63
14.51
10.88
8.72
7.72
7.14
6.12
3.99
0.48
-4.14
-9.26
-14.22
-18.62
-22.34
-25.46
-28.01
-29.71
-30.03
-28.39
-24.49
-18.52
-11.22
-3.57
3.5
9.41
14.09
17.82
21.1
24.27
27.36
30.17
32.36
33.73
34.31
34.46
34.46
34.48
34.34
33.71
32.31
30.12
27.49
24.91
22.91
21.68
21.16
21.04
21.07
21.14
21.28
21.49
21.54
20.92
18.96
15.07
8.94
0.61
-9.63
-21.38
-34.19
-47.55
-60.76
-72.94
-83.19
-90.84
-95.71
-98.01
-98.31
-97.17
-95.03
-92.16
-88.7
-84.71
-80.11
-74.67
-67.95
-59.67
-49.9
-39.34
-29.15
-20.52
-14.25
-10.36
-8.31
-7.35
-6.98
-7.11
-7.78
-8.85
-9.76
-9.59
-7.53
-3.3
2.64
9.41
16.19
22.65
28.95
35.37
41.93
48.08
52.89
55.49
55.58
53.53
50.18
46.41
42.78
39.44
36.23
33.04
29.93
27.22
25.16
23.72
22.48
20.81
18.17
14.39
9.9
5.51
2.1
0.17
-0.25
0.26
0.89
0.93
-0.1
-2.31
-5.57
-9.63
-14.18
-18.84
-23.23
-26.84
-29.17
-29.8
-28.51
-25.34
-20.72
-15.21
-9.44
-3.89
1.28
6.16
10.96
15.89
21.05
26.33
31.65
36.88
41.99
46.81
51.12
54.53
56.64
57.18
56.01
53.34
49.58
45.26
40.78
36.46
32.46
28.86
25.73
23.06
20.86
19.09
17.75
16.88
16.63
17.14
18.41
20
21.01
20.51
17.94
13.54
8.38
3.94
1.4
1.1
2.53
4.57
6.1
6.42
5.43
3.48
0.97
-1.9
-5.22
-9.16
-13.82
-18.95
-24.03
-28.38
-31.42
-33.09
-33.82
-34.36
-35.48
-37.58
-40.56
-43.98
-47.29
-50.11
-52.46
-54.63
-56.98
-59.85
-63.4
-67.63
-72.29
-77
-81.22
-84.32
-85.68
-84.85
-81.64
-76.18
-68.92
-60.42
-51.37
-42.3
-33.64
-25.61
-18.36
-11.97
-6.48
-1.94
1.71
4.46
6.36
7.39
7.49
6.7
5.16
3.26
1.38
-0.14
-1.26
-2.1
-2.93
-4
-5.26
-6.63
-7.86
-8.97
-10.17
-11.87
-14.37
-17.67
-21.55
-25.49
-29.11
-32.22
-34.98
-37.64
-40.35
-42.93
-44.88
-45.7
-44.92
-42.5
-38.65
-33.71
-27.99
-21.76
-15.25
-8.75
-2.66
2.69
7.07
10.47
13.04
15.08
16.83
18.52
20.32
22.31
24.47
26.59
28.36
29.54
29.95
29.6
28.64
27.28
25.66
23.98
22.27
20.53
18.76
16.9
14.92
12.87
10.89
9.13
7.74
6.81
6.39
6.57
7.55
9.47
12.34
15.94
19.84
23.63
26.95
29.69
31.84
33.48
34.63
35.32
35.56
35.54
35.51
35.71
36.28
37.14
38.01
38.63
38.89
38.81
38.52
38.17
37.69
36.83
35.2
32.44
28.36
23.07
16.82
9.99
2.98
-3.79
-9.92
-15.07
-19.09
-22.06
-24.38
-26.62
-29.25
-32.48
-36.13
-39.76
-42.87
-45.15
-46.53
-47.15
-47.23
-46.99
-46.46
-45.52
-43.98
-41.59
-38.26
-34.02
-29.04
-23.52
-17.56
-11.06
-3.85
4.19
12.88
21.69
29.88
36.74
41.83
45.07
46.75
47.19
46.78
45.77
44.47
43.33
42.84
43.37
44.86
46.67
47.74
47.09
44.23
39.38
33.41
27.33
21.93
17.53
14.21
11.94
10.73
10.42
10.43
10.02
8.5
5.76
2.25
-1.28
-4.37
-7.15
-10.2
-14.1
-18.7
-23.08
-25.87
-25.88
-22.79
-17.15
-10.19
-3.22
2.72
7.02
9.43
10.01
9.04
6.85
3.81
0.19
-3.77
-7.82
-11.71
-15.15
-17.75
-19.04
-18.73
-16.53
-12.3
-5.98
2.4
12.56
23.87
35.35
45.85
54.2
59.66
62.12
62.06
60.37
57.94
55.45
53.06
50.63
47.82
44.28
39.78
34.05
26.81
17.75
6.86
-5.47
-18.31
-30.52
-41.2
-50.02
-57.31
-63.7
-69.77
-75.53
-80.57
-84.29
-86.24
-86.38
-84.96
-82.36
-78.83
-74.58
-69.65
-63.95
-57.24
-48.98
-38.55
-25.43
-9.46
9.09
29.55
51.02
72.45
92.65
110.4
124.5
134
138.5
138.25
133.94
126.46
116.49
104.35
90.22
74.25
