17.31
17.17
16.74
16.33
16.1
16.01
15.94
15.81
15.65
15.53
15.47
15.48
15.44
15.2
14.75
14.18
13.69
13.37
13.13
12.57
11.27
8.92
5.56
1.63
-2.33
-5.79
-8.56
-10.7
-12.49
-14.19
-15.95
-17.76
-19.65
-21.66
-23.83
-25.91
-27.33
-27.3
-25.15
-20.61
-14.06
-6.36
1.39
8.29
13.76
17.63
19.98
21.01
20.95
20.09
18.79
17.38
16.13
15.2
14.55
14.12
13.85
13.67
13.57
13.52
13.5
13.48
13.43
13.32
13.09
12.61
11.68
10.13
8.01
5.43
2.68
0.05
-2.3
-4.34
-6.21
-8.09
-10.14
-12.38
-14.66
-16.81
-18.6
-20.01
-21.12
-22.2
-23.58
-25.52
-28.05
-30.87
-33.41
-34.86
-34.48
-31.74
-26.6
-19.55
-11.49
-3.46
3.66
9.35
13.49
16.16
17.57
17.89
17.32
16.16
14.71
13.3
12.11
11.23
10.57
10.06
9.72
9.57
9.71
10.11
10.74
11.49
12.26
12.9
13.17
12.8
11.57
9.51
6.84
4
1.36
-0.92
-2.89
-4.79
-6.74
-8.71
-10.49
-11.86
-12.75
-13.34
-13.99
-15.05
-16.84
-19.39
-22.52
-25.78
-28.47
-29.85
-29.27
-26.45
-21.49
-15.03
-7.96
-1.21
4.51
8.86
11.89
13.91
15.22
16.09
16.5
16.44
15.89
14.99
14.05
13.39
13.18
13.34
13.72
14.09
14.4
14.72
15.03
15.25
15.11
14.37
12.98
11.11
9.06
7.12
5.37
3.67
1.89
-0.01
-1.91
-3.63
-5.08
-6.43
-7.91
-9.77
-12.05
-14.54
-16.94
-18.96
-20.58
-21.94
-23.35
-24.99
-26.71
-28.06
-28.28
-26.72
-22.99
-17.25
-10.21
-2.87
3.81
9.16
13.04
15.59
17.1
17.82
17.84
17.19
16.03
14.57
13.14
12.03
11.39
11.19
11.31
11.66
12.17
12.85
13.58
14.13
14.21
13.51
11.98
9.78
7.28
4.84
2.76
1.02
-0.56
-2.19
-4.05
-6.16
-8.37
-10.44
-12.16
-13.39
-14.21
-14.89
-15.7
-16.99
-18.85
-21.18
-23.64
-25.69
-26.76
-26.37
-24.27
-20.43
-15.19
-9.07
-2.73
3.15
8.11
11.89
14.44
15.83
16.21
15.74
14.62
13.07
11.37
9.8
8.58
7.79
7.37
7.24
7.28
7.38
7.53
7.76
8.07
8.32
8.33
7.84
6.66
4.7
2.1
-0.85
-3.8
-6.44
-8.66
-10.47
-12
-13.36
-14.65
-15.81
-16.87
-17.9
-19.03
-20.42
-22.05
-23.8
-25.23
-25.77
-24.78
-21.84
-16.94
-10.59
-3.64
2.86
8.11
11.67
13.65
14.45
14.59
14.37
13.87
13
11.69
10.06
8.4
7.1
6.44
6.51
7.1
7.89
8.49
8.72
8.6
8.34
8.09
7.88
7.59
6.96
5.79
4.07
1.93
-0.31
-2.36
-4.2
-5.94
-7.82
-9.98
-12.42
-14.88
-17.21
-19.25
-21.18
-23.28
-25.77
-28.66
-31.61
-33.99
-35.06
-34.32
-31.49
-26.73
-20.49
-13.38
-6.07
0.81
6.76
11.37
14.4
15.89
16.09
15.38
14.27
13.12
12.17
11.5
11.06
10.82
10.78
10.97
11.35
11.87
12.35
12.7
12.81
12.72
12.39
11.79
10.85
9.54
7.88
5.94
3.83
1.64
-0.53
-2.59
-4.47
-6.14
-7.68
-9.31
-11.25
-13.63
-16.37
-19.18
-21.76
-23.97
-25.83
-27.45
-28.81
-29.59
-29.27
-27.3
-23.4
-17.76
-10.97
-3.88
2.65
8.05
12.03
14.65
16.1
16.7
16.72
16.33
15.67
14.77
13.75
12.81
12.23
12.23
12.84
13.86
14.93
15.7
15.98
15.79
15.32
14.73
14.09
13.3
12.22
10.76
8.99
7.01
4.89
2.72
0.51
-1.65
-3.67
-5.44
-6.98
-8.46
-10.13
-12.25
-14.93
-18.21
-21.83
-25.42
-28.46
-30.32
-30.41
-28.26
-23.84
-17.54
-10.26
-3.05
3.22
8.06
11.53
13.98
15.84
17.32
18.26
18.38
17.51
15.76
13.53
11.33
9.58
8.44
7.87
7.77
8.05
8.72
9.71
10.77
11.59
11.82
11.28
10.04
8.29
6.27
4.04
1.58
-1.22
-4.26
-7.3
-10.01
-12.15
-13.75
-15.03
-16.36
-18.02
-20.08
-22.4
-24.63
-26.34
-27.11
-26.54
-24.44
-20.8
-15.87
-10.1
-4.1
1.5
6.24
9.91
12.53
14.25
15.24
15.59
15.35
14.58
13.44
12.19
11.14
10.46
10.22
10.3
10.57
10.91
11.28
11.75
12.24
12.64
12.7
12.17
10.84
8.67
5.8
2.45
-1.04
-4.4
-7.47
-10.19
-12.61
-14.88
-17.11
-19.4
-21.8
-24.3
-26.78
-28.98
-30.43
-30.48
-28.59
-24.43
-18.23
-10.7
-2.83
4.3
9.96
13.88
16.19
17.3
17.64
17.49
16.93
16.02
14.77
13.31
11.94
10.96
10.59
10.87
11.61
12.5
13.31
13.88
14.23
14.43
14.43
14.11
13.31
11.87
9.75
7.08
4.07
0.97
-1.97
-4.65
-7.03
-9.21
-11.36
-13.7
-16.36
-19.36
-22.6
-25.76
-28.47
-30.22
-30.49
-28.9
-25.3
-19.89
-13.19
-5.99
0.96
7.03
11.93
15.66
18.37
20.27
21.44
21.88
21.62
20.78
19.59
18.41
17.51
16.94
16.63
16.39
16
15.34
14.46
13.44
12.37
11.34
10.28
9.16
7.85
6.21
4.09
1.47
-1.55
-4.8
-7.99
-10.9
-13.36
-15.33
-16.89
-18.24
-19.62
-21.28
-23.36
-25.73
-27.91
-29.19
-28.79
-26.21
-21.42
-14.9
-7.44
0.08
6.96
12.75
17.19
20.19
21.73
21.89
20.84
18.9
16.47
14
11.85
10.23
9.26
8.92
9.05
9.49
10.05
10.55
10.86
10.91
10.63
9.94
8.72
6.85
4.34
1.39
-1.73
-4.69
-7.21
-9.29
-11.09
-12.9
-14.94
-17.25
-19.63
-21.83
-23.66
-24.95
-25.67
-25.71
-24.83
-22.68
-18.98
-13.65
-6.98
0.35
7.55
13.81
18.63
21.88
23.71
24.44
24.37
23.69
22.45
20.69
18.53
16.22
14.12
12.52
11.58
11.28
11.48
11.97
12.67
13.45
14.15
14.59
14.45
13.55
11.86
9.64
7.3
5.33
4.02
3.43
3.46
3.75
3.94
3.7
2.77
0.92
-1.94
-5.74
-10.26
-14.91
-19.01
-21.81
-22.72
-21.47
-18.25
-13.56
-8.08
-2.59
2.34
6.24
8.97
10.59
11.29
11.33
10.92
10.2
9.21
8.07
6.85
5.73
4.94
4.55
4.64
5.13
5.96
7.02
8.2
9.3
10.07
10.32
9.94
9.06
7.85
6.5
5.03
3.36
1.37
-0.99
-3.54
-6.1
-8.44
-10.52
-12.49
-14.6
-17.06
-20.01
-23.44
-27.09
-30.49
-32.9
-33.47
-31.56
-26.94
-20.06
-11.85
-3.52
3.92
9.85
14.15
16.96
18.5
19.03
18.79
18.12
17.26
16.45
15.7
14.88
13.89
12.77
11.78
11.23
11.36
12.06
13.02
13.84
14.16
13.89
13.09
11.92
10.52
8.96
7.23
5.3
3.16
0.77
-1.88
-4.82
-8
-11.36
-14.67
-17.73
-20.38
-22.56
-24.35
-25.93
-27.57
-29.4
-31.31
-32.87
-33.41
-32.25
-28.95
-23.52
-16.44
-8.58
-0.95
5.64
10.73
14.31
16.6
17.96
18.65
18.82
18.5
17.76
16.77
15.78
15.05
14.71
14.73
14.9
15.07
15.17
15.24
15.4
15.65
15.88
15.81
15.14
13.74
11.73
9.46
7.28
5.46
3.9
2.4
0.62
-1.63
-4.34
-7.29
-10.21
-12.89
-15.18
-17.08
-18.61
-19.84
-20.88
-21.9
-23.1
-24.6
-26.41
-28.19
-29.42
-29.38
-27.43
-23.26
-17
-9.32
-1.15
6.48
12.83
17.52
20.55
22.15
22.62
22.3
21.43
20.24
18.93
17.65
16.45
15.34
14.26
13.16
12.12
11.21
10.53
10.18
10.18
10.48
10.97
11.4
11.48
10.99
9.84
8.13
6.18
4.27
2.52
0.89
-0.81
-2.78
-5
-7.28
-9.36
-11.07
-12.54
-13.95
-15.49
-17.15
-18.84
-20.5
-22.23
-24.31
-26.82
-29.55
-31.74
-32.36
-30.56
-26.01
-19.13
-10.86
-2.37
5.41
11.82
16.54
19.45
20.54
19.9
17.85
14.89
11.71
8.97
7.15
6.38
6.44
6.93
7.53
8
8.39
8.83
9.49
10.41
11.44
12.34
12.78
12.53
11.45
9.6
7.18
4.44
1.69
-0.87
-3.09
-5.01
-6.72
-8.39
-10.14
-12.02
-13.95
-15.76
-17.26
-18.33
-19.06
-19.65
-20.43
-21.56
-22.91
-23.97
-24.05
-22.5
-19.09
-14.02
-7.99
-1.81
3.82
8.6
12.47
15.55
17.88
19.36
19.85
19.25
17.64
15.32
12.73
10.31
8.39
7.12
6.5
6.39
6.59
6.85
6.96
6.79
6.36
5.78
5.24
4.8
4.32
3.47
1.85
-0.75
-4.21
-8.1
-11.88
-15.13
-17.78
-19.98
-22.02
-24.06
-26.16
-28.23
-30.1
-31.56
-32.37
-32.24
-30.79
-27.74
-22.97
-16.65
-9.24
-1.39
6.23
13.07
18.68
22.75
25.12
25.83
25.05
23.03
20.09
16.62
13.04
9.74
7.04
5.18
4.28
4.33
5.07
6.15
7.19
7.95
8.33
8.46
8.41
8.18
7.55
6.2
3.95
0.8
-2.89
-6.6
-9.86
-12.45
-14.45
-16.08
-17.64
-19.26
-21.12
-23.25
-25.61
-28.04
-30.17
-31.43
-31.27
-29.35
-25.62
-20.45
-14.52
-8.52
-3.09
1.28
4.34
5.98
6.23
5.27
3.43
1.04
-1.49
-3.85
-5.75
-6.96
-7.3
-6.64
-4.87
-2.01
1.83
6.31
10.95
15.3
18.97
21.75
23.69
24.88
25.35
25.03
23.78
21.48
18.24
14.46
10.66
7.33
4.76
2.87
1.37
-0.09
-1.92
-4.35
-7.45
-11
-14.5
-17.24
-18.45
-17.67
-14.83
-10.4
-5.14
0.09
4.67
8.26
10.83
12.38
12.91
12.45
11.11
9.21
7.19
5.47
4.26
3.55
3.14
2.79
2.46
2.24
2.28
2.68
3.31
3.92
4.22
4.09
3.57
2.89
2.3
1.85
1.41
0.63
-0.74
-2.84
-5.5
-8.36
-11.05
-13.29
-15.02
-16.35
-17.49
-18.68
-20.1
-21.85
-23.85
-25.93
-27.75
-28.88
-28.84
-27.31
-24.09
-19.32
-13.4
-6.88
-0.45
5.33
10.05
13.48
15.55
16.33
16.03
14.95
13.53
12.16
11.22
10.81
10.81
11.01
11.2
11.39
11.67
12.19
12.91
13.61
13.89
13.42
12.15
10.26
8.12
6.01
4.05
2.12
0.08
-2.18
-4.66
-7.17
-9.58
-11.73
-13.61
-15.22
-16.64
-17.93
-19.2
-20.59
-22.13
-23.76
-25.12
-25.67
-24.75
-21.92
-17.13
-10.8
-3.73
3.23
9.35
14.27
17.89
20.27
21.61
21.99
21.62
20.65
19.29
17.7
16.01
14.34
12.78
11.44
10.36
9.58
9.07
8.71
8.34
7.79
7.03
6.06
5
3.86
2.71
1.45
0.03
-1.66
-3.63
-5.78
-8.02
-10.17
-12.22
-14.24
-16.39
-18.87
-21.7
-24.84
-27.98
-30.7
-32.44
-32.68
-31.05
-27.48
-22.19
-15.7
-8.72
-1.86
4.39
9.69
13.83
16.66
18.05
17.98
16.61
14.25
11.4
8.6
6.3
4.85
4.37
4.9
6.29
8.29
10.6
12.89
15.01
16.85
18.43
19.71
20.64
21.06
20.83
19.86
18.21
16.08
13.71
11.31
8.95
6.56
3.98
0.97
-2.57
-6.59
-10.76
-14.56
-17.3
-18.46
-17.77
-15.25
-11.3
-6.43
-1.3
3.47
7.4
10.2
11.85
12.48
12.38
11.82
11.01
10.04
8.95
7.85
6.85
6.16
5.85
5.95
6.3
6.7
6.9
6.87
6.65
6.43
6.36
6.39
6.31
5.71
4.3
1.95
-1.13
-4.52
-7.71
-10.26
-11.96
-12.8
-12.98
-12.84
-12.82
-13.39
-14.96
-17.7
-21.34
-25.19
-28.21
-29.43
-28.23
-24.57
-19.01
-12.42
-5.74
0.37
5.54
9.66
12.69
14.64
15.55
15.54
14.94
14.13
13.5
13.11
12.94
12.77
12.41
11.81
11.07
10.38
9.92
9.79
9.89
10.04
9.99
9.54
8.6
7.15
5.33
3.19
0.84
-1.73
-4.51
-7.48
-10.56
-13.57
-16.29
-18.58
-20.4
-21.89
-23.32
-24.9
-26.68
-28.37
-29.42
-29.14
-27.02
-22.89
-17.1
-10.34
-3.47
2.77
7.92
11.88
14.75
16.75
18.08
18.79
18.91
18.36
17.18
15.55
13.77
12.28
11.46
11.45
12.14
13.21
14.32
15.21
15.8
16.08
16.06
15.65
14.75
13.26
11.25
8.88
6.34
3.74
1.13
-1.54
-4.24
-6.85
-9.23
-11.25
-12.83
-14.02
-14.99
-15.96
-17.15
-18.68
-20.45
-22.11
-23.1
-22.81
-20.81
-17.02
-11.84
-5.89
0.03
5.28
9.48
12.54
14.56
15.76
16.34
16.42
16.07
15.37
14.45
13.5
12.76
12.35
12.29
12.53
12.94
13.41
13.91
14.47
15.08
15.63
15.9
15.65
14.72
13.1
10.88
8.21
5.27
2.22
-0.85
-3.77
-6.48
-8.88
-10.96
-12.75
-14.23
-15.42
-16.34
-17.13
-17.98
-19.13
-20.56
-21.97
-22.75
-22.21
-19.98
-16.09
-10.99
-5.34
0.19
5.13
9.23
12.36
14.47
15.49
15.5
14.74
13.56
12.34
11.44
11
10.95
11.11
11.21
11.08
10.73
10.21
9.72
9.37
9.27
9.44
9.88
10.52
11.19
11.59
11.31
10.08
7.77
4.66
1.2
-2.11
-4.93
-7.14
-8.91
-10.49
-12.05
-13.73
-15.54
-17.42
-19.2
-20.59
-21.18
-20.52
-18.32
-14.52
-9.48
-3.78
1.85
6.82
10.72
13.46
15.15
16
16.22
15.92
15.19
14.15
12.93
11.8
10.93
10.51
10.53
10.92
11.53
12.2
12.88
13.43
13.81
13.81
13.3
12.12
10.29
7.93
5.27
2.55
-0.13
-2.67
-5.07
-7.23
-9.04
-10.38
-11.28
-11.95
-12.77
-14.16
-16.3
-19.03
-21.82
-23.94
-24.69
-23.64
-20.7
-16.16
-10.53
-4.42
1.58
6.92
11.14
13.98
15.42
15.65
15.02
13.97
12.85
11.95
11.4
11.25
11.41
11.74
11.98
11.93
11.5
10.75
9.94
9.29
9.01
9.05
9.25
9.34
9.12
8.49
7.47
6.16
4.68
3.09
1.37
-0.6
-2.97
-5.81
-9.03
-12.38
-15.58
-18.4
-20.78
-22.83
-24.78
-26.82
-29.03
-31.37
-33.62
-35.4
-36.24
-35.57
-32.98
-28.34
-21.98
-14.64
-7.25
-0.64
4.64
8.45
10.89
12.16
12.48
12.09
11.26
10.42
9.93
10.03
10.72
11.72
12.63
13.22
13.45
13.51
13.69
14.16
14.92
15.82
16.64
17.14
17.28
17.01
16.34
15.28
13.82
11.98
9.8
7.36
4.78
2.25
-0.12
-2.28
-4.26
-6.19
-8.27
-10.58
-13.07
-15.62
-18.06
-20.32
-22.48
-24.6
-26.72
-28.67
-30.07
-30.39
-29.16
-26.17
-21.56
-15.79
-9.46
-3.25
2.29
6.84
10.19
12.42
13.71
14.36
14.66
14.78
14.81
14.65
14.27
13.69
13.06
12.56
12.29
12.16
11.97
11.55
10.91
10.3
9.99
10.03
10.21
10.09
9.24
7.51
5.19
2.81
0.83
-0.56
-1.57
-2.65
-4.19
-6.31
-8.84
-11.45
-13.83
-15.85
-17.56
-19.16
-20.83
-22.71
-24.8
-26.96
-28.93
-30.34
-30.83
-30.04
-27.71
-23.8
-18.5
-12.23
-5.61
0.65
5.96
9.91
12.5
13.95
14.65
14.89
14.87
14.64
14.22
13.74
13.42
13.56
14.34
15.74
17.53
19.33
20.73
21.42
21.28
20.37
18.9
17.02
14.88
12.59
10.14
7.56
4.88
2.21
-0.41
-2.99
-5.62
-8.41
-11.42
-14.57
-17.67
-20.43
-22.61
-24.13
-25.14
-25.89
-26.62
-27.39
-27.95
-27.78
-26.25
-22.9
-17.61
-10.77
-3.13
4.39
11.04
16.32
20.11
22.49
23.64
23.73
22.89
21.28
19.11
16.67
14.28
12.26
10.8
9.93
9.54
9.34
9.11
8.67
8.02
7.23
6.37
5.57
4.84
4.16
3.41
2.49
1.23
-0.44
-2.5
-4.86
-7.28
-9.54
-11.43
-12.95
-14.22
-15.52
-17.09
-19.08
-21.56
-24.34
-27.14
-29.4
-30.56
-30.1
-27.71
-23.44
-17.63
-10.94
-4.05
2.22
7.34
10.97
13.09
13.92
13.84
13.24
12.4
11.47
10.46
9.42
8.45
7.7
7.34
7.32
7.57
7.9
8.21
8.41
8.54
8.62
8.51
8.13
7.29
5.98
4.22
2.19
0.02
-2.15
-4.24
-6.28
-8.26
-10.25
-12.25
-14.24
-16.14
-17.87
-19.37
-20.71
-22.15
-24.01
-26.5
-29.47
-32.27
-34.03
-33.83
-31.24
-26.41
-20
-12.93
-6.09
-0.06
4.87
8.54
10.95
12.16
12.48
12.27
12.01
11.98
12.2
12.5
12.62
12.46
12.14
11.9
11.98
12.51
13.37
14.25
14.85
14.84
14.15
12.82
11.02
9.03
7.07
5.28
3.63
2.01
0.18
-2.01
-4.64
-7.58
-10.53
-13.17
-15.25
-16.74
-17.88
-19.05
-20.56
-22.51
-24.72
-26.75
-28.09
-28.27
-26.92
-23.82
-18.95
-12.6
-5.36
1.86
8.14
12.77
15.52
16.74
17.08
17.16
17.31
17.53
17.61
17.46
17.17
16.97
17.1
17.52
18.02
18.31
18.26
17.95
17.59
17.36
17.25
17.05
16.45
15.24
13.39
11.08
8.56
6.05
3.76
1.65
-0.3
-2.22
-4.17
-6.2
-8.29
-10.4
-12.42
-14.28
-16.1
-17.99
-20.18
-22.82
-25.84
-28.88
-31.22
-32.02
-30.52
-26.48
-20.18
-12.44
-4.34
3.18
9.44
14.21
17.48
19.4
20.12
19.83
18.8
17.32
15.82
14.59
13.85
13.59
13.72
14.06
14.46
14.83
15.13
15.38
15.58
15.76
15.9
15.96
15.83
15.37
14.41
12.74
10.34
7.29
3.88
0.52
-2.38
-4.6
-6.12
-7.17
-8.12
-9.35
-11.2
-13.78
-16.97
-20.36
-23.41
-25.5
-26.08
-24.83
-21.69
-16.96
-11.2
-5.1
0.7
5.67
9.54
12.22
13.72
14.12
13.53
12.13
10.26
8.32
6.74
5.93
6.12
7.3
9.27
11.68
14.13
16.28
17.81
18.58
18.57
17.94
16.84
15.47
13.8
11.76
9.19
6.02
2.34
-1.62
-5.54
-9.2
-12.34
-14.94
-17.01
-18.71
-20.23
-21.74
-23.39
-25.16
-26.8
-27.86
-27.75
-25.96
-22.25
-16.74
-9.9
-2.53
4.48
10.38
14.67
17.23
18.21
17.98
16.98
15.66
14.4
13.42
12.91
12.81
13.01
13.32
13.6
13.78
13.95
14.18
14.51
14.82
14.84
14.32
13.1
11.21
8.83
6.25
3.66
1.11
-1.51
-4.37
-7.51
-10.74
-13.84
-16.57
-18.84
-20.69
-22.27
-23.73
-25.15
-26.62
-28.17
-29.83
-31.38
-32.36
-32.11
-29.98
-25.69
-19.46
-12.09
-4.58
2.08
7.4
11.26
13.86
15.55
16.58
17.12
17.23
17.05
16.66
16.25
15.93
15.77
15.84
16.04
16.34
16.6
16.75
16.73
16.5
16.08
15.4
14.44
13.14
11.53
9.61
7.5
5.26
2.95
0.55
-1.95
-4.51
-7.03
-9.35
-11.29
-12.76
-13.78
-14.54
-15.34
-16.53
-18.36
-20.94
-24.03
-27.12
-29.48
-30.33
-29.12
-25.64
-20.2
-13.47
-6.3
0.49
6.38
11.12
14.74
17.39
19.27
20.38
20.77
20.47
19.66
18.59
17.57
16.72
16.06
15.57
15.17
14.92
14.93
15.3
16.05
17.01
17.86
18.21
17.81
16.55
14.56
12.18
9.79
7.75
6.25
5.17
4.2
2.99
1.2
-1.31
-4.46
-8.05
-11.78
-15.37
-18.6
-21.29
-23.41
-25.07
-26.45
-27.69
-28.76
-29.21
-28.41
-25.76
-21.01
-14.45
-6.88
0.63
7.15
12.12
15.43
17.32
18.12
18.08
17.35
16.07
14.47
12.85
11.6
10.99
11.17
12.03
13.3
14.58
15.54
15.99
15.93
15.49
14.82
14.04
13.08
11.85
10.23
8.26
6.11
3.91
1.73
-0.51
-2.91
-5.53
-8.24
-10.83
-13.1
-15.05
-16.89
-18.86
-21.09
-23.36
-25.17
-25.9
-25.14
-22.77
-19.01
-14.29
-9.07
-3.75
1.34
5.95
9.84
12.77
14.54
15.14
14.68
13.47
11.86
10.19
8.74
7.62
6.87
6.39
6.14
6.06
6.15
6.46
6.98
7.63
8.19
8.45
8.18
7.27
5.71
3.61
1.07
-1.79
-4.81
-7.84
-10.62
-13.01
-14.96
-16.69
-18.53
-20.81
-23.63
-26.65
-29.24
-30.55
-29.91
-27.08
-22.3
-16.28
-9.85
-3.78
1.53
5.89
9.37
11.98
13.64
14.25
13.74
12.26
10.27
8.41
7.22
7.02
7.78
9.13
10.58
11.77
12.6
13.22
13.91
14.84
16.02
17.17
17.82
17.51
15.97
13.23
9.62
5.57
1.49
-2.34
-5.79
-8.9
-11.69
-14.29
-16.8
-19.38
-22.08
-24.79
-27.06
-28.2
-27.47
-24.34
-18.79
-11.35
-2.98
5.26
12.4
17.85
21.36
23.06
23.31
22.48
20.98
19.13
17.14
15.24
13.6
12.39
11.68
11.4
11.27
11
10.39
9.31
7.82
6.07
4.22
2.28
0.26
-1.96
-4.41
-7.01
-9.6
-12
-14.05
-15.68
-17.01
-18.2
-19.48
-21.01
-22.9
-25.17
-27.67
-30.02
-31.69
-32
-30.44
-26.83
-21.43
-14.91
-8.13
-1.77
3.77
8.32
11.93
14.65
16.49
17.41
17.44
16.65
15.25
13.49
11.59
9.8
8.39
7.51
7.23
7.51
8.2
9.09
9.93
10.43
10.39
9.7
8.32
6.29
3.73
0.81
-2.34
-5.56
-8.78
-11.95
-15.12
-18.45
-21.98
-25.57
-28.74
-30.77
-30.85
-28.46
-23.52
-16.53
-8.49
-0.43
6.78
12.69
17.21
20.47
22.6
23.62
23.49
22.23
20.05
17.34
14.6
12.23
10.49
9.38
8.84
8.73
8.93
9.3
9.63
9.68
9.25
8.27
6.85
5.18
3.51
1.93
0.42
-1.21
-3.2
-5.73
-8.88
-12.61
-16.77
-21.05
-24.99
-27.99
-29.42
-28.79
-25.94
-21.05
-14.69
-7.63
-0.57
5.91
11.57
16.3
20.01
22.58
23.78
23.5
21.81
19.14
16.07
13.22
11.08
9.76
9.21
9.17
9.36
9.59
9.75
9.75
9.59
9.32
8.97
8.59
8.06
7.17
5.67
3.41
0.35
-3.35
-7.49
-11.91
-16.42
-20.87
-24.97
-28.29
-30.28
-30.49
-28.74
-25.06
-19.87
-13.66
-7
-0.42
5.68
10.97
15.16
18
19.37
19.26
17.84
15.54
12.82
10.18
7.96
6.31
5.15
4.44
4.16
4.45
5.42
7
8.86
10.37
10.92
10.1
7.95
4.81
1.23
-2.29
-5.47
-8.24
-10.71
-13.05
-15.46
-18.09
-20.98
-23.89
-26.28
-27.5
-26.91
-24.23
-19.66
-13.82
-7.57
-1.72
3.16
6.91
9.55
11.28
12.3
12.76
12.75
12.28
11.36
9.99
8.27
6.35
4.53
3.13
2.41
2.54
3.43
4.85
6.42
7.8
8.66
8.78
8.04
6.35
3.85
0.75
-2.58
-5.78
-8.57
-10.93
-13.07
-15.42
-18.41
-22.2
-26.56
-30.71
-33.59
-34.14
-31.76
-26.5
-19.03
-10.43
-1.82
5.91
12.31
17.26
20.85
23.12
24.08
23.87
22.67
20.85
18.83
16.97
15.48
14.34
13.37
12.34
11.16
9.82
8.49
7.38
6.62
6.16
5.76
5.12
3.99
2.25
-0.03
-2.64
-5.33
-7.92
-10.37
-12.68
-14.89
-17.09
-19.41
-21.98
-24.85
-27.81
-30.38
-31.85
-31.39
-28.52
-23.21
-15.99
-7.74
0.54
8.06
14.28
19
22.22
24.02
24.48
23.79
22.2
20.03
17.65
15.38
13.5
12.19
11.47
11.24
11.34
11.57
11.8
11.98
12.12
12.2
12.15
11.83
11.08
9.82
8.08
6.01
3.75
1.39
-1.11
-3.79
-6.66
-9.61
-12.48
-15.14
-17.54
-19.75
-21.89
-24.05
-26.18
-28.02
-29
-28.54
-26.2
-21.86
-15.81
-8.7
-1.37
5.4
11.05
15.32
18.21
19.88
20.53
20.41
19.77
18.84
17.88
16.99
16.22
15.47
14.68
13.84
13.03
12.44
12.19
12.33
12.73
13.23
13.55
13.5
12.9
11.58
9.49
6.63
3.27
-0.23
-3.45
-6.18
-8.49
-10.65
-13.02
-15.8
-19.07
-22.59
-26.03
-28.86
-30.52
-30.49
-28.38
-24.13
-18.05
-10.8
-3.14
4.12
10.45
15.54
19.28
21.63
22.57
22.14
20.47
17.84
14.64
11.34
8.45
6.37
5.37
5.43
6.28
7.5
8.7
9.64
10.3
10.79
11.09
11.11
10.52
9.03
6.51
3.1
-0.8
-4.73
-8.31
-11.4
-13.99
-16.21
-18.23
-20.24
-22.46
-24.96
-27.6
-30.01
-31.62
-31.83
-30.22
-26.7
-21.48
-15.1
-8.15
-1.28
4.98
10.2
14.15
16.81
18.36
19.11
19.26
18.9
17.96
16.4
14.31
12.05
10.07
8.71
8.1
8.08
8.37
8.74
9.15
9.64
10.19
10.62
10.53
9.59
7.59
4.64
1.03
-2.83
-6.61
-10.14
-13.36
-16.34
-19.09
-21.69
-24.22
-26.75
-29.33
-31.89
-34.21
-35.88
-36.41
-35.31
-32.26
-27.26
-20.65
-13.05
-5.2
2.2
8.62
13.79
17.66
20.3
21.8
22.29
21.8
20.43
18.34
15.86
13.41
11.47
10.38
10.24
10.9
12.03
13.28
14.35
15.07
15.29
14.89
13.8
12.05
9.78
7.26
4.72
2.28
-0.05
-2.42
-4.93
-7.48
-9.95
-12.23
-14.21
-15.96
-17.65
-19.42
-21.44
-23.83
-26.55
-29.39
-31.87
-33.29
-32.95
-30.36
-25.4
-18.51
-10.53
-2.4
5.04
11.21
15.9
19.11
20.96
21.75
21.74
21.11
20.08
18.77
17.26
15.69
14.19
12.94
12.19
12.06
12.48
13.28
14.09
14.67
14.92
14.87
14.59
14.15
13.39
12.09
10.05
7.25
3.9
0.38
-2.99
-6.12
-8.97
-11.65
-14.19
-16.47
-18.44
-20.08
-21.6
-23.18
-24.94
-26.61
-27.63
-27.3
-25.05
-20.76
-14.79
-7.85
-0.7
5.99
11.73
16.25
19.42
21.26
21.9
21.58
20.56
19.14
17.62
16.22
15.13
14.44
14.15
14.05
13.89
13.48
12.87
12.27
11.9
11.87
11.94
11.71
10.67
8.54
5.4
1.6
-2.34
-5.94
-8.88
-11.13
-12.82
-14.18
-15.47
-16.91
-18.68
-20.89
-23.47
-26.06
-28.14
-28.98
-27.98
-24.87
-19.84
-13.54
-6.78
-0.28
5.46
10.26
14.09
16.95
18.77
19.47
19
17.52
15.26
12.54
9.71
7.13
5.13
3.92
3.64
4.23
5.5
7.17
8.9
10.42
11.43
11.62
10.73
8.63
5.39
1.41
-2.8
-6.71
-10.01
-12.74
-15.1
-17.37
-19.75
-22.29
-24.9
-27.45
-29.71
-31.34
-31.88
-30.82
-27.79
-22.77
-16.13
-8.6
-1.04
5.76
11.26
15.22
17.67
18.79
18.8
17.94
16.44
14.55
12.59
10.93
9.87
9.63
10.18
11.26
12.47
13.41
13.83
13.7
13.11
12.09
10.64
8.63
6.01
2.81
-0.79
-4.53
-8.15
-11.42
-14.29
-16.75
-18.97
-21.13
-23.41
-25.97
-28.75
-31.55
-33.92
-35.33
-35.25
-33.29
-29.32
-23.52
-16.37
-8.47
-0.62
6.55
12.54
17.07
20.09
21.68
22.04
21.43
20.19
18.61
16.99
15.57
14.49
13.84
13.56
13.56
13.69
13.83
13.86
13.75
13.49
13.09
12.59
11.96
11.11
9.9
8.15
5.78
2.82
-0.48
-3.82
-6.92
-9.64
-12
-14.17
-16.33
-18.65
-21.21
-23.92
-26.51
-28.48
-29.21
-28.07
-24.69
-19.14
-11.96
-4.06
3.62
10.33
15.65
19.46
21.83
22.87
22.74
21.65
19.85
17.78
15.89
14.58
14.09
14.31
14.93
15.54
15.85
15.76
15.51
15.34
15.48
15.92
16.31
16.31
15.63
14.29
12.45
10.35
8.15
5.85
3.42
0.81
-1.88
-4.51
-6.91
-9.02
-10.99
-12.97
-15.12
-17.49
-20.13
-22.99
-25.99
-28.86
-31.14
-32.23
-31.53
-28.64
-23.63
-17.07
-9.78
-2.68
3.54
8.55
12.32
15
16.74
17.7
17.97
17.71
17.1
16.4
15.88
15.73
16.1
16.92
17.97
18.99
19.73
20
19.82
19.31
18.61
17.84
16.9
15.64
13.83
11.35
8.1
4.16
-0.3
-5.01
-9.56
-13.55
-16.61
-18.59
-19.65
-20.24
-20.84
-21.8
-23.2
-24.68
-25.63
-25.37
-23.37
-19.39
-13.57
-6.44
1.19
8.32
14.14
18.12
20.18
20.64
19.97
18.65
16.95
14.98
12.82
10.73
9.16
8.58
9.28
11.16
13.65
16.01
17.6
18.15
17.78
16.87
15.74
14.55
13.19
11.43
9.01
5.84
1.99
-2.34
-6.83
-11.13
-14.89
-17.87
-20.05
-21.62
-23
-24.55
-26.56
-28.9
-31.17
-32.66
-32.64
-30.66
-26.59
-20.84
-14.12
-7.18
-0.69
4.99
9.66
13.29
15.85
17.33
17.77
17.34
16.34
15.11
13.93
12.95
12.24
11.77
11.55
11.55
11.76
12.1
12.43
12.52
12.19
11.42
10.19
8.62
6.77
4.67
2.32
-0.27
-2.99
-5.72
-8.22
-10.43
-12.3
-13.93
-15.51
-17.14
-18.86
-20.66
-22.5
-24.45
-26.52
-28.62
-30.47
-31.6
-31.45
-29.6
-25.81
-20.27
-13.45
-6.06
1.2
7.7
13.01
16.95
19.49
20.82
21.18
20.86
20.07
19.03
17.91
16.8
15.82
14.91
14.09
13.37
12.81
12.58
12.75
13.34
14.13
14.83
15
14.38
12.92
10.78
8.26
5.63
3.03
0.38
-2.41
-5.42
-8.58
-11.66
-14.36
-16.41
-17.79
-18.66
-19.37
-20.3
-21.7
-23.71
-26.19
-28.83
-31.09
-32.36
-32.02
-29.66
-25.21
-18.96
-11.57
-3.81
3.5
9.81
14.76
18.24
20.29
21.06
20.84
19.93
18.73
17.55
16.57
15.79
15.14
14.5
13.8
13.13
12.62
12.43
12.65
13.23
14.07
14.95
15.71
16.15
16.15
15.56
14.36
12.56
10.29
7.7
4.91
2.03
-0.92
-3.91
-6.86
-9.66
-12.21
-14.4
-16.21
-17.72
-19.08
-20.5
-22.15
-24.08
-26.14
-27.94
-28.95
-28.53
-26.21
-21.87
-15.83
-8.82
-1.77
4.5
9.47
13.03
15.4
16.9
17.83
18.25
18.09
17.28
15.88
14.26
12.9
12.25
12.53
13.65
15.23
16.82
18.03
18.57
18.41
17.63
16.29
14.5
12.33
9.91
7.35
4.77
2.21
-0.36
-3.01
-5.82
-8.81
-11.87
-14.71
-17.09
-18.8
-19.92
-20.69
-21.56
-22.83
-24.57
-26.56
-28.25
-29.01
-28.23
-25.53
-20.85
-14.5
-7.1
0.53
7.55
13.29
17.42
19.9
20.93
20.73
19.56
17.55
14.93
12.02
9.21
6.93
5.41
4.67
4.51
4.73
5.07
5.51
6.01
6.56
7.08
7.42
7.42
6.87
5.75
4.06
1.93
-0.45
-2.9
-5.23
-7.39
-9.39
-11.39
-13.51
-15.81
-18.32
-21.02
-23.94
-27.02
-30.15
-32.99
-34.97
-35.49
-33.98
-30.26
-24.54
-17.48
-9.93
-2.86
3.08
7.55
10.6
12.53
13.68
14.38
14.68
14.61
14.06
13.11
11.92
10.75
9.95
9.74
10.23
11.28
12.7
14.1
15.17
15.64
15.33
14.21
12.37
9.97
7.19
4.29
1.41
-1.37
-4.04
-6.69
-9.29
-11.79
-14.04
-15.92
-17.42
-18.67
-19.89
-21.25
-22.89
-24.76
-26.84
-28.89
-30.58
-31.45
-30.95
-28.61
-24.29
-18.37
-11.58
-4.86
1.07
5.86
9.52
12.23
14.18
15.44
16.03
16.07
15.75
15.22
14.53
13.54
12.16
10.45
8.74
7.47
7.05
7.49
8.51
9.67
10.54
10.96
10.86
10.32
9.39
8.05
6.26
4.07
1.6
-1.13
-4.01
-7.03
-10.11
-13.1
-15.84
-18.19
-20.2
-21.99
-23.86
-26.09
-28.83
-32.01
-35.21
-37.75
-38.8
-37.64
-33.82
-27.44
-19.15
-10.08
-1.53
5.44
10.25
13
14.31
14.96
15.57
16.34
17.05
17.32
16.97
16.03
14.86
13.83
13.21
13.03
13.12
13.29
13.41
13.48
13.55
13.65
13.76
13.69
13.23
12.12
10.21
7.53
4.27
0.78
-2.58
-5.51
-7.92
-9.83
-11.42
-12.93
-14.57
-16.55
-18.97
-21.74
-24.53
-26.83
-27.88
-27.11
-24.24
-19.44
-13.32
-6.68
-0.32
5.19
9.57
12.84
15.1
16.44
16.93
16.65
15.73
14.44
13.11
12
11.33
11.13
11.3
11.68
12.13
12.53
12.8
12.95
12.94
12.73
12.3
11.49
10.19
8.3
5.89
3.12
0.29
-2.32
-4.58
-6.47
-8.16
-9.83
-11.73
-14.04
-16.87
-20.18
-23.66
-26.76
-28.71
-28.8
-26.58
-22.18
-16.25
-9.66
-3.34
2.13
6.48
9.7
11.85
13.03
13.33
12.97
12.29
11.59
11.04
10.68
10.43
10.17
9.93
9.83
9.96
10.32
10.74
10.99
10.93
10.54
9.91
9.18
8.43
7.64
6.67
5.33
3.49
1.04
-1.95
-5.28
-8.63
-11.66
-14.19
-16.21
-18
-19.88
-22.23
-25.1
-28.32
-31.39
-33.63
-34.32
-32.8
-28.86
-22.7
-15.07
-7.01
0.47
6.67
11.39
14.75
17.06
18.53
19.34
19.58
19.39
19.04
18.71
18.5
18.31
18.01
17.53
16.97
16.54
16.32
16.25
16.08
15.59
14.67
13.42
12.01
10.49
8.81
6.77
4.26
1.34
-1.73
-4.63
-7.13
-9.15
-10.86
-12.45
-14.13
-16
-18.14
-20.54
-23.17
-25.95
-28.52
-30.46
-31.12
-29.94
-26.56
-21.04
-13.91
-6.02
1.63
8.22
13.32
16.93
19.34
20.89
21.79
22.09
21.77
20.87
19.63
18.35
17.37
16.87
16.81
17.04
17.38
17.71
17.95
18.05
17.84
17.17
15.9
14.03
11.8
9.48
7.28
5.26
3.38
1.46
-0.47
-2.32
-3.91
-5.08
-5.9
-6.63
-7.51
-8.72
-10.3
-12.13
-14.15
-16.39
-18.82
-21.29
-23.32
-24.17
-23.11
-19.79
-14.33
-7.43
-0.09
6.78
12.48
16.7
19.43
20.81
21.04
20.43
19.25
17.77
16.29
14.99
13.99
13.44
13.43
13.98
15.06
16.47
17.9
19.04
19.65
19.56
18.83
17.64
16.19
14.67
13.22
11.88
10.62
9.34
7.89
6.19
4.16
1.81
-0.8
-3.52
-6.23
-8.79
-11.15
-13.37
-15.61
-18.09
-20.93
-23.95
-26.68
-28.4
-28.41
-26.27
-22.05
-16.22
-9.55
-2.86
3.24
8.32
12.13
14.57
15.64
15.46
14.37
12.83
11.32
10.25
9.73
9.68
9.99
10.5
11.09
11.7
12.22
12.53
12.59
12.33
11.81
11.18
10.53
9.88
9.14
8.11
6.57
4.48
1.9
-0.97
-3.82
-6.44
-8.75
-10.74
-12.51
-14.17
-15.76
-17.29
-18.78
-20.31
-21.93
-23.6
-25.07
-25.91
-25.66
-23.9
-20.56
-15.89
-10.44
-4.89
0.18
4.36
7.46
9.43
10.34
10.36
9.82
9.15
8.77
8.92
9.6
10.53
11.3
11.68
11.66
11.46
11.37
11.51
11.82
12.07
12.01
11.43
10.3
8.72
6.81
4.78
2.72
0.72
-1.16
-2.92
-4.61
-6.22
-7.81
-9.44
-11.14
-13.01
-15.06
-17.21
-19.28
-21.06
-22.46
-23.62
-24.8
-26.21
-27.87
-29.44
-30.29
-29.7
-27.13
-22.56
-16.48
-9.73
-3.16
2.54
7
10.15
12.13
13.25
13.74
13.75
13.4
12.76
11.96
11.17
10.65
10.65
11.37
12.81
14.74
16.75
18.44
19.52
19.87
19.53
18.57
17.04
15.04
12.71
10.25
7.88
5.79
3.99
2.37
0.71
-1.16
-3.25
-5.53
-7.93
-10.43
-12.94
-15.32
-17.33
-18.78
-19.62
-20.08
-20.62
-21.75
-23.74
-26.41
-29.15
-31.05
-31.19
-29.06
-24.53
-18.1
-10.64
-3.25
3.06
7.67
10.46
11.78
12.25
12.47
12.75
13.14
13.5
13.64
13.52
13.23
12.95
12.78
12.72
12.64
12.4
11.92
11.23
10.45
9.72
9.18
8.84
8.67
8.53
8.31
8.01
7.65
7.35
7.05
6.72
6.13
5.14
3.71
1.89
-0.15
-2.29
-4.49
-6.81
-9.2
-11.56
-13.72
-15.53
-17.03
-18.39
-19.92
-21.7
-23.48
-24.65
-24.45
-22.37
-18.32
-12.83
-6.71
-0.8
4.3
8.43
11.65
14.08
15.73
16.57
16.5
15.65
14.38
13.09
12.15
11.64
11.45
11.36
11.23
11.06
10.98
11.12
11.45
11.84
12.05
11.88
11.25
10.31
9.16
7.91
6.58
5.05
3.27
1.2
-1.16
-3.72
-6.34
-8.88
-11.19
-13.12
-14.65
-15.83
-16.83
-17.88
-19.17
-20.74
-22.45
-23.96
-24.85
-24.76
-23.37
-20.58
-16.5
-11.5
-6.15
-1.1
3.13
6.28
8.34
9.58
10.24
10.48
10.34
9.85
9.06
8.16
7.34
6.74
6.41
6.35
6.5
6.88
7.5
8.33
9.2
9.93
10.34
10.34
10
9.33
8.38
7.13
5.49
3.46
1.05
-1.65
-4.45
-7.19
-9.65
-11.59
-12.94
-13.77
-14.31
-14.95
-16.06
-17.87
-20.37
-23.24
-26
-28.01
-28.72
-27.67
-24.74
-20.21
-14.68
-8.95
-3.71
0.61
3.98
6.67
9.07
11.33
13.32
14.72
15.19
14.64
13.36
11.81
10.51
9.71
9.36
9.27
9.29
9.36
9.53
9.89
10.36
10.75
10.79
10.34
9.41
8.09
6.53
4.82
3.03
1.12
-0.86
-2.88
-4.84
-6.62
-8.17
-9.51
-10.68
-11.78
-12.91
-14.22
-15.87
-18.01
-20.69
-23.73
-26.69
-28.87
-29.56
-28.29
-24.99
-20.06
-14.28
-8.48
-3.31
0.96
4.38
7.16
9.57
11.69
13.47
14.71
15.23
14.98
14.08
12.83
11.57
10.56
9.9
9.55
9.46
9.61
10.07
10.85
11.95
13.16
14.25
14.91
14.86
14.03
12.46
10.39
8.07
5.72
3.44
1.25
-0.93
-3.21
-5.51
-7.74
-9.71
-11.32
-12.59
-13.59
-14.44
-15.22
-16.06
-17.05
-18.35
-20.07
-22.17
-24.36
-26.08
-26.61
-25.27
-21.82
-16.45
-9.99
-3.45
2.29
6.65
9.63
11.54
12.83
13.79
14.52
14.9
14.84
14.38
13.65
12.91
12.37
12.14
12.26
12.72
13.45
14.36
15.45
16.57
17.55
18.17
18.11
17.15
15.27
12.7
9.86
7.24
5.13
3.63
2.54
1.55
0.46
-0.82
-2.24
-3.71
-5.15
-6.59
-7.99
-9.38
-10.84
-12.44
-14.32
-16.56
-19.09
-21.54
-23.4
-24.06
-22.97
-20.03
-15.42
-9.75
-3.79
1.7
6.27
9.67
11.97
13.34
13.93
13.87
13.19
12
10.45
8.82
7.49
6.73
6.71
7.35
8.57
10.13
11.86
13.53
14.85
15.51
15.29
14.2
12.36
10.11
7.7
5.26
2.79
0.19
-2.5
-5.18
-7.66
-9.82
-11.64
-13.23
-14.72
-16.1
-17.36
-18.4
-19.23
-19.92
-20.55
-21.07
-21.22
-20.54
-18.62
-15.29
-10.81
-5.76
-0.9
3.25
6.37
8.57
10.05
11
11.5
11.51
11.05
10.2
9.18
8.17
7.36
6.82
6.55
6.54
6.75
7.12
7.56
7.99
8.33
8.59
8.8
8.92
8.86
8.39
7.32
5.58
3.3
0.72
-1.86
-4.29
-6.62
-8.92
-11.37
-13.95
-16.58
-19.08
-21.37
-23.52
-25.71
-28.16
-30.77
-33.12
-34.45
-33.93
-31.08
-26.03
-19.52
-12.57
-6.12
-0.66
3.76
7.31
10.18
12.41
13.91
14.6
14.64
14.27
13.76
13.19
12.54
11.74
10.86
10.18
9.98
10.52
11.7
13.2
14.58
15.39
15.41
14.55
12.95
10.82
8.53
6.33
4.39
2.63
0.8
-1.35
-3.96
-6.85
-9.65
-11.92
-13.49
-14.38
-14.88
-15.43
-16.44
-18.23
-20.96
-24.53
-28.44
-31.8
-33.56
-32.86
-29.41
-23.59
-16.4
-9.03
-2.44
2.85
6.83
9.72
11.8
13.25
14.18
14.67
14.85
14.88
14.89
14.96
15.15
15.45
15.84
16.3
16.79
17.28
17.78
18.27
18.77
19.15
19.22
18.69
17.34
15.17
12.39
9.4
6.56
4.14
2.15
0.49
-1.05
-2.64
-4.38
-6.3
-8.34
-10.41
-12.36
-14.01
-15.29
-16.24
-17.08
-18.16
-19.74
-21.96
-24.65
-27.3
-29.18
-29.47
-27.59
-23.44
-17.42
-10.37
-3.29
3.08
8.31
12.39
15.49
17.79
19.32
20.1
20.12
19.53
18.62
17.67
16.96
16.56
16.55
16.83
17.33
17.96
18.65
19.3
19.78
20.08
20.11
19.88
19.32
18.36
16.92
14.98
12.6
9.92
7.1
4.3
1.61
-0.87
-3.09
-4.98
-6.45
-7.53
-8.37
-9.18
-10.23
-11.79
-13.91
-16.58
-19.56
-22.52
-24.98
-26.47
-26.51
-24.8
-21.37
-16.49
-10.82
-5.04
0.23
4.63
8.06
10.57
12.27
13.23
13.51
13.18
12.39
11.32
10.19
9.23
8.56
8.31
8.49
9.08
9.87
10.62
11.06
11.04
10.66
10.11
9.65
9.4
9.33
9.27
9.07
8.67
7.94
6.83
5.17
2.87
-0.06
-3.46
-6.95
-10.26
-13.17
-15.79
-18.26
-20.72
-23.03
-24.79
-25.44
-24.45
-21.64
-17.14
-11.49
-5.36
0.54
5.75
10.03
13.37
15.81
17.39
18.12
18
17.16
15.8
14.27
12.89
11.86
11.34
11.26
11.53
11.92
12.22
12.25
11.87
11.09
10.01
8.84
7.73
6.8
6.07
5.37
4.54
3.41
1.89
-0.05
-2.33
-4.79
-7.28
-9.68
-11.94
-13.99
-15.81
-17.4
-18.83
-20.29
-22.08
-24.42
-27.34
-30.56
-33.32
-34.67
-33.8
-30.35
-24.62
-17.51
-10.13
-3.4
2.15
6.54
10
12.79
14.98
16.49
17.28
17.45
17.31
17.13
17.09
17.1
16.94
16.45
15.59
14.55
13.59
12.94
12.63
12.58
12.54
12.25
11.59
10.55
9.24
7.79
6.31
4.81
3.28
1.66
-0.07
-1.83
-3.53
-5.16
-6.78
-8.42
-10.07
-11.59
-12.81
-13.71
-14.47
-15.49
-17.26
-19.94
-23.21
-26.32
-28.35
-28.55
-26.65
-22.84
-17.65
-11.72
-5.61
0.21
5.35
9.51
12.56
14.57
15.78
16.51
16.99
17.29
17.33
17.03
16.42
15.67
15
14.52
14.32
14.42
14.83
15.57
16.55
17.61
18.43
18.66
18.07
16.63
14.53
12.09
9.64
7.4
5.48
3.85
2.39
0.96
-0.53
-2.12
-3.8
-5.46
-7.06
-8.55
-10.02
-11.54
-13.23
-15.15
-17.26
-19.39
-21.23
-22.35
-22.32
-20.8
-17.72
-13.35
-8.15
-2.73
2.33
6.63
9.99
12.43
14.09
15.11
15.62
15.68
15.29
14.47
13.29
11.9
10.53
9.41
8.75
8.64
9.04
9.87
10.89
11.8
12.36
12.42
11.94
11.03
9.77
8.28
6.59
4.69
2.66
0.58
-1.42
-3.32
-5.15
-7.08
-9.22
-11.54
-13.91
-16.14
-18.13
-19.86
-21.48
-22.99
-24.26
-24.9
-24.45
-22.51
-19.01
-14.26
-8.84
-3.43
1.48
5.65
9.07
11.86
14.02
15.52
16.19
15.92
14.8
13.13
11.3
9.64
8.38
7.53
7.11
7.06
7.3
7.77
8.33
8.76
8.88
8.61
7.97
7.11
6.1
5.05
3.89
2.49
0.69
-1.68
-4.61
-7.99
-11.54
-14.92
-17.78
-19.88
-21.23
-22.09
-22.82
-23.85
-25.44
-27.51
-29.59
-30.93
-30.73
-28.49
-24.21
-18.38
-11.8
-5.3
0.55
5.46
9.4
12.34
14.31
15.32
15.57
15.4
15.21
15.28
15.55
15.77
15.5
14.55
13.05
11.39
10.08
9.45
9.59
10.2
10.93
11.42
11.48
11.05
10.12
8.7
6.78
4.48
1.96
-0.51
-2.74
-4.66
-6.35
-8
-9.72
-11.56
-13.41
-15.1
-16.49
-17.58
-18.52
-19.54
-20.89
-22.61
-24.48
-26.01
-26.55
-25.44
-22.38
-17.59
-11.71
-5.69
-0.35
3.82
6.79
8.83
10.38
11.68
12.78
13.55
13.86
13.69
13.2
12.59
12.06
11.65
11.29
10.89
10.44
10.03
9.84
10.12
10.92
12.12
13.39
14.3
14.51
13.98
12.84
11.47
10.24
9.31
8.59
7.8
6.69
5.12
3.22
1.16
-0.84
-2.77
-4.77
-7.04
-9.71
-12.74
-15.98
-19.32
-22.65
-25.87
-28.73
-30.85
-31.63
-30.53
-27.31
-22.2
-15.92
-9.49
-3.89
0.23
2.67
3.79
4.13
4.26
4.43
4.51
4.13
2.91
0.84
-1.74
-4.22
-6.15
-7.43
-8.38
-9.46
-10.94
-12.52
-13.37
-12.48
-9
-2.6
6.62
18.15
31.26
45.23
59.38
73.23
86.48
98.93
110.28
119.99
127.13
130.47
128.9
121.79
109.35
92.64
73.15
52.22
30.69
8.93
-12.67
-33.27
-51.34
-65.05
-72.92
-74.54
-70.88
-63.87
-55.7
-47.96
-41.33
-35.83
-31.23
-27.45
-24.65
-22.99
-22.46
-22.8
-23.57
-24.37
-24.95
-25.18
-24.87
-23.95
-22.26
-19.89
-17.11
-14.26
-11.77
-9.86
-8.65
-8.06
-8.09
-8.66
-9.73
-11.14
-12.64
-13.98
-14.92
-15.42
-15.5
-15.34
-15.12
-15.07
-15.39
-16.13
-17.37
-19.01
-20.94
-22.9
-24.62
-25.73
-25.88
-24.82
-22.33
-18.51
-13.57
-7.97
-2.25
3.06
7.5
10.86
13.04
14.22
14.55
14.24
13.37
12.08
10.54
9.06
8.07
7.89
8.64
10.14
12.04
13.84
15.12
15.66
15.33
14.26
12.54
10.39
7.88
5.07
1.83
-1.95
-6.23
-10.82
-15.28
-19.23
-22.38
-24.73
-26.43
-27.75
-28.96
-30.24
-31.83
-33.88
-36.67
-40.23
-44.34
-48.38
-51.48
-52.81
-51.92
-48.92
-44.42
-39.27
-34.23
-29.78
-26.03
-22.87
-20.33
-18.54
-17.75
-18.04
-19.28
-21.19
-23.45
-25.71
-27.5
-28.09
-26.58
-22.3
-15.22
-6.36
2.21
8.05
9.18
5
-3.44
-13.86
-23.73
-30.98
-34.48
-34.1
-30.18
-23.24
-13.73
-2.02
11.25
24.91
37.34
46.81
52.21
53.57
51.98
49.1
46.42
44.67
43.88
43.75
44.15
45.38
47.97
52.06
57.08
62.1
66.21
69.21
71.71
74.58
78.31
82.56
86.19
87.78
86.46
82.2
75.83
68.56
61.51
55.36
50.26
46
42.21
38.6
34.98
31.29
27.45
23.28
18.54
12.92
6.27
-1.3
-9.23
-16.76
-23.14
-27.87
-31.02
-33.01
-34.58
-36.29
-38.49
-41.15
-44.04
-46.85
-49.06
-50.05
-49.07
-45.53
-39.25
-30.76
-21.14
-11.75
-3.72
2.45
6.81
9.79
11.79
12.91
13.01
11.95
9.78
6.84
3.64
0.58
-2.09
-4.31
-6.11
-7.53
-8.59
-9.23
-9.45
-9.21
-8.56
-7.61
-6.56
-5.7
-5.24
-5.28
-5.66
-6.17
-6.61
-7.02
-7.64
-8.77
-10.63
-13.07
-15.8
-18.42
-20.73
-22.78
-24.8
-26.95
-29.11
-30.85
-31.58
-30.76
-28.22
-24.17
-19.14
-13.72
-8.36
-3.29
1.39
5.58
9.09
11.68
13.21
13.7
13.48
12.91
12.39
12.13
12.13
12.21
12.16
11.88
11.37
10.74
10.09
9.51
8.97
8.32
7.23
5.19
1.73
-3.35
-9.83
-16.97
-23.72
-29.16
-32.81
-34.7
-35.35
-35.14
-34.12
-32.01
-28.38
-23.09
-16.56
-9.65
-3.28
1.88
5.71
8.48
10.56
12.22
13.46
14.16
14.23
13.79
13.12
12.6
12.47
12.74
13.22
13.61
13.65
13.23
12.46
11.45
10.36
9.16
7.66
5.76
3.49
1.11
-1.05
-2.68
-3.8
-4.67
-5.7
-7.23
-9.37
-11.96
-14.76
-17.49
-19.95
-21.96
-23.23
-23.46
-22.34
-19.75
-15.79
-10.82
-5.35
0.09
5.01
9.08
12.12
14.12
15.19
15.54
15.31
14.65
13.68
12.5
11.26
10.16
9.37
8.9
8.71
8.66
8.63
8.51
8.24
7.84
7.34
6.81
6.27
5.74
5.08
4.09
2.54
0.31
-2.43
-5.38
-8.22
-10.79
-13.2
-15.71
-18.47
-21.38
-24.02
-25.77
-26.1
-24.77
-21.93
-17.91
-13.18
-8.1
-2.96
1.93
6.18
9.33
11.11
11.47
10.87
9.92
9.36
9.63
10.65
12.02
13.14
13.67
13.55
13.15
12.87
13
13.57
14.32
15.06
15.62
16
16.16
16.03
15.41
14.11
12.12
9.63
6.96
4.38
1.96
-0.45
-3.09
-6.16
-9.57
-12.97
-15.91
-17.95
-18.96
-19.15
-18.97
-18.98
-19.48
-20.52
-21.7
-22.48
-22.26
-20.72
-17.89
-14.03
-9.55
-4.8
-0.13
4.2
7.87
10.66
12.44
13.25
13.35
13.09
12.8
12.72
12.95
13.42
14.04
14.7
15.29
15.72
15.85
15.68
15.32
14.98
14.86
14.98
15.18
15.1
14.42
13.01
11.04
8.91
7.03
5.63
4.64
3.76
2.65
1.11
-0.86
-3.11
-5.39
-7.55
-9.43
-11.05
-12.45
-13.77
-15.12
-16.7
-18.57
-20.62
-22.53
-23.72
-23.64
-21.85
-18.3
-13.3
-7.47
-1.54
3.88
8.39
11.92
14.43
15.98
16.57
16.22
15.09
13.39
11.51
9.72
8.28
7.3
6.81
6.74
6.96
7.42
7.95
8.51
8.91
9.1
8.98
8.57
7.86
6.9
5.74
4.44
3.06
1.51
-0.3
-2.43
-4.88
-7.46
-9.96
-12.13
-13.89
-15.24
-16.31
-17.34
-18.43
-19.62
-20.7
-21.38
-21.3
-20.24
-18.04
-14.8
-10.78
-6.39
-2.12
1.71
4.87
7.35
9.19
10.49
11.27
11.59
11.47
10.98
10.35
9.75
9.31
9.11
9.04
9.05
9.15
9.48
10.1
10.98
11.9
12.48
12.46
11.68
10.26
8.39
6.3
4.09
1.86
-0.33
-2.36
-4.14
-5.73
-7.26
-9
-11.04
-13.37
-15.76
-18.01
-20.01
-21.75
-23.29
-24.45
-24.84
-23.89
-21.24
-16.9
-11.34
-5.39
0.15
4.65
7.91
10.07
11.39
12.15
12.45
12.31
11.69
10.64
9.28
7.91
6.9
6.54
6.94
7.96
9.27
10.39
10.98
10.87
10.18
9.2
8.21
7.41
6.83
6.31
5.62
4.62
3.24
1.52
-0.44
-2.56
-4.76
-7.03
-9.34
-11.69
-14.02
-16.29
-18.5
-20.69
-22.88
-25.02
-26.9
-28.22
-28.61
-27.72
-25.38
-21.66
-16.87
-11.46
-5.94
-0.73
3.82
7.53
10.3
12.22
13.41
14.06
14.3
14.21
13.85
13.33
12.82
12.48
12.47
12.77
13.31
13.87
14.3
14.48
14.42
14.18
13.76
13.1
12.1
10.71
9
7.07
5.07
3.14
1.32
-0.41
-2.1
-3.79
-5.44
-7.02
-8.49
-9.82
-11.09
-12.33
-13.6
-14.97
-16.5
-18.26
-20.25
-22.32
-24.09
-25.13
-24.98
-23.45
-20.56
-16.54
-11.74
-6.51
-1.26
3.57
7.48
10.15
11.47
11.69
11.26
10.68
10.26
10.06
9.96
9.9
9.93
10.16
10.64
11.3
11.98
12.56
13
13.37
13.69
13.9
13.8
13.16
11.97
10.35
8.63
7.1
5.91
4.97
4.11
3.11
1.84
0.24
-1.65
-3.72
-5.78
-7.68
-9.36
-10.89
-12.45
-14.26
-16.47
-19
-21.64
-23.94
-25.36
-25.37
-23.6
-19.91
-14.51
-7.98
-1.13
5.15
10.21
13.71
15.69
16.38
16.13
15.29
14.14
12.92
11.86
11.15
10.88
11.06
11.57
12.21
12.76
13.08
13.08
12.8
12.37
11.9
11.43
10.94
10.25
9.22
7.72
5.84
3.77
1.69
-0.37
-2.54
-4.94
-7.67
-10.56
-13.28
-15.48
-16.99
-18
-18.86
-20
-21.54
-23.27
-24.54
-24.67
-23.13
-19.84
-15.18
-9.77
-4.3
0.7
4.91
8.25
10.66
12.09
12.54
12.03
10.74
8.96
7.02
5.21
3.79
2.89
2.51
2.63
3.14
3.92
4.82
5.72
6.49
7.07
7.44
7.56
7.46
7.04
6.31
5.18
3.61
1.56
-0.97
-3.91
-7.06
-10.16
-12.97
-15.32
-17.21
-18.85
-20.48
-22.3
-24.26
-26.03
-27
-26.62
-24.5
-20.6
-15.29
-9.15
-2.92
2.82
7.59
11.2
13.63
15.03
15.61
15.61
15.26
14.7
14.06
13.37
12.68
12.02
11.43
10.99
10.75
10.8
11.1
11.52
11.84
11.8
11.22
10.01
8.32
6.33
4.27
2.3
0.44
-1.45
-3.53
-5.88
-8.47
-11.03
-13.34
-15.21
-16.65
-17.92
-19.34
-21.18
-23.46
-25.93
-28.1
-29.45
-29.44
-27.76
-24.32
-19.26
-13.05
-6.3
0.25
6.05
10.68
14.04
16.2
17.31
17.63
17.4
16.95
16.49
16.24
16.19
16.15
15.95
15.47
14.84
14.29
14.08
14.22
14.54
14.67
14.24
13.11
11.35
9.23
7.04
5.01
3.23
1.63
0.09
-1.63
-3.54
-5.62
-7.68
-9.55
-11.19
-12.68
-14.3
-16.28
-18.86
-22
-25.55
-29.15
-32.18
-33.97
-33.8
-31.27
-26.38
-19.73
-12.23
-4.9
1.56
6.94
11.33
14.96
17.93
20.16
21.48
21.84
21.33
20.19
18.73
17.13
15.51
13.99
12.68
11.75
11.37
11.53
12.1
12.9
13.67
14.29
14.72
14.92
14.81
14.26
13.21
11.65
9.76
7.7
5.63
3.49
1.12
-1.68
-4.93
-8.38
-11.69
-14.43
-16.39
-17.66
-18.58
-19.58
-20.99
-22.92
-25.17
-27.33
-28.84
-29.08
-27.6
-24.23
-19.18
-12.97
-6.33
0.01
5.45
9.69
12.69
14.53
15.43
15.59
15.28
14.8
14.46
14.52
15.08
16.1
17.33
18.59
19.74
20.74
21.59
22.25
22.63
22.59
22.08
21.11
19.86
18.48
16.99
15.36
13.48
11.33
8.98
6.69
4.64
2.97
1.57
0.16
-1.5
-3.57
-5.94
-8.43
-10.74
-12.76
-14.56
-16.38
-18.41
-20.62
-22.72
-24.17
-24.39
-22.96
-19.8
-15.22
-9.78
-4.09
1.35
6.2
10.29
13.46
15.57
16.45
16.07
14.64
12.54
10.31
8.35
6.98
6.24
6.05
6.25
6.59
6.93
7.14
7.21
7.21
7.18
7.15
7.07
6.84
6.3
5.28
3.71
1.52
-1.2
-4.3
-7.51
-10.53
-13.02
-14.86
-16.15
-17.26
-18.73
-20.92
-23.86
-27.08
-29.72
-30.85
-29.8
-26.37
-20.96
-14.36
-7.44
-0.93
4.74
9.39
13.06
15.85
17.88
19.19
19.73
19.51
18.6
17.25
15.87
14.85
14.44
14.54
14.83
14.86
14.42
13.57
12.62
11.88
11.43
11.05
10.37
9.12
7.23
4.95
2.59
0.44
-1.44
-3.25
-5.24
-7.62
-10.34
-13.21
-15.89
-18.16
-20
-21.61
-23.2
-24.79
-26.07
-26.39
-25.11
-21.89
-16.93
-10.94
-4.84
0.54
4.81
7.99
10.39
12.29
13.84
15.01
15.7
15.92
15.76
15.46
15.25
15.3
15.56
15.87
15.98
15.68
14.96
13.94
12.88
11.93
11.17
10.5
9.76
8.83
7.67
6.32
4.78
3.01
0.92
-1.46
-3.99
-6.51
-8.93
-11.29
-13.72
-16.33
-19.14
-21.98
-24.72
-27.26
-29.61
-31.82
-33.76
-35.03
-35.01
-33.04
-28.79
-22.49
-14.86
-6.91
0.35
6.27
10.6
13.47
15.21
16.17
16.6
16.7
16.59
16.29
15.76
14.84
13.44
11.67
9.89
8.6
8.26
9.08
10.85
13.08
15.13
16.48
16.95
16.53
15.44
13.89
12.03
9.87
7.45
4.8
2.04
-0.67
-3.27
-5.74
-8.25
-10.87
-13.62
-16.33
-18.82
-21
-22.91
-24.79
-26.73
-28.73
-30.44
-31.32
-30.7
-28.2
-23.78
-17.77
-10.85
-3.74
2.87
8.52
12.98
16.28
18.52
19.83
20.29
19.98
19
17.59
16.08
14.78
13.94
13.67
13.91
14.55
15.38
16.2
16.86
17.27
17.38
17.24
16.9
16.38
15.57
14.33
12.56
10.31
7.8
5.35
3.13
1.15
-0.78
-2.82
-5.01
-7.16
-9.08
-10.62
-11.88
-13.08
-14.57
-16.65
-19.45
-22.84
-26.38
-29.39
-31.08
-30.75
-28.06
-23.17
-16.69
-9.49
-2.44
3.9
9.25
13.62
17.06
19.6
21.2
21.8
21.4
20.15
18.28
16.15
14.11
12.37
11.03
10.06
9.38
8.99
8.97
9.43
10.41
11.73
13.04
13.93
14.04
13.31
11.96
10.33
8.78
7.44
6.19
4.74
2.79
0.18
-2.98
-6.31
-9.4
-11.89
-13.67
-14.86
-15.81
-16.85
-18.21
-19.92
-21.72
-23.23
-23.89
-23.25
-21.02
-17.22
-12.12
-6.23
-0.09
5.69
10.67
14.6
17.32
18.85
19.28
18.8
17.62
16.02
14.17
12.27
10.51
9.02
7.94
7.33
7.22
7.49
8.04
8.73
9.38
9.88
10.15
10.11
9.71
8.95
7.82
6.35
4.66
2.81
0.85
-1.2
-3.26
-5.31
-7.25
-9.03
-10.69
-12.39
-14.31
-16.57
-19.06
-21.41
-23.1
-23.63
-22.68
-20.21
-16.46
-11.85
-6.81
-1.79
2.83
6.74
9.79
11.96
13.4
14.35
14.96
15.31
15.38
15.11
14.48
13.56
12.46
11.29
10.21
9.26
8.52
8.13
8.11
8.46
9.02
9.53
9.69
9.29
8.16
6.3
3.81
0.86
-2.29
-5.33
-8.01
-10.16
-11.77
-13
-14.03
-15.02
-16.09
-17.29
-18.66
-20.28
-22.11
-23.89
-25.11
-25.11
-23.38
-19.89
-15.02
-9.52
-4.15
0.61
4.64
8
10.75
12.86
14.16
14.58
14.25
13.4
12.35
11.36
10.5
9.75
9.07
8.37
7.72
7.22
7
7.13
7.59
8.2
8.68
8.75
8.23
7.14
5.7
4.14
2.64
1.16
-0.46
-2.35
-4.51
-6.75
-8.85
-10.6
-12.02
-13.22
-14.36
-15.57
-16.88
-18.33
-19.9
-21.62
-23.3
-24.62
-25.07
-24.25
-21.94
-18.23
-13.52
-8.28
-3.04
1.91
6.3
9.97
12.71
14.36
14.88
14.39
13.19
11.66
10.15
8.87
7.93
7.3
6.99
7.06
7.55
8.57
9.96
11.41
12.47
12.71
11.94
10.24
7.94
5.48
3.23
1.36
-0.18
-1.57
-3
-4.55
-6.2
-7.78
-9.15
-10.18
-10.94
-11.57
-12.33
-13.4
-14.83
-16.57
-18.49
-20.54
-22.65
-24.69
-26.35
-27.06
-26.22
-23.37
-18.54
-12.27
-5.45
1.05
6.62
11.06
14.5
17.06
18.76
19.46
19.08
17.7
15.68
13.5
11.6
10.21
9.26
8.52
7.75
6.86
5.91
5.11
4.63
4.61
5.07
5.9
6.93
7.94
8.67
8.95
8.76
8.19
7.39
6.46
5.37
3.94
2.11
-0.1
-2.48
-4.74
-6.72
-8.46
-10.13
-11.9
-13.88
-16.02
-18.17
-20.18
-21.85
-23.02
-23.33
-22.46
-20.12
-16.28
-11.3
-5.82
-0.58
3.8
6.99
9.02
10.1
10.47
10.33
9.69
8.6
7.15
5.64
4.53
4.25
4.95
6.42
8.18
9.69
10.7
11.21
11.58
12.06
12.71
13.35
13.6
13.24
12.21
10.7
8.91
7.06
5.16
3.17
1
-1.38
-3.87
-6.31
-8.43
-10.06
-11.08
-11.57
-11.71
-11.72
-11.89
-12.39
-13.44
-15.07
-17.2
-19.54
-21.53
-22.58
-22.07
-19.75
-15.78
-10.68
-5.2
-0.06
4.22
7.44
9.58
10.75
11.11
10.84
10.14
9.3
8.65
8.43
8.73
9.4
10.1
10.48
10.38
9.8
9.01
8.33
8.03
8.19
8.63
9.11
9.28
8.95
8.05
6.65
4.97
3.19
1.52
-0.02
-1.41
-2.75
-4.1
-5.48
-6.81
-7.94
-8.86
-9.68
-10.73
-12.27
-14.49
-17.24
-20.08
-22.36
-23.49
-23.11
-21.11
-17.76
-13.4
-8.44
-3.34
1.46
5.49
8.4
10.02
10.45
9.98
8.96
7.68
6.3
4.88
3.39
1.98
0.8
0.09
0.02
0.58
1.62
2.8
3.84
4.51
4.83
4.92
4.95
4.98
4.84
4.33
3.18
1.41
-0.74
-2.78
-4.33
-5.24
-5.7
-6.17
-7.04
-8.52
-10.59
-13.09
-15.82
-18.6
-21.22
-23.33
-24.53
-24.35
-22.55
-19.26
-14.87
-10.01
-5.25
-1.01
2.58
5.5
7.83
9.62
10.8
11.33
11.15
10.33
9.07
7.74
6.62
5.93
5.77
6.02
6.58
7.25
7.82
8.13
8.03
7.46
6.44
5.1
3.57
1.87
-0.05
-2.32
-4.87
-7.59
-10.18
-12.44
-14.22
-15.57
-16.63
-17.56
-18.42
-19.24
-20.1
-21.14
-22.54
-24.27
-26.14
-27.61
-28
-26.76
-23.68
-18.97
-13.22
-7.16
-1.45
3.45
7.3
10.05
11.74
12.47
12.41
11.87
11.17
10.59
10.27
10.22
10.4
10.73
11.23
11.89
12.66
13.37
13.8
13.84
13.54
13.16
12.87
12.79
12.69
12.18
10.85
8.55
5.45
1.97
-1.4
-4.39
-6.94
-9.22
-11.39
-13.45
-15.27
-16.69
-17.76
-18.79
-20.3
-22.69
-25.89
-29.34
-31.96
-32.75
-31.08
-27.01
-21.15
-14.47
-7.84
-1.83
3.3
7.59
11.07
13.76
15.65
16.74
17.11
16.88
16.23
15.34
14.4
13.53
12.83
12.33
12.07
12.08
12.36
12.91
13.63
14.35
14.84
14.96
14.7
14.04
13.04
11.7
10.07
8.18
6.21
4.28
2.4
0.5
-1.64
-4.11
-6.88
-9.64
-12.08
-13.93
-15.17
-16.08
-17.03
-18.36
-20.22
-22.56
-25.06
-27.24
-28.46
-28.11
-25.76
-21.41
-15.48
-8.73
-2
4.02
9.04
13.11
16.49
19.35
21.67
23.19
23.65
23.01
21.59
20
18.92
18.83
19.77
21.46
23.31
24.78
25.59
25.71
25.24
24.25
22.75
20.64
18.01
15.07
12.21
9.8
8.1
7.03
6.25
5.25
3.65
1.3
-1.65
-4.79
-7.68
-9.97
-11.58
-12.68
-13.67
-14.95
-16.84
-19.43
-22.52
-25.69
-28.39
-30.03
-30.1
-28.28
-24.56
-19.21
-12.78
-5.99
0.44
5.88
9.98
12.67
14.1
14.55
14.35
13.77
13.03
12.29
11.63
11.16
10.99
11.2
11.85
12.94
14.41
16.1
17.77
19.11
19.81
19.7
18.72
17.04
14.9
12.64
10.5
8.63
7.02
5.56
4.09
2.46
0.58
-1.63
-4.15
-6.9
-9.73
-12.38
-14.73
-16.77
-18.69
-20.74
-23.01
-25.28
-26.95
-27.29
-25.64
-21.99
-16.79
-10.93
-5.31
-0.49
3.36
6.42
8.97
11.18
13.03
14.38
15.13
15.28
14.98
14.47
13.9
13.33
12.77
12.15
11.5
10.94
10.55
10.44
10.58
10.81
10.92
10.72
10.07
8.91
7.32
5.41
3.34
1.25
-0.82
-2.92
-5.05
-7.19
-9.19
-10.87
-12.25
-13.5
-14.97
-17.02
-19.8
-23.09
-26.44
-29.32
-31.21
-31.78
-30.78
-28.09
-23.75
-17.98
-11.26
-4.31
2.1
7.33
11.02
13.24
14.22
14.31
13.82
12.91
11.74
10.47
9.32
8.5
8.12
8.16
8.43
8.76
9.07
9.42
9.86
10.42
10.93
11.11
10.78
9.84
8.46
6.9
5.43
4.19
3.09
1.92
0.46
-1.38
-3.58
-5.95
-8.35
-10.66
-12.86
-14.97
-17.04
-19.13
-21.25
-23.38
-25.37
-26.92
-27.67
-27.15
-25.11
-21.48
-16.56
-10.87
-4.99
0.55
5.37
9.26
12.23
14.29
15.53
16.02
15.82
15.07
13.99
12.87
12.02
11.75
12.14
13.11
14.39
15.72
16.87
17.74
18.28
18.37
17.96
17.01
15.58
13.82
11.94
10.08
8.26
6.39
4.28
1.86
-0.9
-3.84
-6.76
-9.48
-11.9
-13.96
-15.69
-17.23
-18.74
-20.49
-22.62
-25.1
-27.62
-29.63
-30.45
-29.56
-26.78
-22.28
-16.61
-10.39
-4.2
1.57
6.69
11.05
14.56
17.13
18.72
19.33
19.1
18.25
17.08
15.89
14.91
14.27
13.96
14.02
14.4
15.18
16.38
17.84
19.31
20.39
20.74
20.13
18.61
16.34
13.6
10.67
7.72
4.87
2.13
-0.47
-2.99
-5.45
-7.87
-10.23
-12.49
-14.67
-16.84
-19.2
-21.84
-24.62
-27.14
-28.71
-28.66
-26.53
-22.24
-16.24
-9.36
-2.5
3.56
8.38
11.9
14.28
15.78
16.53
16.56
15.82
14.29
12.17
9.84
7.8
6.55
6.37
7.23
8.79
10.52
11.95
12.76
12.91
12.56
11.94
11.13
10.12
8.71
6.77
4.22
1.19
-2.1
-5.32
-8.2
-10.64
-12.62
-14.26
-15.7
-17.14
-18.76
-20.66
-22.79
-24.82
-26.31
-26.66
-25.36
-22.23
-17.39
-11.48
-5.21
0.68
5.75
9.74
12.74
14.86
16.23
16.94
16.97
16.35
15.17
13.69
12.2
11
10.18
9.69
9.45
9.36
9.52
10.05
11
12.27
13.5
14.17
13.84
12.36
9.83
6.64
3.24
-0.05
-3.06
-5.79
-8.41
-11.11
-14.01
-17.11
-20.21
-22.99
-25.25
-26.91
-28.19
-29.43
-30.94
-32.71
-34.38
-35.21
-34.36
-31.34
-26.06
-19.06
-11.21
-3.47
3.4
8.98
13.15
16.01
17.72
18.6
18.86
18.76
18.48
18.03
17.4
16.54
15.54
14.6
14.08
14.13
14.7
15.52
16.21
16.57
16.57
16.33
15.96
15.39
14.35
12.6
10.11
7.06
3.85
0.83
-1.82
-4.14
-6.26
-8.27
-10.09
-11.52
-12.51
-13.12
-13.7
-14.72
-16.57
-19.37
-22.93
-26.82
-30.35
-32.85
-33.62
-32.2
-28.47
-22.72
-15.62
-8.04
-0.79
5.54
10.76
14.93
18.21
20.64
22.26
23
22.91
22.17
21.11
20.03
19.18
18.6
18.14
17.69
17.14
16.52
15.99
15.73
15.74
15.93
15.97
15.55
14.45
12.68
10.44
8.02
5.62
3.31
1.04
-1.25
-3.53
-5.71
-7.7
-9.43
-10.98
-12.5
-14.12
-15.95
-17.95
-20.08
-22.32
-24.64
-26.9
-28.76
-29.69
-29.1
-26.52
-21.92
-15.72
-8.62
-1.51
4.89
10.17
14.14
16.86
18.48
19.22
19.32
19.07
18.77
18.64
18.82
19.32
20.09
20.92
21.67
22.21
22.5
22.58
22.45
22.1
21.41
20.32
18.82
17.05
15.25
13.53
11.89
10.09
7.89
5.15
2
-1.2
-4.04
-6.34
-8.16
-9.66
-11.05
-12.42
-13.79
-15.2
-16.79
-18.71
-21.01
-23.52
-25.73
-27.1
-27.02
-25.14
-21.36
-15.87
-9.19
-1.94
5.1
11.28
16.11
19.43
21.38
22.12
21.88
20.73
18.79
16.23
13.43
10.84
8.89
7.76
7.3
7.26
7.34
7.4
7.43
7.49
7.55
7.47
7.04
6.05
4.49
2.49
0.26
-2
-4.21
-6.39
-8.63
-10.96
-13.34
-15.59
-17.59
-19.36
-21
-22.72
-24.48
-25.98
-26.58
-25.58
-22.54
-17.51
-11.09
-4.04
2.85
9.08
14.39
18.57
21.37
22.56
22.08
20.15
17.24
14
10.84
8.05
5.64
3.61
2.04
1.04
0.67
0.8
1.19
1.54
1.77
1.88
1.98
2.03
1.85
1.17
-0.17
-2.14
-4.49
-6.86
-9.1
-11.25
-13.54
-16.21
-19.32
-22.71
-26.05
-29.01
-31.35
-32.92
-33.54
-32.95
-30.88
-27.09
-21.59
-14.77
-7.39
-0.28
5.79
10.45
13.73
15.89
17.26
17.93
17.87
17.01
15.43
13.47
11.61
10.3
9.69
9.66
9.77
9.62
9.02
8.03
6.96
6.14
5.71
5.57
5.42
4.79
3.36
1.05
-2.03
-5.5
-9
-12.26
-15.13
-17.57
-19.71
-21.72
-23.84
-26.35
-29.34
-32.72
-35.98
-38.32
-38.78
-36.68
-31.83
-24.67
-16.2
-7.5
0.39
6.84
11.59
14.71
16.44
17.05
16.87
16.17
15.29
14.48
13.94
13.76
13.92
14.27
14.66
14.98
15.15
15.3
15.54
16.02
16.68
17.32
17.56
16.95
15.22
12.28
8.45
4.23
0.15
-3.41
-6.43
-9.03
-11.53
-14.14
-16.96
-19.82
-22.34
-24.1
-24.57
-23.38
-20.26
-15.28
-8.75
-1.31
6.26
13.22
18.89
22.98
25.36
26.2
25.76
24.37
22.31
19.84
17.26
14.74
12.47
10.48
8.73
7.14
5.65
4.24
2.92
1.76
0.71
-0.22
-1.13
-2.1
-3.21
-4.58
-6.27
-8.32
-10.72
-13.49
-16.5
-19.69
-22.97
-26.11
-28.78
-30.44
-30.48
-28.37
-23.94
-17.38
-9.43
-1.16
6.44
12.61
17.11
20.07
21.88
22.85
23.22
23.01
22.13
20.66
18.69
16.55
14.54
12.98
11.98
11.47
11.17
10.72
9.82
8.32
6.38
4.22
2.09
0.07
-1.88
-3.84
-5.87
-7.88
-9.75
-11.37
-12.76
-14.06
-15.39
-16.75
-17.87
-18.32
-17.62
-15.41
-11.63
-6.55
-0.82
4.89
9.84
13.61
16.03
17.23
17.47
17.01
16.11
14.93
13.67
12.46
11.44
10.65
10.08
9.62
9.2
8.87
8.72
8.92
9.41
10
10.36
10.15
9.19
7.5
5.28
2.81
0.31
-2
-4.07
-5.86
-7.63
-9.64
-12.22
-15.5
-19.21
-22.66
-24.85
-24.96
-22.63
-18.2
-12.53
-6.59
-1.16
3.48
7.37
10.7
13.49
15.57
16.66
16.58
15.39
13.41
11.13
8.85
6.8
4.99
3.44
2.18
1.23
0.59
0.11
-0.39
-1.13
-2.26
-3.86
-5.8
-7.92
-9.98
-11.73
-13.02
-13.79
-14.25
-14.76
-15.78
-17.66
-20.4
-23.64
-26.62
-28.47
-28.34
-25.72
-20.52
-13.14
-4.46
4.54
12.87
19.8
24.98
28.39
30.18
30.61
30.01
28.68
26.98
25.32
24.03
23.32
23.12
23.18
23.1
22.63
21.69
20.48
19.32
18.47
17.96
17.5
16.68
15.05
12.43
8.85
4.74
0.63
-3.06
-6.07
-8.53
-10.64
-12.74
-15.03
-17.78
-21.07
-24.93
-29.2
-33.4
-36.71
-38.16
-36.99
-32.95
-26.52
-18.65
-10.55
-3.25
2.69
7.2
10.53
12.97
14.77
16.05
16.85
17.21
17.18
16.86
16.31
15.61
14.76
13.76
12.68
11.6
10.65
9.93
9.58
9.55
9.79
10.13
10.4
10.44
10.1
9.34
8.07
6.31
4
1.13
-2.27
-6.07
-10.01
-13.83
-17.22
-20.03
-22.19
-23.87
-25.34
-26.86
-28.61
-30.45
-31.97
-32.5
-31.33
-27.96
-22.34
-14.96
-6.7
1.38
8.4
13.75
17.25
18.96
19.24
18.56
17.35
16.06
15
14.35
14.22
14.55
15.17
15.86
16.39
16.62
16.6
16.44
16.28
16.17
15.96
15.36
14.16
12.38
10.26
8.2
6.46
5.05
3.78
2.44
0.94
-0.62
-2.04
-3.24
-4.25
-5.33
-6.71
-8.55
-10.88
-13.59
-16.56
-19.67
-22.76
-25.47
-27.3
-27.65
-26.04
-22.42
-17.18
-11.1
-5.03
0.37
4.79
8.23
10.78
12.55
13.53
13.64
12.84
11.28
9.31
7.42
6.12
5.7
6.25
7.52
9.14
10.66
11.82
12.55
12.97
13.22
13.31
13.18
12.59
11.33
9.29
6.55
3.33
-0.02
-3.16
-5.94
-8.24
-10.12
-11.68
-12.94
-13.98
-14.9
-15.95
-17.34
-19.25
-21.55
-23.71
-24.93
-24.45
-21.86
-17.27
-11.33
-4.9
1.23
6.57
10.86
14.04
16.12
16.95
16.53
15.01
12.77
10.33
8.22
6.76
6.09
6.14
6.65
7.34
7.86
8.02
7.73
7.08
6.34
5.72
5.29
4.88
4.18
2.83
0.7
-2.02
-5.01
-7.81
-10.15
-11.98
-13.42
-14.6
-15.77
-17.15
-18.94
-21.32
-24.23
-27.36
-30.13
-31.75
-31.52
-29.12
-24.71
-18.82
-12.22
-5.52
0.8
6.42
11.13
14.69
16.84
17.51
16.85
15.25
13.29
11.43
9.95
8.95
8.31
7.88
7.59
7.46
7.47
7.69
8.11
8.56
8.94
9.08
8.88
8.32
7.39
6.08
4.41
2.38
-0.07
-2.96
-6.32
-10.05
-13.9
-17.51
-20.51
-22.71
-24.15
-25.22
-26.31
-27.7
-29.34
-30.76
-31.29
-30.29
-27.48
-22.98
-17.35
-11.26
-5.35
-0.09
4.33
7.82
10.39
12.07
12.94
13.16
12.95
12.52
11.97
11.36
10.67
9.99
9.44
9.27
9.55
10.23
11.04
11.66
11.93
11.76
11.19
10.27
9.04
7.46
5.53
3.32
0.96
-1.39
-3.69
-5.91
-8.06
-10.12
-11.99
-13.63
-15.06
-16.42
-17.91
-19.79
-22.15
-24.84
-27.41
-29.18
-29.44
-27.63
-23.7
-18.05
-11.5
-4.97
0.85
5.55
9.19
11.93
14.01
15.51
16.45
16.87
16.84
16.43
15.71
14.76
13.64
12.55
11.67
11.19
11.2
11.6
12.16
12.66
12.95
12.98
12.76
12.17
11.04
9.23
6.76
3.87
0.9
-1.79
-4.07
-6.01
-7.83
-9.79
-12.01
-14.47
-17.08
-19.7
-22.24
-24.5
-26.14
-26.7
-25.72
-22.88
-18.29
-12.43
-6.05
0.02
5.19
9.18
11.97
13.67
14.42
14.29
13.36
11.87
10.11
8.51
7.48
7.23
7.74
8.72
9.73
10.36
10.37
9.74
8.64
7.35
6.02
4.69
3.23
1.47
-0.67
-3.13
-5.69
-8.08
-10.08
-11.69
-13.01
-14.28
-15.73
-17.54
-19.7
-22.08
-24.31
-25.8
-26.01
-24.45
-20.97
-15.78
-9.46
-2.71
3.74
9.31
13.68
16.74
18.55
19.17
18.7
17.24
15
12.33
9.63
7.33
5.67
4.68
4.26
4.18
4.4
4.98
6.06
7.57
9.22
10.5
10.96
10.38
8.85
6.64
4.01
1.13
-1.9
-5.03
-8.11
-10.98
-13.46
-15.58
-17.52
-19.59
-22.01
-24.71
-27.37
-29.41
-30.18
-29.22
-26.38
-21.87
-16.21
-10.03
-3.86
1.92
7.08
11.39
14.73
17.03
18.35
18.84
18.76
18.28
17.52
16.53
15.35
14.08
12.92
12.02
11.45
11.18
11.12
11.16
11.22
11.23
11.1
10.75
10.11
9.12
7.76
6.04
4
1.66
-0.88
-3.5
-6.15
-8.7
-11.03
-13.13
-14.95
-16.63
-18.36
-20.35
-22.73
-25.43
-28.1
-30.12
-30.8
-29.51
-26
-20.49
-13.62
-6.25
0.85
7.1
12.32
16.48
19.67
21.9
23.17
23.51
23.07
22.16
21.09
20.12
19.27
18.5
17.69
16.83
16.08
15.58
15.5
15.82
16.42
17.04
17.44
17.4
16.73
15.34
13.23
10.55
7.59
4.7
2.11
-0.15
-2.2
-4.25
-6.38
-8.46
-10.24
-11.51
-12.22
-12.61
-13.03
-13.8
-15.14
-16.98
-19.19
-21.56
-23.75
-25.34
-25.79
-24.6
-21.46
-16.58
-10.49
-4.02
2.01
7.07
11
13.88
15.95
17.38
18.26
18.59
18.44
17.94
17.33
16.89
16.77
17
17.49
18.08
18.61
19.03
19.27
19.35
19.14
18.53
17.44
15.87
13.93
11.83
9.79
7.9
6.16
4.42
2.53
0.45
-1.72
-3.8
-5.56
-6.88
-7.85
-8.67
-9.63
-10.97
-12.8
-15.04
-17.41
-19.49
-20.67
-20.4
-18.21
-14.08
-8.41
-2.02
4.14
9.3
13.01
15.23
16.18
16.19
15.52
14.42
13.09
11.73
10.49
9.42
8.6
8.01
7.73
7.82
8.26
8.94
9.64
10.19
10.46
10.52
10.47
10.36
10.12
9.57
8.51
6.87
4.74
2.28
-0.32
-2.92
-5.43
-7.75
-9.83
-11.61
-13.23
-14.79
-16.5
-18.47
-20.59
-22.57
-23.93
-24.26
-23.26
-20.91
-17.46
-13.28
-8.85
-4.55
-0.72
2.49
5.04
6.94
8.18
8.69
8.47
7.55
6.08
4.32
2.64
1.35
0.54
0.14
-0.14
-0.48
-0.92
-1.23
-1.18
-0.66
0.25
1.13
1.59
1.32
0.29
-1.29
-3.16
-5.04
-6.87
-8.67
-10.61
-12.79
-15.24
-17.97
-20.88
-23.87
-26.7
-29.19
-31.04
-32.08
-32.16
-31.27
-29.52
-27.04
-23.94
-20.14
-15.57
-10.24
-4.48
1.16
5.91
9.18
10.8
11
10.36
9.47
8.71
8.21
7.86
7.5
6.98
6.29
5.38
4.35
3.36
2.7
2.69
3.45
4.87
6.45
7.59
7.62
6.19
3.35
-0.33
-3.9
-6.28
-6.6
-4.49
-0.17
5.57
11.56
16.62
19.81
20.67
19.19
15.76
11.16
6.39
2.54
0.47
0.51
2.37
5.21
8
9.91
10.63
10.38
9.74
9.32
9.47
10.17
10.97
11.22
10.38
8.2
4.94
1.28
-1.89
-3.74
-3.71
-1.61
2.34
7.52
12.96
17.55
20.35
21.02
19.97
18.26
17.08
17.26
18.84
21.25
23.68
25.62
26.99
28.01
28.74
28.78
27.49
24.22
18.79
11.61
3.52
-4.55
-11.89
-18.11
-23.1
-26.75
-28.88
-29.27
-27.79
-24.53
-19.9
-14.47
-8.84
-3.53
1.15
5.04
8.12
10.41
11.94
12.73
12.72
11.93
10.38
8.25
5.81
3.39
1.29
-0.38
-1.66
-2.69
-3.61
-4.43
-4.99
-5.19
-4.99
-4.56
-4.22
-4.36
-5.26
-7.07
-9.73
-12.97
-16.43
-19.61
-22.04
-23.43
-23.79
-23.46
-22.96
-22.82
-23.26
-24.18
-25.23
-25.88
-25.69
-24.43
-22.01
-18.52
-14.24
-9.55
-4.93
-0.87
2.28
4.31
5.32
5.55
5.4
5.23
5.31
5.85
6.92
8.55
10.57
12.76
14.78
16.4
17.48
17.96
17.93
17.47
16.62
15.38
13.73
11.71
9.41
6.96
4.42
1.83
-0.89
-3.85
-7.21
-11.04
-15.33
-19.91
-24.4
-28.4
-31.49
-33.57
-34.7
-35.16
-35.36
-35.65
-36.33
-37.6
-39.52
-41.9
-44.29
-45.93
-45.96
-43.85
-39.6
-34.03
-28.3
-23.59
-20.44
-18.74
-17.94
-17.62
-17.81
-18.8
-20.84
-23.57
-25.98
-26.69
-24.62
-19.44
-11.57
-1.93
8.59
19.38
30.13
40.62
50.62
59.86
68.1
75.2
81.08
85.63
88.72
90.14
89.75
87.35
82.79
76.03
67.24
56.94
46.09
35.94
27.66
21.95
18.84
17.75
17.76
17.96
17.71
16.72
14.9
12.15
8.36
3.33
-3.02
-10.5
-18.54
-26.24
-32.59
-36.66
-37.94
-36.4
-32.54
-27.25
-21.57
-16.4
-12.31
-9.48
-7.72
-6.74
-6.18
-5.8
-5.33
-4.4
-2.5
0.81
5.66
11.77
18.43
24.68
29.67
32.95
34.44
34.41
33.2
31.09
28.21
24.59
20.25
15.35
10.26
5.42
1.18
-2.33
-5.3
-8.03
-10.72
-13.36
-15.61
-17.07
-17.44
-16.81
-15.56
-14.26
-13.3
-12.79
-12.52
-12.1
-11.26
-9.93
-8.39
-7.13
-6.64
-7.2
-8.73
-10.89
-13.24
-15.52
-17.7
-19.91
-22.16
-24.16
-25.39
-25.25
-23.51
-20.4
-16.61
-13.02
-10.29
-8.65
-7.88
-7.52
-7.06
-6.28
-5.33
-4.58
-4.41
-5
-6.15
-7.41
-8.38
-8.8
-8.75
-8.55
-8.53
-8.84
-9.44
-10.12
-10.67
-11.13
-11.56
-12.03
-12.42
-12.35
-11.41
-9.31
-6.19
-2.54
0.93
3.69
5.53
6.61
7.27
7.68
7.81
7.45
6.4
4.76
2.9
1.4
0.67
0.94
1.94
3.19
4.15
4.59
4.55
4.4
4.46
4.84
5.36
5.6
5.21
4.1
2.52
0.86
-0.57
-1.69
-2.66
-3.72
-5.03
-6.55
-8.14
-9.68
-11.12
-12.47
-13.73
-14.85
-15.63
-15.82
-15.2
-13.64
-11.21
-8.15
-4.86
-1.8
0.65
2.33
3.31
3.72
3.8
3.62
3.24
2.63
1.73
0.65
-0.49
-1.42
-2
-2.12
-1.78
-1.04
0
1.22
2.51
3.69
4.52
4.77
4.29
3.07
1.31
-0.66
-2.52
-3.99
-5.03
-5.68
-6.07
-6.26
-6.34
-6.28
-6.15
-6.01
-5.96
-6.22
-6.9
-8.07
-9.54
-10.9
-11.59
-11.15
-9.45
-6.69
-3.46
-0.39
2.12
3.92
5.15
6
6.54
6.7
6.4
5.63
4.61
3.72
3.25
3.37
3.95
4.73
5.43
5.89
6.08
6.14
6.25
6.49
6.87
7.27
7.55
7.53
7.12
6.23
4.88
3.15
1.11
-1.06
-3.27
-5.43
-7.47
-9.31
-10.89
-12.09
-12.77
-13
-12.88
-12.74
-12.93
-13.63
-14.75
-15.89
-16.52
-16.1
-14.4
-11.53
-7.92
-4.19
-0.81
1.86
3.77
5.05
5.9
6.46
6.74
6.78
6.54
6.16
5.71
5.3
4.94
4.59
4.2
3.82
3.61
3.63
3.98
4.48
4.94
5.21
5.21
4.96
4.48
3.7
2.45
0.63
-1.76
-4.47
-7.11
-9.35
-10.93
-11.85
-12.17
-12.05
-11.54
-10.68
-9.52
-8.12
-6.75
-5.62
-4.96
-4.72
-4.72
-4.59
-4.02
-2.83
-0.97
1.41
4.25
7.41
10.79
14.19
17.35
20.04
22.14
23.7
24.86
25.79
26.5
26.87
26.74
26.02
24.8
23.29
21.77
20.4
19.28
18.32
17.48
16.63
15.63
14.48
13.1
11.52
9.76
7.88
5.86
3.78
1.74
-0.2
-1.9
-3.4
-4.76
-6.12
-7.61
-9.28
-11.01
-12.54
-13.67
-14.31
-14.57
-14.75
-15.19
-16.17
-17.77
-19.83
-21.99
-23.82
-24.92
-25.17
-24.52
-23.11
-21.19
-18.96
-16.62
-14.38
-12.43
-10.86
-9.77
-9.05
-8.46
-7.76
-6.76
-5.41
-3.86
-2.3
-0.91
0.26
1.23
2.11
2.98
3.85
4.71
5.58
6.51
7.54
8.59
9.44
9.83
9.52
8.53
7.06
5.42
3.92
2.67
1.58
0.4
-1.03
-2.78
-4.63
-6.31
-7.62
-8.49
-9.07
-9.56
-10.08
-10.63
-11.05
-11.01
-10.2
-8.51
-5.93
-2.85
0.31
3.15
5.43
7.14
8.36
9.27
9.87
10.22
10.22
9.88
9.31
8.63
8
7.45
7.04
6.82
6.93
7.45
8.4
9.6
10.67
11.25
11.02
9.99
8.41
6.76
5.42
4.57
4.1
3.6
2.69
1.11
-1.08
-3.67
-6.29
-8.64
-10.56
-11.99
-13.03
-13.77
-14.43
-15.24
-16.4
-17.93
-19.5
-20.49
-20.17
-18.01
-13.99
-8.68
-3.03
2.04
5.89
8.44
9.89
10.58
10.76
10.45
9.67
8.53
7.28
6.22
5.59
5.36
5.35
5.27
4.92
4.31
3.58
2.99
2.67
2.66
2.77
2.71
2.23
1.21
-0.27
-1.98
-3.64
-5.09
-6.28
-7.39
-8.67
-10.25
-12.11
-14
-15.61
-16.61
-16.95
-16.73
-16.29
-15.96
-15.97
-16.45
-17.38
-18.67
-19.98
-20.88
-20.84
-19.44
-16.58
-12.44
-7.63
-2.74
1.67
5.32
8.18
10.32
11.91
13.05
13.9
14.5
14.89
15.03
14.91
14.54
14.01
13.47
13.01
12.71
12.48
12.2
11.79
11.23
10.61
10.04
9.5
8.83
7.8
6.22
4.08
1.62
-0.91
-3.2
-5.28
-7.32
-9.62
-12.27
-15.03
-17.43
-18.95
-19.34
-18.74
-17.67
-16.72
-16.41
-16.93
-18.13
-19.56
-20.63
-20.76
-19.55
-16.87
-12.86
-7.93
-2.62
2.48
6.93
10.48
13.09
14.81
15.71
15.85
15.3
14.12
12.52
10.72
9.04
7.73
6.93
6.62
6.64
6.88
7.23
7.71
8.34
9.14
10.02
10.85
11.55
12.05
12.29
12.23
11.92
11.39
10.72
10.01
9.3
8.55
7.61
6.3
4.55
2.46
0.27
-1.8
-3.64
-5.36
-7.17
-9.21
-11.47
-13.68
-15.44
-16.31
-15.97
-14.27
-11.34
-7.5
-3.25
0.86
4.34
6.86
8.37
9.1
9.32
9.24
8.96
8.47
7.78
7.04
6.48
6.32
6.71
7.62
8.85
10.23
11.62
12.94
14.12
15.06
15.57
15.51
14.83
13.7
12.4
11.26
10.53
10.24
10.17
9.94
9.19
7.76
5.73
3.45
1.25
-0.61
-2.1
-3.31
-4.38
-5.35
-6.19
-6.81
-7.27
-7.67
-8.2
-8.95
-9.77
-10.31
-10.05
-8.54
-5.64
-1.69
2.71
6.74
9.72
11.37
11.81
11.47
10.89
10.44
10.31
10.48
10.86
11.33
11.88
12.48
13.16
13.87
14.59
15.25
15.74
16.02
16.01
15.7
15.1
14.28
13.31
12.29
11.24
10.1
8.84
7.35
5.7
3.99
2.39
1.05
0.01
-0.83
-1.69
-2.79
-4.34
-6.42
-9.03
-12.04
-15.22
-18.19
-20.44
-21.43
-20.73
-18.37
-14.85
-11.13
-8.3
-7.15
-7.82
-9.69
-11.63
-12.45
-11.47
-8.64
-4.62
-0.29
3.59
6.55
8.49
9.43
9.56
8.97
7.83
6.34
4.76
3.41
2.52
2.27
2.57
3.26
4.04
4.58
4.64
4.07
2.92
1.35
-0.39
-2.09
-3.62
-4.91
-5.99
-6.9
-7.75
-8.7
-9.98
-11.72
-13.97
-16.56
-19.12
-21.13
-22.04
-21.41
-19.04
-15.02
-9.65
-3.46
2.92
8.71
13.19
15.94
16.93
16.67
15.97
15.67
16.23
17.59
19.28
20.63
21.24
20.98
20.09
18.87
17.46
15.82
13.81
11.44
8.97
6.84
5.39
4.73
4.61
4.51
4
2.88
1.33
-0.34
-1.81
-3.06
-4.19
-5.47
-7.09
-9.06
-11.29
-13.62
-15.99
-18.43
-21
-23.64
-26.07
-27.87
-28.44
-27.47
-24.83
-20.85
-16.15
-11.36
-7.03
-3.39
-0.46
1.86
3.61
4.89
5.75
6.23
6.46
6.49
6.4
6.21
6
5.9
6.06
6.57
7.35
8.21
8.78
8.77
7.99
6.48
4.53
2.54
0.79
-0.57
-1.6
-2.48
-3.36
-4.31
-5.34
-6.43
-7.61
-8.93
-10.4
-11.95
-13.43
-14.67
-15.59
-16.28
-16.93
-17.8
-18.89
-20.08
-21.04
-21.37
-20.82
-19.27
-16.86
-13.81
-10.46
-7.02
-3.67
-0.52
2.36
4.87
6.94
8.51
9.63
10.36
10.89
11.37
11.87
12.37
12.72
12.8
12.56
12.12
11.63
11.27
11.14
11.15
11.13
10.85
10.21
9.25
8.13
7.03
6.02
5.12
4.16
3.05
1.69
0.14
-1.41
-2.73
-3.66
-4.21
-4.54
-5
-5.87
-7.33
-9.29
-11.43
-13.44
-15.08
-16.26
-16.96
-17.13
-16.54
-14.87
-11.94
-7.8
-2.88
2.18
6.69
10.24
12.68
14.16
14.95
15.23
15.17
14.82
14.26
13.58
12.92
12.39
12.14
12.2
12.53
13.06
13.63
14.09
14.32
14.23
13.82
13.07
11.94
10.42
8.53
6.41
4.23
2.23
0.62
-0.55
-1.3
-1.85
-2.47
-3.38
-4.7
-6.43
-8.42
-10.49
-12.49
-14.36
-16
-17.36
-18.31
-18.7
-18.36
-17.11
-14.88
-11.7
-7.79
-3.54
0.59
4.2
7.05
9.08
10.39
11.09
11.24
10.87
10
8.75
7.39
6.19
5.39
5.07
5.14
5.45
5.83
6.16
6.38
6.46
6.41
6.2
5.83
5.23
4.41
3.41
2.35
1.37
0.51
-0.32
-1.3
-2.62
-4.39
-6.56
-8.96
-11.39
-13.73
-16
-18.27
-20.58
-22.76
-24.49
-25.26
-24.63
-22.4
-18.7
-14
-8.94
-4.1
0.1
3.5
6.02
7.78
8.88
9.43
9.54
9.29
8.76
8.05
7.32
6.71
6.38
6.41
6.75
7.32
7.99
8.73
9.49
10.28
11.02
11.6
11.82
11.52
10.65
9.26
7.54
5.59
3.46
1.2
-1.17
-3.5
-5.64
-7.41
-8.75
-9.68
-10.31
-10.81
-11.31
-12.01
-13.09
-14.74
-16.89
-19.27
-21.32
-22.37
-21.91
-19.74
-16.12
-11.6
-6.76
-2.04
2.27
5.92
8.68
10.36
10.92
10.6
9.89
9.31
9.26
9.82
10.78
11.83
12.69
13.27
13.64
13.94
14.21
14.47
14.58
14.51
14.26
13.85
13.34
12.63
11.58
10.07
8.14
5.9
3.6
1.46
-0.5
-2.35
-4.2
-6.03
-7.7
-8.94
-9.68
-10.05
-10.34
-10.96
-12.12
-13.87
-16.08
-18.47
-20.71
-22.39
-23.04
-22.2
-19.63
-15.44
-10.1
-4.4
0.94
5.35
8.59
10.72
11.99
12.65
12.95
13.08
13.07
12.97
12.65
12.04
11.16
10.25
9.61
9.56
10.16
11.2
12.37
13.34
13.95
14.24
14.31
14.2
13.85
13.16
12.08
10.74
9.33
8.01
6.79
5.48
3.85
1.8
-0.54
-2.94
-5.09
-6.8
-8.07
-9.05
-10.01
-11.18
-12.74
-14.66
-16.8
-18.78
-20.16
-20.45
-19.3
-16.66
-12.66
-7.79
-2.56
2.43
6.76
10.19
12.68
14.35
15.33
15.71
15.53
14.82
13.61
12.11
10.58
9.3
8.54
8.38
8.75
9.47
10.3
11
11.38
11.35
10.86
9.93
8.52
6.65
4.36
1.77
-0.92
-3.58
-5.97
-7.99
-9.55
-10.63
-11.25
-11.54
-11.72
-12
-12.65
-13.82
-15.52
-17.49
-19.31
-20.44
-20.34
-18.72
-15.51
-10.96
-5.63
-0.09
5.06
9.41
12.7
14.76
15.53
15.1
13.68
11.63
9.42
7.37
5.76
4.7
4.23
4.32
4.93
5.86
6.87
7.69
8.09
7.99
7.48
6.69
5.7
4.5
3.03
1.24
-0.81
-2.96
-4.99
-6.81
-8.48
-10.12
-11.93
-13.98
-16.16
-18.29
-20.22
-21.85
-23.23
-24.37
-25.02
-24.84
-23.38
-20.35
-15.87
-10.5
-4.96
0.04
4.15
7.41
10.01
12.11
13.7
14.6
14.7
14
12.77
11.45
10.48
10.12
10.44
11.28
12.34
13.32
13.91
13.86
13.13
11.77
10.02
8.19
6.56
5.17
3.9
2.52
0.79
-1.38
-3.86
-6.43
-8.84
-10.98
-12.94
-14.81
-16.65
-18.48
-20.33
-22.29
-24.45
-26.77
-29.01
-30.7
-31.28
-30.27
-27.55
-23.33
-18.16
-12.61
-7.18
-2.17
2.26
6.06
9.15
11.49
13.09
14.04
14.48
14.64
14.7
14.82
15.07
15.49
16
16.6
17.22
17.79
18.23
18.49
18.54
18.38
18.03
17.43
16.55
15.28
13.53
11.29
8.63
5.72
2.75
-0.13
-2.88
-5.53
-8.17
-10.78
-13.3
-15.62
-17.64
-19.42
-21.12
-22.89
-24.72
-26.29
-27
-26.26
-23.66
-19.3
-13.7
-7.63
-1.85
3.22
7.44
10.89
13.7
15.87
17.37
18.14
18.26
17.9
17.27
16.5
15.71
14.96
14.3
13.9
13.84
14.23
14.98
15.89
16.71
17.18
17.15
16.6
15.65
14.33
12.71
10.72
8.29
5.44
2.28
-0.94
-3.96
-6.51
-8.57
-10.2
-11.55
-12.79
-14.01
-15.24
-16.5
-17.83
-19.19
-20.51
-21.52
-21.77
-20.86
-18.44
-14.46
-9.18
-3.19
2.75
7.91
11.72
14.03
15.04
15.25
15.16
15.1
15.12
15.09
14.9
14.48
13.99
13.56
13.31
13.2
13.14
13.12
13.15
13.28
13.44
13.52
13.39
12.95
12.24
11.29
10.2
8.87
7.19
5.06
2.62
0.05
-2.4
-4.55
-6.43
-8.2
-10.16
-12.56
-15.51
-18.86
-22.2
-24.88
-26.17
-25.62
-23.12
-19.08
-14.18
-9.11
-4.45
-0.36
3.11
6.12
8.64
10.58
11.77
12.12
11.73
10.84
9.79
8.85
8.26
8.07
8.32
8.95
9.89
11.07
12.37
13.64
14.67
15.24
15.07
14.03
12.03
9.14
5.69
2.06
-1.32
-4.19
-6.53
-8.49
-10.35
-12.22
-14.12
-15.83
-17.13
-17.98
-18.55
-19.27
-20.58
-22.79
-25.78
-29.1
-31.89
-33.31
-32.69
-29.78
-24.88
-18.65
-12.08
-6.09
-1.33
1.87
3.47
3.75
3.13
2.07
1.06
0.47
0.59
1.48
2.98
4.75
6.4
7.77
8.86
10.01
11.55
13.65
16.13
18.53
20.46
21.59
21.97
21.8
21.38
20.88
20.34
19.64
18.63
17.26
15.4
13.01
10.08
6.69
3.03
-0.6
-3.96
-6.9
-9.37
-11.55
-13.68
-16.02
-18.68
-21.53
-24.14
-25.81
-25.87
-23.87
-19.87
-14.44
-8.44
-2.75
2.12
6.07
9.28
11.99
14.31
16.12
17.26
17.6
17.21
16.32
15.3
14.42
13.83
13.55
13.44
13.42
13.39
13.36
13.37
13.47
13.66
13.87
14.07
14.19
14.22
14.1
13.72
12.87
11.42
9.33
6.66
3.69
0.73
-2
-4.44
-6.67
-8.84
-11.03
-13.23
-15.34
-17.24
-18.99
-20.73
-22.62
-24.67
-26.56
-27.68
-27.35
-25.13
-20.98
-15.38
-9.1
-2.96
2.42
6.7
9.8
11.81
12.88
13.16
12.77
11.78
10.33
8.61
6.8
5.19
4.04
3.58
3.86
4.79
6.1
7.45
8.58
9.3
9.54
9.23
8.27
6.58
4.17
1.18
-2.08
-5.2
-7.9
-10.1
-12
-13.93
-16.05
-18.35
-20.56
-22.41
-23.68
-24.43
-24.79
-24.9
-24.77
-24.05
-22.15
-18.24
-11.54
-1.43
12.12
28.62
47
65.8
83.56
99.12
111.76
121.12
126.95
128.86
126.27
118.53
105.1
85.75
60.88
31.57
-0.32
-32.31
-61.63
-85.8
-103.05
-112.78
-115.46
-112.29
-104.84
-94.61
-82.88
-70.72
-59.11
-48.76
-40.14
-33.21
-27.42
-22
-16.31
-10.24
-4.32
0.57
3.71
4.8
4.18
2.61
0.78
-1.05
-3.04
-5.64
-9.18
-13.47
-17.92
-21.66
-23.71
-23.33
-20.08
-13.83
-4.95
5.75
17.05
27.48
35.71
41.02
43.36
43.42
42.34
41.21
40.73
41.1
41.99
42.85
43.25
42.9
41.88
40.36
38.51
36.42
34.15
31.68
28.9
25.71
21.8
16.7
9.93
1.06
-9.94
-22.62
-36.15
-49.45
-61.34
-70.89
-77.53
-81.05
-81.73
-80.08
-76.79
-72.55
-67.93
-63.24
-58.62
-54.03
-49.24
-44.06
-38.22
-31.54
-23.91
-15.49
-6.63
2.08
10.03
16.74
21.9
25.46
27.56
28.46
28.45
27.83
26.81
25.49
24.02
22.54
21.3
20.65
20.85
22.05
24.04
26.31
28.22
29.35
29.58
29.23
28.8
28.7
29.16
30.12
31.43
32.96
34.71
36.69
38.85
41.02
42.86
44.08
44.53
44.19
43.18
41.67
39.77
37.54
35
32.1
28.94
25.72
22.81
20.68
19.67
19.83
20.79
21.72
21.5
19.07
13.71
5.1
-6.53
-20.74
-36.88
-54.19
-71.84
-88.84
-104.08
-116.52
-125.28
-129.75
-129.83
-125.86
-118.57
-108.92
-97.92
-86.34
-74.66
-62.97
-51.11
-38.97
-26.62
-14.37
-2.62
8.23
18.07
26.95
34.98
42.13
48
51.88
53.06
51
45.65
37.54
27.57
16.94
6.85
-1.67
-7.63
-10.3
-9.18
-4.16
4.26
14.98
26.42
36.85
44.79
49.26
49.87
46.8
40.75
32.73
23.9
15.32
7.83
1.95
-2
-3.98
-4.06
-2.57
-0.12
2.41
4.12
4.46
3.52
2.04
1.04
1.3
2.96
5.4
7.64
8.85
8.68
7.41
5.7
4.22
3.28
2.72
2.11
0.95
-1.05
-3.86
-7.14
-10.37
-12.95
-14.46
-14.66
-13.53
-11.19
-7.84
-3.75
0.81
5.54
10.08
13.98
16.78
18.05
17.57
15.48
12.09
7.91
3.36
-1.23
-5.67
-9.73
-13.12
-15.48
-16.44
-15.9
-14.14
-11.78
-9.59
-8.3
-8.27
-9.5
-11.69
-14.33
-16.98
-19.31
-21.2
-22.58
-23.34
-23.32
-22.45
-20.82
-18.8
-16.99
-15.95
-15.92
-16.68
-17.53
-17.69
-16.62
-14.24
-10.86
-6.98
-3.04
0.8
4.47
7.93
11.02
13.51
15.17
15.94
15.83
14.95
13.49
11.61
9.64
7.95
6.93
6.8
7.52
8.79
10.17
11.29
11.87
11.92
11.57
10.95
10.2
9.34
8.33
7.09
5.57
3.77
1.69
-0.59
-3.06
-5.68
-8.45
-11.4
-14.51
-17.66
-20.65
-23.1
-24.53
-24.51
-22.7
-19.11
-14.04
-8.03
-1.8
4.02
8.97
12.82
15.48
17.03
17.53
17.11
15.96
14.26
12.24
10.15
8.23
6.68
5.63
5.1
5
5.18
5.44
5.61
5.54
5.17
4.46
3.48
2.35
1.12
-0.18
-1.65
-3.38
-5.47
-7.87
-10.32
-12.55
-14.37
-15.76
-16.86
-17.8
-18.56
-18.97
-18.76
-17.69
-15.64
-12.66
-8.97
-4.78
-0.35
4.06
8.18
11.76
14.57
16.44
17.41
17.58
17.19
16.46
15.62
14.78
13.97
13.18
12.33
11.44
10.59
9.89
9.45
9.28
9.31
9.32
9.15
8.61
7.59
6
3.81
1.1
-1.87
-4.71
-7.11
-8.82
-9.91
-10.67
-11.62
-13.12
-15.32
-17.96
-20.5
-22.35
-22.91
-21.86
-19.18
-15.12
-10.16
-4.84
0.27
4.77
8.37
10.95
12.56
13.31
13.44
13.1
12.47
11.63
10.71
9.79
8.96
8.31
7.9
7.83
8.04
8.41
8.71
8.77
8.5
8
7.5
7.23
7.3
7.57
7.76
7.53
6.7
5.25
3.36
1.23
-1.05
-3.38
-5.8
-8.2
-10.45
-12.4
-13.99
-15.27
-16.32
-17.21
-17.78
-17.75
-16.74
-14.5
-11.1
-6.95
-2.61
1.41
4.67
7.08
8.65
9.49
9.71
9.41
8.73
7.84
7
6.37
6.1
6.14
6.37
6.65
6.86
7
7.1
7.2
7.29
7.38
7.39
7.18
6.66
5.68
4.12
1.96
-0.69
-3.61
-6.43
-8.87
-10.81
-12.28
-13.46
-14.54
-15.6
-16.6
-17.47
-18.14
-18.58
-18.72
-18.39
-17.31
-15.26
-12.1
-8.04
-3.52
0.87
4.62
7.42
9.3
10.43
11.07
11.46
11.72
11.86
11.8
11.51
10.94
10.2
9.5
9.02
8.98
9.37
10.07
10.78
11.25
11.3
10.99
10.45
9.76
8.92
7.77
6.19
4.2
1.96
-0.26
-2.26
-4.03
-5.74
-7.54
-9.49
-11.45
-13.16
-14.47
-15.37
-16.12
-17.03
-18.4
-20.28
-22.51
-24.58
-25.94
-26.05
-24.55
-21.49
-17.08
-11.87
-6.44
-1.35
3.05
6.56
9.15
11
12.18
12.9
13.32
13.54
13.61
13.52
13.2
12.65
11.98
11.3
10.83
10.7
10.9
11.37
11.91
12.38
12.61
12.51
11.9
10.64
8.76
6.44
4.14
2.19
0.83
-0.1
-0.95
-2.11
-3.75
-5.71
-7.71
-9.36
-10.63
-11.49
-12.16
-12.86
-13.79
-15.17
-17.09
-19.54
-22.17
-24.4
-25.52
-25
-22.73
-19.04
-14.55
-9.83
-5.26
-0.96
3
6.47
9.15
10.72
11.16
10.69
9.79
8.98
8.57
8.62
9.02
9.65
10.41
11.4
12.52
13.66
14.61
15.1
15.02
14.35
13.29
12.05
10.88
9.86
8.98
8.14
7.22
6.23
5.2
4.24
3.38
2.54
1.52
0.09
-1.85
-4.27
-6.84
-9.22
-11.05
-12.21
-12.81
-13.17
-13.67
-14.59
-16.06
-17.9
-19.83
-21.45
-22.4
-22.34
-21.01
-18.27
-14.19
-9.13
-3.61
1.61
5.93
8.93
10.53
10.96
10.57
9.75
8.74
7.75
6.82
5.99
5.31
4.86
4.79
5.2
6.18
7.62
9.21
10.51
11.18
11.11
10.43
9.46
8.45
7.52
6.6
5.58
4.32
2.87
1.28
-0.46
-2.43
-4.73
-7.31
-9.91
-12.2
-13.87
-14.93
-15.59
-16.26
-17.3
-18.84
-20.75
-22.65
-24.01
-24.31
-23.09
-20.13
-15.55
-9.8
-3.59
2.24
6.98
10.25
12.1
12.81
12.75
12.25
11.53
10.73
9.94
9.25
8.75
8.43
8.28
8.11
7.79
7.27
6.67
6.11
5.8
5.82
6.16
6.71
7.25
7.51
7.24
6.32
4.77
2.8
0.69
-1.36
-3.23
-5
-6.8
-8.76
-10.91
-13.18
-15.43
-17.59
-19.67
-21.6
-23.4
-24.91
-26.01
-26.58
-26.56
-25.86
-24.31
-21.78
-18.05
-13.26
-7.84
-2.44
2.3
5.93
8.38
9.91
10.76
11.22
11.28
10.88
9.98
8.73
7.4
6.33
5.79
5.82
6.37
7.28
8.33
9.43
10.45
11.34
11.99
12.28
12.01
11.1
9.6
7.67
5.63
3.7
2.02
0.55
-0.82
-2.3
-3.98
-5.87
-7.89
-9.89
-11.78
-13.39
-14.68
-15.59
-16.25
-16.95
-18.03
-19.68
-21.82
-24.01
-25.5
-25.58
-23.8
-20.15
-15.12
-9.4
-3.8
1.16
5.22
8.35
10.66
12.35
13.58
14.48
15.23
