9.27
9.71
9.95
9.97
9.89
9.81
9.78
9.81
9.85
9.78
9.52
9
8.19
7.02
5.35
3.04
0.03
-3.52
-7.22
-10.6
-13.31
-15.26
-16.67
-18.01
-19.72
-22.09
-25.09
-28.36
-31.38
-33.49
-34.17
-33.04
-30.02
-25.38
-19.64
-13.5
-7.58
-2.3
2.2
5.91
8.94
11.32
13.01
13.97
14.22
13.95
13.44
12.99
12.87
13.14
13.74
14.41
14.88
14.9
14.45
13.6
12.53
11.42
10.31
9.13
7.69
5.89
3.76
1.47
-0.71
-2.63
-4.29
-5.84
-7.54
-9.58
-12.02
-14.85
-17.92
-20.94
-23.58
-25.37
-25.85
-24.62
-21.58
-16.93
-11.19
-5.09
0.64
5.44
9.04
11.44
12.82
13.42
13.47
13.21
12.83
12.62
12.8
13.49
14.64
16.04
17.37
18.33
18.79
18.73
18.35
17.81
17.27
16.81
16.37
15.79
14.84
13.28
10.89
7.67
3.73
-0.63
-5.12
-9.45
-13.51
-17.3
-20.83
-24.21
-27.47
-30.63
-33.62
-36.23
-38.12
-38.87
-38.17
-35.91
-32.33
-27.91
-23.29
-19.11
-15.8
-13.59
-12.37
-11.81
-11.31
-10.13
-7.59
-3.36
2.5
9.64
17.68
26.51
36.26
46.99
58.24
68.74
76.66
80.25
78.49
71.66
61.17
48.97
36.9
26.13
17.06
9.64
3.68
-0.94
-4.27
-6.37
-7.55
-8.3
-9.22
-10.79
-13.21
-16.37
-19.84
-23.17
-25.91
-27.81
-28.64
-28.29
-26.68
-23.83
-19.9
-15.29
-10.48
-5.94
-2.08
0.99
3.26
4.89
5.93
6.39
6.2
5.4
4.23
3.12
2.5
2.56
3.2
4.04
4.66
4.88
4.8
4.81
5.19
5.97
6.77
7.02
6.28
4.45
1.86
-0.95
-3.43
-5.28
-6.52
-7.4
-8.27
-9.45
-11.11
-13.21
-15.64
-18.14
-20.41
-22.05
-22.66
-21.87
-19.5
-15.66
-10.68
-5.12
0.48
5.68
10.3
14.29
17.77
20.81
23.39
25.49
27.04
28
28.5
28.76
29.14
29.97
31.44
33.53
35.99
38.41
40.42
41.72
42.26
42.06
41.25
39.9
38
35.53
32.37
28.4
23.4
17.01
8.85
-1.19
-12.72
-24.77
-35.94
-44.87
-50.51
-52.56
-51.29
-47.31
-41.18
-33.23
-23.67
-12.77
-1.17
10.18
20.14
27.76
32.51
34.38
33.91
31.81
28.89
25.78
22.91
20.58
19.04
18.53
19.18
21.09
24.09
27.85
31.83
35.42
38.1
39.47
39.37
37.67
34.4
29.56
23.3
15.97
8.12
0.44
-6.43
-12.14
-16.79
-20.78
-24.69
-28.98
-33.67
-38.51
-43
-46.69
-49.36
-51.11
-52.21
-52.9
-53.24
-52.91
-51.46
-48.45
-43.76
-37.62
-30.68
-23.57
-16.82
-10.61
-4.84
0.65
5.86
10.61
14.55
17.38
19.04
19.73
19.79
19.57
19.26
18.89
18.4
17.66
16.59
15.02
12.76
9.61
5.55
0.79
-4.14
-8.62
-12.14
-14.47
-15.71
-16.16
-16.2
-16.04
-15.89
-15.83
-16.04
-16.67
-17.76
-19.27
-20.8
-21.87
-21.96
-20.78
-18.36
-15.04
-11.35
-7.85
-4.86
-2.39
-0.17
2.19
5.03
8.5
12.72
17.65
23.29
29.55
36.32
43.4
50.52
57.28
63.23
67.9
70.85
71.84
70.76
67.74
63.1
57.17
50.33
42.85
35.06
27.31
20.09
13.97
9.44
6.86
6.17
6.98
8.57
10.21
11.38
11.99
12.35
12.96
14.28
16.49
19.44
22.81
26.26
29.65
33.14
37.04
41.62
46.82
51.98
55.79
56.56
52.65
43.09
28.01
8.63
-13.04
-34.69
-54.21
-69.92
-80.58
-85.5
-84.56
-78.5
-68.84
-57.85
-48.03
-41.61
-40.1
-44.09
-53.42
-67.26
-84.37
-103.14
-121.79
-138.6
-152.25
-162.08
-168.16
-171.15
-171.72
-170.38
-167.25
-162.29
-155.42
-146.7
-136.23
-124.05
-110.13
-94.42
-77.23
-59.37
-42.16
-27.07
-15.29
-7.23
-2.47
-0.14
0.86
1.23
1.28
0.87
-0.13
-1.77
-3.85
-5.97
-7.77
-8.99
-9.6
-9.67
-9.19
-8.05
-6
-2.9
1.26
6.25
11.96
18.56
26.4
35.72
45.98
55.89
63.6
67.64
67.44
63.79
58.25
52.32
46.79
41.4
35.46
28.26
19.58
9.64
-1.13
-12.11
-22.63
-31.75
-38.63
-42.73
-44.13
-43.55
-41.81
-39.37
-36.11
-31.55
-25.27
-17.48
-9.01
-0.89
6.1
11.88
16.92
21.86
27
32.19
36.88
40.47
42.52
42.91
41.69
38.98
35.03
30.17
25.09
20.66
17.85
17.37
19.43
23.64
29.02
34.31
38.31
40.13
39.31
35.8
29.98
22.49
14.25
6.3
-0.34
-4.78
-6.5
-5.37
-1.78
3.46
9.26
14.59
18.63
20.99
21.66
20.82
18.81
15.89
12.33
8.4
4.46
0.9
-1.88
-3.64
-4.32
-4.1
-3.27
-2.21
-1.07
0.13
1.57
3.32
5.3
7.16
8.45
8.79
8.08
6.52
4.49
2.32
0.17
-2
-4.29
-6.67
-9.01
-11.14
-12.97
-14.58
-16.07
-17.43
-18.31
-18.18
-16.45
-12.79
-7.33
-0.6
6.58
13.44
19.36
24.12
27.66
30.15
31.72
32.45
32.34
31.34
29.57
27.28
24.92
22.94
21.61
20.87
20.36
19.66
18.44
16.81
15.14
13.97
13.62
14.02
14.68
14.88
14.04
11.88
8.59
4.66
0.68
-2.92
-6.03
-8.76
-11.38
-14.08
-17
-20.1
-23.26
-26.27
-28.79
-30.32
-30.33
-28.41
-24.49
-18.96
-12.59
-6.26
-0.72
3.65
6.82
9.02
10.58
11.8
12.76
13.51
14.06
14.43
14.66
14.82
15
15.29
15.76
16.34
16.89
17.22
17.16
16.67
15.76
14.57
13.22
11.77
10.18
8.32
6.09
3.4
0.36
-2.86
-6.13
-9.28
-12.3
-15.23
-18.2
-21.33
-24.64
-27.92
-30.74
-32.67
-33.35
-32.72
-30.94
-28.32
-25.13
-21.46
-17.38
-12.98
-8.63
-4.82
-2.06
-0.62
-0.36
-0.83
-1.43
-1.68
-1.26
-0.07
1.92
4.64
8.04
12.03
16.44
21.11
25.91
30.96
36.4
42.27
48.23
53.34
56.49
56.64
53.34
46.92
38.36
28.91
19.65
11.28
3.96
-2.42
-8.06
-13.03
-17.07
-19.58
-19.69
-16.74
-10.54
-1.87
7.84
16.91
24.17
29.31
32.85
35.63
38.16
40.36
41.63
41.35
39.32
36.08
32.73
30.53
30.39
32.48
36.26
40.8
45.29
49.41
53.53
58.41
64.64
72.29
80.69
88.7
95.26
99.71
102.09
102.83
102.43
101.02
98.34
93.87
87.18
78.26
67.53
55.77
43.81
32.35
21.8
12.39
4.18
-2.82
-8.62
-13.45
-17.61
-21.54
-25.52
-29.62
-33.65
-37.33
-40.42
-42.89
-45.03
-47.2
-49.83
-53.08
-56.86
-60.83
-64.5
-67.44
-69.37
-70.34
-70.61
-70.6
-70.73
-71.19
-72.04
-73.09
-74.16
-74.98
-75.38
-75.12
-74.06
-72.15
-69.63
-66.97
-64.65
-63.02
-61.94
-60.82
-58.77
-55.06
-49.35
-41.77
-32.91
-23.4
-13.87
-4.7
3.88
11.71
18.55
24.22
28.63
31.78
33.87
35.03
35.42
35.14
34.25
32.86
31.16
29.38
27.71
26.35
25.31
24.51
23.74
22.78
21.5
19.79
17.72
15.35
12.82
10.22
7.54
4.75
1.79
-1.38
-4.71
-8.13
-11.52
-14.57
-16.92
-18.23
-18.16
-16.69
-14.01
-10.56
-6.8
-3.08
0.46
3.81
6.91
9.61
11.65
12.86
13.32
13.39
13.6
14.4
16
18.26
20.85
23.4
25.63
27.42
28.79
29.77
30.33
30.37
29.7
28.23
25.86
22.62
18.64
14.14
9.43
4.84
0.67
-2.96
-6.04
-8.68
-11.11
-13.51
-15.95
-18.3
-20.22
-21.19
-20.75
-18.76
-15.41
-11.29
-7.13
-3.61
-1.09
0.38
0.98
0.95
0.38
-0.73
-2.37
-4.34
-6.3
-7.71
-8.09
-7.24
-5.3
-2.7
0.07
2.53
4.48
5.76
6.37
6.38
5.85
4.91
3.68
2.19
0.35
-2.02
-5.1
-8.97
-13.54
-18.63
-24
-29.49
-34.89
-39.91
-44.14
-47.09
-48.43
-48.12
-46.54
-44.29
-42.07
-40.37
-39.37
-38.94
-38.76
-38.53
-38.01
-37.25
-36.34
-35.46
-34.71
-33.99
-33.15
-31.94
-30.25
-28.13
-25.82
-23.64
-21.8
-20.46
-19.46
-18.63
-17.63
-16.29
-14.53
-12.42
-10.2
-8.13
-6.6
-5.88
-6.25
-7.89
-10.86
-15.07
-20.15
-25.51
-30.4
-34.16
-36.35
-36.97
-36.36
-35.05
-33.6
-32.36
-31.5
-30.87
-30.26
-29.42
-28.27
-26.74
-24.8
-22.41
-19.51
-16.11
-12.34
-8.46
-4.8
-1.58
1.14
3.59
6.02
8.6
11.21
13.54
15.2
15.96
15.81
15.01
13.83
12.45
10.86
8.91
6.47
3.46
-0.01
-3.76
-7.54
-11.12
-14.21
-16.5
-17.65
-17.41
-15.76
-12.96
-9.58
-6.31
-3.71
-2.05
-1.18
-0.74
-0.31
0.34
1.23
2.3
3.45
4.68
6.07
7.61
9.13
10.4
11.27
11.7
11.95
12.33
13.08
14.18
15.4
16.33
16.65
16.22
15.11
13.45
11.38
8.97
6.31
3.45
0.54
-2.33
-5.12
-7.93
-10.94
-14.34
-18.16
-22.07
-25.54
-27.83
-28.36
-26.88
-23.62
-19.14
-14.21
-9.58
-5.67
-2.68
-0.42
1.38
3
4.59
6.17
7.6
8.66
9.18
9.12
8.72
8.3
8.18
8.57
9.49
10.84
12.44
14.17
15.82
17.19
18.02
18.01
17.09
15.33
13.01
10.4
7.76
5.14
2.52
-0.1
-2.71
-5.14
-7.29
-9.07
-10.58
-12.03
-13.67
-15.65
-17.91
-20.14
-21.75
-22.18
-20.91
-17.84
-13.3
-7.92
-2.47
2.43
6.33
9.19
11.11
12.27
12.89
13.11
13.1
13.05
13.23
13.81
14.9
16.43
18.17
19.87
21.32
22.43
23.18
23.67
24.08
24.59
25.28
26.09
26.72
26.75
25.8
23.65
20.45
16.62
12.65
8.92
5.54
2.52
-0.23
-2.77
-5.09
-7.24
-9.28
-11.32
-13.32
-15.06
-16.03
-15.68
-13.72
-10.23
-5.79
-1.23
2.6
5.15
6.33
6.37
5.73
4.83
3.94
3.24
2.85
2.89
3.51
4.8
6.67
8.91
11.26
13.38
15.04
16.11
16.61
16.67
16.44
16
15.31
14.24
12.62
10.32
7.44
4.26
1.2
-1.32
-3.1
-4.2
-4.9
-5.56
-6.52
-7.95
-9.85
-12.1
-14.59
-17.16
-19.55
-21.38
-22.12
-21.27
-18.59
-14.29
-9.06
-3.93
0.2
2.88
4.18
4.56
4.58
4.57
4.64
4.72
4.84
5.09
5.66
6.66
8.04
9.7
11.41
13.07
14.57
15.92
17.05
17.83
18.04
17.48
15.96
13.45
10.11
6.26
2.32
-1.35
-4.58
-7.41
-10.05
-12.68
-15.45
-18.31
-21.19
-23.95
-26.51
-28.9
-31.18
-33.4
-35.47
-37.15
-38.04
-37.64
-35.51
-31.42
-25.55
-18.44
-10.92
-3.81
2.2
6.82
10.07
12.26
13.88
15.28
16.66
17.88
18.68
18.72
17.78
15.86
13.15
10.04
7.02
4.82
4.27
6.1
10.38
16.15
21.4
23.62
21.02
13.19
1.7
-10.66
-21.01
-27.6
-30.45
-31
-31.32
-32.88
-36.23
-41.03
-46.6
-52.25
-57.4
-61.51
-63.93
-64.07
-61.41
-56.02
-48.5
-39.87
-30.93
-21.7
-11.43
1.08
16.67
35.12
54.8
73.07
87
94.24
93.91
86.61
74.21
59.07
43.48
29.13
17.19
8.28
2.51
-0.31
-0.71
0.5
2.29
3.71
4.01
3.02
1.01
-1.51
-3.93
-5.88
-7.21
-8.04
-8.71
-9.67
-11.33
-13.84
-16.96
-19.99
-22.02
-22.16
-19.99
-15.67
-9.93
-3.76
2.02
6.95
11.03
14.47
17.53
20.25
22.44
23.82
24.23
23.77
22.74
21.52
20.44
19.61
19
18.49
18
17.53
17.13
16.77
16.36
15.73
14.66
13.13
11.19
9.01
6.68
4.21
1.61
-1.09
-3.8
-6.52
-9.24
-12.11
-15.35
-19.09
-23.26
-27.51
-31.32
-34.11
-35.44
-35.07
-33.02
-29.63
-25.41
-20.94
-16.68
-12.85
-9.38
-6.12
-2.92
0.15
2.89
5.13
6.82
8.16
9.41
10.78
12.26
13.66
14.85
15.8
16.66
17.57
18.47
19.07
18.95
17.75
15.4
12.24
8.73
5.36
2.38
-0.2
-2.44
-4.44
-6.19
-7.76
-9.21
-10.78
-12.72
-15.22
-18.16
-21.14
-23.53
-24.69
-24.15
-21.82
-17.99
-13.21
-8.14
-3.3
1.04
4.86
8.3
11.44
14.21
16.36
17.66
18.06
17.76
17.23
16.94
17.19
17.97
19
19.94
20.52
20.73
20.66
20.45
20.17
19.7
18.83
17.34
15.15
12.32
9.07
5.71
2.6
-0
-2.02
-3.54
-4.85
-6.26
-8.06
-10.26
-12.64
-14.69
-15.76
-15.29
-12.89
-8.61
-2.78
3.92
10.71
16.87
21.91
25.67
28.24
29.91
30.94
31.45
31.39
30.65
29.19
27.12
24.72
22.41
20.61
19.53
19.18
19.32
19.62
19.76
19.59
19.1
18.41
17.64
16.79
15.71
14.25
12.26
9.78
7.01
4.21
1.54
-0.87
-3.02
-4.99
-6.84
-8.67
-10.53
-12.44
-14.25
-15.65
-16.11
-14.98
-11.74
-6.27
0.88
8.63
15.66
20.82
23.56
23.97
22.6
20.12
17.06
13.69
10.22
6.92
4.08
2
0.66
-0.2
-0.96
-1.92
-3.21
-4.68
-6.12
-7.36
-8.32
-8.96
-9.21
-9.07
-8.63
-8.2
-8.11
-8.52
-9.34
-10.08
-10.29
-9.69
-8.5
-7.25
-6.55
-6.72
-7.61
-8.67
-9.11
-8.33
-5.99
-2.16
2.82
8.4
13.96
18.93
22.79
25.31
26.4
26.22
25.04
23.19
20.96
18.49
15.85
12.92
9.62
5.85
1.73
-2.23
-5.25
-6.44
-5.34
-2.08
2.48
7.2
11.01
13.46
14.82
15.76
16.93
18.46
19.97
20.92
20.99
20.37
19.62
19.31
19.5
19.7
19.1
17.08
13.57
9.16
4.82
1.28
-1.29
-3.45
-6
-9.51
-14
-18.92
-23.39
-26.58
-28.03
-27.68
-25.83
-22.88
-19.25
-15.36
-11.61
-8.33
-5.69
-3.7
-2.27
-1.21
-0.44
0.04
0.16
-0.12
-0.77
-1.69
-2.78
-4
-5.28
-6.54
-7.66
-8.49
-8.96
-9.1
-9.07
-9.1
-9.31
-9.68
-10.08
-10.25
-9.86
-8.68
-6.65
-3.88
-0.78
2.19
4.55
5.96
6.44
6.27
5.83
5.31
4.74
3.91
2.64
1
-0.68
-1.91
-2.29
-1.71
-0.43
1.14
2.61
3.76
4.61
5.23
5.67
5.85
5.65
4.97
3.85
2.38
0.75
-0.86
-2.42
-4.01
-5.87
-8.17
-10.88
-13.66
-16.01
-17.31
-17.15
-15.49
-12.7
-9.36
-6.05
-3.2
-1.01
0.56
1.59
2.33
2.99
3.72
4.55
5.36
5.88
5.9
5.36
4.41
3.38
2.63
2.41
2.72
3.42
4.28
5.08
5.72
6.12
6.25
6.09
5.61
4.79
3.65
2.24
0.6
-1.19
-3.06
-4.91
-6.56
-7.78
-8.22
-7.62
-5.86
-3.03
0.51
4.33
7.89
10.77
12.68
13.58
13.59
12.98
12.13
11.32
10.74
10.39
10.13
9.73
9.06
8.11
6.96
5.75
4.62
3.62
2.72
1.92
1.15
0.34
-0.61
-1.79
-3.27
-5.03
-6.93
-8.73
-10.16
-11.06
-11.49
-11.69
-12.02
-12.76
-14.08
-15.76
-17.4
-18.54
-18.73
-17.74
-15.57
-12.42
-8.62
-4.66
-0.95
2.09
4.2
5.3
5.48
5.02
4.3
3.67
3.31
3.28
3.47
3.74
4.01
4.32
4.77
5.5
6.53
7.74
8.88
9.7
10.05
9.92
9.41
8.67
7.83
6.91
5.89
4.76
3.54
2.29
1.12
0.1
-0.76
-1.51
-2.3
-3.28
-4.52
-6.07
-7.88
-9.73
-11.36
-12.43
-12.63
-11.73
-9.78
-6.97
-3.75
-0.57
2.26
4.66
6.64
8.31
9.7
10.78
11.55
12.01
12.24
12.33
12.28
12.07
11.71
11.31
11.03
11.06
11.4
11.89
12.27
12.31
11.92
11.22
10.33
9.31
8.17
6.79
5.16
3.38
1.63
0.13
-1.04
-1.93
-2.75
-3.68
-4.91
-6.49
-8.38
-10.42
-12.41
-14.11
-15.28
-15.78
-15.39
-14.01
-11.56
-8.15
-4.03
0.29
4.32
7.64
10.03
11.61
12.58
13.23
13.67
13.95
14.02
13.9
13.64
13.27
12.78
12.04
10.97
9.56
7.93
6.34
4.99
4.01
3.29
2.68
1.93
0.92
-0.36
-1.87
-3.5
-5.23
-6.97
-8.73
-10.5
-12.38
-14.45
-16.75
-19.32
-21.96
-24.41
-26.28
-27.2
-26.89
-25.17
-21.97
-17.37
-11.61
-5.21
1.11
6.57
10.47
12.56
13.03
12.56
11.93
11.79
12.44
13.82
15.66
17.67
19.71
21.82
24.07
26.46
28.79
30.74
31.97
32.2
31.08
28.23
23.25
15.92
6.56
-3.97
-14.41
-23.42
-30.12
-34.28
-36.24
-36.6
-35.92
-34.48
-32.44
-30.02
-27.63
-25.77
-24.66
-24.11
-23.49
-22.09
-19.36
-15.21
-10.05
-4.65
0.17
3.84
6.18
7.34
7.66
7.59
7.47
7.49
7.69
8.04
8.5
9.17
10.13
11.48
13.25
15.33
17.55
19.79
21.95
23.99
25.78
27.1
27.6
26.96
24.95
21.58
17.09
11.81
6.12
0.33
-5.35
-10.67
-15.43
-19.41
-22.49
-24.62
-25.93
-26.62
-26.87
-26.83
-26.62
-26.25
-25.71
-24.98
-23.99
-22.65
-20.82
-18.3
-14.87
-10.31
-4.48
2.6
10.7
19.34
27.94
35.96
43.06
49.18
54.58
59.65
64.82
70.47
76.85
84.13
92.45
102
112.82
124.92
137.98
151.43
164.6
176.83
187.49
195.91
201.26
202.41
198.29
188.01
171.41
149.23
122.9
94.26
65.03
36.72
10.73
-11.41
-28.06
-37.77
-39.67
-34.12
-22.71
-7.97
7.27
20.67
30.85
37.41
40.51
40.6
37.88
32.54
24.9
15.53
5.33
-4.8
-14.19
-22.73
-30.59
-38.25
-45.97
-53.78
-61.51
-68.96
-76.03
-82.7
-88.9
-94.41
-98.92
-102.01
-103.4
-103.02
-101.01
-97.7
-93.57
-89.19
-85.07
-81.59
-78.87
-76.74
-74.93
-73.1
-71.09
-68.85
-66.4
-63.68
-60.59
-57.07
-53.21
-49.23
-45.17
-40.84
-35.75
-29.38
-21.61
-12.89
-4.16
3.58
9.62
13.84
16.52
18.11
18.96
19.25
19.17
18.96
19.01
19.53
20.44
21.22
21.25
20.03
17.53
14.23
10.82
7.93
5.83
4.38
3.22
2.08
0.9
-0.16
-0.93
-1.42
-1.81
-2.34
-3.18
-4.25
-5.37
-6.3
-6.98
-7.46
-7.96
-8.65
-9.59
-10.73
-11.88
-12.98
-13.98
-15
-16.04
-17.02
-17.68
-17.59
-16.43
-14.04
-10.63
-6.7
-2.87
0.41
2.89
4.65
5.99
7.13
8.16
8.84
8.71
7.34
4.62
0.85
-3.3
-7.05
-9.97
-11.97
-13.45
-14.92
-16.76
-18.98
-21.29
-23.36
-24.93
-26.06
-26.84
-27.32
-27.39
-26.82
-25.46
-23.36
-20.84
-18.24
-15.94
-14.08
-12.62
-11.4
-10.3
-9.32
-8.45
-7.72
-7.01
-6.08
-4.61
-2.32
0.86
4.75
8.9
12.81
16.06
18.42
19.8
20.11
19.28
17.23
14.07
10.09
5.79
1.6
-2.19
-5.57
-8.68
-11.6
-14.34
-16.78
-18.81
-20.49
-22
-23.48
-24.86
-26.03
-26.85
-27.36
-27.83
-28.6
-29.89
-31.67
-33.74
-35.75
-37.49
-38.94
-40.2
-41.34
-42.34
-43.03
-43.16
-42.52
-40.98
-38.45
-34.89
-30.34
-24.93
-19.03
-13.16
-7.89
-3.7
-0.77
0.99
1.86
2.12
1.86
1.01
-0.65
-3.16
-6.37
-9.83
-13.07
-15.68
-17.5
-18.65
-19.37
-19.84
-20.05
-19.91
-19.27
-18.15
-16.73
-15.37
-14.46
-14.19
-14.6
-15.48
-16.45
-17.21
-17.55
-17.55
-17.44
-17.65
-18.44
-19.95
-22.06
-24.47
-26.86
-28.86
-30.21
-30.73
-30.35
-28.99
-26.69
-23.61
-20.01
-16.32
-12.91
-10.14
-8.18
-7.02
-6.47
-6.36
-6.57
-7.07
-7.96
-9.2
-10.69
-12.16
-13.34
-14.09
-14.45
-14.61
-14.74
-14.92
-15.01
-14.89
-14.51
-14.07
-14
-14.7
-16.35
-18.68
-21.26
-23.46
-24.98
-25.78
-26.05
-26.09
-26.06
-26.07
-26.08
-26.18
-26.45
-26.94
-27.45
-27.42
-26.14
-23
-17.85
-11.02
-3.3
4.39
11.38
17.32
22.28
26.39
29.81
32.53
34.48
35.69
36.34
36.73
37.11
37.6
37.99
38.01
37.39
36.07
34.23
32.22
30.35
28.71
27.12
25.18
22.4
18.48
13.35
7.3
0.95
-4.98
-9.94
-13.74
-16.5
-18.6
-20.37
-22.14
-24.05
-26.21
-28.72
-31.6
-34.69
-37.52
-39.32
-39.22
-36.65
-31.48
-24.22
-15.8
-7.3
0.3
6.4
10.79
13.63
15.21
15.9
15.97
15.6
15.05
14.52
14.27
14.48
15.13
16.03
16.79
17.05
16.57
15.48
14.07
12.66
11.36
9.97
8.06
5.23
1.3
-3.54
-8.77
-13.81
-18.23
-21.9
-24.99
-27.83
-30.71
-33.79
-37.05
-40.23
-43.03
-45
-45.65
-44.59
-41.44
-36.11
-28.81
-20.12
-10.86
-2.03
5.58
11.56
15.92
19.05
21.38
23.18
24.45
25.03
24.85
24.09
23.32
23.18
24.15
26.29
29.22
32.23
34.7
36.33
37.11
37.26
36.85
35.79
33.81
30.69
26.44
21.39
16.08
11.02
6.55
2.65
-0.86
-4.25
-7.64
-11.09
-14.55
-17.98
-21.36
-24.56
-27.33
-29.2
-29.58
-28.01
-24.3
-18.64
-11.66
-4.3
2.57
8.26
12.48
15.34
17.17
18.31
19
19.29
19.07
18.4
17.42
16.44
15.78
15.61
15.92
16.6
17.44
18.21
18.75
18.94
18.75
18.24
17.52
16.7
15.79
14.68
13.13
11.03
8.33
5.25
2.15
-0.7
-3.2
-5.45
-7.66
-10
-12.48
-15.04
-17.56
-19.83
-21.58
-22.35
-21.65
-18.99
-14.18
-7.42
0.66
9.19
17.35
24.52
30.37
34.76
37.69
39.2
39.41
38.53
36.88
34.98
33.24
32.07
31.62
31.84
32.44
33.03
33.18
32.55
30.98
28.51
25.34
21.83
18.29
14.94
11.82
8.83
5.76
2.47
-1.01
-4.51
-7.82
-10.78
-13.35
-15.65
-17.79
-19.84
-21.81
-23.76
-25.81
-28.1
-30.69
-33.29
-35.36
-35.99
-34.36
-29.85
-22.38
-12.35
-0.51
12.17
24.78
36.52
46.93
55.72
62.87
68.5
72.8
76.12
78.83
81.28
83.66
85.97
87.91
89.07
89.05
87.6
84.73
80.61
75.56
69.9
63.94
57.92
51.99
46.21
40.55
35.02
29.6
24.42
19.67
15.57
12.23
9.59
7.49
5.74
4.29
3.12
2.18
1.3
0.1
-1.8
-4.7
-8.51
-12.91
-17.43
-21.79
-26.01
-30.31
-34.91
-39.78
-44.68
-49.22
-53.25
-56.82
-60.14
-63.37
-66.36
-68.84
-70.4
-70.89
-70.43
-69.41
-68.22
-67.07
-65.9
-64.48
-62.61
-60.24
-57.52
-54.73
-52.1
-49.8
-47.74
-45.78
-43.65
-41.12
-38
-34.16
-29.57
-24.21
-18.21
-11.66
-4.71
2.56
10.06
17.69
25.37
32.95
40.38
47.57
54.35
60.32
64.95
67.59
67.79
65.46
60.92
54.77
47.67
40.11
32.32
24.45
16.66
9.24
2.59
-2.94
-7.14
-10.05
-11.89
-12.87
-13.2
-13.01
-12.51
-11.96
-11.84
-12.58
-14.4
-17.2
-20.46
-23.56
-25.96
-27.55
-28.5
-29.32
-30.36
-31.8
-33.53
-35.34
-36.97
-38.13
-38.51
-37.59
-34.95
-30.31
-23.75
-15.85
-7.48
0.44
7.23
12.55
16.41
19
20.6
21.4
21.54
21.07
20.02
18.48
16.62
14.66
12.87
11.39
10.17
8.94
7.4
5.28
2.56
-0.61
-3.97
-7.36
-10.78
-14.35
-18.23
-22.32
-26.42
-30.21
-33.5
-36.29
-38.82
-41.49
-44.59
-48.29
-52.4
-56.66
-60.7
-64.29
-67.31
-69.61
-71.06
-71.38
-70.29
-67.58
-63.41
-58.29
-53.01
-48.47
-45.15
-43.1
-41.83
-40.62
-38.76
-35.8
-31.48
-25.67
-18.23
-8.91
2.36
15.31
29.25
43.16
56.03
67.06
75.73
81.62
84.46
83.98
80.1
73.17
64.02
53.86
43.89
35.01
27.46
20.99
14.99
8.9
2.45
-4.39
-11.39
-18.34
-25.08
-31.55
-37.5
-42.45
-45.69
-46.43
-44.24
-39.11
-31.6
-22.62
-13.13
-3.9
4.58
12.06
18.46
23.64
27.53
30.02
31.11
30.96
29.85
28.31
26.9
26.15
26.32
27.44
29.25
31.28
33.1
34.32
34.76
34.42
33.42
31.87
29.81
27.24
24.05
20.29
16.1
11.86
8.01
4.92
2.7
1.16
-0.1
-1.53
-3.37
-5.73
-8.41
-11.14
-13.57
-15.3
-15.92
-15.11
-12.78
-9.03
-4.3
0.87
5.91
10.39
14.04
16.77
18.59
19.53
19.79
19.56
19.06
18.45
17.78
17.11
16.5
16.03
15.71
15.55
15.36
14.85
13.89
12.48
10.85
9.2
7.71
6.29
4.84
3.19
1.36
-0.47
-2.14
-3.58
-4.96
-6.5
-8.42
-10.75
-13.4
-16.23
-19.07
-21.79
-24.18
-25.89
-26.39
-25.23
-22.09
-17.06
-10.6
-3.43
3.61
9.92
15.17
19.29
22.27
24.19
25.07
24.98
24.21
23.11
22.16
21.62
21.51
21.61
21.62
21.44
21.11
20.78
20.46
20.08
19.34
17.99
15.93
13.26
10.21
6.99
3.66
0.22
-3.34
-6.94
-10.41
-13.59
-16.42
-18.9
-21.1
-22.91
-24.04
-24
-22.31
-18.71
-13.37
-6.87
-0.04
6.32
11.64
15.76
18.72
20.66
21.63
21.62
20.61
18.72
16.25
13.55
10.99
8.78
6.99
5.63
4.71
4.25
4.2
4.47
4.81
4.95
4.55
3.41
1.45
-1.27
-4.5
-7.93
-11.22
-14.07
-16.4
-18.34
-20.16
-22.24
-24.81
-27.74
-30.61
-32.52
-32.58
-30.05
-24.77
-17.17
-8.23
0.88
9.24
16.3
21.94
26.22
29.23
30.9
31.1
29.81
27.22
23.86
20.35
17.29
15.02
13.63
13.02
12.95
13.25
13.72
14.23
14.63
14.74
14.42
13.54
12.07
10.02
7.53
4.76
1.9
-0.85
-3.33
-5.51
-7.53
-9.63
-12.14
-15.21
-18.85
-22.72
-26.21
-28.62
-29.36
-28.12
-24.93
-20.19
-14.49
-8.56
-3.08
1.51
5.02
7.59
9.54
11.19
12.67
13.96
14.84
15.14
14.83
14.03
13.01
12.1
11.49
11.2
11.16
11.1
10.79
10.07
8.77
6.88
4.41
1.5
-1.66
-4.81
-7.81
-10.54
-12.97
-15.2
-17.26
-19.27
-21.31
-23.46
-25.71
-27.86
-29.47
-29.87
-28.55
-25.28
-20.37
-14.59
-8.84
-3.88
0.01
2.9
5.19
7.15
9.02
10.73
12.12
13
13.28
13.01
12.32
11.45
10.59
9.88
9.36
8.98
8.67
8.4
8.15
7.95
7.76
7.49
6.97
6.05
4.58
2.59
0.16
-2.51
-5.22
-7.81
-10.19
-12.39
-14.42
-16.39
-18.33
-20.27
-22.16
-23.86
-25.1
-25.54
-24.84
-22.68
-19.02
-14.09
-8.4
-2.58
2.77
7.29
10.91
13.82
16.45
19.16
22.16
25.46
28.86
32.03
34.69
36.68
37.92
38.43
38.16
37.07
35.12
32.37
29.08
25.62
22.38
19.55
17.06
14.61
11.83
8.49
4.61
0.43
-3.68
-7.45
-10.8
-13.81
-16.7
-19.7
-22.9
-26.31
-29.67
-32.6
-34.58
-35.09
-33.69
-30.25
-25
-18.51
-11.62
-5.11
0.39
4.67
7.81
10.2
12.19
13.98
15.54
16.69
17.28
17.35
17.12
16.93
17
17.32
17.63
17.58
16.99
15.86
14.5
13.25
12.33
11.78
11.43
11.03
10.43
9.65
8.83
8.33
8.33
8.96
10.06
11.26
12.01
11.84
10.49
7.88
4.24
-0.26
-5.38
-10.91
-16.56
-21.86
-26.14
-28.79
-29.37
-27.84
-24.56
-20.12
-15.14
-10.17
-5.56
-1.56
1.7
4.14
5.8
6.69
6.95
6.74
6.17
5.46
4.72
4.05
3.39
2.61
1.55
0.17
-1.4
-2.9
-4.07
-4.87
-5.43
-6.08
-6.98
-8.13
-9.25
-10.06
-10.43
-10.46
-10.51
-10.94
-12.02
-13.72
-15.9
-18.35
-20.87
-23.32
-25.56
-27.58
-29.47
-31.47
-33.88
-36.78
-40
-42.9
-44.62
-44.27
-41.33
-35.82
-28.4
-20.14
-12.17
-5.39
-0.24
3.24
5.36
6.43
6.76
6.45
5.52
4.13
2.52
1.1
0.27
0.33
1.37
3.34
6.01
9.01
12.01
14.67
16.8
18.29
19.16
19.47
19.26
18.59
17.46
15.94
14.1
12.08
9.93
7.65
5.23
2.75
0.44
-1.47
-2.79
-3.51
-3.76
-3.71
-3.41
-2.8
-1.69
0.09
2.52
5.54
8.96
12.64
16.56
20.59
24.51
27.91
30.28
31.15
30.38
28.18
25.1
21.83
18.97
16.86
15.53
14.75
14.16
13.54
12.79
11.97
11.21
10.53
9.81
8.85
7.36
5.19
2.31
-1.16
-5
-8.91
-12.64
-16
-18.81
-21.07
-22.81
-24.21
-25.52
-27
-28.7
-30.43
-31.81
-32.25
-31.31
-28.77
-24.81
-19.97
-14.96
-10.38
-6.58
-3.57
-1.08
1.14
3.27
5.28
7.07
8.52
9.69
10.7
11.71
12.81
13.93
14.97
15.78
16.24
16.31
15.99
15.32
14.33
13.12
11.76
10.33
8.8
7.01
4.76
1.86
-1.71
-5.82
-10.12
-14.21
-17.66
-20.19
-21.74
-22.42
-22.63
-22.87
-23.59
-24.88
-26.48
-27.74
-27.93
-26.55
-23.56
-19.41
-14.83
-10.61
-7.22
-4.84
-3.34
-2.44
-1.87
-1.44
-1.18
-1.22
-1.77
-2.86
-4.32
-5.72
-6.6
-6.65
-5.96
-5.03
-4.42
-4.58
-5.57
-7.07
-8.54
-9.51
-9.75
-9.28
-8.4
-7.48
-6.9
-6.87
-7.32
-7.84
-7.82
-6.64
-3.86
0.54
6.32
13.08
20.49
28.39
36.84
46.17
56.88
69.59
84.62
101.55
118.69
133.02
140.87
138.97
125.83
102.26
71.29
37.08
3.71
-25.77
-49.73
-67.52
-79.1
-84.5
-83.89
-77.73
-67.02
-53.3
-38.29
-23.59
-10.16
1.64
12
21.24
29.44
36.35
41.41
44.15
44.4
42.5
39.19
35.28
31.32
27.51
23.73
19.72
15.33
10.61
5.89
1.48
-2.37
-5.5
-7.83
-9.18
-9.37
-8.25
-5.84
-2.36
1.8
6.14
10.25
13.8
16.68
18.85
20.41
21.49
22.24
22.67
22.63
21.89
20.2
17.59
14.27
10.73
7.61
5.41
4.45
4.72
5.95
7.59
9.06
9.8
9.48
8.02
5.63
2.7
-0.33
-3.1
-5.49
-7.58
-9.61
-11.9
-14.71
-18.2
-22.3
-26.68
-30.83
-34.13
-36
-36.04
-34.18
-30.63
-25.87
-20.5
-15.12
-10.19
-5.99
-2.63
0.03
2.12
3.89
5.52
7.16
8.9
10.68
12.35
13.62
14.27
14.16
13.44
12.38
11.35
10.58
10.04
9.47
8.52
6.9
4.55
1.64
-1.56
-4.77
-7.78
-10.56
-13.08
-15.42
-17.68
-20
-22.44
-25.01
-27.58
-29.82
-31.36
-31.78
-30.88
-28.59
-25.19
-21.15
-16.99
-13.28
-10.39
-8.44
-7.26
-6.53
-5.79
-4.72
-3.15
-1.1
1.24
3.71
6.16
8.54
10.77
12.74
14.24
14.96
14.69
13.4
11.31
8.73
5.93
2.98
-0.22
-3.84
-7.88
-12.08
-16.03
-19.24
-21.47
-22.86
-23.81
-24.79
-26.15
-28.02
-30.28
-32.67
-34.89
-36.66
-37.78
-38.1
-37.51
-35.89
-33.17
-29.32
-24.49
-18.93
-12.98
-7.02
-1.42
3.6
7.91
11.56
14.63
17.26
19.57
21.54
23.06
23.88
23.69
22.17
19.22
14.9
9.53
3.61
-2.19
-7.25
-11.09
-13.5
-14.75
-15.29
-15.75
-16.61
-18.17
-20.34
-22.9
-25.49
-27.79
-29.54
-30.45
-30.32
-29.02
-26.63
-23.34
-19.39
-14.96
-10.15
-4.96
0.6
6.23
11.49
15.91
19.2
21.37
22.71
23.58
24.21
24.67
24.86
24.72
24.29
23.65
23
22.42
21.98
21.68
21.54
21.53
21.7
22.07
22.62
23.45
24.59
25.98
27.28
27.97
27.43
25.3
21.59
16.71
11.37
6.25
1.8
-1.86
-4.83
-7.36
-9.7
-12.01
-14.41
-16.87
-19.19
-20.99
-21.8
-21.34
-19.61
-17.03
-14.21
-11.75
-9.98
-8.95
-8.53
-8.54
-8.98
-9.89
-11.38
-13.42
-15.87
-18.47
-21.09
-23.73
-26.43
-29.16
-31.69
-33.54
-34.12
-32.94
-29.82
-24.98
-19.03
-12.73
-6.85
-1.89
1.99
4.88
7.03
8.7
10.07
11.14
11.94
12.42
12.49
12.03
10.78
8.58
5.45
1.85
-1.49
-3.69
-4.17
-2.81
0
3.54
7.11
10.14
12.33
13.54
13.79
13.15
11.84
10.18
8.44
6.83
5.33
3.93
2.62
1.58
0.99
1.05
1.77
2.96
4.28
5.37
5.99
6.01
5.45
4.36
2.74
0.57
-2.16
-5.37
-8.86
-12.26
-15.2
-17.39
-18.75
-19.44
-19.89
-20.47
-21.46
-22.84
-24.28
-25.27
-25.3
-24.04
-21.48
-17.87
-13.57
-9.03
-4.59
-0.52
3.12
6.31
9.11
11.55
13.56
14.94
15.49
15.14
14.14
13.01
12.38
12.62
13.67
14.98
15.79
15.54
14.16
12.09
10.02
8.46
7.51
6.84
5.94
4.42
2.19
-0.5
-3.29
-5.84
-8.01
-9.89
-11.72
-13.82
-16.32
-19.27
-22.47
-25.61
-28.36
-30.42
-31.55
-31.53
-30.21
-27.41
-23.12
-17.57
-11.27
-4.91
0.85
5.58
9.2
11.89
13.91
15.37
16.16
16.09
15.11
13.49
11.75
10.5
10.12
10.62
11.7
12.91
13.93
14.59
14.92
14.97
14.75
14.2
13.27
11.95
10.25
8.2
5.76
2.91
-0.31
-3.68
-6.92
-9.68
-11.73
-13.06
-13.87
-14.43
-15.08
-16.06
-17.51
-19.49
-21.9
-24.5
-26.83
-28.28
-28.18
-26.06
-21.87
-16.01
-9.33
-2.76
3.01
7.63
11.18
13.88
15.99
17.59
18.74
19.41
19.7
19.74
19.69
19.61
19.45
19.16
18.68
18.07
17.41
16.91
16.66
16.69
16.85
16.84
16.34
15.07
12.99
10.26
7.26
4.32
1.67
-0.59
-2.51
-4.12
-5.45
-6.46
-7.23
-7.98
-9.01
-10.66
-12.99
-15.93
-19.16
-22.33
-25.04
-27
-27.97
-27.7
-25.95
-22.55
-17.58
-11.36
-4.52
2.19
8.13
12.88
16.32
18.57
19.85
20.38
20.36
20.04
19.59
19.21
18.96
18.91
19.03
19.33
19.77
20.31
20.88
21.24
21.19
20.55
19.24
17.3
14.78
11.81
8.51
5.14
1.95
-0.78
-3
-4.88
-6.73
-8.85
-11.28
-13.82
-16.09
-17.89
-19.25
-20.45
-21.87
-23.57
-25.31
-26.44
-26.34
-24.57
-21.12
-16.39
-10.86
-5.13
0.46
5.62
10.23
14.12
17.19
19.34
20.55
20.86
20.41
19.44
18.2
16.98
15.93
15.13
14.56
14.1
13.73
13.47
13.34
13.37
13.47
13.51
13.33
12.85
12.04
10.92
9.44
7.5
5
1.86
-1.82
-5.91
-10.19
-14.45
-18.5
-22.24
-25.5
-28.08
-29.87
-30.81
-31.04
-30.78
-30.15
-29.09
-27.34
-24.58
-20.56
-15.4
-9.5
-3.5
1.93
6.31
9.53
11.84
13.69
15.51
17.46
19.47
21.23
22.41
22.84
22.58
21.87
20.89
19.71
18.27
16.46
14.23
11.66
8.95
6.34
4.06
2.17
0.61
-0.79
-2.27
-4.03
-6.14
-8.51
-10.95
-13.23
-15.22
-16.91
-18.38
-19.77
-21.19
-22.73
-24.47
-26.49
-28.73
-30.92
-32.6
-33.23
-32.38
-29.85
-25.84
-20.81
-15.43
-10.28
-5.78
-2.13
0.62
2.54
3.75
4.42
4.74
4.86
4.9
4.84
4.71
4.55
4.42
4.43
4.53
4.66
4.68
4.51
4.09
3.52
2.92
2.28
1.55
0.61
-0.58
-1.95
-3.41
-4.87
-6.3
-7.66
-8.93
-10.01
-10.93
-11.82
-12.96
-14.6
-16.62
-18.59
-19.73
-19.3
-16.95
-12.9
-7.91
-2.8
1.76
5.58
8.77
11.59
14.1
16.19
17.66
18.36
18.43
18.12
17.8
17.66
17.7
17.68
17.33
16.51
15.2
13.69
12.27
11.23
10.72
10.62
10.66
10.37
9.45
7.63
5.03
1.9
-1.36
-4.37
-6.92
-9
-10.8
-12.58
-14.54
-16.62
-18.52
-19.78
-19.91
-18.6
-15.87
-11.98
-7.41
-2.66
1.87
5.97
9.52
12.5
14.82
16.38
17.1
16.94
16.09
14.9
13.77
12.96
12.53
12.3
12.06
11.61
10.95
10.26
9.69
9.24
8.75
7.95
6.64
4.8
2.52
-0.03
-2.69
-5.35
-7.93
-10.38
-12.62
-14.73
-16.82
-19
-21.29
-23.48
-25.06
-25.41
-24.06
-20.81
-15.84
-9.67
-2.89
3.84
9.99
15.15
19.11
21.76
23.2
23.61
23.22
22.3
21.11
19.91
18.9
18.21
17.73
17.24
16.45
15.16
13.47
11.64
10.02
8.75
7.66
6.42
4.68
2.42
-0.12
-2.48
-4.42
-5.9
-7.18
-8.61
-10.39
-12.55
-14.98
-17.57
-20.21
-22.79
-24.99
-26.37
-26.44
-24.84
-21.54
-16.85
-11.32
-5.56
-0.19
4.45
8.18
10.94
12.82
13.99
14.61
14.85
14.84
14.63
14.26
13.75
13.07
12.19
11.08
9.69
8.12
6.49
4.94
3.62
2.61
1.81
1.17
0.52
-0.28
-1.33
-2.61
-4.07
-5.52
-6.86
-8.04
-9.08
-10.11
-11.36
-12.94
-14.92
-17.23
-19.72
-22.14
-24.29
-25.9
-26.7
-26.35
-24.56
-21.15
-16.27
-10.37
-4.12
1.76
6.8
10.83
13.96
16.4
18.25
19.52
20.14
20.12
19.52
18.57
17.53
16.62
15.93
15.43
15.07
14.79
14.58
14.44
14.37
14.32
14.1
13.55
12.53
11.07
9.36
7.65
6.07
4.65
3.28
1.82
0.2
-1.57
-3.44
-5.35
-7.32
-9.39
-11.58
-13.87
-16.18
-18.38
-20.35
-21.92
-22.88
-22.92
-21.66
-18.89
-14.66
-9.32
-3.49
2.16
7.1
11.12
14.22
16.63
18.5
19.9
20.74
20.97
20.62
19.84
18.96
18.24
17.93
18.15
18.81
19.76
20.73
21.47
21.72
21.4
20.45
18.96
17.08
14.99
12.85
10.73
8.66
6.58
4.46
2.22
-0.13
-2.58
-5.03
-7.3
-9.25
-10.78
-11.97
-12.99
-14.07
-15.31
-16.56
-17.4
-17.34
-16
-13.29
-9.44
-4.91
-0.13
4.54
8.92
12.84
16.14
18.54
19.85
20.02
19.27
18.03
16.72
15.74
15.26
15.3
15.72
16.37
16.96
17.19
16.77
15.46
13.24
10.28
6.88
3.32
-0.19
-3.58
-6.82
-9.82
-12.46
-14.58
-16.13
-17.21
-18.01
-18.75
-19.59
-20.61
-21.75
-22.89
-23.99
-25.01
-25.9
-26.46
-26.39
-25.3
-22.93
-19.28
-14.65
-9.6
-4.69
-0.37
3.23
6.13
8.4
10.04
11
11.18
10.66
9.7
8.66
7.91
7.6
7.67
7.93
8.21
8.44
8.72
9.18
9.84
10.56
10.99
10.77
9.64
7.54
4.64
1.22
-2.37
-5.93
-9.32
-12.53
-15.63
-18.65
-21.66
-24.65
-27.45
-29.75
-31.25
-31.61
-30.67
-28.55
-25.49
-21.78
-17.69
-13.34
-8.81
-4.26
0.09
3.97
7.12
9.4
10.83
11.38
11.02
9.69
7.41
4.44
1.29
-1.47
-3.33
-4.11
-3.98
-3.32
-2.53
-1.79
-1.09
-0.34
0.37
0.84
0.67
-0.41
-2.39
-4.92
-7.44
-9.48
-10.87
-11.78
-12.56
-13.59
-15.01
-16.77
-18.72
-20.67
-22.47
-23.85
-24.49
-23.94
-21.86
-18.21
-13.28
-7.71
-2.22
2.64
6.61
9.7
12.07
13.87
15.08
15.76
15.87
15.57
15.09
14.7
14.58
14.71
15.02
15.29
15.4
15.32
15.07
14.79
14.48
14.11
13.52
12.55
11.07
9.08
6.59
3.78
0.92
-1.78
-4.07
-5.9
-7.34
-8.67
-10.12
-11.88
-13.99
-16.28
-18.62
-20.78
-22.54
-23.65
-23.89
-23.06
-21.1
-18.15
-14.42
-10.26
-5.95
-1.71
2.29
5.89
8.98
11.52
13.59
15.37
17.01
18.64
20.16
21.34
21.91
21.69
20.73
19.24
17.56
15.97
14.68
13.72
12.97
12.2
10.96
8.85
5.59
1.21
-3.86
-8.91
-13.25
-16.5
-18.65
-20.14
-21.49
-23.14
-25.16
-27.32
-29.1
-30
-29.68
-27.98
-25.07
-21.24
-16.97
-12.71
-8.87
-5.74
-3.43
-1.89
-0.86
-0.11
0.63
1.47
2.43
3.5
4.63
5.81
7.01
8.26
9.45
10.55
11.65
12.9
14.51
16.52
18.74
20.67
21.82
21.81
20.68
18.82
16.66
14.47
12.15
9.47
6.1
1.98
-2.76
-7.83
-12.94
-17.98
-22.66
-26.64
-29.26
-29.92
-28.3
-24.75
-20.13
-15.43
-11.5
-8.45
-5.92
-3.29
-0.07
3.8
7.96
11.88
15.19
17.76
19.71
21.27
22.6
23.74
24.66
25.34
25.68
25.73
25.49
25.08
24.56
23.96
23.2
22.08
20.39
17.89
14.6
10.73
6.71
2.93
-0.39
-3.22
-5.75
-8.2
-10.73
-13.39
-16.17
-19.03
-21.88
-24.49
-26.41
-27.12
-26.17
-23.4
-19.05
-13.6
-7.65
-1.65
4.05
9.22
13.6
16.94
19.04
19.86
19.55
18.35
16.64
14.75
13.04
11.82
11.24
11.3
11.7
12.15
12.33
12.25
12.04
11.92
12.02
12.19
12.12
11.38
9.75
7.24
4.13
0.83
-2.3
-4.99
-7.2
-9.05
-10.83
-12.83
-15.27
-18.25
-21.66
-25.19
-28.34
-30.56
-31.3
-30.23
-27.32
-22.82
-17.25
-11.15
-5.06
0.68
5.77
10.13
13.67
16.36
18.17
19.11
19.29
18.87
18.12
17.28
16.61
16.24
16.17
16.3
16.43
16.39
16.13
15.71
15.12
14.42
13.54
12.34
10.76
8.72
6.36
3.83
1.39
-0.81
-2.67
-4.17
-5.45
-6.67
-8.09
-9.96
-12.51
-15.74
-19.45
-23.11
-26.07
-27.73
-27.63
-25.72
-22.18
-17.52
-12.36
-7.35
-3.06
0.11
1.97
2.7
2.58
2.04
1.47
1.06
0.86
0.82
0.99
1.41
2.24
3.44
4.87
6.27
7.43
8.3
8.93
9.44
9.77
9.69
8.9
7.17
4.52
1.2
-2.31
-5.57
-8.28
-10.36
-11.89
-13.02
-13.96
-14.87
-16
-17.48
-19.34
-21.5
-23.61
-25.21
-25.74
-24.84
-22.38
-18.59
-13.94
-8.96
-4.07
0.54
4.8
8.72
12.18
15.01
17.04
18.18
18.57
18.42
17.98
17.44
16.93
16.46
16.03
15.63
15.16
14.62
13.92
13.12
12.22
11.28
10.29
9.15
7.72
5.85
3.51
0.72
-2.41
-5.72
-9.04
-12.21
-15.11
-17.67
-19.93
-22
-24.14
-26.44
-28.89
-31.19
-32.83
-33.26
-32.09
-29.27
-25.05
-19.98
-14.56
-9.27
-4.42
-0.15
3.43
6.28
8.36
9.73
10.48
10.82
10.89
10.81
10.66
10.5
10.39
10.41
10.67
11.14
11.73
12.34
12.8
13.05
13.04
12.73
11.99
10.69
8.74
6.19
3.34
0.5
-1.97
-3.97
-5.54
-6.93
-8.42
-10.21
-12.39
-14.85
-17.49
-20.14
-22.76
-25.32
-27.75
-29.81
-31.06
-30.94
-28.92
-24.93
-19.26
-12.7
-6.19
-0.44
4.22
7.88
10.84
13.48
15.91
18.1
19.82
20.84
21.14
20.87
20.34
19.81
19.47
19.33
19.31
19.32
19.27
19.2
19.16
19.14
19.05
18.73
18.02
16.84
15.18
13.08
10.71
8.16
5.59
3.11
0.78
-1.34
-3.27
-5.02
-6.7
-8.37
-10.15
-12.15
-14.46
-17.04
-19.66
-21.92
-23.26
-23.25
-21.61
-18.39
-13.97
-8.93
-3.86
0.79
4.72
7.91
10.36
12.22
13.53
14.31
14.57
14.34
13.77
13.01
12.27
11.63
11.11
10.68
10.31
10.02
9.85
9.87
10.02
10.18
10.09
9.56
8.55
7.08
5.31
3.35
1.25
-1.02
-3.42
-5.93
-8.4
-10.66
-12.59
-14.11
-15.33
-16.44
-17.75
-19.54
-22.04
-25.27
-28.94
-32.5
-35.16
-36.18
-35.02
-31.65
-26.46
-20.19
-13.7
-7.59
-2.28
2.16
5.79
8.68
10.87
12.33
13.09
13.2
12.84
12.24
11.7
11.58
12.17
13.63
15.95
18.98
22.31
25.58
28.39
30.51
31.81
32.33
32.23
31.7
30.96
29.99
28.61
26.5
23.35
19.14
14.11
8.8
3.68
-0.88
-4.81
-8.23
-11.29
-14.18
-17.03
-19.97
-22.94
-25.69
-27.72
-28.4
-27.19
-23.92
-18.96
-13.05
-7.11
-1.95
2.05
4.81
6.54
7.53
8.04
8.18
8.05
7.72
7.26
6.77
6.32
6.03
5.92
6.07
6.45
7.04
7.78
8.59
9.4
10.11
10.68
11.04
11.13
10.76
9.76
8.03
5.64
2.87
0.05
-2.52
-4.74
-6.7
-8.63
-10.69
-12.93
-15.22
-17.42
-19.42
-21.13
-22.41
-22.93
-22.25
-19.95
-15.81
-10.03
-3.08
4.34
11.57
18.09
23.59
27.86
30.77
32.26
32.39
31.4
29.66
27.62
25.65
24.05
23
22.51
22.54
22.96
23.61
24.28
24.8
25
24.78
24.09
22.85
21
18.41
15.04
10.98
6.47
1.89
-2.41
-6.23
-9.62
-12.73
-15.76
-18.84
-21.94
-24.95
-27.7
-30.05
-31.8
-32.76
-32.65
-31.17
-28.22
-23.91
-18.58
-12.77
-7.06
-1.89
2.49
6.04
8.94
11.37
13.55
15.52
17.18
18.34
18.8
18.47
17.43
15.97
14.47
13.31
12.68
12.47
12.44
12.31
11.86
11.03
9.86
8.37
6.52
4.22
1.47
-1.57
-4.55
-7.16
-9.27
-11.04
-12.75
-14.71
-17.02
-19.49
-21.77
-23.49
-24.32
-24.09
-22.71
-20.12
-16.36
-11.59
-6.18
-0.61
4.59
9.08
12.7
15.5
17.54
18.87
19.43
19.14
18.07
16.52
14.93
13.71
13.13
13.14
13.48
13.84
13.99
13.89
13.57
13.07
12.34
11.3
9.87
8.06
5.96
3.69
1.34
-1.11
-3.74
-6.65
-9.81
-13.14
-16.45
-19.5
-22.16
-24.36
-26.09
-27.33
-27.96
-27.73
-26.43
-23.88
-20.09
-15.3
-9.92
-4.41
0.81
5.46
9.33
12.42
14.76
16.45
17.48
17.83
17.44
16.29
14.51
12.4
10.33
8.66
7.61
7.1
6.85
6.54
5.87
4.83
3.61
2.48
1.57
0.83
-0.05
-1.39
-3.39
-5.97
-8.82
-11.53
-13.83
-15.67
-17.25
-18.81
-20.63
-22.83
-25.38
-28.1
-30.71
-32.82
-33.99
-33.77
-31.81
-28.09
-22.87
-16.78
-10.52
-4.69
0.39
4.65
8.17
11.03
13.16
14.47
14.9
14.53
13.63
12.55
11.57
10.86
10.43
10.18
9.92
9.52
8.88
8.05
7.11
6.19
5.37
4.61
3.68
2.35
0.45
-2.03
-4.81
-7.59
-10.03
-12.07
-13.78
-15.39
-16.98
-18.58
-20.13
-21.62
-23.17
-24.96
-27.04
-29.13
-30.58
-30.52
-28.28
-23.71
-17.37
-10.21
-3.26
2.77
7.67
11.6
14.74
17.12
18.6
19.07
18.59
17.5
16.28
15.29
14.68
14.29
13.95
13.46
12.83
12.07
11.28
10.42
9.51
8.5
7.41
6.25
4.97
3.51
1.8
-0.12
-2.19
-4.19
-6.02
-7.59
-8.95
-10.15
-11.27
-12.4
-13.67
-15.3
-17.36
-19.83
-22.47
-24.85
-26.39
-26.54
-24.85
-21.19
-15.79
-9.27
-2.46
3.73
8.67
12.12
14.19
15.31
15.89
16.18
16.21
15.88
15.21
14.38
13.63
13.21
13.21
13.48
13.75
13.71
13.21
12.23
10.92
9.45
7.98
6.66
5.53
4.59
3.7
2.69
1.37
-0.35
-2.4
-4.6
-6.71
-8.62
-10.36
-12.07
-13.88
-15.89
-18.09
-20.34
-22.53
-24.45
-25.8
-26.17
-25.08
-22.23
-17.58
-11.6
-4.97
1.39
6.79
10.84
13.56
15.21
16.09
16.42
16.24
15.61
14.55
13.29
12.1
11.25
10.9
11.02
11.5
12.13
12.73
13.13
13.16
12.68
11.64
10.1
8.23
6.34
4.64
3.25
2.09
0.96
-0.3
-1.78
-3.42
-5.16
-6.94
-8.78
-10.78
-12.98
-15.41
-18
-20.69
-23.31
-25.65
-27.38
-28.02
-27.1
-24.3
-19.67
-13.63
-6.93
-0.44
5.12
9.37
12.28
14.07
15.04
15.39
15.21
14.51
13.31
11.71
10.02
8.56
7.67
7.52
7.97
8.76
9.51
9.94
9.95
9.67
9.28
8.95
8.66
8.22
7.34
5.78
3.53
0.8
-2.02
-4.48
-6.24
-7.21
-7.63
-7.95
-8.63
-10.08
-12.35
-15.21
-18.16
-20.57
-21.84
-21.56
-19.57
-15.92
-10.99
-5.25
0.67
6.22
10.91
14.47
16.81
18.02
18.32
17.96
17.19
16.22
15.28
14.53
14.17
14.33
15
16.03
17.17
18.14
18.77
19.01
18.93
18.61
18.1
17.3
16.17
14.63
12.68
10.37
7.65
4.49
0.94
-2.75
-6.22
-9.07
-11.14
-12.58
-13.8
-15.32
-17.42
-20.03
-22.64
-24.57
-25.13
-23.95
-21.05
-16.69
-11.41
-5.68
0.03
5.44
10.29
14.46
17.77
20.06
21.34
21.66
21.29
20.53
19.74
19.12
18.71
18.42
17.98
17.27
16.19
14.82
13.3
11.73
10.02
7.98
5.41
2.25
-1.31
-4.92
-8.16
-10.77
-12.67
-14
-15
-15.89
-16.89
-18.14
-19.77
-21.76
-23.98
-26.08
-27.62
-28.1
-27.15
-24.65
-20.72
-15.77
-10.32
-4.93
-0.1
3.86
6.84
8.89
10.11
10.71
10.87
10.73
10.4
9.94
9.42
8.92
8.52
8.33
8.43
8.85
9.44
10.03
10.32
10.14
9.35
7.9
5.79
3.1
-0.02
-3.4
-6.76
-9.9
-12.65
-15.02
-17.07
-18.8
-20.16
-21
-21.12
-20.35
-18.65
-15.96
-12.41
-8.21
-3.67
0.81
4.82
8.08
10.43
11.93
12.7
12.9
12.63
12.04
11.19
10.25
9.38
8.71
8.28
8.07
8.04
8.18
8.55
9.16
9.93
10.68
11.12
11.04
10.32
9.05
7.41
5.66
3.93
2.38
1.11
0.08
-0.73
-1.49
-2.43
-3.72
-5.28
-6.87
-7.89
-7.65
-5.66
-1.75
3.68
9.85
15.79
20.84
24.87
28.37
32.14
36.7
41.81
46.28
48.36
46.39
39.65
28.61
14.77
0.17
-13.12
-23.36
-29.37
-30.74
-28.08
-23
-17.89
-15.16
-16.43
-22.03
-30.87
-41.07
-50.67
-58.3
-63.25
-65.37
-64.81
-61.84
-56.91
-50.66
-43.79
-37
-30.88
-25.77
-21.64
-18.15
-14.66
-10.5
-5.31
0.86
7.51
13.87
19.23
23.13
25.44
26.41
26.36
25.6
24.28
22.47
20.15
17.42
14.47
11.55
8.93
6.74
4.93
3.3
1.72
0.18
-1.12
-1.95
-2.17
-1.87
-1.44
-1.35
-1.94
-3.33
-5.35
-7.66
-9.89
-11.76
-13.02
-13.57
-13.4
-12.69
-11.77
-11.1
-11.1
-11.98
-13.58
-15.3
-16.31
-15.86
-13.51
-9.39
-4.12
1.4
6.3
9.99
12.34
13.55
14.01
14.09
14.02
13.89
13.69
13.42
13.15
12.93
12.77
12.59
12.34
11.94
11.45
11.02
10.78
10.76
10.88
10.94
10.75
10.21
9.29
7.94
6.2
4.05
1.58
-1.01
-3.43
-5.43
-6.93
-8.13
-9.42
-11.12
-13.27
-15.51
-17.19
-17.64
-16.44
-13.57
-9.47
-4.78
-0.16
3.87
7.05
9.38
10.92
11.8
12.14
12.05
11.62
10.98
10.3
9.75
9.48
9.52
9.74
9.96
9.99
9.72
9.23
8.61
7.98
7.33
6.49
5.27
3.53
1.3
-1.16
-3.49
-5.44
-6.93
-8.16
-9.48
-11.15
-13.22
-15.46
-17.32
-18.23
-17.81
-15.95
-12.87
-9
-4.87
-0.93
2.46
5.18
7.2
8.63
9.57
10.11
10.26
9.99
9.28
8.25
7.09
6.07
5.41
5.17
5.3
5.57
5.75
5.61
5.05
4.04
2.61
0.83
-1.26
-3.59
-6.09
-8.57
-10.82
-12.64
-13.97
-14.89
-15.6
-16.23
-16.65
-16.47
-15.17
-12.29
-7.83
-2.21
3.75
9.16
13.3
15.9
17.15
17.53
17.61
17.68
17.82
17.82
17.53
16.81
15.79
14.7
13.68
12.8
11.93
11
10.04
9.19
8.61
8.29
8.03
7.44
6.14
3.95
1.01
-2.31
-5.52
-8.27
-10.44
-12.22
-13.94
-15.85
-18.05
-20.35
-22.36
-23.63
-23.79
-22.71
-20.45
-17.32
-13.67
-9.92
-6.49
-3.63
-1.48
-0
0.96
1.58
1.95
2.09
2.01
1.74
1.42
1.17
1.13
1.27
1.49
1.65
1.68
1.65
1.69
1.94
2.34
2.8
3.03
2.74
1.72
-0.06
-2.48
-5.29
-8.14
-10.8
-13.1
-15.11
-17.04
-19.18
-21.72
-24.62
-27.64
-30.3
-32
-32.25
-30.77
-27.58
-22.98
-17.51
-11.75
-6.23
-1.3
2.9
6.38
9.23
11.53
13.28
14.35
14.73
14.46
13.69
12.63
11.44
10.22
8.98
7.77
6.63
5.74
5.15
4.87
4.68
4.33
3.56
2.25
0.48
-1.6
-3.66
-5.49
-6.91
-7.92
-8.69
-9.5
-10.68
-12.44
-14.8
-17.47
-19.94
-21.53
-21.63
-19.91
-16.38
-11.49
-5.89
-0.31
4.69
8.86
12.22
15.02
17.38
19.4
21
22.17
23
23.66
24.29
24.88
25.23
25.01
24.01
22.22
19.96
17.66
15.69
14.18
12.94
11.73
10.32
8.62
6.68
4.6
2.52
0.51
-1.35
-3.1
-4.81
-6.64
-8.77
-11.24
-13.93
-16.39
-18.05
-18.3
-16.89
-13.91
-9.82
-5.23
-0.67
3.49
7.11
10.2
12.89
15.19
17.04
18.29
18.78
18.41
17.32
15.71
13.91
12.23
10.82
9.69
8.82
8.1
7.56
7.17
6.88
6.6
6.1
5.2
3.8
1.95
-0.26
-2.58
-4.86
-6.89
-8.55
-9.77
-10.63
-11.36
-12.17
-13.37
-15.01
-16.95
-18.73
-19.71
-19.32
-17.26
-13.69
-9.13
-4.33
0.01
3.51
6.09
7.86
9.05
9.81
10.14
10.06
9.61
8.94
8.21
7.55
6.95
6.37
5.74
5.03
4.31
3.7
3.3
3.19
3.24
3.26
3.07
2.53
1.64
0.53
-0.64
-1.82
-2.97
-4.2
-5.57
-6.98
-8.28
-9.28
-9.92
-10.39
-11.01
-12.06
-13.63
-15.46
-17.11
-18.11
-18.1
-16.89
-14.5
-11.14
-7.1
-2.84
1.18
4.53
6.91
8.29
8.9
9.05
9.06
9.15
9.32
9.45
9.43
9.21
8.91
8.67
8.68
8.97
9.45
9.86
9.94
9.53
8.61
7.25
5.62
3.93
2.34
0.97
-0.19
-1.17
-2.02
-2.76
-3.4
-3.92
-4.33
-4.76
-5.33
-6.15
-7.3
-8.74
-10.39
-12.16
-13.88
-15.34
-16.22
-16.18
-14.92
-12.44
-9.01
-5.14
-1.38
1.87
4.41
6.26
7.56
8.54
9.28
9.87
10.24
10.34
10.07
9.43
8.5
7.44
6.45
5.63
5.02
4.53
4.09
3.65
3.25
3
2.94
3.07
3.27
3.41
3.35
2.99
2.32
1.35
0.17
-1.09
-2.24
-3.14
-3.69
-4
-4.28
-4.73
-5.4
-6.04
-6.29
-5.7
-4.06
-1.42
1.81
5.13
8.12
10.52
12.34
13.67
14.65
15.32
15.68
15.76
15.53
15.02
14.11
12.75
10.8
8.32
5.49
2.59
-0.11
-2.53
-4.73
-6.88
-9.04
-11.15
-12.98
-14.38
-15.37
-16.08
-16.71
-17.31
-17.8
-17.99
-17.77
-17.19
-16.45
-15.83
-15.48
-15.42
-15.54
-15.69
-15.71
-15.37
-14.48
-12.82
-10.27
-6.89
-2.96
1.05
4.65
7.4
9.11
9.73
9.46
8.56
7.33
5.96
4.54
3.09
1.52
-0.23
-2.12
-4
-5.6
-6.74
-7.37
-7.67
-7.86
-8.23
-8.89
-9.78
-10.76
-11.67
-12.51
-13.32
-14.29
-15.41
-16.61
-17.74
-18.57
-19.12
-19.51
-19.98
-20.61
-21.29
-21.63
-21.14
-19.39
-16.32
-12.31
-7.99
-4.02
-0.81
1.58
3.32
4.61
5.62
6.37
6.81
6.92
6.81
6.59
6.4
6.29
6.25
6.3
6.47
6.77
7.21
7.72
8.18
8.5
8.57
8.33
7.68
6.6
5.07
3.22
1.19
-0.85
-2.84
-4.84
-7.02
-9.54
-12.37
-15.28
-17.84
-19.58
-20.1
-19.21
-16.89
-13.28
-8.66
-3.33
2.28
7.68
12.32
15.77
17.84
18.64
18.49
17.79
16.92
16.05
15.23
14.49
13.74
13.04
12.4
11.93
11.74
11.89
12.34
12.87
13.17
12.9
11.9
10.2
8.05
5.79
3.66
1.75
-0.02
-1.83
-3.86
-6.16
-8.74
-11.48
-14.23
-16.8
-18.82
-19.81
-19.33
-17.13
-13.28
-8.23
-2.7
2.59
7.06
10.51
12.97
14.56
15.33
15.28
14.35
12.53
10.07
7.38
4.98
3.29
2.46
2.41
2.8
3.25
3.44
3.23
2.61
1.7
0.54
-0.83
-2.43
-4.29
-6.4
-8.75
-11.26
-13.92
-16.63
-19.31
-21.74
-23.67
-24.76
-24.74
-23.47
-20.87
-17.18
-12.73
-8
-3.48
0.41
3.39
5.36
6.36
6.53
6.01
4.92
3.35
1.42
-0.68
-2.72
-4.4
-5.49
-5.85
-5.52
-4.69
-3.64
-2.71
-2.18
-2.26
-3.03
-4.51
-6.68
-9.5
-12.79
-16.21
-19.31
-21.61
-22.85
-23.06
-22.58
-21.81
-21.02
-20.05
-18.46
-15.69
-11.32
-5.29
2.02
10.06
18.19
25.92
32.92
39.07
44.4
49.15
53.75
58.58
63.64
68.24
70.89
69.6
62.85
50.4
33.75
15.72
-0.69
-13.4
-21.82
-26.53
-28.6
-28.88
-27.9
-26.07
-23.86
-21.71
-19.69
-17.37
-14
-9.29
-3.83
0.79
2.81
1.33
-3.05
-8.32
-12.03
-12.29
-8.66
-2.09
5.39
11.59
15.03
15.27
13.01
9.59
6.4
4.36
3.89
5.06
7.78
12.08
17.75
24.18
30.25
34.63
36.43
35.55
32.95
29.93
27.65
26.35
25.4
23.59
19.86
13.82
5.85
-3.07
-11.95
-20.04
-27.03
-32.82
-37.34
-40.44
-41.94
-41.7
-39.68
-36.02
-30.91
-24.66
-17.6
-10.11
-2.63
4.4
10.64
15.77
19.58
21.93
22.75
22.08
20.16
17.4
14.33
11.37
8.82
6.71
4.96
3.46
2.24
1.44
1.22
1.59
2.3
2.98
3.27
3.06
2.48
1.79
1.18
0.59
-0.3
-1.91
-4.47
-7.97
-12.15
-16.62
-21.01
-25
-28.36
-30.78
-31.94
-31.44
-28.99
-24.5
-18.23
-10.85
-3.2
3.79
9.47
13.47
15.83
16.76
16.6
15.72
14.41
13.03
11.87
11.22
11.21
11.79
12.69
13.6
14.39
14.91
15.17
15.21
14.98
14.45
13.51
12.16
10.39
8.29
5.91
3.34
0.74
-1.75
-3.95
-5.8
-7.33
-8.79
-10.34
-12.08
-13.87
-15.26
-15.77
-14.95
-12.72
-9.3
-5.18
-0.9
3.15
6.71
9.75
12.19
13.97
14.91
14.91
13.97
12.28
10.19
8.09
6.29
4.95
4.16
3.9
4.17
4.88
5.85
6.79
7.33
7.18
6.19
4.44
2.16
-0.4
-3.03
-5.63
-8.03
-10.1
-11.72
-12.96
-14.05
-15.32
-17.05
-19.18
-21.32
-22.81
-23.03
-21.52
-18.21
-13.29
-7.21
-0.58
6.06
12.14
17.26
21.05
23.39
24.28
23.87
22.46
20.37
17.97
15.46
12.99
10.6
8.35
6.43
5.05
4.43
4.59
5.4
6.52
7.63
8.45
8.86
8.86
8.44
7.54
6.07
3.98
1.36
-1.58
-4.55
-7.35
-9.86
-12.11
-14.26
-16.47
-18.77
-20.99
-22.75
-23.54
-23.04
-21.09
-17.86
-13.67
-8.95
-4.07
0.69
5.07
8.8
11.55
13.07
13.29
12.48
11.16
9.83
8.85
8.3
8.05
7.88
7.71
7.6
7.75
8.31
9.29
10.45
11.36
11.59
10.82
9.01
6.36
3.19
-0.09
-3.25
-6.11
-8.68
-11.02
-13.29
-15.64
-18.16
-20.83
-23.4
-25.54
-26.81
-26.87
-25.47
-22.54
-18.19
-12.76
-6.79
-0.93
4.16
7.97
10.24
11.05
10.67
9.47
7.79
5.85
3.89
2.16
0.93
0.4
0.58
1.32
2.33
3.25
3.74
3.59
2.74
1.29
-0.56
-2.61
-4.69
-6.69
-8.52
-10.15
-11.58
-12.87
-14.15
-15.63
-17.59
-20.15
-23.27
-26.62
-29.67
-31.71
-32.23
-30.85
-27.48
-22.44
-16.27
-9.71
-3.48
1.87
6.07
9.03
10.86
11.75
11.85
11.38
10.42
9.1
7.53
5.85
4.21
2.76
1.71
1.1
0.94
1.03
1.11
0.97
0.47
-0.36
-1.4
-2.5
-3.61
-4.68
-5.77
-6.87
-7.87
-8.67
-9.16
-9.4
-9.61
-10.08
-11.07
-12.68
-14.7
-16.59
-17.74
-17.51
-15.53
-11.77
-6.5
-0.23
6.47
13.03
19.01
24
27.68
29.82
30.27
29.09
26.59
23.31
19.91
17.04
15.13
14.24
14.11
14.28
14.34
14.07
13.58
13.09
12.83
12.77
12.63
12.07
10.78
8.83
6.48
4.12
2
0.17
-1.57
-3.42
-5.53
-7.96
-10.67
-13.75
-17.25
-21.22
-25.51
-29.76
-33.37
-35.69
-36.2
-34.71
-31.42
-26.88
-21.76
-16.76
-12.39
-8.92
-6.41
-4.71
-3.55
-2.56
-1.31
0.65
3.67
7.86
13.06
18.79
24.41
29.32
33.06
35.47
36.6
36.68
35.93
34.48
32.34
29.5
26.08
22.35
18.8
15.98
14.23
13.58
13.54
13.42
12.47
10.26
6.8
2.56
-1.64
-5.02
-6.82
-6.67
-4.49
-0.56
4.55
10.1
15.3
19.48
22.23
23.54
23.68
23.16
22.4
21.71
21.24
21
20.96
21.1
21.47
22.02
22.58
22.82
22.36
20.87
18.16
14.13
8.78
2.13
-5.65
-14.23
-23.06
-31.47
-38.84
-44.85
-49.54
-53.2
-56.06
-58
-58.45
-56.69
-52.13
-44.69
-34.9
-23.65
-11.86
-0.23
10.89
21.12
29.91
36.41
39.7
39.28
35.42
29.24
22.3
16.12
11.49
8.42
6.34
4.72
3.39
2.7
3.25
5.26
8.42
11.82
14.47
15.62
15.18
13.58
11.47
9.35
7.31
5.14
2.5
-0.7
-4.24
-7.84
-11.2
-14.29
-17.32
-20.64
-24.45
-28.74
-33.13
-36.97
-39.56
-40.23
-38.7
-35.05
-29.89
-24.14
-18.8
-14.66
-12.09
-10.95
-10.76
-11.03
-11.23
-11.14
-10.68
-9.87
-8.8
-7.63
-6.56
-5.83
-5.6
-5.78
-6.1
-6.18
-5.77
-4.88
-3.84
-3.11
-3.06
-3.82
-5.14
-6.66
-8.03
-9.1
-10
-11.05
-12.6
-14.85
-17.84
-21.38
-25.15
-28.79
-31.95
-34.38
-35.83
-36.06
-34.77
-31.76
-27.05
-20.96
-14.09
-7.09
-0.45
5.59
11.01
15.86
20.11
23.54
25.93
27.08
26.99
25.76
23.72
21.42
19.77
19.87
22.65
28.46
36.6
45.45
52.93
57.22
57.33
53.35
46.3
37.6
28.46
19.36
9.93
-0.7
-13.21
-27.4
-41.95
-54.75
-63.65
-67.32
-65.65
-59.66
-50.75
-40.22
-28.9
-17.37
-6.24
3.7
11.6
16.97
19.84
20.84
20.79
20.52
20.47
20.73
21.01
20.92
20.11
18.5
16.39
14.26
12.6
11.71
11.54
11.67
11.63
11.02
9.69
7.76
5.53
3.26
1.06
-1.04
-3.11
-5.21
-7.37
-9.63
-12.08
-14.74
-17.57
-20.3
-22.52
-23.68
-23.32
-21.21
-17.45
-12.43
-6.78
-1.22
3.67
7.5
10.22
12.01
13.14
13.83
14.1
13.79
12.74
10.98
8.82
6.78
5.37
4.87
5.19
6.02
6.95
7.71
8.22
8.51
8.61
8.44
7.81
6.52
4.55
2.05
-0.65
-3.26
-5.57
-7.53
-9.22
-10.77
-12.36
-14.11
-16.12
-18.33
-20.54
-22.34
-23.15
-22.41
-19.8
-15.37
-9.59
-3.18
3.18
9.05
14.2
18.62
22.38
25.52
28.1
30.14
31.71
32.9
33.78
34.34
34.43
33.86
32.39
29.93
26.42
21.99
16.84
11.27
5.6
0.12
-4.93
-9.43
-13.28
-16.48
-19.08
-21.12
-22.68
-23.74
-24.29
-24.29
-23.81
-22.98
-22.06
-21.45
-21.5
-22.42
-24.07
-26.04
-27.63
-28.09
-26.9
-23.84
-19.17
-13.47
-7.43
-1.63
3.54
7.9
11.46
14.25
16.37
17.84
18.7
18.95
18.69
18.04
17.17
16.34
15.73
15.48
15.55
15.85
16.2
16.42
16.5
16.44
16.3
15.98
15.29
13.91
11.64
8.54
4.81
0.97
-2.54
-5.44
-7.73
-9.6
-11.31
-13.06
-14.9
-16.85
-18.81
-20.71
-22.41
-23.67
-24.17
-23.57
-21.66
-18.4
-14.05
-9
-3.84
0.94
5.03
8.33
10.97
13.16
15.06
16.69
17.94
18.69
18.9
18.74
18.47
18.32
18.39
18.62
18.83
18.9
18.81
18.63
18.54
18.58
18.71
18.8
18.64
18.1
17.16
15.88
14.4
12.85
11.27
9.69
8.04
6.31
4.5
2.62
0.63
-1.6
-4.1
-6.82
-9.44
-11.46
-12.25
-11.33
-8.56
-4.24
0.93
6.19
10.87
14.63
17.4
19.31
20.53
21.14
21.22
20.74
19.77
18.33
16.49
14.38
12.22
10.25
8.72
7.86
7.63
7.85
8.25
8.62
8.84
8.92
8.88
8.62
8.06
6.99
5.31
3.06
0.3
-2.85
-6.4
-10.33
-14.68
-19.3
-24.03
-28.66
-33.02
-37.09
-40.85
-44.31
-47.24
-49.24
-49.75
-48.32
-44.77
-39.38
-32.79
-25.78
-19.06
-13.11
-8.12
-4.14
-1.13
0.99
2.35
3.11
3.55
3.92
4.41
5.13
6.03
7
7.98
8.9
9.74
10.51
11.2
11.78
12.11
11.98
11.17
9.53
7.13
4.3
1.49
-0.88
-2.52
-3.44
-3.85
-4.06
-4.43
-5.2
-6.5
-8.25
-10.13
-11.6
-12.04
-11.05
-8.55
-4.96
-0.96
2.72
5.58
7.45
8.47
8.97
9.23
9.43
9.63
9.76
9.75
9.49
9
8.41
7.91
7.67
7.75
8.08
8.47
8.85
9.19
9.59
10.09
10.53
10.61
10.02
8.59
6.5
4.11
1.86
0
-1.46
-2.72
-3.99
-5.39
-6.93
-8.58
-10.27
-12.02
-13.72
-15.21
-16.15
-16.18
-15.06
-12.8
-9.61
-5.84
-1.96
1.69
4.84
7.34
9.14
10.28
10.85
11
10.93
10.79
10.67
10.63
10.72
10.99
11.43
11.95
12.38
12.56
12.39
11.93
11.32
10.73
10.26
9.84
9.21
8.11
6.35
3.97
1.2
-1.63
-4.24
-6.46
-8.24
-9.67
-10.94
-12.19
-13.53
-15
-16.41
-17.54
-18.01
-17.47
-15.73
-12.88
-9.26
-5.39
-1.82
1.11
3.29
4.87
6.12
7.21
8.17
8.8
8.94
8.53
7.78
7.05
6.66
6.73
7.12
7.6
7.95
8.23
8.58
9.16
9.91
10.55
10.71
10.13
8.82
7.04
5.12
3.34
1.7
0.08
-1.62
-3.35
-4.96
-6.31
-7.45
-8.68
-10.36
-12.72
-15.55
-18.26
-20.03
-20.18
-18.53
-15.45
-11.63
-7.77
-4.32
-1.32
1.39
4.01
6.61
9.03
11.06
12.46
13.22
13.51
13.57
13.61
13.73
13.97
14.33
14.86
15.56
16.44
17.44
18.42
19.2
19.71
19.93
19.93
19.83
19.64
19.25
18.55
17.4
15.78
13.76
11.51
9.2
7
4.96
3.08
1.27
-0.61
-2.67
-5.01
-7.49
-9.83
-11.51
-12.07
-11.16
-8.78
-5.3
-1.35
2.39
5.37
7.4
8.62
9.35
9.99
10.78
11.71
12.64
13.35
13.75
13.8
13.61
13.28
12.87
12.4
11.85
11.25
10.61
9.98
9.3
8.42
7.2
5.47
3.23
0.58
-2.27
-5.09
-7.72
-10.17
-12.43
-14.53
-16.5
-18.36
-20.19
-22.08
-24.06
-25.96
-27.44
-27.96
-27.05
-24.58
-20.76
-16.18
-11.56
-7.5
-4.29
-1.96
-0.31
0.74
1.26
1.21
0.61
-0.41
-1.62
-2.74
-3.49
-3.72
-3.49
-2.98
-2.4
-1.93
-1.63
-1.43
-1.22
-0.94
-0.66
-0.59
-0.97
-1.86
-3.2
-4.7
-6.04
-7.08
-7.9
-8.76
-9.88
-11.34
-12.97
-14.62
-16.22
-17.89
-19.91
-22.45
-25.35
-28.04
-29.72
-29.66
-27.55
-23.59
-18.43
-12.86
-7.62
-3.18
0.24
2.65
4.17
4.98
5.35
5.57
5.92
6.58
7.54
8.55
9.37
9.72
9.57
9.07
8.43
7.84
7.33
6.76
5.91
4.61
2.79
0.47
-2.27
-5.38
-8.81
-12.52
-16.3
-19.91
-22.95
-25.13
-26.27
-26.37
-25.63
-24.33
-22.71
-20.89
-19
-17.12
-15.51
-14.4
-13.97
-14.24
-14.92
-15.51
-15.37
-14.1
-11.54
-7.94
-3.77
0.47
4.34
7.65
10.33
12.51
14.26
15.67
16.75
17.45
17.77
17.77
17.6
17.37
17.17
16.96
16.63
16.11
15.34
14.42
13.51
12.78
12.22
11.74
11.18
10.45
9.55
8.53
7.5
6.5
5.5
4.36
2.99
1.31
-0.66
-2.76
-4.8
-6.59
-8.05
-9.27
-10.45
-11.7
-12.96
-13.95
-14.18
-13.22
-10.82
-7.1
-2.59
1.97
5.83
8.49
9.73
9.79
9.11
8.31
7.91
8.23
9.29
10.92
12.85
14.75
16.45
17.82
18.83
19.51
19.9
20.05
19.98
19.79
19.62
19.67
20.02
20.68
21.45
22.08
22.36
22.19
21.65
20.91
20.18
19.49
18.74
17.81
16.56
15.02
13.26
11.38
9.4
7.23
4.8
1.98
-1.15
-4.39
-7.31
-9.45
-10.46
-10.12
-8.51
-5.89
-2.72
0.5
3.3
5.37
6.58
6.91
6.47
5.42
3.89
2.04
-0.03
-2.23
-4.5
-6.75
-8.87
-10.72
-12.09
-12.9
-13.08
-12.76
-12.1
-11.34
-10.58
-9.86
-9.17
-8.53
-8.09
-7.99
-8.44
-9.42
-10.81
-12.38
-13.91
-15.27
-16.43
-17.49
-18.57
-19.83
-21.37
-23.22
-25.27
-27.24
-28.78
-29.54
-29.31
-27.97
-25.6
-22.4
-18.63
-14.63
-10.74
-7.28
-4.43
-2.15
-0.25
1.5
3.2
4.81
6.17
7.22
7.98
8.63
9.41
10.42
11.67
13.09
14.56
15.97
17.22
18.05
18.17
17.35
15.52
12.9
9.93
7.07
4.64
2.73
1.19
-0.2
-1.65
-3.18
-4.74
-6.2
-7.46
-8.51
-9.41
-10.35
-11.47
-12.92
-14.62
-16.39
-17.86
-18.62
-18.34
-16.8
-14.02
-10.19
-5.68
-0.96
3.54
7.42
10.49
12.62
13.93
14.6
14.91
15.11
15.36
15.69
16
16.12
15.88
15.25
14.36
13.46
12.81
12.48
12.39
12.28
11.9
11.16
10.14
9.02
7.9
6.82
5.69
4.44
3.11
1.83
0.73
-0.2
-1.11
-2.34
-4.23
-7.07
-10.96
-15.85
-21.51
-27.55
-33.48
-38.63
-42.3
-43.86
-42.89
-39.38
-33.69
-26.5
-18.67
-11.01
-4.16
1.49
5.79
8.75
10.56
11.48
11.82
11.96
12.23
12.87
13.95
15.39
17
18.5
19.64
20.26
20.34
19.93
19.11
17.93
16.4
14.54
12.42
10.24
8.22
6.5
4.95
3.22
0.85
-2.41
-6.47
-10.85
-14.77
-17.56
-18.86
-18.82
-17.86
-16.59
-15.56
-15.14
-15.56
-16.78
-18.57
-20.45
-21.74
-21.81
-20.23
-17.03
-12.6
-7.62
-2.82
1.2
4.15
6.08
7.28
8.17
9.05
10.2
11.61
13.12
14.46
15.49
16.21
16.77
17.37
18.05
18.75
19.29
19.49
19.26
18.63
17.68
16.46
15.06
13.49
11.8
10.12
8.55
7.25
6.25
5.52
4.92
4.41
4
3.8
3.91
4.26
4.61
4.59
3.9
2.44
0.48
-1.44
-2.74
-2.98
-2.02
0
2.73
5.81
8.82
11.48
13.57
15.05
15.98
16.53
16.87
17.04
17.02
16.76
16.31
15.76
15.37
15.32
15.61
16.1
16.54
16.8
16.86
16.97
17.34
18.14
19.39
20.87
22.28
23.24
23.6
23.37
22.83
22.4
22.47
23.23
24.51
25.93
27.05
27.73
28.19
28.85
30.17
32.36
35.41
39.2
43.87
49.69
56.9
65.31
73.96
81.42
86.15
87.22
84.41
78.18
69.08
57.34
42.87
25.58
5.94
-14.87
-34.94
-52.21
-64.98
-72.32
-74.19
-71.17
-64.13
-53.95
-41.48
-27.57
-13.24
0.25
11.46
19.12
22.59
22.08
18.68
13.9
9.04
4.88
1.34
-2.06
-5.88
-10.3
-15.08
-19.75
-23.92
-27.41
-30.24
-32.47
-33.88
-34.06
-32.55
-29.2
-24.39
-19.03
-14.23
-10.91
-9.51
-9.82
-11.22
-12.97
-14.51
-15.63
-16.38
-16.97
-17.6
-18.39
-19.26
-20.01
-20.26
-19.5
-17.15
-12.72
-6.03
2.55
11.94
20.58
26.76
29.18
27.42
21.91
13.85
4.61
-4.73
-13.55
-21.74
-29.5
-37.03
-44.39
-51.45
-57.82
-63.07
-66.83
-68.87
-69.15
-67.78
-64.87
-60.46
-54.58
-47.31
-39.02
-30.39
-22.29
-15.57
-10.71
-7.7
-6.07
-5.12
-4.2
-2.92
-1.24
0.68
2.55
4.17
5.46
6.48
7.34
8.11
8.71
8.94
8.61
7.49
5.56
2.93
-0.16
-3.41
-6.54
-9.39
-11.92
-14.25
-16.58
-19.14
-22.02
-25.12
-28.1
-30.45
-31.57
-31.02
-28.62
-24.58
-19.34
-13.58
-7.96
-2.98
1.09
4.23
6.62
8.44
9.81
10.78
11.36
11.56
11.51
11.36
11.24
11.1
10.74
9.95
8.65
6.99
5.31
3.99
3.19
2.77
2.33
1.42
-0.22
-2.6
-5.45
-8.48
-11.44
-14.25
-16.95
-19.57
-22.1
-24.51
-26.83
-29.11
-31.39
-33.5
-35.08
-35.53
-34.22
-30.85
-25.53
-18.9
-11.76
-4.93
0.97
5.67
9.08
11.35
12.63
13.14
13.09
12.71
12.21
11.65
11.09
10.46
9.8
9.18
8.7
8.42
8.27
8.11
7.71
7.01
5.95
4.6
3.02
1.27
-0.65
-2.79
-5.1
-7.51
-9.85
-12.05
-14.06
-16.03
-18.2
-20.73
-23.68
-26.6
-28.87
-29.66
-28.41
-25.01
-19.84
-13.64
-7.12
-0.89
4.83
9.84
14.08
17.36
19.53
20.57
20.63
20.05
19.09
17.96
16.7
15.34
13.91
12.48
11.19
10.05
9.08
8.18
7.32
6.4
5.4
4.24
2.78
1.01
-1.05
-3.2
-5.28
-7.16
-8.89
-10.59
-12.38
-14.4
-16.63
-18.99
-21.17
-22.85
-23.53
-22.68
-20.03
-15.57
-9.89
-3.77
1.84
6.37
9.61
11.76
13.2
14.24
15.07
15.63
15.85
15.64
15.08
14.28
13.43
12.67
12.06
11.69
11.54
11.55
11.55
11.35
10.78
9.73
8.17
6.03
3.36
0.23
-3.18
-6.62
-9.74
-12.26
-14.01
-15.02
-15.54
-15.96
-16.63
-17.65
-18.81
-19.49
-18.98
-16.76
-12.69
-7.2
-1.08
4.8
9.82
13.82
16.95
19.52
21.69
23.43
24.53
24.81
24.2
22.91
21.31
19.75
18.52
17.66
17.03
16.42
15.6
14.38
12.59
10.09
6.87
3.09
-0.89
-4.67
-7.89
-10.46
-12.51
-14.31
-16.04
-17.67
-18.97
-19.6
-19.42
-18.55
-17.57
-17.29
-18.46
-21.51
-26.18
-31.5
-36
-38.27
-37.3
-32.98
-25.94
-17.21
-7.9
1.23
9.78
17.54
24.32
29.88
33.87
36.08
36.48
35.33
33.08
30.3
27.51
25.02
22.9
21.04
19.29
17.58
15.91
14.48
13.37
12.56
11.74
10.53
8.58
5.78
2.33
-1.42
-5.04
-8.26
-11.03
-13.49
-15.78
-18.03
-20.26
-22.43
-24.55
-26.58
-28.54
-30.41
-32
-32.99
-32.9
-31.28
-27.82
-22.55
-15.89
-8.58
-1.48
4.68
9.42
12.62
14.36
14.88
14.38
13.15
11.49
9.87
8.72
8.38
8.92
10.11
11.57
12.9
13.83
14.26
14.15
13.52
12.32
10.53
8.28
5.79
3.38
1.33
-0.23
-1.42
-2.47
-3.7
-5.34
-7.43
-9.91
-12.6
-15.38
-18.12
-20.79
-23.35
-25.85
-28.23
-30.35
-31.92
-32.54
-31.76
-29.24
-24.92
-19.08
-12.33
-5.46
0.77
5.75
9.3
11.53
12.82
13.53
13.92
13.98
13.62
12.79
11.59
10.34
9.3
8.58
8.13
7.8
7.5
7.26
7.19
7.32
7.5
7.45
6.9
5.8
4.3
2.67
1.09
-0.49
-2.24
-4.36
-6.93
-9.85
-12.83
-15.68
-18.25
-20.47
-22.32
-23.74
-24.62
-24.86
-24.48
-23.57
-22.25
-20.54
-18.31
-15.31
-11.31
-6.33
-0.65
5.14
10.36
14.52
17.4
19.03
19.61
19.46
18.88
18.19
17.69
17.66
18.24
19.41
21.02
22.68
24.08
24.97
25.29
25.21
25.09
25.32
26.16
27.61
29.22
30.37
30.41
29.04
26.43
23.23
20.19
17.79
16
14.29
11.94
8.5
4.06
-0.75
-5.1
-8.22
-9.82
-9.92
-8.75
-6.34
-2.5
3.04
10.23
18.34
26.06
31.75
34.15
32.76
28.12
21.49
14.34
7.91
2.87
-0.6
-2.74
-3.77
-3.92
-3.31
-2.09
-0.52
1.03
2.06
2.17
1.01
-1.39
-4.68
-8.33
-11.84
-14.88
-17.44
-19.8
-22.27
-25.14
-28.48
-32.11
-35.81
-39.32
-42.56
-45.37
-47.62
-49.02
-49.21
-47.89
-44.98
-40.67
-35.37
-29.63
-23.98
-18.84
-14.48
-11
-8.38
-6.48
-5.15
-4.24
-3.64
-3.31
-3.15
-3.01
-2.64
-1.87
-0.63
0.96
2.68
4.27
5.61
6.7
7.54
8.15
8.38
8.05
6.99
5.12
2.55
-0.48
-3.61
-6.49
-8.79
-10.33
-11.11
-11.23
-11.02
-10.85
-11.04
-11.76
-12.94
-14.14
-14.79
-14.33
-12.35
-8.88
-4.31
0.71
5.55
9.75
13.17
15.76
17.51
18.38
18.3
17.23
15.31
12.76
9.83
6.75
3.58
0.3
-3.06
-6.33
-9.17
-11.1
-11.71
-10.77
-8.36
-4.92
-1.15
2.27
4.92
6.69
7.84
8.72
9.64
10.66
11.53
11.84
11.2
9.35
6.32
2.42
-1.86
-6.01
-9.61
-12.4
-14.24
-15.02
-14.68
-13.19
-10.7
-7.65
-4.64
-2.35
-1.07
-0.68
-0.57
-0.01
1.46
3.87
6.72
9.3
11.02
11.67
11.4
10.64
9.81
9.15
8.72
8.34
7.79
6.84
5.38
3.47
1.37
-0.53
-1.82
-2.21
-1.76
-0.8
0.13
0.51
0.07
-1.14
-2.68
-4.02
-4.68
-4.51
-3.61
-2.3
-0.94
0.15
0.73
0.72
0.32
-0.07
0.11
1.45
4.27
8.55
13.9
19.66
25.2
30.13
34.35
37.98
41.24
44.17
46.69
48.69
49.98
50.57
50.5
49.91
48.95
47.76
46.44
45.06
43.73
42.54
41.58
40.77
39.98
39.03
37.65
35.58
32.55
28.41
23.15
17.11
10.96
5.51
1.55
-0.66
-1.38
-1.38
-1.5
-2.35
-3.93
-5.92
-7.93
-9.84
-11.87
-14.38
-17.45
-20.66
-23.22
-24.27
-23.33
-20.63
-16.87
-12.97
-9.6
-6.99
-4.98
-3.29
-1.79
-0.55
0.12
0.01
-1.05
-2.98
-5.55
-8.41
-11.11
-13.21
-14.32
-14.35
-13.39
-11.89
-10.38
-9.39
-9.24
-9.95
-11.35
-13.12
-15.1
-17.26
-19.68
-22.44
-25.43
-28.39
-30.96
-32.86
-33.99
-34.53
-34.75
-34.86
-34.92
-34.89
-34.84
-35.02
-35.89
-37.75
-40.54
-43.53
-45.46
-44.92
-40.85
-33.01
-22.1
-9.5
3.11
14.31
23.32
30.07
34.97
38.61
41.38
43.36
44.43
44.42
43.26
41.05
38.02
34.37
30.24
25.74
20.94
15.95
10.91
6.06
1.73
-1.8
-4.3
-5.81
-6.52
-6.81
-7.07
-7.49
-7.99
-8.34
-8.28
-7.73
-6.87
-5.99
-5.39
-5.25
-5.62
-6.46
-7.66
-9.13
-10.76
-12.44
-13.97
-15.02
-15.2
-14.1
-11.49
-7.41
-2.25
3.38
8.75
13.34
16.95
19.62
21.6
23.06
24.06
24.58
24.67
24.46
24.24
24.29
24.82
25.84
27.17
28.47
29.37
29.67
29.34
28.61
27.87
27.47
27.63
28.3
29.24
30
30.27
29.86
28.84
27.45
25.9
24.33
22.59
20.19
16.51
11.02
3.54
-5.47
-15.08
-24
-30.77
-34.25
-33.74
-29.2
-21.26
-11.15
-0.35
9.67
17.91
24.02
28.18
30.81
32.28
32.6
31.41
28.27
22.97
15.7
7.1
-2.01
-10.78
-18.53
-24.92
-29.84
-33.38
-35.81
-37.44
-38.61
-39.68
-40.83
-42.07
-43.18
-43.74
-43.31
-41.61
-38.7
-34.9
-30.84
-27.15
-24.31
-22.5
-21.52
-20.89
-19.97
-18.14
-14.87
-9.98
-3.7
3.37
10.28
16.17
20.46
23.02
24.01
23.81
22.72
20.9
18.45
15.42
12.04
8.59
5.39
2.54
0.05
-2.16
-4.16
-5.89
-7.33
-8.51
-9.62
-10.9
-12.58
-14.76
-17.31
-20.02
-22.62
-24.99
-27.09
-29.06
-31.01
-32.97
-34.74
-35.96
-36.24
-35.19
-32.68
-28.84
-24.11
-19.03
-14.23
-10.16
-7.07
-4.96
-3.57
-2.51
-1.37
0.06
1.79
3.52
4.89
5.6
5.51
4.76
3.66
2.58
1.74
1.27
1.14
1.35
1.89
2.71
3.72
4.69
5.29
5.21
4.31
2.69
0.72
-1.23
-2.96
-4.5
-6.15
-8.22
-10.96
-14.27
-17.76
-20.82
-22.75
-23.03
-21.34
-17.78
-12.77
-7.05
-1.27
4.03
8.67
12.72
16.39
19.92
23.33
26.59
29.55
32.1
34.17
35.82
37.17
38.49
40.06
42.14
44.85
48.05
51.35
54.17
55.82
55.81
53.86
49.99
44.34
37.15
28.62
18.93
8.33
-2.81
-13.78
-23.8
-32.02
-37.85
-41
-41.62
-40.13
-37.06
-32.96
-28.12
-22.79
-17.09
-11.14
-5.03
1.09
7.07
12.72
17.77
22.05
25.4
27.79
29.27
29.91
29.65
28.44
26.25
23.2
19.71
16.26
13.29
10.99
9.26
7.74
6.05
4.01
1.64
-0.83
-3.19
-5.18
-6.73
-7.81
-8.47
-8.74
-8.67
-8.3
-7.62
-6.7
-5.56
-4.25
-2.9
-1.57
-0.45
0.28
0.33
-0.5
-2.36
-5.1
-8.21
-10.97
-12.54
-12.34
-10.23
-6.65
-2.35
1.8
5.17
7.53
9.01
9.9
10.48
10.8
10.7
9.94
8.28
5.74
2.6
-0.64
-3.46
-5.43
-6.5
-6.86
-6.9
-7.05
-7.56
-8.43
-9.61
-10.97
-12.45
-14.1
-15.86
-17.66
-19.33
-20.73
-21.69
-22.21
-22.28
-21.99
-21.51
-20.98
-20.61
-20.51
-20.62
-20.59
-19.98
-18.3
-15.28
-11.07
-6.08
-0.93
3.79
7.71
10.69
12.71
13.82
14.05
13.37
11.79
9.42
6.57
3.62
0.97
-1.1
-2.51
-3.3
-3.62
-3.68
-3.72
-3.93
-4.5
-5.51
-6.92
-8.62
-10.44
-12.3
-14.15
-15.99
-17.71
-19.15
-20.14
-20.52
-20.25
-19.43
-18.25
-16.88
-15.47
-14.21
-13.34
-13.21
-14.03
-15.91
-18.6
-21.65
-24.5
-26.62
-27.77
-27.85
-26.83
-24.63
-21.27
-16.8
-11.54
-5.97
-0.58
4.26
8.49
12.22
15.65
18.77
21.38
23.22
24.14
24.26
23.93
23.65
23.76
24.36
25.28
26.15
26.57
26.24
25.06
23.14
20.75
18.13
15.47
12.91
10.48
8.22
6.09
4.05
1.99
-0.23
-2.71
-5.46
-8.35
-11.27
-14.14
-17.03
-20.14
-23.67
-27.74
-32.21
-36.64
-40.36
-42.66
-43.01
-41.19
-37.44
-32.28
-26.4
-20.35
-14.44
-8.73
-3.11
2.42
7.7
12.37
16.07
18.6
20.12
21.01
21.77
22.72
23.97
25.36
26.67
27.73
28.45
28.91
29.15
29.14
28.79
27.99
26.66
24.78
22.47
19.81
16.93
13.92
10.89
8
5.35
3.01
0.9
-1.14
-3.28
-5.66
-8.38
-11.41
-14.74
-18.34
-22.12
-25.79
-28.81
-30.47
-30.14
-27.57
-23.07
-17.35
-11.27
-5.53
-0.46
3.86
7.53
10.5
12.68
13.88
14.14
13.73
13.11
12.65
12.52
12.61
12.62
12.35
11.65
10.62
9.37
7.99
6.44
4.66
2.57
0.17
-2.44
-5.27
-8.26
-11.4
-14.64
-17.87
-20.92
-23.73
-26.35
-28.93
-31.79
-35.24
-39.42
-44.23
-49.21
-53.61
-56.49
-56.99
-54.44
-48.65
-39.9
-28.97
-16.96
-5.04
5.78
14.91
22.17
27.77
32.05
35.3
37.62
38.96
39.28
38.71
37.57
36.28
35.13
34.21
33.38
32.39
31.02
29.28
27.32
25.41
23.78
22.56
21.61
20.64
19.32
17.4
14.82
11.67
8.15
4.45
0.7
-3.08
-6.8
-10.42
-13.91
-17.29
-20.7
-24.29
-28.08
-31.89
-35.24
-37.48
-37.99
-36.37
-32.64
-27.21
-20.67
-13.59
-6.38
0.73
7.65
14.26
20.39
25.86
30.54
34.3
37.14
39
39.72
39.2
37.34
34.28
30.33
25.91
21.39
17.07
13.07
9.39
6.12
3.34
1.15
-0.42
-1.49
-2.38
-3.46
-5.04
-7.22
-9.87
-12.73
-15.48
-17.89
-19.87
-21.57
-23.16
-24.95
-27.16
-29.88
-33.02
-36.22
-38.89
-40.35
-40.05
-37.62
-33.08
-26.84
-19.5
-11.84
-4.48
2.13
7.73
12.25
15.76
18.43
20.45
22.05
23.33
24.35
25.05
25.36
25.26
24.89
24.45
24.1
23.95
23.86
23.63
23.07
22.1
20.81
19.29
17.62
15.75
13.6
11.1
8.29
5.36
2.48
-0.18
-2.67
-5.16
-7.86
-10.87
-14.13
-17.48
-20.7
-23.75
-26.7
-29.75
-32.99
-36.19
-38.82
-40.14
-39.47
-36.45
-31.15
-24.09
-16.11
-8.11
-0.9
4.99
9.39
12.4
14.31
15.43
16.04
16.32
16.34
16.19
15.95
15.78
15.78
15.99
16.45
17.14
18.07
19.21
20.45
21.56
22.32
22.51
21.98
20.69
18.66
15.98
12.71
8.98
4.96
0.86
-3.06
-6.62
-9.75
-12.46
-14.81
-16.9
-18.73
-20.29
-21.64
-22.92
-24.43
-26.36
-28.76
-31.26
-33.15
-33.58
-31.9
-27.93
-22.02
-14.91
-7.46
-0.4
5.86
11.15
15.47
18.8
21.13
22.46
22.84
22.45
21.57
20.48
19.44
18.61
18.04
17.73
17.7
18
18.76
19.98
21.53
23.05
23.99
23.87
22.38
19.54
15.66
11.26
6.84
2.71
-0.96
-4.22
-7.04
-9.41
-11.25
-12.58
-13.51
-14.31
-15.28
-16.66
-18.62
-21.11
-23.93
-26.71
-28.96
-30.1
-29.55
-26.99
-22.43
-16.36
-9.53
-2.84
2.99
7.51
10.63
12.5
13.4
13.64
13.44
12.93
12.15
11.15
10.03
8.95
8.06
7.37
6.85
6.31
5.6
4.73
3.84
3.13
2.69
2.38
1.84
0.71
-1.27
-4.04
-7.31
-10.62
-13.51
-15.65
-16.87
-17.18
-16.75
-15.92
-15.08
-14.62
-14.73
-15.33
-16.03
-16.26
-15.43
-13.11
-9.23
-4.04
2.01
8.32
14.37
19.76
24.17
27.42
29.47
30.26
29.87
28.49
26.36
23.8
21.16
18.72
16.68
15.1
13.96
13.19
12.72
12.43
12.21
11.85
11.22
10.18
8.72
6.85
4.56
1.84
-1.31
-4.83
-8.47
-11.98
-15.08
-17.67
-19.92
-22.17
-24.76
-27.82
-31.12
-34.06
-35.89
-35.93
-33.82
-29.63
-23.8
-16.98
-9.87
-3.04
3.15
8.46
12.8
16.09
18.33
19.54
19.79
19.25
18.11
16.63
15.07
13.59
12.3
11.24
10.37
9.64
8.99
8.4
7.88
7.35
6.7
5.76
4.35
2.36
-0.24
-3.38
-6.9
-10.55
-14.14
-17.49
-20.52
-23.26
-25.92
-28.72
-31.91
-35.54
-39.27
-42.46
-44.26
-43.86
-40.88
-35.49
-28.31
-20.34
-12.61
-5.92
-0.79
2.64
4.53
5.15
4.87
4.04
2.91
1.66
0.41
-0.71
-1.5
-1.78
-1.44
-0.59
0.5
1.41
1.84
1.69
1.12
0.45
-0.09
-0.55
-1.25
-2.63
-5.03
-8.38
-12.26
-15.95
-18.79
-20.38
-20.87
-20.78
-20.76
-21.39
-22.81
-24.85
-27.07
-28.94
-29.88
-29.42
-27.16
-22.88
-16.7
-9.06
-0.75
7.33
14.34
19.89
23.97
26.91
29.11
30.82
32.06
32.67
32.53
31.72
30.56
29.49
28.86
28.77
29.05
29.45
29.72
29.75
29.56
29.19
28.59
27.68
26.35
24.49
22.08
19.17
15.86
12.24
8.44
4.65
1.07
-2.01
-4.41
-6.09
-7.24
-8.21
-9.4
-11.09
-13.16
-15.19
-16.48
-16.38
-14.43
-10.58
-5.19
1.06
7.37
13.12
17.91
21.55
24.08
25.6
26.14
25.69
24.26
21.96
19.08
15.99
13.1
10.65
8.69
7.16
5.93
4.95
4.25
3.9
3.88
4.1
4.36
4.36
3.8
2.53
0.55
-1.86
-4.38
-6.69
-8.65
-10.27
-11.79
-13.52
-15.67
-18.38
-21.62
-25.2
-28.69
-31.51
-32.94
-32.43
-29.73
-25.02
-18.89
-12.05
-5.16
1.34
7.17
12.05
15.72
17.95
18.74
18.37
17.37
16.31
15.57
15.26
15.25
15.35
15.4
15.43
15.52
15.73
16.01
16.14
15.9
15.02
13.42
11.05
8.1
4.78
1.37
-1.89
-4.92
-7.71
-10.46
-13.35
-16.6
-20.29
-24.31
-28.27
-31.46
-33.09
-32.43
-29.18
-23.47
-16
-7.78
0.19
7.06
12.43
16.2
18.53
19.56
19.46
18.34
16.39
13.93
11.39
9.24
7.79
7.15
7.17
7.51
7.84
7.95
7.8
7.41
6.83
5.98
4.71
2.83
0.23
-3.03
-6.76
-10.58
-14.14
-17.13
-19.51
-21.45
-23.33
-25.51
-28.1
-30.91
-33.43
-35.05
-35.23
-33.64
-30.19
-25.03
-18.43
-10.77
-2.61
5.48
12.92
19.28
24.42
28.47
31.7
34.26
36.15
37.2
37.32
36.59
35.37
34.22
33.63
33.85
34.76
35.96
36.97
37.41
37.12
36.02
34.08
31.21
27.3
22.3
16.38
9.87
3.24
-3.08
-8.87
-14.13
-18.97
-23.53
-27.77
-31.63
-35.04
-38.01
-40.55
-42.58
-43.79
-43.71
-41.93
-38.3
-33.04
-26.67
-19.82
-12.98
-6.49
-0.51
4.75
9.03
12.07
13.77
14.28
14
13.5
13.22
13.5
14.4
15.73
17.14
18.28
18.87
18.8
18.15
17.01
15.56
13.83
11.81
9.46
6.78
3.84
0.71
-2.55
-5.97
-9.55
-13.23
-16.92
-20.42
-23.65
-26.56
-29.16
-31.28
-32.65
-32.8
-31.18
-27.55
-22.01
-15.04
-7.44
0.01
6.75
12.43
16.93
20.28
22.49
23.7
24.06
23.79
23.19
22.55
22.07
21.78
21.66
21.59
21.52
21.46
21.41
21.39
21.36
21.23
20.8
19.9
18.32
15.94
12.77
8.87
4.46
-0.23
-4.94
-9.5
-13.79
-17.79
-21.49
-24.79
-27.51
-29.38
-30.03
-29.14
-26.5
-22.15
-16.39
-9.77
-3
3.21
8.22
11.6
13.25
13.39
12.46
11.02
9.5
8.16
7.04
6.01
4.89
3.65
2.35
1.18
0.36
-0.02
0.03
0.38
0.85
1.29
1.56
1.59
1.28
0.6
-0.52
-1.98
-3.62
-5.23
-6.64
-7.84
-9.01
-10.48
-12.5
-15.17
-18.17
-20.9
-22.61
-22.6
-20.55
-16.64
-11.47
-5.84
-0.59
3.76
7.01
9.16
10.42
10.91
10.75
10.04
8.95
7.75
6.67
5.87
5.37
5.2
5.29
5.64
6.25
7.06
7.91
8.52
8.58
7.77
5.94
3.06
-0.66
-4.88
-9.16
-13.08
-16.38
-19.04
-21.22
-23.26
-25.45
-27.9
-30.41
-32.55
-33.68
-33.17
-30.5
-25.39
-17.99
-8.83
1.19
11.04
19.69
26.44
30.97
33.29
33.75
32.7
30.59
27.8
24.75
21.81
19.24
17.16
15.51
14.14
12.93
11.86
10.95
10.21
9.59
8.99
8.3
7.39
6.19
4.61
2.52
-0.2
-3.59
-7.54
-11.75
-15.78
-19.25
-21.94
-23.82
-25.09
-26.01
-26.68
-26.94
-26.4
-24.47
-20.82
-15.51
-9.07
-2.38
3.74
8.69
12.24
14.43
15.55
15.8
15.43
14.67
13.75
12.91
12.27
11.94
11.82
11.9
12.08
12.29
12.54
12.8
13.08
13.44
13.89
14.29
14.47
14.1
12.95
10.93
8.08
4.7
1.2
-1.96
-4.57
-6.6
-8.39
-10.37
-12.95
-16.32
-20.15
-23.72
-26.08
-26.46
-24.51
-20.38
-14.7
-8.3
-2.04
3.49
7.97
11.31
13.56
14.79
15.03
14.34
12.85
10.88
8.86
7.18
6.04
5.37
4.93
4.41
3.67
2.83
2.13
1.81
1.81
1.85
1.55
0.67
-0.75
-2.46
-4.11
-5.53
-6.77
-8.08
-9.81
-12.16
-15.26
-18.99
-23.02
-26.84
-29.76
-31.06
-30.21
-27
-21.63
-14.78
-7.3
-0.06
6.23
11.19
14.69
16.81
17.7
17.55
16.49
14.61
12.06
9.11
6.17
3.69
2.04
1.36
1.54
2.17
2.79
3.08
2.79
1.93
0.55
-1.28
-3.44
-5.88
-8.46
-11.07
-13.61
-16.07
-18.47
-20.95
-23.58
-26.18
-28.41
-29.65
-29.26
-26.75
-22.12
-15.83
-8.72
-1.75
4.33
9.07
12.44
14.55
15.62
15.73
14.97
13.56
11.85
10.32
9.38
9.24
9.84
10.86
11.89
12.57
12.75
12.41
11.62
10.39
8.69
6.41
3.41
-0.34
-4.67
-9.17
-13.42
-16.99
-19.82
-22.11
-24.31
-26.75
-29.42
-31.87
-33.24
-32.77
-29.9
-24.63
-17.56
-9.66
-2
4.6
9.62
13.1
15.35
16.86
18.02
18.9
19.38
19.25
18.45
17.19
15.91
15.04
14.8
15.1
15.6
15.91
15.69
14.84
13.37
11.45
9.11
6.42
3.38
0.06
-3.39
-6.78
-9.91
-12.74
-15.41
-18.19
-21.3
-24.69
-27.88
-30.05
-30.32
-28.16
-23.63
-17.41
-10.44
-3.57
2.68
8.12
12.79
16.68
19.69
21.7
22.65
22.67
22.01
20.98
19.86
18.88
18.17
17.75
17.53
17.28
16.77
15.86
14.6
13.22
11.99
10.98
10.07
8.95
7.3
5
2.08
-1.16
-4.43
-7.44
-10.02
-12.18
-13.99
-15.71
-17.59
-19.88
-22.57
-25.39
-27.84
-29.22
-28.93
-26.62
-22.36
-16.5
-9.67
-2.62
4
9.66
14.13
17.33
19.41
20.52
20.84
20.5
19.7
18.69
17.78
17.27
17.18
17.44
17.75
17.85
17.6
17.02
16.3
15.54
14.82
13.99
12.95
11.53
9.69
7.48
4.96
2.29
-0.37
-2.85
-5.09
-7.14
-9.23
-11.59
-14.44
-17.8
-21.53
-25.31
-28.64
-31.02
-31.92
-30.91
-27.82
-22.78
-16.34
-9.27
-2.42
3.61
8.54
12.44
15.61
18.28
20.59
22.43
23.61
23.97
23.51
22.43
21.11
19.96
19.2
18.79
18.49
18
17.03
15.56
13.74
11.84
10.08
8.53
7.05
5.39
3.31
0.69
-2.33
-5.46
-8.34
-10.75
-12.6
-13.97
-15.03
-16.04
-17.24
-18.87
-21.09
-23.8
-26.65
-28.93
-29.78
-28.52
-24.89
-19.24
-12.3
-5.02
1.78
7.58
12.2
15.64
17.98
19.32
19.78
19.56
18.91
18.08
17.26
16.55
15.99
15.58
15.36
15.39
15.63
15.95
16.11
15.89
15.13
13.79
11.92
9.61
7
4.1
1.04
-2.08
-5.1
-7.84
-10.18
-12.04
-13.47
-14.62
-15.73
-17.03
-18.69
-20.82
-23.29
-25.81
-27.92
-28.92
-28.23
-25.39
-20.37
-13.61
-6.08
1.22
7.42
12.06
15.21
17.22
18.54
19.47
20.05
20.15
19.66
18.61
17.28
16.06
15.28
15.1
15.43
16.06
16.67
17.04
17
16.52
15.62
14.29
12.59
10.61
8.48
6.31
4.12
1.9
-0.42
-2.77
-5.06
-7.16
-9.02
-10.7
-12.38
-14.23
-16.32
-18.75
-21.47
-24.39
-27.38
-30
-31.67
-31.69
-29.52
-25.14
-19.08
-12.2
-5.39
0.72
5.92
10.22
13.74
16.47
18.27
19.02
18.69
17.42
15.44
13.09
10.65
8.43
6.68
5.52
4.95
4.87
5.1
5.46
5.87
6.21
6.39
6.25
5.59
4.24
2.13
-0.63
-3.81
-7.05
-10.07
-12.66
-14.77
-16.49
-18
-19.51
-21.14
-22.82
-24.3
-25.17
-24.98
-23.38
-20.32
-16.05
-11.09
-6.04
-1.46
2.33
5.22
7.32
8.85
10.01
10.93
11.56
11.84
11.63
10.93
9.85
8.67
7.72
7.25
7.37
7.91
8.61
9.14
9.29
8.95
8.15
6.91
5.25
3.23
0.91
-1.62
-4.24
-6.89
-9.53
-12.11
-14.58
-16.88
-18.96
-20.91
-22.94
-25.3
-28.13
-31.22
-34.01
-35.66
-35.38
-32.76
-27.97
-21.65
-14.68
-7.89
-1.77
3.39
7.52
10.63
12.72
13.87
14.27
14.22
14.02
13.95
14.08
14.32
14.55
14.65
14.56
14.28
13.87
13.37
12.85
12.33
11.76
11.07
10.05
8.49
6.29
3.46
0.22
-3.09
-6.16
-8.77
-10.85
-12.55
-14.08
-15.69
-17.68
-20.24
-23.37
-26.79
-29.88
-31.81
-31.84
-29.56
-25.11
-19.1
-12.44
-6
-0.36
4.25
7.88
10.71
12.92
14.62
15.8
16.49
16.71
16.6
16.34
16.18
16.26
16.62
17.13
17.52
17.68
17.54
17.21
16.83
16.49
16.15
15.58
14.54
12.67
9.91
6.36
2.42
-1.39
-4.59
-6.98
-8.71
-10.14
-11.71
-13.68
-16.19
-19.17
-22.47
-25.77
-28.64
-30.41
-30.32
-27.87
-22.95
-16.15
-8.51
-1.13
5.1
9.85
13.19
15.48
16.98
17.81
17.98
17.49
16.52
15.4
14.54
14.26
14.68
15.65
16.82
17.76
18.13
17.86
17.01
15.81
14.49
13.16
11.75
10.03
7.74
4.71
1.1
-2.75
-6.37
-9.39
-11.68
-13.37
-14.79
-16.26
-17.99
-19.98
-22.15
-24.4
-26.62
-28.57
-29.86
-29.97
-28.32
-24.64
-19.08
-12.27
-5.09
1.62
7.29
11.77
15.15
17.73
19.64
20.87
21.31
20.9
19.75
18.18
16.68
15.66
15.38
15.78
16.58
17.43
18.01
18.18
17.91
17.35
16.68
16.06
15.51
14.84
13.81
12.05
9.35
5.72
1.44
-3.08
-7.42
-11.33
-14.7
-17.51
-19.95
-22.15
-24.31
-26.6
-29.02
-31.37
-33.14
-33.68
-32.38
-29.1
-24.07
-18.01
-11.71
-5.76
-0.43
4.23
8.21
11.38
13.49
14.38
14.11
13.04
11.75
10.68
10.11
9.93
9.88
9.69
9.3
8.8
8.33
8.05
7.94
7.9
7.72
7.22
6.21
4.51
2.04
-1.17
-4.8
-8.42
-11.54
-13.8
-15.18
-15.95
-16.64
-17.72
-19.47
-21.83
-24.41
-26.6
-27.63
-26.87
-23.94
-18.86
-12.02
-4.18
3.82
11.19
17.3
21.89
24.89
26.57
27.25
27.33
27.02
26.43
25.52
24.18
22.48
20.5
18.49
16.69
15.25
14.16
13.34
12.67
11.97
11.12
9.92
8.24
6.04
3.34
0.27
-2.97
-6.16
-9.12
-11.67
-13.83
-15.71
-17.61
-19.9
-22.76
-26.2
-29.83
-33.09
-35.3
-35.87
-34.51
-31.07
-25.72
-18.75
-10.76
-2.45
5.37
12.1
17.43
21.44
24.37
26.41
27.6
27.75
26.8
24.89
22.49
20.2
18.48
17.41
16.73
16.06
15.13
14
12.87
11.95
11.28
10.67
9.76
8.19
5.85
2.92
-0.08
-2.57
-4.13
-4.62
-4.37
-3.97
-4.04
-5.03
-7.07
-9.94
-13.32
-16.8
-19.84
-21.88
-22.35
-20.87
-17.42
-12.36
-6.31
0.1
6.39
12.35
17.88
22.88
27.26
30.86
33.54
35.26
36.09
36.03
35.11
33.3
30.7
27.51
23.97
20.38
16.96
13.9
11.33
9.33
7.77
6.44
5.1
3.58
1.83
-0.05
-1.94
