2023-01-28 10:03:50.000870,0.025338729843497172
2023-01-28 10:03:50.005870,0.031767140523600405
2023-01-28 10:03:50.010870,0.02663691900670518
2023-01-28 10:03:50.015870,0.02507118875798757
2023-01-28 10:03:50.020870,0.03120462223887441
2023-01-28 10:03:50.025870,0.03634444523989283
2023-01-28 10:03:50.030870,0.03603677079081527
2023-01-28 10:03:50.035870,0.03573610544610941
2023-01-28 10:03:50.040870,0.038705270737409495
2023-01-28 10:03:50.045870,0.040208418577512735
2023-01-28 10:03:50.050870,0.03709455579519274
2023-01-28 10:03:50.055870,0.033468407416879016
2023-01-28 10:03:50.060870,0.03271917626261704
2023-01-28 10:03:50.065870,0.03209804548440812
2023-01-28 10:03:50.070870,0.029617946594953565
2023-01-28 10:03:50.075870,0.02914449113888501
2023-01-28 10:03:50.080870,0.033969283103942795
2023-01-28 10:03:50.085870,0.041556458906085725
2023-01-28 10:03:50.090870,0.04909078404307355
2023-01-28 10:03:50.095870,0.0581785007722047
2023-01-28 10:03:50.100870,0.06928484141826623
2023-01-28 10:03:50.105870,0.07721308812996791
2023-01-28 10:03:50.110870,0.07733841985464092
2023-01-28 10:03:50.115870,0.07153416841134365
2023-01-28 10:03:50.120870,0.06329874694347376
2023-01-28 10:03:50.125870,0.052303284914304214
2023-01-28 10:03:50.130870,0.03889759629964824
2023-01-28 10:03:50.135870,0.028493305273796295
2023-01-28 10:03:50.140870,0.025170445442199745
2023-01-28 10:03:50.145870,0.025415409010607883
2023-01-28 10:03:50.150870,0.024208825081586987
2023-01-28 10:03:50.155870,0.022581108012982173
2023-01-28 10:03:50.160870,0.022742351517081223
2023-01-28 10:03:50.165870,0.021145311868458406
2023-01-28 10:03:50.170870,0.014520486816763859
2023-01-28 10:03:50.175870,0.00817807462356771
2023-01-28 10:03:50.180870,0.009471973404288144
2023-01-28 10:03:50.185870,0.01784160151091739
2023-01-28 10:03:50.190870,0.032334528863429995
2023-01-28 10:03:50.195870,0.06483623743883049
2023-01-28 10:03:50.200870,0.13106903433799738
2023-01-28 10:03:50.205870,0.22770413005223478
2023-01-28 10:03:50.210870,0.3322162330150603
2023-01-28 10:03:50.215870,0.4280489883276694
2023-01-28 10:03:50.220870,0.5152128338813778
2023-01-28 10:03:50.225870,0.5896883510234987
2023-01-28 10:03:50.230870,0.6275302171707151
2023-01-28 10:03:50.235870,0.6034249613031027
2023-01-28 10:03:50.240870,0.5187467932701109
2023-01-28 10:03:50.245870,0.4003766149331667
2023-01-28 10:03:50.250870,0.27670663595199574
2023-01-28 10:03:50.255870,0.16495810478126308
2023-01-28 10:03:50.260870,0.0765691250562667
2023-01-28 10:03:50.265870,0.01967082005370355
2023-01-28 10:03:50.270870,-0.007428526878356886
2023-01-28 10:03:50.275870,-0.016283281602047988
2023-01-28 10:03:50.280870,-0.01771787926554672
2023-01-28 10:03:50.285870,-0.015557666484089338
2023-01-28 10:03:50.290870,-0.011202892288565573
2023-01-28 10:03:50.295870,-0.007683485020205519
2023-01-28 10:03:50.300870,-0.006514986511319776
2023-01-28 10:03:50.305870,-0.005533412069711976
2023-01-28 10:03:50.310870,-0.002836783882230482
2023-01-28 10:03:50.315870,0.0004091983482716017
2023-01-28 10:03:50.320870,0.0029569864273071194
2023-01-28 10:03:50.325870,0.005880754713925777
2023-01-28 10:03:50.330870,0.010000864975154334
2023-01-28 10:03:50.335870,0.01382893357478335
2023-01-28 10:03:50.340870,0.016059082001447587
2023-01-28 10:03:50.345870,0.01769538759971569
2023-01-28 10:03:50.350870,0.01997768878936751
2023-01-28 10:03:50.355870,0.022394790481035726
2023-01-28 10:03:50.360870,0.024377107620239206
2023-01-28 10:03:50.365870,0.02693059880814483
2023-01-28 10:03:50.370870,0.03096421621739853
2023-01-28 10:03:50.375870,0.03573058138182354
2023-01-28 10:03:50.380870,0.04041215032339084
2023-01-28 10:03:50.385870,0.04569458590103934
2023-01-28 10:03:50.390870,0.05240837857127182
2023-01-28 10:03:50.395870,0.06008598758600065
2023-01-28 10:03:50.400870,0.06820301711559287
2023-01-28 10:03:50.405870,0.07752296339230436
2023-01-28 10:03:50.410870,0.08892595767974854
2023-01-28 10:03:50.415870,0.10207246070577466
2023-01-28 10:03:50.420870,0.11638025939464564
2023-01-28 10:03:50.425870,0.13216673700481055
2023-01-28 10:03:50.430870,0.14962832629680636
2023-01-28 10:03:50.435870,0.16766411705716483
2023-01-28 10:03:50.440870,0.18477559089660636
2023-01-28 10:03:50.445870,0.20019843709477772
2023-01-28 10:03:50.450870,0.2131674736738204
2023-01-28 10:03:50.455870,0.22206689899902032
2023-01-28 10:03:50.460870,0.2254762351512908
2023-01-28 10:03:50.465870,0.22340244594438968
2023-01-28 10:03:50.470870,0.21662931144237518
2023-01-28 10:03:50.475870,0.2056475030765156
2023-01-28 10:03:50.480870,0.1910982578992843
2023-01-28 10:03:50.485870,0.17441749658575684
2023-01-28 10:03:50.490870,0.15696069598197923
2023-01-28 10:03:50.495870,0.139003270072738
2023-01-28 10:03:50.500870,0.12039502710103983
2023-01-28 10:03:50.505870,0.10158393956964781
2023-01-28 10:03:50.510870,0.08322834968566889
2023-01-28 10:03:50.515870,0.0654965519497908
2023-01-28 10:03:50.520870,0.04865805432200437
2023-01-28 10:03:50.525870,0.03382712110605885
2023-01-28 10:03:50.530870,0.02223750017583372
2023-01-28 10:03:50.535870,0.014144419762806483
2023-01-28 10:03:50.540870,0.009063283912837524
2023-01-28 10:03:50.545870,0.006518583838830887
2023-01-28 10:03:50.550870,0.005817811004817386
2023-01-28 10:03:50.555870,0.005664959500306551
2023-01-28 10:03:50.560870,0.004928310867398864
2023-01-28 10:03:50.565870,0.00355978393445406
2023-01-28 10:03:50.570870,0.002163648605346604
2023-01-28 10:03:50.575870,0.0010664582907231382
2023-01-28 10:03:50.580870,0.00040868920041236834
2023-01-28 10:03:50.585870,0.0006152491600150067
2023-01-28 10:03:50.590870,0.0019472837448120874
2023-01-28 10:03:50.595870,0.003876942237726401
2023-01-28 10:03:50.600870,0.00560144614428278
2023-01-28 10:03:50.605870,0.006941389592038604
2023-01-28 10:03:50.610870,0.008197824470698804
2023-01-28 10:03:50.615870,0.009513897124525305
2023-01-28 10:03:50.620870,0.011010567657649468
2023-01-28 10:03:50.625870,0.013170854635316904
2023-01-28 10:03:50.630870,0.016347568482160527
2023-01-28 10:03:50.635870,0.020086276250332574
2023-01-28 10:03:50.640870,0.023535689339041675
2023-01-28 10:03:50.645870,0.02632244364099472
2023-01-28 10:03:50.650870,0.028512081131338945
2023-01-28 10:03:50.655870,0.03003155519903809
2023-01-28 10:03:50.660870,0.030747851356863948
2023-01-28 10:03:50.665870,0.030861186078345714
2023-01-28 10:03:50.670870,0.03060360811650751
2023-01-28 10:03:50.675870,0.029756143470549126
2023-01-28 10:03:50.680870,0.028055310249328627
2023-01-28 10:03:50.685870,0.02590201522649742
2023-01-28 10:03:50.690870,0.02411266230046743
2023-01-28 10:03:50.695870,0.023114211188522374
2023-01-28 10:03:50.700870,0.02283851429820062
2023-01-28 10:03:50.705870,0.023130194279136252
2023-01-28 10:03:50.710870,0.023679932579398107
2023-01-28 10:03:50.715870,0.0237852283751286
2023-01-28 10:03:50.720870,0.02283851429820058
2023-01-28 10:03:50.725870,0.02102143415565472
2023-01-28 10:03:50.730870,0.01906414888799182
2023-01-28 10:03:50.735870,0.017450838365943362
2023-01-28 10:03:50.740870,0.016275446861982318
2023-01-28 10:03:50.745870,0.015609478918355128
2023-01-28 10:03:50.750870,0.015434026718139553
2023-01-28 10:03:50.755870,0.015370404426572434
2023-01-28 10:03:50.760870,0.015049378387629929
2023-01-28 10:03:50.765870,0.014662068306121791
2023-01-28 10:03:50.770870,0.014664730057120275
2023-01-28 10:03:50.775870,0.015067443751322879
2023-01-28 10:03:50.780870,0.015482108108699311
2023-01-28 10:03:50.785870,0.015697259492389804
2023-01-28 10:03:50.790870,0.01569847390055659
2023-01-28 10:03:50.795870,0.015310802669944033
2023-01-28 10:03:50.800870,0.014400283806025867
2023-01-28 10:03:50.805870,0.0133152914997497
2023-01-28 10:03:50.810870,0.012573203071951724
2023-01-28 10:03:50.815870,0.012192258340075483
2023-01-28 10:03:50.820870,0.011827945709228562
2023-01-28 10:03:50.825870,0.011415886741094776
2023-01-28 10:03:50.830870,0.011130770668387394
2023-01-28 10:03:50.835870,0.010883071815071038
2023-01-28 10:03:50.840870,0.010505716316402005
2023-01-28 10:03:50.845870,0.010368217162314541
2023-01-28 10:03:50.850870,0.011202892288565683
2023-01-28 10:03:50.855870,0.013413965130697387
2023-01-28 10:03:50.860870,0.017164945602416867
2023-01-28 10:03:50.865870,0.022934822694884435
2023-01-28 10:03:50.870870,0.031060378998517907
2023-01-28 10:03:50.875870,0.040589619204544736
2023-01-28 10:03:50.880870,0.04937927052378652
2023-01-28 10:03:50.885870,0.0555689933817228
2023-01-28 10:03:50.890870,0.058346390724182184
2023-01-28 10:03:50.895870,0.057248609543034526
2023-01-28 10:03:50.900870,0.051783323287963874
2023-01-28 10:03:50.905870,0.042399504038569714
2023-01-28 10:03:50.910870,0.031204622238874415
2023-01-28 10:03:50.915870,0.02096094930308982
2023-01-28 10:03:50.920870,0.013462702743709011
2023-01-28 10:03:50.925870,0.009061414820733414
2023-01-28 10:03:50.930870,0.0072121620178222275
2023-01-28 10:03:50.935870,0.00691790460107876
2023-01-28 10:03:50.940870,0.006947716232389306
2023-01-28 10:03:50.945870,0.006262910973119223
2023-01-28 10:03:50.950870,0.004375378601252971
2023-01-28 10:03:50.955870,0.0012894594630509554
2023-01-28 10:03:50.960870,-0.002355973003432138
2023-01-28 10:03:50.965870,-0.004266305085457916
2023-01-28 10:03:50.970870,0.0007933378219603995
2023-01-28 10:03:50.975870,0.021149625957912057
2023-01-28 10:03:50.980870,0.066424012184143
2023-01-28 10:03:50.985870,0.14385541681808137
2023-01-28 10:03:50.990870,0.2535796165466307
2023-01-28 10:03:50.995870,0.3848637052385487
2023-01-28 10:03:51.000870,0.516030192375183
2023-01-28 10:03:51.005870,0.6194814324818684
2023-01-28 10:03:51.010870,0.6703224182128904
2023-01-28 10:03:51.015870,0.6549845317514037
2023-01-28 10:03:51.020870,0.5762277245521543
2023-01-28 10:03:51.025870,0.452339028014447
2023-01-28 10:03:51.030870,0.31065186858177174
2023-01-28 10:03:51.035870,0.17820116746746922
2023-01-28 10:03:51.040870,0.07380446046590795
2023-01-28 10:03:51.045870,0.004659614244508343
2023-01-28 10:03:51.050870,-0.032310485839843694
2023-01-28 10:03:51.055870,-0.04621661105583856
2023-01-28 10:03:51.060870,-0.04735986515879629
2023-01-28 10:03:51.065870,-0.04368965021934951
2023-01-28 10:03:51.070870,-0.03959476947784417
2023-01-28 10:03:51.075870,-0.03665277031323236
2023-01-28 10:03:51.080870,-0.03495494648814203
2023-01-28 10:03:51.085870,-0.03401068510917608
2023-01-28 10:03:51.090870,-0.03324806690216059
2023-01-28 10:03:51.095870,-0.032349971670915946
2023-01-28 10:03:51.100870,-0.031300783157348584
2023-01-28 10:03:51.105870,-0.030141938699656468
2023-01-28 10:03:51.110870,-0.028824608772993043
2023-01-28 10:03:51.115870,-0.027316590964903457
2023-01-28 10:03:51.120870,-0.025651257485151242
2023-01-28 10:03:51.125870,-0.023804546486187256
2023-01-28 10:03:51.130870,-0.021708607673644954
2023-01-28 10:03:51.135870,-0.019447323318118805
2023-01-28 10:03:51.140870,-0.017237067222595232
2023-01-28 10:03:51.145870,-0.015121071456328858
2023-01-28 10:03:51.150870,-0.012837648391723548
2023-01-28 10:03:51.155870,-0.01003582143656169
2023-01-28 10:03:51.160870,-0.006442864891141653
2023-01-28 10:03:51.165870,-0.0018001434565590485
2023-01-28 10:03:51.170870,0.004110932350158594
2023-01-28 10:03:51.175870,0.011265304146685863
2023-01-28 10:03:51.180870,0.0194007158279418
2023-01-28 10:03:51.185870,0.028319235318873693
2023-01-28 10:03:51.190870,0.038032136857509634
2023-01-28 10:03:51.195870,0.04858677016239117
2023-01-28 10:03:51.200870,0.059981148689985234
2023-01-28 10:03:51.205870,0.07231029205735667
2023-01-28 10:03:51.210870,0.08572857081890106
2023-01-28 10:03:51.215870,0.10009057681795268
2023-01-28 10:03:51.220870,0.11474549770355232
2023-01-28 10:03:51.225870,0.12873755763995123
2023-01-28 10:03:51.230870,0.14104585349559778
2023-01-28 10:03:51.235870,0.15062993424590876
2023-01-28 10:03:51.240870,0.1565520018339157
2023-01-28 10:03:51.245870,0.15825809613380298
2023-01-28 10:03:51.250870,0.1556384563446043
2023-01-28 10:03:51.255870,0.14878006295098484
2023-01-28 10:03:51.260870,0.13787250220775596
2023-01-28 10:03:51.265870,0.12344004072687415
2023-01-28 10:03:51.270870,0.10645151138305661
2023-01-28 10:03:51.275870,0.08806610123149558
2023-01-28 10:03:51.280870,0.06938099861145014
2023-01-28 10:03:51.285870,0.05141202637024842
2023-01-28 10:03:51.290870,0.03502706810832026
2023-01-28 10:03:51.295870,0.020724422427021088
2023-01-28 10:03:51.300870,0.008606513962149544
2023-01-28 10:03:51.305870,-0.001367537585916807
2023-01-28 10:03:51.310870,-0.009279648773372097
2023-01-28 10:03:51.315870,-0.01543855262991633
2023-01-28 10:03:51.320870,-0.02041041851043703
2023-01-28 10:03:51.325870,-0.02470149514941078
2023-01-28 10:03:51.330870,-0.028512081131338976
2023-01-28 10:03:51.335870,-0.03181604003760389
2023-01-28 10:03:51.340870,-0.03447413444519043
2023-01-28 10:03:51.345870,-0.036226403170813465
2023-01-28 10:03:51.350870,-0.03683010861277573
2023-01-28 10:03:51.355870,-0.0363469623477165
2023-01-28 10:03:51.360870,-0.03514727205038068
2023-01-28 10:03:51.365870,-0.03357110129084569
2023-01-28 10:03:51.370870,-0.031757555902004124
2023-01-28 10:03:51.375870,-0.029835910765091716
2023-01-28 10:03:51.380870,-0.028055310249328575
2023-01-28 10:03:51.385870,-0.026649896547521146
2023-01-28 10:03:51.390870,-0.025771459564566536
2023-01-28 10:03:51.395870,-0.02559251617206468
2023-01-28 10:03:51.400870,-0.026228230446576923
2023-01-28 10:03:51.405870,-0.027465009339506553
2023-01-28 10:03:51.410870,-0.028776526451110698
2023-01-28 10:03:51.415870,-0.02970053539605523
2023-01-28 10:03:51.420870,-0.030050676316022748
2023-01-28 10:03:51.425870,-0.02978128983579942
2023-01-28 10:03:51.430870,-0.028920769691467195
2023-01-28 10:03:51.435870,-0.027694098360589784
2023-01-28 10:03:51.440870,-0.02644459530711172
2023-01-28 10:03:51.445870,-0.025334377485981475
2023-01-28 10:03:51.450870,-0.02430498600006105
2023-01-28 10:03:51.455870,-0.02333127084659248
2023-01-28 10:03:51.460870,-0.022453865036368283
2023-01-28 10:03:51.465870,-0.02155433398701469
2023-01-28 10:03:51.470870,-0.020410418510436977
2023-01-28 10:03:51.475870,-0.019051080614008876
2023-01-28 10:03:51.480870,-0.01781404018402088
2023-01-28 10:03:51.485870,-0.01703409804313226
2023-01-28 10:03:51.490870,-0.016924541443586336
2023-01-28 10:03:51.495870,-0.01769419525556402
2023-01-28 10:03:51.500870,-0.01937667652964596
2023-01-28 10:03:51.505870,-0.021492683844023086
2023-01-28 10:03:51.510870,-0.02324720285832878
2023-01-28 10:03:51.515870,-0.02414895211914488
2023-01-28 10:03:51.520870,-0.024184783920645693
2023-01-28 10:03:51.525870,-0.023490702797196783
2023-01-28 10:03:51.530870,-0.022285580635070877
2023-01-28 10:03:51.535870,-0.021049177539762178
2023-01-28 10:03:51.540870,-0.020194053649902306
2023-01-28 10:03:51.545870,-0.019493489734676007
2023-01-28 10:03:51.550870,-0.018342932686209658
2023-01-28 10:03:51.555870,-0.016627897130694777
2023-01-28 10:03:51.560870,-0.01480897329747672
2023-01-28 10:03:51.565870,-0.013198984782074352
2023-01-28 10:03:51.570870,-0.011876027099788071
2023-01-28 10:03:51.575870,-0.011341441483658456
2023-01-28 10:03:51.580870,-0.012356838211417046
2023-01-28 10:03:51.585870,-0.014816066688072907
2023-01-28 10:03:51.590870,-0.017549594864249268
2023-01-28 10:03:51.595870,-0.019537005317687824
2023-01-28 10:03:51.600870,-0.020482540130615182
2023-01-28 10:03:51.605870,-0.01991636331309892
2023-01-28 10:03:51.610870,-0.01687645912170407
2023-01-28 10:03:51.615870,-0.011228262400222195
2023-01-28 10:03:51.620870,-0.004351337905973092
2023-01-28 10:03:51.625870,0.002361292769356699
2023-01-28 10:03:51.630870,0.00879883766174308
2023-01-28 10:03:51.635870,0.014873111492589861
2023-01-28 10:03:51.640870,0.018823742866516145
2023-01-28 10:03:51.645870,0.018315395577410295
2023-01-28 10:03:51.650870,0.013054013252258313
2023-01-28 10:03:51.655870,0.005122719933336245
2023-01-28 10:03:51.660870,-0.0031493108253926273
2023-01-28 10:03:51.665870,-0.01053996209306462
2023-01-28 10:03:51.670870,-0.01639564894139756
2023-01-28 10:03:51.675870,-0.020272328414408316
2023-01-28 10:03:51.680870,-0.022598108276724756
2023-01-28 10:03:51.685870,-0.024669206520231815
2023-01-28 10:03:51.690870,-0.027430256828665733
2023-01-28 10:03:51.695870,-0.030854505777660468
2023-01-28 10:03:51.700870,-0.03466646000742918
2023-01-28 10:03:51.705870,-0.038626840637202654
2023-01-28 10:03:51.710870,-0.04122952744364734
2023-01-28 10:03:51.715870,-0.03818396422445687
2023-01-28 10:03:51.720870,-0.022261541336774843
2023-01-28 10:03:51.725870,0.015462674006186517
2023-01-28 10:03:51.730870,0.08303602784872041
2023-01-28 10:03:51.735870,0.1833119502359244
2023-01-28 10:03:51.740870,0.3092094361782072
2023-01-28 10:03:51.745870,0.4420746817694306
2023-01-28 10:03:51.750870,0.5555047988891598
2023-01-28 10:03:51.755870,0.6232983861374798
2023-01-28 10:03:51.760870,0.6280831694602964
2023-01-28 10:03:51.765870,0.5674859583690947
2023-01-28 10:03:51.770870,0.4554240107536314
2023-01-28 10:03:51.775870,0.3173168743428434
2023-01-28 10:03:51.780870,0.1810252666473388
2023-01-28 10:03:51.785870,0.06810793862613977
2023-01-28 10:03:51.790870,-0.010746121406555058
2023-01-28 10:03:51.795870,-0.05557850789619971
2023-01-28 10:03:51.800870,-0.07392466068267808
2023-01-28 10:03:51.805870,-0.07620828130595762
2023-01-28 10:03:51.810870,-0.07152061164379102
2023-01-28 10:03:51.815870,-0.0655315933221252
2023-01-28 10:03:51.820870,-0.06082256883382793
2023-01-28 10:03:51.825870,-0.05809956855594667
2023-01-28 10:03:51.830870,-0.05695204064249985
2023-01-28 10:03:51.835870,-0.05637780700017175
2023-01-28 10:03:51.840870,-0.0555336475372313
2023-01-28 10:03:51.845870,-0.05419968206948499
2023-01-28 10:03:51.850870,-0.052528582513332325
2023-01-28 10:03:51.855870,-0.05068439063454658
2023-01-28 10:03:51.860870,-0.04889845848083487
2023-01-28 10:03:51.865870,-0.04747930067101159
2023-01-28 10:03:51.870870,-0.046422284096479374
2023-01-28 10:03:51.875870,-0.04522774631285821
2023-01-28 10:03:51.880870,-0.0433450937271118
2023-01-28 10:03:51.885870,-0.04058887311711431
2023-01-28 10:03:51.890870,-0.03697435185313216
2023-01-28 10:03:51.895870,-0.03248216123107784
2023-01-28 10:03:51.900870,-0.027237933129072047
2023-01-28 10:03:51.905870,-0.021624845957640634
2023-01-28 10:03:51.910870,-0.015914838761091118
2023-01-28 10:03:51.915870,-0.009973057690440204
2023-01-28 10:03:51.920870,-0.00350991892628367
2023-01-28 10:03:51.925870,0.0036412021315467766
2023-01-28 10:03:51.930870,0.011707743629813128
2023-01-28 10:03:51.935870,0.021144968518182365
2023-01-28 10:03:51.940870,0.03233452886342996
2023-01-28 10:03:51.945870,0.045300248824925955
2023-01-28 10:03:51.950870,0.05988498777151096
2023-01-28 10:03:51.955870,0.07590007444330474
2023-01-28 10:03:51.960870,0.09282052516937256
2023-01-28 10:03:51.965870,0.10956033664481409
2023-01-28 10:03:51.970870,0.12481848895549774
2023-01-28 10:03:51.975870,0.1375079229653028
2023-01-28 10:03:51.980870,0.1467674970626831
2023-01-28 10:03:51.985870,0.15195870530579986
2023-01-28 10:03:51.990870,0.15299400687217712
2023-01-28 10:03:51.995870,0.15043622047715122
2023-01-28 10:03:52.000870,0.14496445655822746
2023-01-28 10:03:52.005870,0.1368752872598103
2023-01-28 10:03:52.010870,0.12623688578605644
2023-01-28 10:03:52.015870,0.11321044241281439
2023-01-28 10:03:52.020870,0.09798924624919891
2023-01-28 10:03:52.025870,0.08078494714745911
2023-01-28 10:03:52.030870,0.0622409582138061
2023-01-28 10:03:52.035870,0.0436143915269489
2023-01-28 10:03:52.040870,0.026204189285635834
2023-01-28 10:03:52.045870,0.010756315217399807
2023-01-28 10:03:52.050870,-0.0024040541611610325
2023-01-28 10:03:52.055870,-0.013047969463140864
2023-01-28 10:03:52.060870,-0.02120375633239746
2023-01-28 10:03:52.065870,-0.027290935074868114
2023-01-28 10:03:52.070870,-0.03166139125823967
2023-01-28 10:03:52.075870,-0.03426241253010437
2023-01-28 10:03:52.080870,-0.03512322902679442
2023-01-28 10:03:52.085870,-0.034842084220646
2023-01-28 10:03:52.090870,-0.03413756936788547
2023-01-28 10:03:52.095870,-0.033236699203872226
2023-01-28 10:03:52.100870,-0.032190285623073474
2023-01-28 10:03:52.105870,-0.031404716504167984
2023-01-28 10:03:52.110870,-0.03120462223887444
2023-01-28 10:03:52.115870,-0.031188387197843927
2023-01-28 10:03:52.120870,-0.030795931816101036
2023-01-28 10:03:52.125870,-0.030282970938590476
2023-01-28 10:03:52.130870,-0.030218958854675144
2023-01-28 10:03:52.135870,-0.03011338317003642
2023-01-28 10:03:52.140870,-0.02863228321075428
2023-01-28 10:03:52.145870,-0.025449137808305867
2023-01-28 10:03:52.150870,-0.021900933235883737
2023-01-28 10:03:52.155870,-0.01931427129163781
2023-01-28 10:03:52.160870,-0.01750151440501213
2023-01-28 10:03:52.165870,-0.015535288137851126
2023-01-28 10:03:52.170870,-0.013294419273733978
2023-01-28 10:03:52.175870,-0.011405115384258318
2023-01-28 10:03:52.180870,-0.010072986595332628
2023-01-28 10:03:52.185870,-0.008853034763105255
2023-01-28 10:03:52.190870,-0.007476608268916602
2023-01-28 10:03:52.195870,-0.00620308707706737
2023-01-28 10:03:52.200870,-0.005336999893188386
2023-01-28 10:03:52.205870,-0.004966914365383876
2023-01-28 10:03:52.210870,-0.005240838043391657
2023-01-28 10:03:52.215870,-0.006387540474709747
2023-01-28 10:03:52.220870,-0.008293986320495559
2023-01-28 10:03:52.225870,-0.010392527766880542
2023-01-28 10:03:52.230870,-0.012092391960322729
2023-01-28 10:03:52.235870,-0.013098981617463687
2023-01-28 10:03:52.240870,-0.013318459503352571
2023-01-28 10:03:52.245870,-0.012791003503252142
2023-01-28 10:03:52.250870,-0.011827945709228516
2023-01-28 10:03:52.255870,-0.010949307946513566
2023-01-28 10:03:52.260870,-0.010529756546020431
2023-01-28 10:03:52.265870,-0.010606310803559263
2023-01-28 10:03:52.270870,-0.01101056765764946
2023-01-28 10:03:52.275870,-0.011487580421602122
2023-01-28 10:03:52.280870,-0.01170774362981308
2023-01-28 10:03:52.285870,-0.011432650181077893
2023-01-28 10:03:52.290870,-0.010722081176936673
2023-01-28 10:03:52.295870,-0.00973669542018745
2023-01-28 10:03:52.300870,-0.008269946090876985
2023-01-28 10:03:52.305870,-0.005706314164331521
2023-01-28 10:03:52.310870,-0.0015385946026070438
2023-01-28 10:03:52.315870,0.00422518755777287
2023-01-28 10:03:52.320870,0.011106729507446213
2023-01-28 10:03:52.325870,0.018212214764611705
2023-01-28 10:03:52.330870,0.024088621139526343
2023-01-28 10:03:52.335870,0.02693829212390123
2023-01-28 10:03:52.340870,0.025482973083853746
2023-01-28 10:03:52.345870,0.019760734231889704
2023-01-28 10:03:52.350870,0.01108268927782776
2023-01-28 10:03:52.355870,0.0013683530240323118
2023-01-28 10:03:52.360870,-0.007476608268916581
2023-01-28 10:03:52.365870,-0.014023621942657365
2023-01-28 10:03:52.370870,-0.017790000885724935
2023-01-28 10:03:52.375870,-0.019431178110217825
2023-01-28 10:03:52.380870,-0.020290216431021548
2023-01-28 10:03:52.385870,-0.021627494622036492
2023-01-28 10:03:52.390870,-0.024184783920645617
2023-01-28 10:03:52.395870,-0.028124498044459205
2023-01-28 10:03:52.400870,-0.0328393802046775
2023-01-28 10:03:52.405870,-0.03642323990868056
2023-01-28 10:03:52.410870,-0.03507515043020235
2023-01-28 10:03:52.415870,-0.022774904914247357
2023-01-28 10:03:52.420870,0.008318027481436679
2023-01-28 10:03:52.425870,0.06597722085403834
2023-01-28 10:03:52.430870,0.1542200744152069
2023-01-28 10:03:52.435870,0.2690650131346474
2023-01-28 10:03:52.440870,0.3962361812591551
2023-01-28 10:03:52.445870,0.5128343157966815
2023-01-28 10:03:52.450870,0.5931522846221922
2023-01-28 10:03:52.455870,0.6168792408114371
2023-01-28 10:03:52.460870,0.576564311981201
2023-01-28 10:03:52.465870,0.4808789791580542
2023-01-28 10:03:52.470870,0.3517371416091918
2023-01-28 10:03:52.475870,0.21646302304561943
2023-01-28 10:03:52.480870,0.09880661964416496
2023-01-28 10:03:52.485870,0.012710494046372811
2023-01-28 10:03:52.490870,-0.03928224369883525
2023-01-28 10:03:52.495870,-0.06338707309056389
2023-01-28 10:03:52.500870,-0.06964544951915741
2023-01-28 10:03:52.505870,-0.06725672181013824
2023-01-28 10:03:52.510870,-0.062144797295331955
2023-01-28 10:03:52.515870,-0.05702389807671267
2023-01-28 10:03:52.520870,-0.05269686505198473
2023-01-28 10:03:52.525870,-0.04923374320741506
2023-01-28 10:03:52.530870,-0.04659056663513187
2023-01-28 10:03:52.535870,-0.04480484590037301
2023-01-28 10:03:52.540870,-0.043898027390241644
2023-01-28 10:03:52.545870,-0.0436766222073377
2023-01-28 10:03:52.550870,-0.04375378414988511
2023-01-28 10:03:52.555870,-0.043822546939296575
2023-01-28 10:03:52.560870,-0.04380186647176734
2023-01-28 10:03:52.565870,-0.043654565034792536
2023-01-28 10:03:52.570870,-0.04317681118845925
2023-01-28 10:03:52.575870,-0.04204760728793414
2023-01-28 10:03:52.580870,-0.04000345990061753
2023-01-28 10:03:52.585870,-0.036937395849191965
2023-01-28 10:03:52.590870,-0.032983623445033895
2023-01-28 10:03:52.595870,-0.028595901735752032
2023-01-28 10:03:52.600870,-0.024377107620239192
2023-01-28 10:03:52.605870,-0.020619975652217355
2023-01-28 10:03:52.610870,-0.016972621902823375
2023-01-28 10:03:52.615870,-0.012559087415358848
2023-01-28 10:03:52.620870,-0.006370743270963402
2023-01-28 10:03:52.625870,0.0023831996097142157
2023-01-28 10:03:52.630870,0.013991594314575105
2023-01-28 10:03:52.635870,0.02803416888512652
2023-01-28 10:03:52.640870,0.043489336967468185
2023-01-28 10:03:52.645870,0.05921269914428426
2023-01-28 10:03:52.650870,0.07438143342733378
2023-01-28 10:03:52.655870,0.08854768818550729
2023-01-28 10:03:52.660870,0.10145108401775357
2023-01-28 10:03:52.665870,0.11288212892052664
2023-01-28 10:03:52.670870,0.12258271872997276
2023-01-28 10:03:52.675870,0.13011945445304965
2023-01-28 10:03:52.680870,0.1349155157804489
2023-01-28 10:03:52.685870,0.1365256689819689
2023-01-28 10:03:52.690870,0.1348433941602706
2023-01-28 10:03:52.695870,0.1299882293955139
2023-01-28 10:03:52.700870,0.1221019029617309
2023-01-28 10:03:52.705870,0.11135592151744979
2023-01-28 10:03:52.710870,0.098061367869377
2023-01-28 10:03:52.715870,0.0826582950807465
2023-01-28 10:03:52.720870,0.06567876040935507
2023-01-28 10:03:52.725870,0.047820824701126995
2023-01-28 10:03:52.730870,0.029954513534903488
2023-01-28 10:03:52.735870,0.012902390833364127
2023-01-28 10:03:52.740870,-0.002764662262052108
2023-01-28 10:03:52.745870,-0.016664547348323823
2023-01-28 10:03:52.750870,-0.028464000672101877
2023-01-28 10:03:52.755870,-0.03793850858618392
2023-01-28 10:03:52.760870,-0.045100055634975364
2023-01-28 10:03:52.765870,-0.05014577533988617
2023-01-28 10:03:52.770870,-0.053345959633588666
2023-01-28 10:03:52.775870,-0.05508627928122004
2023-01-28 10:03:52.780870,-0.055918298661708755
2023-01-28 10:03:52.785870,-0.05639191130579949
2023-01-28 10:03:52.790870,-0.05683183670043932
2023-01-28 10:03:52.795870,-0.05732969971349784
2023-01-28 10:03:52.800870,-0.05784153938293447
2023-01-28 10:03:52.805870,-0.058158231753270645
2023-01-28 10:03:52.810870,-0.057889621704816825
2023-01-28 10:03:52.815870,-0.05671182920585513
2023-01-28 10:03:52.820870,-0.054692231118679005
2023-01-28 10:03:52.825870,-0.05230152443459074
2023-01-28 10:03:52.830870,-0.050124526023864704
2023-01-28 10:03:52.835870,-0.048589679963542985
2023-01-28 10:03:52.840870,-0.04781663417816161
2023-01-28 10:03:52.845870,-0.04750157722380984
2023-01-28 10:03:52.850870,-0.04697521775960926
2023-01-28 10:03:52.855870,-0.045607892485461585
2023-01-28 10:03:52.860870,-0.04329701513051977
2023-01-28 10:03:52.865870,-0.04054184549945048
2023-01-28 10:03:52.870870,-0.03805617615580547
2023-01-28 10:03:52.875870,-0.03635106961504658
2023-01-28 10:03:52.880870,-0.03558000177145004
2023-01-28 10:03:52.885870,-0.03555395410969916
2023-01-28 10:03:52.890870,-0.035820405930280554
2023-01-28 10:03:52.895870,-0.03587632044288627
2023-01-28 10:03:52.900870,-0.03548383712768549
2023-01-28 10:03:52.905870,-0.03482956328123453
2023-01-28 10:03:52.910870,-0.03435393422842016
2023-01-28 10:03:52.915870,-0.03441207512526336
2023-01-28 10:03:52.920870,-0.03507515043020235
2023-01-28 10:03:52.925870,-0.03619031606754143
2023-01-28 10:03:52.930870,-0.03755132481455798
2023-01-28 10:03:52.935870,-0.03898752552363319
2023-01-28 10:03:52.940870,-0.04036406800150871
2023-01-28 10:03:52.945870,-0.04161236337923822
2023-01-28 10:03:52.950870,-0.042768120765686014
2023-01-28 10:03:52.955870,-0.043844743042018845
2023-01-28 10:03:52.960870,-0.04459520429372775
2023-01-28 10:03:52.965870,-0.04454440747660582
2023-01-28 10:03:52.970870,-0.04344125837087623
2023-01-28 10:03:52.975870,-0.04165133705439816
2023-01-28 10:03:52.980870,-0.03997942060232152
2023-01-28 10:03:52.985870,-0.03914636679230018
2023-01-28 10:03:52.990870,-0.039522647857665925
2023-01-28 10:03:52.995870,-0.04117758821093982
2023-01-28 10:03:53.000870,-0.04384994506835932
2023-01-28 10:03:53.005870,-0.046857518452552725
2023-01-28 10:03:53.010870,-0.04935523122549053
2023-01-28 10:03:53.015870,-0.050848149891006944
2023-01-28 10:03:53.020870,-0.05132655426859838
2023-01-28 10:03:53.025870,-0.050866815052196784
2023-01-28 10:03:53.030870,-0.04928310960531235
2023-01-28 10:03:53.035870,-0.04620183183609607
2023-01-28 10:03:53.040870,-0.04127760976552951
2023-01-28 10:03:53.045870,-0.03435425660824034
2023-01-28 10:03:53.050870,-0.02579550072550767
2023-01-28 10:03:53.055870,-0.016901177831280596
2023-01-28 10:03:53.060870,-0.009784500114619751
2023-01-28 10:03:53.065870,-0.006503049482719558
2023-01-28 10:03:53.070870,-0.008125702850520545
2023-01-28 10:03:53.075870,-0.014390750812157833
2023-01-28 10:03:53.080870,-0.023872256278991595
2023-01-28 10:03:53.085870,-0.034400987719338603
2023-01-28 10:03:53.090870,-0.043801866471767426
2023-01-28 10:03:53.095870,-0.05076849604440423
2023-01-28 10:03:53.100870,-0.05519708245992663
2023-01-28 10:03:53.105870,-0.0577018749506895
2023-01-28 10:03:53.110870,-0.05894740670919404
2023-01-28 10:03:53.115870,-0.05943153587992748
2023-01-28 10:03:53.120870,-0.059548418968915974
2023-01-28 10:03:53.125870,-0.05951818622168817
2023-01-28 10:03:53.130870,-0.059163771569728824
2023-01-28 10:03:53.135870,-0.05748362741434012
2023-01-28 10:03:53.140870,-0.05171120166778557
2023-01-28 10:03:53.145870,-0.036205677861705886
2023-01-28 10:03:53.150870,-0.002596378326415961
2023-01-28 10:03:53.155870,0.05765833745275897
2023-01-28 10:03:53.160870,0.1488349884748458
2023-01-28 10:03:53.165870,0.2665602809404608
2023-01-28 10:03:53.170870,0.39563518762588484
2023-01-28 10:03:53.175870,0.5118232652646217
2023-01-28 10:03:53.180870,0.5882239341735835
2023-01-28 10:03:53.185870,0.6044517987628156
2023-01-28 10:03:53.190870,0.5544950962066648
2023-01-28 10:03:53.195870,0.4492839441920969
2023-01-28 10:03:53.200870,0.3128395676612853
2023-01-28 10:03:53.205870,0.17396378667613707
2023-01-28 10:03:53.210870,0.0569760799407958
2023-01-28 10:03:53.215870,-0.024872403128767435
2023-01-28 10:03:53.220870,-0.07084747403860087
2023-01-28 10:03:53.225870,-0.08919050318485974
2023-01-28 10:03:53.230870,-0.09137809276580801
2023-01-28 10:03:53.235870,-0.08739305263574579
2023-01-28 10:03:53.240870,-0.08342067897319784
2023-01-28 10:03:53.245870,-0.08168014839217536
2023-01-28 10:03:53.250870,-0.08166571706533436
2023-01-28 10:03:53.255870,-0.08196523904772582
2023-01-28 10:03:53.260870,-0.08159359544515593
2023-01-28 10:03:53.265870,-0.08026641946625337
2023-01-28 10:03:53.270870,-0.07810771465301511
2023-01-28 10:03:53.275870,-0.07549801712443101
2023-01-28 10:03:53.280870,-0.0729870796203613
2023-01-28 10:03:53.285870,-0.07093510758100732
2023-01-28 10:03:53.290870,-0.06918867677450176
2023-01-28 10:03:53.295870,-0.06726368462388291
2023-01-28 10:03:53.300870,-0.06478925794363025
2023-01-28 10:03:53.305870,-0.061676329045524246
2023-01-28 10:03:53.310870,-0.058057904243469134
2023-01-28 10:03:53.315870,-0.05430315426496624
2023-01-28 10:03:53.320870,-0.05094190686941137
2023-01-28 10:03:53.325870,-0.04827690801993654
2023-01-28 10:03:53.330870,-0.04606167599558832
2023-01-28 10:03:53.335870,-0.04367041381532724
2023-01-28 10:03:53.340870,-0.04046022891998293
2023-01-28 10:03:53.345870,-0.035838826690708175
2023-01-28 10:03:53.350870,-0.02920925617218008
2023-01-28 10:03:53.355870,-0.02016669434716698
2023-01-28 10:03:53.360870,-0.008726716041564884
2023-01-28 10:03:53.365870,0.0047782161345558665
2023-01-28 10:03:53.370870,0.019881527870893406
2023-01-28 10:03:53.375870,0.035879353937605184
2023-01-28 10:03:53.380870,0.05173524469137192
2023-01-28 10:03:53.385870,0.0663953672074683
2023-01-28 10:03:53.390870,0.07918953895568838
2023-01-28 10:03:53.395870,0.08980838080252042
2023-01-28 10:03:53.400870,0.09806136786937705
2023-01-28 10:03:53.405870,0.10386868729859393
2023-01-28 10:03:53.410870,0.10731697082519528
2023-01-28 10:03:53.415870,0.10842839509086574
2023-01-28 10:03:53.420870,0.10693232715129847
2023-01-28 10:03:53.425870,0.10247147278380896
2023-01-28 10:03:53.430870,0.0949601382017135
2023-01-28 10:03:53.435870,0.08459676882712704
2023-01-28 10:03:53.440870,0.0717129334807395
2023-01-28 10:03:53.445870,0.056868378529666724
2023-01-28 10:03:53.450870,0.04096508026123049
2023-01-28 10:03:53.455870,0.024981712956493433
2023-01-28 10:03:53.460870,0.009616216644644737
2023-01-28 10:03:53.465870,-0.0046812930745799685
2023-01-28 10:03:53.470870,-0.017501514405011978
2023-01-28 10:03:53.475870,-0.02854465581153852
2023-01-28 10:03:53.480870,-0.037767689675092544
2023-01-28 10:03:53.485870,-0.045224760274850985
2023-01-28 10:03:53.490870,-0.05086978524923328
2023-01-28 10:03:53.495870,-0.05472836555018059
2023-01-28 10:03:53.500870,-0.05712032318115229
2023-01-28 10:03:53.505870,-0.058457400440899504
2023-01-28 10:03:53.510870,-0.05892336368560791
2023-01-28 10:03:53.515870,-0.05856875024695457
2023-01-28 10:03:53.520870,-0.05757709592580793
2023-01-28 10:03:53.525870,-0.05618604158584435
2023-01-28 10:03:53.530870,-0.054475866258144226
2023-01-28 10:03:53.535870,-0.052499333767400236
2023-01-28 10:03:53.540870,-0.05050917714834214
2023-01-28 10:03:53.545870,-0.04879838453571007
2023-01-28 10:03:53.550870,-0.047407947480678544
2023-01-28 10:03:53.555870,-0.04621150523970743
2023-01-28 10:03:53.560870,-0.0451481342315672
2023-01-28 10:03:53.565870,-0.04412047497951247
2023-01-28 10:03:53.570870,-0.04281620308756823
2023-01-28 10:03:53.575870,-0.04094701885177585
2023-01-28 10:03:53.580870,-0.03860910981893535
2023-01-28 10:03:53.585870,-0.03618479839238483
2023-01-28 10:03:53.590870,-0.03399332612752912
2023-01-28 10:03:53.595870,-0.03223664927994671
2023-01-28 10:03:53.600870,-0.031084418296813937
2023-01-28 10:03:53.605870,-0.03048679346087929
2023-01-28 10:03:53.610870,-0.030026635155081676
2023-01-28 10:03:53.615870,-0.02928709320957334
2023-01-28 10:03:53.620870,-0.02831975743174553
2023-01-28 10:03:53.625870,-0.027523866376809883
2023-01-28 10:03:53.630870,-0.02718985080718977
2023-01-28 10:03:53.635870,-0.02740035252290315
2023-01-28 10:03:53.640870,-0.028175514191388983
2023-01-28 10:03:53.645870,-0.02933930637911194
2023-01-28 10:03:53.650870,-0.030339162796735562
2023-01-28 10:03:53.655870,-0.030572195267905635
2023-01-28 10:03:53.660870,-0.029906433075666466
2023-01-28 10:03:53.665870,-0.028675225778398535
2023-01-28 10:03:53.670870,-0.02728601358830914
2023-01-28 10:03:53.675870,-0.026098707085422033
2023-01-28 10:03:53.680870,-0.02550701424479477
2023-01-28 10:03:53.685870,-0.025730417401381902
2023-01-28 10:03:53.690870,-0.026540756225585767
2023-01-28 10:03:53.695870,-0.027486634621678867
2023-01-28 10:03:53.700870,-0.02834379673004147
2023-01-28 10:03:53.705870,-0.02909881786640805
2023-01-28 10:03:53.710870,-0.02961794659495354
2023-01-28 10:03:53.715870,-0.02966217146843574
2023-01-28 10:03:53.720870,-0.02916117571294304
2023-01-28 10:03:53.725870,-0.02818527732950937
2023-01-28 10:03:53.730870,-0.026757121086120605
2023-01-28 10:03:53.735870,-0.025017122415442107
2023-01-28 10:03:53.740870,-0.0234635677188634
2023-01-28 10:03:53.745870,-0.02262235898478346
2023-01-28 10:03:53.750870,-0.022429823875427093
2023-01-28 10:03:53.755870,-0.022158427263645468
2023-01-28 10:03:53.760870,-0.020867189392447374
2023-01-28 10:03:53.765870,-0.01772081782937536
2023-01-28 10:03:53.770870,-0.01216451358050097
2023-01-28 10:03:53.775870,-0.004376892523329111
2023-01-28 10:03:53.780870,0.004327297210693307
2023-01-28 10:03:53.785870,0.01187063596947982
2023-01-28 10:03:53.790870,0.016347568482160492
2023-01-28 10:03:53.795870,0.016633177967032998
2023-01-28 10:03:53.800870,0.012501081451773685
2023-01-28 10:03:53.805870,0.0047157974570278234
2023-01-28 10:03:53.810870,-0.005000432487577105
2023-01-28 10:03:53.815870,-0.014592569796391022
2023-01-28 10:03:53.820870,-0.022550027817487696
2023-01-28 10:03:53.825870,-0.028214744020500452
2023-01-28 10:03:53.830870,-0.03154119104146948
2023-01-28 10:03:53.835870,-0.03296253965783591
2023-01-28 10:03:53.840870,-0.033368270844221115
2023-01-28 10:03:53.845870,-0.03372309445803438
2023-01-28 10:03:53.850870,-0.03454625606536858
2023-01-28 10:03:53.855870,-0.03582135397861577
2023-01-28 10:03:53.860870,-0.03699839115142815
2023-01-28 10:03:53.865870,-0.03629384904090467
2023-01-28 10:03:53.870870,-0.02961794659495344
2023-01-28 10:03:53.875870,-0.010431065722352651
2023-01-28 10:03:53.880870,0.028800567612051887
2023-01-28 10:03:53.885870,0.09386839729780198
2023-01-28 10:03:53.890870,0.18532852828502638
2023-01-28 10:03:53.895870,0.29527331107019733
2023-01-28 10:03:53.900870,0.40654957294464095
2023-01-28 10:03:53.905870,0.49632712787079614
2023-01-28 10:03:53.910870,0.5432441234588621
2023-01-28 10:03:53.915870,0.5348436186337262
2023-01-28 10:03:53.920870,0.472060054540634
2023-01-28 10:03:53.925870,0.3691332155984078
2023-01-28 10:03:53.930870,0.24884364008903487
2023-01-28 10:03:53.935870,0.13469210362073472
2023-01-28 10:03:53.940870,0.04353741928935053
2023-01-28 10:03:53.945870,-0.0178566142567022
2023-01-28 10:03:53.950870,-0.051687162369489725
2023-01-28 10:03:53.955870,-0.065411612306746
2023-01-28 10:03:53.960870,-0.06772220134735102
2023-01-28 10:03:53.965870,-0.06542531451535843
2023-01-28 10:03:53.970870,-0.06204863637685768
2023-01-28 10:03:53.975870,-0.05849106661725396
2023-01-28 10:03:53.980870,-0.05466818809509264
2023-01-28 10:03:53.985870,-0.05053493715594335
2023-01-28 10:03:53.990870,-0.0461578369140625
2023-01-28 10:03:53.995870,-0.04169451623022802
2023-01-28 10:03:54.000870,-0.03755132481455793
2023-01-28 10:03:54.005870,-0.0341886937239164
2023-01-28 10:03:54.010870,-0.03166139125823972
2023-01-28 10:03:54.015870,-0.029640221169094625
2023-01-28 10:03:54.020870,-0.02788702771067609
2023-01-28 10:03:54.025870,-0.026382335035455166
2023-01-28 10:03:54.030870,-0.02502620220184309
2023-01-28 10:03:54.035870,-0.023613895133252186
2023-01-28 10:03:54.040870,-0.022117298096418266
2023-01-28 10:03:54.045870,-0.02058529225723013
2023-01-28 10:03:54.050870,-0.018703540787100716
2023-01-28 10:03:54.055870,-0.01580173485803738
2023-01-28 10:03:54.060870,-0.011347135528921986
2023-01-28 10:03:54.065870,-0.0051404593785392095
2023-01-28 10:03:54.070870,0.002908905502408743
2023-01-28 10:03:54.075870,0.012778212679847413
2023-01-28 10:03:54.080870,0.024088621139526353
2023-01-28 10:03:54.085870,0.03629811014539994
2023-01-28 10:03:54.090870,0.04923502728342998
2023-01-28 10:03:54.095870,0.06311183666263188
2023-01-28 10:03:54.100870,0.07796347141265869
2023-01-28 10:03:54.105870,0.093365339068486
2023-01-28 10:03:54.110870,0.10863920301198944
2023-01-28 10:03:54.115870,0.12292005166666187
2023-01-28 10:03:54.120870,0.1350597590208053
2023-01-28 10:03:54.125870,0.14402189686598968
2023-01-28 10:03:54.130870,0.14960429072380058
2023-01-28 10:03:54.135870,0.15249930011770726
2023-01-28 10:03:54.140870,0.15357097983360274
2023-01-28 10:03:54.145870,0.1533038903825393
2023-01-28 10:03:54.150870,0.15179197490215296
2023-01-28 10:03:54.155870,0.14869853037284186
2023-01-28 10:03:54.160870,0.14313738048076616
2023-01-28 10:03:54.165870,0.13413268494129707
2023-01-28 10:03:54.170870,0.12150089442729939
2023-01-28 10:03:54.175870,0.10608729664353833
2023-01-28 10:03:54.180870,0.08914232254028312
2023-01-28 10:03:54.185870,0.07180432398016764
2023-01-28 10:03:54.190870,0.055100917816162144
2023-01-28 10:03:54.195870,0.03982967737395682
2023-01-28 10:03:54.200870,0.026180148124694765
2023-01-28 10:03:54.205870,0.013857326304239734
2023-01-28 10:03:54.210870,0.0027646622620522217
2023-01-28 10:03:54.215870,-0.006767885558128076
2023-01-28 10:03:54.220870,-0.014520486816763687
2023-01-28 10:03:54.225870,-0.02069934782003141
2023-01-28 10:03:54.230870,-0.025531053543090744
2023-01-28 10:03:54.235870,-0.028960335069925406
2023-01-28 10:03:54.240870,-0.030988257378339632
2023-01-28 10:03:54.245870,-0.03192228297802859
2023-01-28 10:03:54.250870,-0.03197392076253879
2023-01-28 10:03:54.255870,-0.030874937314912233
2023-01-28 10:03:54.260870,-0.028199553489684982
2023-01-28 10:03:54.265870,-0.023941366773986752
2023-01-28 10:03:54.270870,-0.018631419166922444
2023-01-28 10:03:54.275870,-0.01308165531571024
2023-01-28 10:03:54.280870,-0.008125702850520633
2023-01-28 10:03:54.285870,-0.004341060992196494
2023-01-28 10:03:54.290870,-0.0017790000420062502
2023-01-28 10:03:54.295870,-3.921967619442057e-05
2023-01-28 10:03:54.300870,0.001322229742072532
2023-01-28 10:03:54.305870,0.0025616364152731895
2023-01-28 10:03:54.310870,0.003846486564725628
2023-01-28 10:03:54.315870,0.005279866527296415
2023-01-28 10:03:54.320870,0.006755392067134238
2023-01-28 10:03:54.325870,0.008027920254126308
2023-01-28 10:03:54.330870,0.008991162292659156
2023-01-28 10:03:54.335870,0.009679265330108986
2023-01-28 10:03:54.340870,0.010000864975154294
2023-01-28 10:03:54.345870,0.009756571580230546
2023-01-28 10:03:54.350870,0.008967122063040704
2023-01-28 10:03:54.355870,0.007924482163007342
2023-01-28 10:03:54.360870,0.006875594612210932
2023-01-28 10:03:54.365870,0.00589385021663206
2023-01-28 10:03:54.370870,0.005048513412475567
2023-01-28 10:03:54.375870,0.004386154426107069
2023-01-28 10:03:54.380870,0.003702243324369102
2023-01-28 10:03:54.385870,0.0026370383270540782
2023-01-28 10:03:54.390870,0.001081824302673348
2023-01-28 10:03:54.395870,-0.0007342442267916406
2023-01-28 10:03:54.400870,-0.00254829740151757
2023-01-28 10:03:54.405870,-0.004160940581543068
2023-01-28 10:03:54.410870,-0.005240838043391695
2023-01-28 10:03:54.415870,-0.005398436100645621
2023-01-28 10:03:54.420870,-0.004567702766507712
2023-01-28 10:03:54.425870,-0.003083657775073291
2023-01-28 10:03:54.430870,-0.0013703107833861168
2023-01-28 10:03:54.435870,0.00018805902674536886
2023-01-28 10:03:54.440870,0.00112990546040236
2023-01-28 10:03:54.445870,0.0011047402356791072
2023-01-28 10:03:54.450870,0.0003365675802341741
2023-01-28 10:03:54.455870,-0.00033344560610212663
2023-01-28 10:03:54.460870,7.212162017822266e-05
2023-01-28 10:03:54.465870,0.0023039023872081545
2023-01-28 10:03:54.470870,0.0068034729920326805
2023-01-28 10:03:54.475870,0.01343441539989676
2023-01-28 10:03:54.480870,0.021107595413923205
2023-01-28 10:03:54.485870,0.02798772751721388
2023-01-28 10:03:54.490870,0.032286446541547706
2023-01-28 10:03:54.495870,0.032850857927642474
2023-01-28 10:03:54.500870,0.02928137779235828
2023-01-28 10:03:54.505870,0.022049759362059006
2023-01-28 10:03:54.510870,0.012621283531188899
2023-01-28 10:03:54.515870,0.0030098874714159576
2023-01-28 10:03:54.520870,-0.005120635032653811
2023-01-28 10:03:54.525870,-0.010939382993574252
2023-01-28 10:03:54.530870,-0.014280080795288023
2023-01-28 10:03:54.535870,-0.01545827784611471
2023-01-28 10:03:54.540870,-0.015289783477783207
2023-01-28 10:03:54.545870,-0.014845574487514146
2023-01-28 10:03:54.550870,-0.014953216537833252
2023-01-28 10:03:54.555870,-0.016011341869887643
2023-01-28 10:03:54.560870,-0.017982324585318583
2023-01-28 10:03:54.565870,-0.0197338913413881
2023-01-28 10:03:54.570870,-0.01776595972478378
2023-01-28 10:03:54.575870,-0.00557463817262083
2023-01-28 10:03:54.580870,0.02533872984349712
2023-01-28 10:03:54.585870,0.08282293883621902
2023-01-28 10:03:54.590870,0.1702551096677779
2023-01-28 10:03:54.595870,0.2825378669611397
2023-01-28 10:03:54.600870,0.40414553880691506
2023-01-28 10:03:54.605870,0.5115861976230592
2023-01-28 10:03:54.610870,0.5802665352821347
2023-01-28 10:03:54.615870,0.5928329534200495
2023-01-28 10:03:54.620870,0.5453356504440305
2023-01-28 10:03:54.625870,0.448807986533875
2023-01-28 10:03:54.630870,0.3255089223384856
2023-01-28 10:03:54.635870,0.20108227465320863
2023-01-28 10:03:54.640870,0.09613811969757083
2023-01-28 10:03:54.645870,0.021227663415760295
2023-01-28 10:03:54.650870,-0.02327124401926983
2023-01-28 10:03:54.655870,-0.04386076400264878
2023-01-28 10:03:54.660870,-0.04959563538432125
2023-01-28 10:03:54.665870,-0.048377662854543264
2023-01-28 10:03:54.670870,-0.04497985169291492
2023-01-28 10:03:54.675870,-0.04125735394159054
2023-01-28 10:03:54.680870,-0.037623446434736176
2023-01-28 10:03:54.685870,-0.03416887148937698
2023-01-28 10:03:54.690870,-0.030892094597220397
2023-01-28 10:03:54.695870,-0.027730573094177695
2023-01-28 10:03:54.700870,-0.02473771572113028
2023-01-28 10:03:54.705870,-0.022013680292960698
2023-01-28 10:03:54.710870,-0.01942475698888305
2023-01-28 10:03:54.715870,-0.016696856261705854
2023-01-28 10:03:54.720870,-0.013823310844600247
2023-01-28 10:03:54.725870,-0.011075893667402689
2023-01-28 10:03:54.730870,-0.008582472801208373
2023-01-28 10:03:54.735870,-0.006180996063424216
2023-01-28 10:03:54.740870,-0.0036782026290893056
2023-01-28 10:03:54.745870,-0.0009285331858595933
2023-01-28 10:03:54.750870,0.002331932540982933
2023-01-28 10:03:54.755870,0.006369978342458113
2023-01-28 10:03:54.760870,0.011130770668387403
2023-01-28 10:03:54.765870,0.01634294394944819
2023-01-28 10:03:54.770870,0.021997094154357986
2023-01-28 10:03:54.775870,0.02847976240109436
2023-01-28 10:03:54.780870,0.036277174949645954
2023-01-28 10:03:54.785870,0.045823049594138444
2023-01-28 10:03:54.790870,0.05752901360392573
2023-01-28 10:03:54.795870,0.07153439877512949
2023-01-28 10:03:54.800870,0.08733928203582755
2023-01-28 10:03:54.805870,0.10393740175990941
2023-01-28 10:03:54.810870,0.12032290548086153
2023-01-28 10:03:54.815870,0.13569993872652883
2023-01-28 10:03:54.820870,0.1493879258632659
2023-01-28 10:03:54.825870,0.16089706858294292
2023-01-28 10:03:54.830870,0.1700387448072433
2023-01-28 10:03:54.835870,0.17664804249275207
2023-01-28 10:03:54.840870,0.18025597929954512
2023-01-28 10:03:54.845870,0.18029155147591583
2023-01-28 10:03:54.850870,0.1765056550502777
2023-01-28 10:03:54.855870,0.16901327422206322
2023-01-28 10:03:54.860870,0.158186763525009
2023-01-28 10:03:54.865870,0.1447975224845878
2023-01-28 10:03:54.870870,0.12996315956115717
2023-01-28 10:03:54.875870,0.11458065778805439
2023-01-28 10:03:54.880870,0.09902298450469971
2023-01-28 10:03:54.885870,0.0835841254631448
2023-01-28 10:03:54.890870,0.06873190402984608
2023-01-28 10:03:54.895870,0.054604747626938
2023-01-28 10:03:54.900870,0.04094104096293445
2023-01-28 10:03:54.905870,0.02807478853410131
2023-01-28 10:03:54.910870,0.0172611083835363
2023-01-28 10:03:54.915870,0.009164473091409315
2023-01-28 10:03:54.920870,0.002692540641873895
2023-01-28 10:03:54.925870,-0.0035780520895556073
2023-01-28 10:03:54.930870,-0.00932773016393179
2023-01-28 10:03:54.935870,-0.013098282974805404
2023-01-28 10:03:54.940870,-0.014640688896179104
2023-01-28 10:03:54.945870,-0.015269543853394964
2023-01-28 10:03:54.950870,-0.015938878059387207
2023-01-28 10:03:54.955870,-0.01636885966307036
2023-01-28 10:03:54.960870,-0.01625140570104117
2023-01-28 10:03:54.965870,-0.015928078281636917
2023-01-28 10:03:54.970870,-0.01540998648852095
2023-01-28 10:03:54.975870,-0.013920560843189355
2023-01-28 10:03:54.980870,-0.011034607887268004
2023-01-28 10:03:54.985870,-0.007378652696801787
2023-01-28 10:03:54.990870,-0.0037022433243690616
2023-01-28 10:03:54.995870,-0.00010017512301238203
2023-01-28 10:03:55.000870,0.0033897161483764436
2023-01-28 10:03:55.005870,0.006299504103324876
2023-01-28 10:03:55.010870,0.008414189331233557
2023-01-28 10:03:55.015870,0.010211839413857613
2023-01-28 10:03:55.020870,0.012092391960322805
2023-01-28 10:03:55.025870,0.01381506754252299
2023-01-28 10:03:55.030870,0.015145540237426695
2023-01-28 10:03:55.035870,0.01636898768838791
2023-01-28 10:03:55.040870,0.017669796943664533
2023-01-28 10:03:55.045870,0.018649592368781776
2023-01-28 10:03:55.050870,0.018967986106872472
2023-01-28 10:03:55.055870,0.018890333186348543
2023-01-28 10:03:55.060870,0.018751621246337738
2023-01-28 10:03:55.065870,0.018446432643861196
2023-01-28 10:03:55.070870,0.017862122505903223
2023-01-28 10:03:55.075870,0.017199912746655048
2023-01-28 10:03:55.080870,0.01639564894139758
2023-01-28 10:03:55.085870,0.014806095832969646
2023-01-28 10:03:55.090870,0.01199623011052598
2023-01-28 10:03:55.095870,0.008403755351463791
2023-01-28 10:03:55.100870,0.004856189247220771
2023-01-28 10:03:55.105870,0.0019343016092532015
2023-01-28 10:03:55.110870,0.00012020270514762998
2023-01-28 10:03:55.115870,-0.00011052055444008483
2023-01-28 10:03:55.120870,0.0011058648815377551
2023-01-28 10:03:55.125870,0.002807818942010402
2023-01-28 10:03:55.130870,0.0040868921205401455
2023-01-28 10:03:55.135870,0.00480619298394617
2023-01-28 10:03:55.140870,0.005168716423213406
2023-01-28 10:03:55.145870,0.005153013863171073
2023-01-28 10:03:55.150870,0.004784067627042487
2023-01-28 10:03:55.155870,0.004402319422367597
2023-01-28 10:03:55.160870,0.004183053970336836
2023-01-28 10:03:55.165870,0.0038423542616859026
2023-01-28 10:03:55.170870,0.0032214324455707506
2023-01-28 10:03:55.175870,0.002681592101634571
2023-01-28 10:03:55.180870,0.0025242567062377006
2023-01-28 10:03:55.185870,0.002523680238318436
2023-01-28 10:03:55.190870,0.002476175781339478
2023-01-28 10:03:55.195870,0.0027811839784290817
2023-01-28 10:03:55.200870,0.004110932350158589
2023-01-28 10:03:55.205870,0.006957118478664694
2023-01-28 10:03:55.210870,0.01177986524999147
2023-01-28 10:03:55.215870,0.018917958422669006
2023-01-28 10:03:55.220870,0.027742784470319765
2023-01-28 10:03:55.225870,0.03628655684257644
2023-01-28 10:03:55.230870,0.04221519082784653
2023-01-28 10:03:55.235870,0.04400156054165443
2023-01-28 10:03:55.240870,0.04115740582346917
2023-01-28 10:03:55.245870,0.03415089375939954
2023-01-28 10:03:55.250870,0.024641554802656177
2023-01-28 10:03:55.255870,0.015163586983770358
2023-01-28 10:03:55.260870,0.007789134979248037
2023-01-28 10:03:55.265870,0.003140214564205299
2023-01-28 10:03:55.270870,0.0007933378219604587
2023-01-28 10:03:55.275870,5.242062053476578e-05
2023-01-28 10:03:55.280870,9.473903143468002e-18
2023-01-28 10:03:55.285870,-0.0005008662030763465
2023-01-28 10:03:55.290870,-0.0021636486053466133
2023-01-28 10:03:55.295870,-0.0048369203140149085
2023-01-28 10:03:55.300870,-0.007765094749629459
2023-01-28 10:03:55.305870,-0.009307755851286164
2023-01-28 10:03:55.310870,-0.005433162208646517
2023-01-28 10:03:55.315870,0.011280136204612034
2023-01-28 10:03:55.320870,0.05022069066762917
2023-01-28 10:03:55.325870,0.11925912423219072
2023-01-28 10:03:55.330870,0.22064408659934986
2023-01-28 10:03:55.335870,0.3472404348186761
2023-01-28 10:03:55.340870,0.4807627201080321
2023-01-28 10:03:55.345870,0.5946752068034222
2023-01-28 10:03:55.350870,0.6622447967529295
2023-01-28 10:03:55.355870,0.6660477186316449
2023-01-28 10:03:55.360870,0.6041147708892822
2023-01-28 10:03:55.365870,0.4905580401574895
2023-01-28 10:03:55.370870,0.3509678542613982
2023-01-28 10:03:55.375870,0.2139109951276639
2023-01-28 10:03:55.380870,0.10161936283111568
2023-01-28 10:03:55.385870,0.024410403909118826
2023-01-28 10:03:55.390870,-0.01884778402745716
2023-01-28 10:03:55.395870,-0.03633937327818639
2023-01-28 10:03:55.400870,-0.03851294517517074
2023-01-28 10:03:55.405870,-0.0344130049485241
2023-01-28 10:03:55.410870,-0.029425621032714778
2023-01-28 10:03:55.415870,-0.025197825323134058
2023-01-28 10:03:55.420870,-0.021564364433288512
2023-01-28 10:03:55.425870,-0.01834223328322886
2023-01-28 10:03:55.430870,-0.015482108108699329
2023-01-28 10:03:55.435870,-0.012690250457639907
2023-01-28 10:03:55.440870,-0.00985662173479788
2023-01-28 10:03:55.445870,-0.007472336203570511
2023-01-28 10:03:55.450870,-0.006034175865352102
2023-01-28 10:03:55.455870,-0.005438001843481134
2023-01-28 10:03:55.460870,-0.005409121513366586
2023-01-28 10:03:55.465870,-0.00595303007392665
2023-01-28 10:03:55.470870,-0.006803472992032667
2023-01-28 10:03:55.475870,-0.006986742495747497
2023-01-28 10:03:55.480870,-0.005601446144282841
2023-01-28 10:03:55.485870,-0.0026181538828693976
2023-01-28 10:03:55.490870,0.0015866756439207846
2023-01-28 10:03:55.495870,0.006904552718252343
2023-01-28 10:03:55.500870,0.013126134872436518
2023-01-28 10:03:55.505870,0.019568133475741076
2023-01-28 10:03:55.510870,0.025843581184744925
2023-01-28 10:03:55.515870,0.03250795382730016
2023-01-28 10:03:55.520870,0.04024386405944811
2023-01-28 10:03:55.525870,0.048939360373111584
2023-01-28 10:03:55.530870,0.05827426910400398
2023-01-28 10:03:55.535870,0.06857968111076382
2023-01-28 10:03:55.540870,0.08024732768535607
2023-01-28 10:03:55.545870,0.09287151724633072
2023-01-28 10:03:55.550870,0.1059226244688034
2023-01-28 10:03:55.555870,0.11966470344481789
2023-01-28 10:03:55.560870,0.13421833515167225
2023-01-28 10:03:55.565870,0.14812169523657218
2023-01-28 10:03:55.570870,0.15914838016033167
2023-01-28 10:03:55.575870,0.1664871396629475
2023-01-28 10:03:55.580870,0.17095229029655448
2023-01-28 10:03:55.585870,0.17305463182746644
2023-01-28 10:03:55.590870,0.1720821857452392
2023-01-28 10:03:55.595870,0.16732383821654684
2023-01-28 10:03:55.600870,0.15910029411315907
2023-01-28 10:03:55.605870,0.1481241505147571
2023-01-28 10:03:55.610870,0.1346751153469085
2023-01-28 10:03:55.615870,0.11893798093715008
2023-01-28 10:03:55.620870,0.10161936283111564
2023-01-28 10:03:55.625870,0.08382011011558459
2023-01-28 10:03:55.630870,0.06666442006826392
2023-01-28 10:03:55.635870,0.05125376484604374
2023-01-28 10:03:55.640870,0.03851294517517073
2023-01-28 10:03:55.645870,0.028734930507350345
2023-01-28 10:03:55.650870,0.021468203514814328
2023-01-28 10:03:55.655870,0.01596033262609465
2023-01-28 10:03:55.660870,0.011539459228515625
2023-01-28 10:03:55.665870,0.007691147582137622
2023-01-28 10:03:55.670870,0.004207094665616732
2023-01-28 10:03:55.675870,0.0013293291164303582
2023-01-28 10:03:55.680870,-0.0005769729614257055
2023-01-28 10:03:55.685870,-0.0015469325486441741
2023-01-28 10:03:55.690870,-0.001995364902540999
2023-01-28 10:03:55.695870,-0.002263409590884393
2023-01-28 10:03:55.700870,-0.0024521350860594376
2023-01-28 10:03:55.705870,-0.0025494931747712998
2023-01-28 10:03:55.710870,-0.0023559730034320597
2023-01-28 10:03:55.715870,-0.0013954846009089769
2023-01-28 10:03:55.720870,0.0006971756811253726
2023-01-28 10:03:55.725870,0.0036955499152485677
2023-01-28 10:03:55.730870,0.006923675537109379
2023-01-28 10:03:55.735870,0.009753892476055407
2023-01-28 10:03:55.740870,0.01173178385943172
2023-01-28 10:03:55.745870,0.012479986718168846
2023-01-28 10:03:55.750870,0.011924108490347812
2023-01-28 10:03:55.755870,0.010522356905632465
2023-01-28 10:03:55.760870,0.008919040672481017
2023-01-28 10:03:55.765870,0.007449198159848995
2023-01-28 10:03:55.770870,0.006226500030606857
2023-01-28 10:03:55.775870,0.005481228830827852
2023-01-28 10:03:55.780870,0.005433162208646518
2023-01-28 10:03:55.785870,0.005997348453038563
2023-01-28 10:03:55.790870,0.0069717569276689885
2023-01-28 10:03:55.795870,0.008346046644733967
2023-01-28 10:03:55.800870,0.010072986595332675
2023-01-28 10:03:55.805870,0.011718387726583103
2023-01-28 10:03:55.810870,0.012717446312308263
2023-01-28 10:03:55.815870,0.012848211408175245
2023-01-28 10:03:55.820870,0.012164513580500975
2023-01-28 10:03:55.825870,0.010708858642189303
2023-01-28 10:03:55.830870,0.008678635582327805
2023-01-28 10:03:55.835870,0.006661236051229588
2023-01-28 10:03:55.840870,0.005264878273010242
2023-01-28 10:03:55.845870,0.004606526417249316
2023-01-28 10:03:55.850870,0.004447500221431187
2023-01-28 10:03:55.855870,0.0046172799976596434
2023-01-28 10:03:55.860870,0.0049763917922973615
2023-01-28 10:03:55.865870,0.005230703336941947
2023-01-28 10:03:55.870870,0.00521679734811178
2023-01-28 10:03:55.875870,0.005202898649279013
2023-01-28 10:03:55.880870,0.005529324524104427
2023-01-28 10:03:55.885870,0.006116726301516756
2023-01-28 10:03:55.890870,0.006659229751676321
2023-01-28 10:03:55.895870,0.007080901186502681
2023-01-28 10:03:55.900870,0.007452567573636694
2023-01-28 10:03:55.905870,0.007717376886741796
2023-01-28 10:03:55.910870,0.007909337989985974
2023-01-28 10:03:55.915870,0.008416460757433936
2023-01-28 10:03:55.920870,0.009592175483703632
2023-01-28 10:03:55.925870,0.011260843461164296
2023-01-28 10:03:55.930870,0.012957851402461666
2023-01-28 10:03:55.935870,0.014446575150510994
2023-01-28 10:03:55.940870,0.015650391578674275
2023-01-28 10:03:55.945870,0.016360965938072184
2023-01-28 10:03:55.950870,0.016491811722517003
2023-01-28 10:03:55.955870,0.0164793139120496
2023-01-28 10:03:55.960870,0.017068784683942722
2023-01-28 10:03:55.965870,0.01887334364789927
2023-01-28 10:03:55.970870,0.02240578457713127
2023-01-28 10:03:55.975870,0.02813211843318539
2023-01-28 10:03:55.980870,0.035892527550458915
2023-01-28 10:03:55.985870,0.04435372028156558
2023-01-28 10:03:55.990870,0.05144675821065906
2023-01-28 10:03:55.995870,0.055334132640483126
2023-01-28 10:03:56.000870,0.05490859597921367
2023-01-28 10:03:56.005870,0.04994977579421675
2023-01-28 10:03:56.010870,0.04144589230418203
2023-01-28 10:03:56.015870,0.03155207168579016
2023-01-28 10:03:56.020870,0.02259810827672482
2023-01-28 10:03:56.025870,0.015974848693717007
2023-01-28 10:03:56.030870,0.01199623011052598
2023-01-28 10:03:56.035870,0.010350285391049145
2023-01-28 10:03:56.040870,0.010217229835688983
2023-01-28 10:03:56.045870,0.01031791340720333
2023-01-28 10:03:56.050870,0.009520053863525344
2023-01-28 10:03:56.055870,0.007496698458917668
2023-01-28 10:03:56.060870,0.004808108322322302
2023-01-28 10:03:56.065870,0.00312375899339933
2023-01-28 10:03:56.070870,0.006322662346064968
2023-01-28 10:03:56.075870,0.021364392381014966
2023-01-28 10:03:56.080870,0.0571924448013305
2023-01-28 10:03:56.085870,0.12159690891468346
2023-01-28 10:03:56.090870,0.21727840602397908
2023-01-28 10:03:56.095870,0.33820970260576305
2023-01-28 10:03:56.100870,0.46775680780410744
2023-01-28 10:03:56.105870,0.5808926765721762
2023-01-28 10:03:56.110870,0.6513544321060178
2023-01-28 10:03:56.115870,0.6608754837604562
2023-01-28 10:03:56.120870,0.6058456897735595
2023-01-28 10:03:56.125870,0.4986534111543189
2023-01-28 10:03:56.130870,0.36361318826675404
2023-01-28 10:03:56.135870,0.22885033586021516
2023-01-28 10:03:56.140870,0.11707743257284164
2023-01-28 10:03:56.145870,0.03954850602324632
2023-01-28 10:03:56.150870,-0.004159013740718317
2023-01-28 10:03:56.155870,-0.021989068116098954
2023-01-28 10:03:56.160870,-0.024401148781180302
2023-01-28 10:03:56.165870,-0.020549505486344082
2023-01-28 10:03:56.170870,-0.01605908200144762
2023-01-28 10:03:56.175870,-0.012835001844268343
2023-01-28 10:03:56.180870,-0.010770162567496204
2023-01-28 10:03:56.185870,-0.00955440634158943
2023-01-28 10:03:56.190870,-0.008991162292659192
2023-01-28 10:03:56.195870,-0.008566516015448125
2023-01-28 10:03:56.200870,-0.0077170133590698
2023-01-28 10:03:56.205870,-0.006379225433644375
2023-01-28 10:03:56.210870,-0.004711946006864233
2023-01-28 10:03:56.215870,-0.0025794159343159972
2023-01-28 10:03:56.220870,9.616216266290915e-05
2023-01-28 10:03:56.225870,0.00282971357901168
2023-01-28 10:03:56.230870,0.005120635032653777
2023-01-28 10:03:56.235870,0.007224016690350855
2023-01-28 10:03:56.240870,0.009712378494441542
2023-01-28 10:03:56.245870,0.012608256815862839
2023-01-28 10:03:56.250870,0.015698473900556575
2023-01-28 10:03:56.255870,0.0193353642190317
2023-01-28 10:03:56.260870,0.023968419060111008
2023-01-28 10:03:56.265870,0.029070807246889662
2023-01-28 10:03:56.270870,0.03356059640645987
2023-01-28 10:03:56.275870,0.037356724847924634
2023-01-28 10:03:56.280870,0.04166225716471669
2023-01-28 10:03:56.285870,0.04763204263618291
2023-01-28 10:03:56.290870,0.05558172985911364
2023-01-28 10:03:56.295870,0.06558536417554754
2023-01-28 10:03:56.300870,0.07789134979248032
2023-01-28 10:03:56.305870,0.09231588632778343
2023-01-28 10:03:56.310870,0.10784586519002906
2023-01-28 10:03:56.315870,0.12323765042402893
2023-01-28 10:03:56.320870,0.1376321017742156
2023-01-28 10:03:56.325870,0.15043854626261874
2023-01-28 10:03:56.330870,0.16111969947814936
2023-01-28 10:03:56.335870,0.1693243711162637
2023-01-28 10:03:56.340870,0.17484685778617842
2023-01-28 10:03:56.345870,0.1772998886473806
2023-01-28 10:03:56.350870,0.17619311809539795
2023-01-28 10:03:56.355870,0.17145956578624888
2023-01-28 10:03:56.360870,0.1635958850383757
2023-01-28 10:03:56.365870,0.1532595533724375
2023-01-28 10:03:56.370870,0.1410698890686034
2023-01-28 10:03:56.375870,0.12776160447197382
2023-01-28 10:03:56.380870,0.11407236754894245
2023-01-28 10:03:56.385870,0.10039518642602414
2023-01-28 10:03:56.390870,0.08688251674175262
2023-01-28 10:03:56.395870,0.07389247331274312
2023-01-28 10:03:56.400870,0.06197651475667946
2023-01-28 10:03:56.405870,0.05146534892527937
2023-01-28 10:03:56.410870,0.04245559498667719
2023-01-28 10:03:56.415870,0.035158831806755074
2023-01-28 10:03:56.420870,0.02983431145548828
2023-01-28 10:03:56.425870,0.026366977116864233
2023-01-28 10:03:56.430870,0.02428094670176505
2023-01-28 10:03:56.435870,0.023138882384374983
2023-01-28 10:03:56.440870,0.02257406711578371
2023-01-28 10:03:56.445870,0.022048773943057525
2023-01-28 10:03:56.450870,0.021083554252982185
2023-01-28 10:03:56.455870,0.019772104761690414
2023-01-28 10:03:56.460870,0.0187035407871007
2023-01-28 10:03:56.465870,0.01838105922538584
2023-01-28 10:03:56.470870,0.019016068428754817
2023-01-28 10:03:56.475870,0.020719799124992097
2023-01-28 10:03:56.480870,0.023391446098685185
2023-01-28 10:03:56.485870,0.026436926100777573
2023-01-28 10:03:56.490870,0.029065012931823685
2023-01-28 10:03:56.495870,0.030935819316502824
2023-01-28 10:03:56.500870,0.03223836421966551
2023-01-28 10:03:56.505870,0.03324969757059538
2023-01-28 10:03:56.510870,0.034209690988063785
2023-01-28 10:03:56.515870,0.03549302443351537
2023-01-28 10:03:56.520870,0.03738304227590563
2023-01-28 10:03:56.525870,0.03963522206991771
2023-01-28 10:03:56.530870,0.04163821786642072
2023-01-28 10:03:56.535870,0.042997248132328164
2023-01-28 10:03:56.540870,0.04365762323141091
2023-01-28 10:03:56.545870,0.04362119853143452
2023-01-28 10:03:56.550870,0.04300852864980692
2023-01-28 10:03:56.555870,0.04232643582970794
2023-01-28 10:03:56.560870,0.042191147804260254
2023-01-28 10:03:56.565870,0.04275039084973106
2023-01-28 10:03:56.570870,0.04370570182800286
2023-01-28 10:03:56.575870,0.04480755827590752
2023-01-28 10:03:56.580870,0.04594147205352782
2023-01-28 10:03:56.585870,0.046849940293795855
2023-01-28 10:03:56.590870,0.04723966121673571
2023-01-28 10:03:56.595870,0.0471318677323256
2023-01-28 10:03:56.600870,0.046710770577192307
2023-01-28 10:03:56.605870,0.04590870997936944
2023-01-28 10:03:56.610870,0.04457116127014163
2023-01-28 10:03:56.615870,0.04296565201544888
2023-01-28 10:03:56.620870,0.04168629646301258
2023-01-28 10:03:56.625870,0.041067832535422524
2023-01-28 10:03:56.630870,0.0410372018814086
2023-01-28 10:03:56.635870,0.04141405192778031
2023-01-28 10:03:56.640870,0.04192670434713362
2023-01-28 10:03:56.645870,0.04205118749308131
2023-01-28 10:03:56.650870,0.04134973138570784
2023-01-28 10:03:56.655870,0.03999739818563568
2023-01-28 10:03:56.660870,0.038609109818935373
2023-01-28 10:03:56.665870,0.03759843013974913
2023-01-28 10:03:56.670870,0.03704647347331049
2023-01-28 10:03:56.675870,0.037037890611780325
2023-01-28 10:03:56.680870,0.03764748573303223
2023-01-28 10:03:56.685870,0.03865916722059481
2023-01-28 10:03:56.690870,0.03973901271820076
2023-01-28 10:03:56.695870,0.040841948094132684
2023-01-28 10:03:56.700870,0.042070947587490005
2023-01-28 10:03:56.705870,0.04327581978913519
2023-01-28 10:03:56.710870,0.04428267478942876
2023-01-28 10:03:56.715870,0.045484530876956454
2023-01-28 10:03:56.720870,0.04776855558156957
2023-01-28 10:03:56.725870,0.0518425933658529
2023-01-28 10:03:56.730870,0.05786558240652082
2023-01-28 10:03:56.735870,0.06542230636107915
2023-01-28 10:03:56.740870,0.0732755661010742
2023-01-28 10:03:56.745870,0.07927005637428104
2023-01-28 10:03:56.750870,0.08118490874767303
2023-01-28 10:03:56.755870,0.07801208508437832
2023-01-28 10:03:56.760870,0.07036666572093954
2023-01-28 10:03:56.765870,0.05995834176514188
2023-01-28 10:03:56.770870,0.04904270172119141
2023-01-28 10:03:56.775870,0.039960917711423405
2023-01-28 10:03:56.780870,0.034281812608242014
2023-01-28 10:03:56.785870,0.03204790565796168
2023-01-28 10:03:56.790870,0.03209412097930906
2023-01-28 10:03:56.795870,0.03306575044124193
2023-01-28 10:03:56.800870,0.03392120450735095
2023-01-28 10:03:56.805870,0.03386285322437311
2023-01-28 10:03:56.810870,0.032574933022260645
2023-01-28 10:03:56.815870,0.030787598941114498
2023-01-28 10:03:56.820870,0.030531486496329287
2023-01-28 10:03:56.825870,0.0353007848537891
2023-01-28 10:03:56.830870,0.05058129876852024
2023-01-28 10:03:56.835870,0.083736809879122
2023-01-28 10:03:56.840870,0.1417189836502075
2023-01-28 10:03:56.845870,0.22702995641577733
2023-01-28 10:03:56.850870,0.3342115879058836
2023-01-28 10:03:56.855870,0.44871638308664236
2023-01-28 10:03:56.860870,0.5489417314529417
2023-01-28 10:03:56.865870,0.6117681818395396
2023-01-28 10:03:56.870870,0.620510399341583
2023-01-28 10:03:56.875870,0.5716299786425549
2023-01-28 10:03:56.880870,0.4762671589851378
2023-01-28 10:03:56.885870,0.3559701816302268
2023-01-28 10:03:56.890870,0.23530881106853477
2023-01-28 10:03:56.895870,0.13445509506236608
2023-01-28 10:03:56.900870,0.06399592012166969
2023-01-28 10:03:56.905870,0.023855403284071142
2023-01-28 10:03:56.910870,0.006659229751676383
2023-01-28 10:03:56.915870,0.002952183147710253
2023-01-28 10:03:56.920870,0.004856189247220733
2023-01-28 10:03:56.925870,0.007312139631891329
2023-01-28 10:03:56.930870,0.008173784241080248
2023-01-28 10:03:56.935870,0.007672138707526869
2023-01-28 10:03:56.940870,0.0069717569276689815
2023-01-28 10:03:56.945870,0.006744340472518051
2023-01-28 10:03:56.950870,0.007116000168025434
2023-01-28 10:03:56.955870,0.008360487487308844
2023-01-28 10:03:56.960870,0.010722081176936536
2023-01-28 10:03:56.965870,0.013745129861280143
2023-01-28 10:03:56.970870,0.016708176583051633
2023-01-28 10:03:56.975870,0.019695620147354015
2023-01-28 10:03:56.980870,0.02336740493774414
2023-01-28 10:03:56.985870,0.0276932931517098
2023-01-28 10:03:56.990870,0.03190179914236059
2023-01-28 10:03:56.995870,0.035816240518975674
2023-01-28 10:03:57.000870,0.040219824761152205
2023-01-28 10:03:57.005870,0.04553261916282157
2023-01-28 10:03:57.010870,0.05101402848958962
2023-01-28 10:03:57.015870,0.055769674277865236
2023-01-28 10:03:57.020870,0.05986094474792476
2023-01-28 10:03:57.025870,0.06396553707464347
2023-01-28 10:03:57.030870,0.06858766078948969
2023-01-28 10:03:57.035870,0.07413091052301311
2023-01-28 10:03:57.040870,0.081232987344265
2023-01-28 10:03:57.045870,0.09044119290753809
2023-01-28 10:03:57.050870,0.10178764909505841
2023-01-28 10:03:57.055870,0.11498769205254526
2023-01-28 10:03:57.060870,0.1297227591276168
2023-01-28 10:03:57.065870,0.14543280302882855
2023-01-28 10:03:57.070870,0.16116778552532188
2023-01-28 10:03:57.075870,0.1759667020866892
2023-01-28 10:03:57.080870,0.18917500972747792
2023-01-28 10:03:57.085870,0.20025692492264624
2023-01-28 10:03:57.090870,0.20864784717559803
2023-01-28 10:03:57.095870,0.2139932193171706
2023-01-28 10:03:57.100870,0.21622061729431147
2023-01-28 10:03:57.105870,0.21520624909421826
2023-01-28 10:03:57.110870,0.21069130301475508
2023-01-28 10:03:57.115870,0.20270214489651123
2023-01-28 10:03:57.120870,0.19177138805389393
2023-01-28 10:03:57.125870,0.17862971780318287
2023-01-28 10:03:57.130870,0.16398052871227242
2023-01-28 10:03:57.135870,0.14863513270862183
2023-01-28 10:03:57.140870,0.13344904780387856
2023-01-28 10:03:57.145870,0.11891743326024341
2023-01-28 10:03:57.150870,0.10510524362325653
2023-01-28 10:03:57.155870,0.09208097067736837
2023-01-28 10:03:57.160870,0.08012712001800525
2023-01-28 10:03:57.165870,0.0694655518073207
2023-01-28 10:03:57.170870,0.06012539193034172
2023-01-28 10:03:57.175870,0.05216857957207905
2023-01-28 10:03:57.180870,0.04570106789469704
2023-01-28 10:03:57.185870,0.040577010175168834
2023-01-28 10:03:57.190870,0.0364454612135887
2023-01-28 10:03:57.195870,0.033192512086823125
2023-01-28 10:03:57.200870,0.031012296676635714
2023-01-28 10:03:57.205870,0.029963219334666228
2023-01-28 10:03:57.210870,0.02978622913360591
2023-01-28 10:03:57.215870,0.030236674274026626
2023-01-28 10:03:57.220870,0.03127674385905256
2023-01-28 10:03:57.225870,0.03290370187546442
2023-01-28 10:03:57.230870,0.035147272050380686
2023-01-28 10:03:57.235870,0.0382774713912718
2023-01-28 10:03:57.240870,0.0425998382270336
2023-01-28 10:03:57.245870,0.047891013627881986
2023-01-28 10:03:57.250870,0.05332192033529283
2023-01-28 10:03:57.255870,0.058025153383821575
2023-01-28 10:03:57.260870,0.061519742012023884
2023-01-28 10:03:57.265870,0.06369062187019219
2023-01-28 10:03:57.270870,0.06481330096721641
2023-01-28 10:03:57.275870,0.06564627963317071
2023-01-28 10:03:57.280870,0.06702502816915507
2023-01-28 10:03:57.285870,0.0691308240945395
2023-01-28 10:03:57.290870,0.07135232537984838
2023-01-28 10:03:57.295870,0.07286357583605653
2023-01-28 10:03:57.300870,0.07308324426412577
2023-01-28 10:03:57.305870,0.07172791389386148
2023-01-28 10:03:57.310870,0.06897231191396709
2023-01-28 10:03:57.315870,0.0656829813130088
2023-01-28 10:03:57.320870,0.06305833905935285
2023-01-28 10:03:57.325870,0.06180435224557169
2023-01-28 10:03:57.330870,0.06180822849273675
2023-01-28 10:03:57.335870,0.06252101191624683
2023-01-28 10:03:57.340870,0.06329874694347377
2023-01-28 10:03:57.345870,0.06346878131096315
2023-01-28 10:03:57.350870,0.06262560933828351
2023-01-28 10:03:57.355870,0.06105258483203816
2023-01-28 10:03:57.360870,0.059524379670619895
2023-01-28 10:03:57.365870,0.05857843919509228
2023-01-28 10:03:57.370870,0.05820214748382563
2023-01-28 10:03:57.375870,0.058138534476363773
2023-01-28 10:03:57.380870,0.05808194726705551
2023-01-28 10:03:57.385870,0.05759324301176917
2023-01-28 10:03:57.390870,0.05630294606089589
2023-01-28 10:03:57.395870,0.05433084708413338
2023-01-28 10:03:57.400870,0.05219201371073723
2023-01-28 10:03:57.405870,0.05027113532397078
2023-01-28 10:03:57.410870,0.04873017594218253
2023-01-28 10:03:57.415870,0.04790121895060251
2023-01-28 10:03:57.420870,0.048345528542995425
2023-01-28 10:03:57.425870,0.05048337092521986
2023-01-28 10:03:57.430870,0.05452394485473636
2023-01-28 10:03:57.435870,0.06070368845109836
2023-01-28 10:03:57.440870,0.06906847655773157
2023-01-28 10:03:57.445870,0.07885148315419803
2023-01-28 10:03:57.450870,0.08837302774190897
2023-01-28 10:03:57.455870,0.09562481999779178
2023-01-28 10:03:57.460870,0.09878258407115925
2023-01-28 10:03:57.465870,0.09649678015754372
2023-01-28 10:03:57.470870,0.08849322795867909
2023-01-28 10:03:57.475870,0.07620634825227576
2023-01-28 10:03:57.480870,0.0624573230743408
2023-01-28 10:03:57.485870,0.05021168601446637
2023-01-28 10:03:57.490870,0.04154205322265622
2023-01-28 10:03:57.495870,0.037271861954036284
2023-01-28 10:03:57.500870,0.03685414791107169
2023-01-28 10:03:57.505870,0.03852437379966161
2023-01-28 10:03:57.510870,0.04021982476115221
2023-01-28 10:03:57.515870,0.040754864719142914
2023-01-28 10:03:57.520870,0.040075581520795794
2023-01-28 10:03:57.525870,0.03868617815961888
2023-01-28 10:03:57.530870,0.03755132481455803
2023-01-28 10:03:57.535870,0.03889369543759241
2023-01-28 10:03:57.540870,0.046951174736022935
2023-01-28 10:03:57.545870,0.06796217259324451
2023-01-28 10:03:57.550870,0.10921617597341537
2023-01-28 10:03:57.555870,0.17662124239442042
2023-01-28 10:03:57.560870,0.2706003189086913
2023-01-28 10:03:57.565870,0.38230307353355014
2023-01-28 10:03:57.570870,0.4933359324932097
2023-01-28 10:03:57.575870,0.5801739805893883
2023-01-28 10:03:57.580870,0.6214239597320553
2023-01-28 10:03:57.585870,0.6051312553250802
2023-01-28 10:03:57.590870,0.5335798263549802
2023-01-28 10:03:57.595870,0.42315807308780784
2023-01-28 10:03:57.600870,0.2984392642974852
2023-01-28 10:03:57.605870,0.1832835900471133
2023-01-28 10:03:57.610870,0.09383022785186748
2023-01-28 10:03:57.615870,0.03598960713838809
2023-01-28 10:03:57.620870,0.006611148826777854
2023-01-28 10:03:57.625870,-0.003179150531876921
2023-01-28 10:03:57.630870,-0.003341635223477972
2023-01-28 10:03:57.635870,-0.0007802656896828969
2023-01-28 10:03:57.640870,0.001827081083320022
2023-01-28 10:03:57.645870,0.004126695278325044
2023-01-28 10:03:57.650870,0.005962054245173893
2023-01-28 10:03:57.655870,0.0071176967393504825
2023-01-28 10:03:57.660870,0.007957419380545595
2023-01-28 10:03:57.665870,0.009275877397003498
2023-01-28 10:03:57.670870,0.011587540619075206
2023-01-28 10:03:57.675870,0.014895006980902133
2023-01-28 10:03:57.680870,0.01887182518839834
2023-01-28 10:03:57.685870,0.02291263310495368
2023-01-28 10:03:57.690870,0.026252269744873002
2023-01-28 10:03:57.695870,0.028437022054211544
2023-01-28 10:03:57.700870,0.029666027054190625
2023-01-28 10:03:57.705870,0.03058566783674169
2023-01-28 10:03:57.710870,0.0319258384406566
2023-01-28 10:03:57.715870,0.03434900588310843
2023-01-28 10:03:57.720870,0.03827254101634014
2023-01-28 10:03:57.725870,0.043611371625395995
2023-01-28 10:03:57.730870,0.049908161163330064
2023-01-28 10:03:57.735870,0.05686301409122883
2023-01-28 10:03:57.740870,0.06457289308309551
2023-01-28 10:03:57.745870,0.07325448445685667
2023-01-28 10:03:57.750870,0.08303602784872055
2023-01-28 10:03:57.755870,0.09406808145607204
2023-01-28 10:03:57.760870,0.10649959743022919
2023-01-28 10:03:57.765870,0.12022272995715134
2023-01-28 10:03:57.770870,0.13489148020744318
2023-01-28 10:03:57.775870,0.15023087899990234
2023-01-28 10:03:57.780870,0.16602396965026844
2023-01-28 10:03:57.785870,0.18173141764504752
2023-01-28 10:03:57.790870,0.196411222219467
2023-01-28 10:03:57.795870,0.20906834876772312
2023-01-28 10:03:57.800870,0.21884104609489435
2023-01-28 10:03:57.805870,0.22491729750314524
2023-01-28 10:03:57.810870,0.22670230269432057
2023-01-28 10:03:57.815870,0.2241947924799862
2023-01-28 10:03:57.820870,0.21792750060558302
2023-01-28 10:03:57.825870,0.2084981523457109
2023-01-28 10:03:57.830870,0.19641122221946716
2023-01-28 10:03:57.835870,0.1823034035921152
2023-01-28 10:03:57.840870,0.166913479566574
2023-01-28 10:03:57.845870,0.1507660405008051
2023-01-28 10:03:57.850870,0.13419429957866652
2023-01-28 10:03:57.855870,0.11767850071684267
2023-01-28 10:03:57.860870,0.10183572769165028
2023-01-28 10:03:57.865870,0.08708337892880588
2023-01-28 10:03:57.870870,0.07363617420196536
2023-01-28 10:03:57.875870,0.06178158196227832
2023-01-28 10:03:57.880870,0.05175928398966774
2023-01-28 10:03:57.885870,0.04335324422442072
2023-01-28 10:03:57.890870,0.035964649170637054
2023-01-28 10:03:57.895870,0.029123230193488794
2023-01-28 10:03:57.900870,0.022670229896903003
2023-01-28 10:03:57.905870,0.016582656108178287
2023-01-28 10:03:57.910870,0.011058649048209152
2023-01-28 10:03:57.915870,0.006730532875829226
2023-01-28 10:03:57.920870,0.0043272972106933785
2023-01-28 10:03:57.925870,0.0040388304315314184
2023-01-28 10:03:57.930870,0.005481243133544865
2023-01-28 10:03:57.935870,0.008185603723114505
2023-01-28 10:03:57.940870,0.011755824089050178
2023-01-28 10:03:57.945870,0.015695031016202624
2023-01-28 10:03:57.950870,0.019593041390180463
2023-01-28 10:03:57.955870,0.023498815133877096
2023-01-28 10:03:57.960870,0.0276947021484375
2023-01-28 10:03:57.965870,0.03210504050094687
2023-01-28 10:03:57.970870,0.03627717494964594
2023-01-28 10:03:57.975870,0.039850504942089394
2023-01-28 10:03:57.980870,0.042647920548915835
2023-01-28 10:03:57.985870,0.044444745680626084
2023-01-28 10:03:57.990870,0.04514813423156734
2023-01-28 10:03:57.995870,0.04515917956482095
2023-01-28 10:03:58.000870,0.045100055634975406
2023-01-28 10:03:58.005870,0.045204685421683155
2023-01-28 10:03:58.010870,0.04534045979380603
2023-01-28 10:03:58.015870,0.04547371224539412
2023-01-28 10:03:58.020870,0.04565298557281494
2023-01-28 10:03:58.025870,0.045686790465164814
2023-01-28 10:03:58.030870,0.045364499092101995
2023-01-28 10:03:58.035870,0.044910864675909094
2023-01-28 10:03:58.040870,0.04473944753408434
2023-01-28 10:03:58.045870,0.044858648717320496
2023-01-28 10:03:58.050870,0.04497985169291483
2023-01-28 10:03:58.055870,0.04504394640552966
2023-01-28 10:03:58.060870,0.045124094933271415
2023-01-28 10:03:58.065870,0.04497794575512847
2023-01-28 10:03:58.070870,0.044258635491132695
2023-01-28 10:03:58.075870,0.04304676027147362
2023-01-28 10:03:58.080870,0.04166225716471669
2023-01-28 10:03:58.085870,0.040136414886640784
2023-01-28 10:03:58.090870,0.03841678425669667
2023-01-28 10:03:58.095870,0.03686856040951648
2023-01-28 10:03:58.100870,0.035940609872341024
2023-01-28 10:03:58.105870,0.035487993030962665
2023-01-28 10:03:58.110870,0.03500302881002417
2023-01-28 10:03:58.115870,0.0343233392141881
2023-01-28 10:03:58.120870,0.03356059640645975
2023-01-28 10:03:58.125870,0.03265575903497349
2023-01-28 10:03:58.130870,0.03170947358012177
2023-01-28 10:03:58.135870,0.03146866819915989
2023-01-28 10:03:58.140870,0.03269513696432106
2023-01-28 10:03:58.145870,0.03519398473055378
2023-01-28 10:03:58.150870,0.038104258477687766
2023-01-28 10:03:58.155870,0.04088498200340193
2023-01-28 10:03:58.160870,0.043393176048993995
2023-01-28 10:03:58.165870,0.045477962430439216
2023-01-28 10:03:58.170870,0.04740794748067846
2023-01-28 10:03:58.175870,0.050320657314798255
2023-01-28 10:03:58.180870,0.05519708245992658
2023-01-28 10:03:58.185870,0.06147845118183005
2023-01-28 10:03:58.190870,0.06740967929363252
2023-01-28 10:03:58.195870,0.07138804467113756
2023-01-28 10:03:58.200870,0.07226586341857907
2023-01-28 10:03:58.205870,0.06911706193026423
2023-01-28 10:03:58.210870,0.06207267567515373
2023-01-28 10:03:58.215870,0.05307888022991642
2023-01-28 10:03:58.220870,0.04459520429372778
2023-01-28 10:03:58.225870,0.03769760314425775
2023-01-28 10:03:58.230870,0.03228644654154766
2023-01-28 10:03:58.235870,0.028370294151518354
2023-01-28 10:03:58.240870,0.025771459564566574
2023-01-28 10:03:58.245870,0.023284396785472835
2023-01-28 10:03:58.250870,0.01980940625071513
2023-01-28 10:03:58.255870,0.015878086214919884
2023-01-28 10:03:58.260870,0.012597243301570377
2023-01-28 10:03:58.265870,0.010078566318462094
2023-01-28 10:03:58.270870,0.009279648773372211
2023-01-28 10:03:58.275870,0.015165504056382681
2023-01-28 10:03:58.280870,0.03603677079081531
2023-01-28 10:03:58.285870,0.07994787130730616
2023-01-28 10:03:58.290870,0.1528016775846481
2023-01-28 10:03:58.295870,0.25668203585228455
2023-01-28 10:03:58.300870,0.3842639923095703
2023-01-28 10:03:58.305870,0.5143420234115054
2023-01-28 10:03:58.310870,0.6183467507362364
2023-01-28 10:03:58.315870,0.6747900631253512
2023-01-28 10:03:58.320870,0.6763325333595273
2023-01-28 10:03:58.325870,0.6245477739628594
2023-01-28 10:03:58.330870,0.5252858400344845
2023-01-28 10:03:58.335870,0.3931705860580607
2023-01-28 10:03:58.340870,0.25449317693710305
2023-01-28 10:03:58.345870,0.13699623938763292
2023-01-28 10:03:58.350870,0.055124960839748306
2023-01-28 10:03:58.355870,0.007217916961914132
2023-01-28 10:03:58.360870,-0.01545806787908071
2023-01-28 10:03:58.365870,-0.021471268946325717
2023-01-28 10:03:58.370870,-0.018919905647635422
2023-01-28 10:03:58.375870,-0.015136193426723276
2023-01-28 10:03:58.380870,-0.013486742973327626
2023-01-28 10:03:58.385870,-0.012876312023483629
2023-01-28 10:03:58.390870,-0.011707743629813054
2023-01-28 10:03:58.395870,-0.010302319188403401
2023-01-28 10:03:58.400870,-0.009039243683218902
2023-01-28 10:03:58.405870,-0.006965665637636011
2023-01-28 10:03:58.410870,-0.003582040546461866
2023-01-28 10:03:58.415870,3.7879176762013837e-06
2023-01-28 10:03:58.420870,0.002836783882230525
2023-01-28 10:03:58.425870,0.005353172846902699
2023-01-28 10:03:58.430870,0.00795741938054568
2023-01-28 10:03:58.435870,0.009993859607683153
2023-01-28 10:03:58.440870,0.011082689277827708
2023-01-28 10:03:58.445870,0.012043627220023317
2023-01-28 10:03:58.450870,0.013582905754446938
2023-01-28 10:03:58.455870,0.015324650657911464
2023-01-28 10:03:58.460870,0.016948580741882307
2023-01-28 10:03:58.465870,0.01908834024081199
2023-01-28 10:03:58.470870,0.022333662956952934
2023-01-28 10:03:58.475870,0.026478831881178846
2023-01-28 10:03:58.480870,0.031517148017883384
2023-01-28 10:03:58.485870,0.03831263846661173
2023-01-28 10:03:58.490870,0.047504108399152714
2023-01-28 10:03:58.495870,0.05864048927403236
2023-01-28 10:03:58.500870,0.07103979587554922
2023-01-28 10:03:58.505870,0.0845945250153006
2023-01-28 10:03:58.510870,0.09911914914846412
2023-01-28 10:03:58.515870,0.11382250738134257
2023-01-28 10:03:58.520870,0.12808799743652347
2023-01-28 10:03:58.525870,0.1419549942302724
2023-01-28 10:03:58.530870,0.15520572662353507
2023-01-28 10:03:58.535870,0.166741704030648
2023-01-28 10:03:58.540870,0.17544786632060996
2023-01-28 10:03:58.545870,0.1809635918990797
2023-01-28 10:03:58.550870,0.18311679363250724
2023-01-28 10:03:58.555870,0.18141069562863676
2023-01-28 10:03:58.560870,0.17568826675415028
2023-01-28 10:03:58.565870,0.16664273368769306
2023-01-28 10:03:58.570870,0.15513360500335688
2023-01-28 10:03:58.575870,0.14162206892332752
2023-01-28 10:03:58.580870,0.12671768665313712
2023-01-28 10:03:58.585870,0.11153162100914843
2023-01-28 10:03:58.590870,0.09688337892293927
2023-01-28 10:03:58.595870,0.0827186893756756
2023-01-28 10:03:58.600870,0.06880402565002432
2023-01-28 10:03:58.605870,0.05545701172505513
2023-01-28 10:03:58.610870,0.04320085048675525
2023-01-28 10:03:58.615870,0.032341760457096295
2023-01-28 10:03:58.620870,0.023343365639448166
2023-01-28 10:03:58.625870,0.016960491722198545
2023-01-28 10:03:58.630870,0.013414621353149452
2023-01-28 10:03:58.635870,0.011882350055342107
2023-01-28 10:03:58.640870,0.01122693251818409
2023-01-28 10:03:58.645870,0.010795661412525819
2023-01-28 10:03:58.650870,0.010241270065307612
2023-01-28 10:03:58.655870,0.009264984385547103
2023-01-28 10:03:58.660870,0.008053581230342303
2023-01-28 10:03:58.665870,0.007409225671321053
2023-01-28 10:03:58.670870,0.007885297760367295
2023-01-28 10:03:58.675870,0.009149344110230098
2023-01-28 10:03:58.680870,0.01052975654602049
2023-01-28 10:03:58.685870,0.011706562210050994
2023-01-28 10:03:58.690870,0.012549161911010699
2023-01-28 10:03:58.695870,0.012893922190805967
2023-01-28 10:03:58.700870,0.01298189163208004
2023-01-28 10:03:58.705870,0.013623699819222035
2023-01-28 10:03:58.710870,0.015409986488521042
2023-01-28 10:03:58.715870,0.018078133312944448
2023-01-28 10:03:58.720870,0.020963352173566818
2023-01-28 10:03:58.725870,0.023617268831996985
2023-01-28 10:03:58.730870,0.025675296783447227
2023-01-28 10:03:58.735870,0.026696783984918572
2023-01-28 10:03:58.740870,0.026636919006705246
2023-01-28 10:03:58.745870,0.026067995021847572
2023-01-28 10:03:58.750870,0.02550701424479476
2023-01-28 10:03:58.755870,0.024885208681475035
2023-01-28 10:03:58.760870,0.023992460221052146
2023-01-28 10:03:58.765870,0.022974163111731467
2023-01-28 10:03:58.770870,0.022021135315298996
2023-01-28 10:03:58.775870,0.02104575364430025
2023-01-28 10:03:58.780870,0.02007385157048712
2023-01-28 10:03:58.785870,0.01951004280836422
2023-01-28 10:03:58.790870,0.019593041390180498
2023-01-28 10:03:58.795870,0.01998471960505076
2023-01-28 10:03:58.800870,0.020266175270080577
2023-01-28 10:03:58.805870,0.020420296479914536
2023-01-28 10:03:58.810870,0.020482540130615234
2023-01-28 10:03:58.815870,0.020209691968502367
2023-01-28 10:03:58.820870,0.01952091977000224
2023-01-28 10:03:58.825870,0.018815831574019663
2023-01-28 10:03:58.830870,0.01841505430638792
2023-01-28 10:03:58.835870,0.01808839313997037
2023-01-28 10:03:58.840870,0.017525553703308012
2023-01-28 10:03:58.845870,0.016836353534646572
2023-01-28 10:03:58.850870,0.01620332524180397
2023-01-28 10:03:58.855870,0.015535060390264718
2023-01-28 10:03:58.860870,0.014905135147273407
2023-01-28 10:03:58.865870,0.014828479380226465
2023-01-28 10:03:58.870870,0.015578269958495948
2023-01-28 10:03:58.875870,0.016643514643556064
2023-01-28 10:03:58.880870,0.017333230003714457
2023-01-28 10:03:58.885870,0.0174899534204643
2023-01-28 10:03:58.890870,0.017188986763358075
2023-01-28 10:03:58.895870,0.016307451780407937
2023-01-28 10:03:58.900870,0.014977256767451713
2023-01-28 10:03:58.905870,0.013945547486974163
2023-01-28 10:03:58.910870,0.01382331084460028
2023-01-28 10:03:58.915870,0.01439734301517922
2023-01-28 10:03:58.920870,0.01528978347778314
2023-01-28 10:03:58.925870,0.016808639629581856
2023-01-28 10:03:58.930870,0.01947283744812017
2023-01-28 10:03:58.935870,0.023221574114597833
2023-01-28 10:03:58.940870,0.02786298654973511
2023-01-28 10:03:58.945870,0.0336944287233772
2023-01-28 10:03:58.950870,0.04058043286204334
2023-01-28 10:03:58.955870,0.046786416275270915
2023-01-28 10:03:58.960870,0.04998028278350828
2023-01-28 10:03:58.965870,0.04940648914115732
2023-01-28 10:03:58.970870,0.04606167599558833
2023-01-28 10:03:58.975870,0.04082337323713048
2023-01-28 10:03:58.980870,0.03370483964681621
2023-01-28 10:03:58.985870,0.02524650488553277
2023-01-28 10:03:58.990870,0.017333230003714485
2023-01-28 10:03:58.995870,0.011752003408880909
2023-01-28 10:03:59.000870,0.008558432571589947
2023-01-28 10:03:59.005870,0.00649424752588367
2023-01-28 10:03:59.010870,0.004495581146329698
2023-01-28 10:03:59.015870,0.002204854846529893
2023-01-28 10:03:59.020870,-0.0005288919201120023
2023-01-28 10:03:59.025870,-0.0038810352963912415
2023-01-28 10:03:59.030870,-0.007717013359069764
2023-01-28 10:03:59.035870,-0.011093348395611893
2023-01-28 10:03:59.040870,-0.011419257149100309
2023-01-28 10:03:59.045870,-0.0032438641213575273
2023-01-28 10:03:59.050870,0.022069215774536067
2023-01-28 10:03:59.055870,0.07425419768426218
2023-01-28 10:03:59.060870,0.15972535312175745
2023-01-28 10:03:59.065870,0.27663923941708474
2023-01-28 10:03:59.070870,0.41181445121765115
2023-01-28 10:03:59.075870,0.5416093480123119
2023-01-28 10:03:59.080870,0.6376993656158445
2023-01-28 10:03:59.085870,0.6762618967347401
2023-01-28 10:03:59.090870,0.646642446517944
2023-01-28 10:03:59.095870,0.5553862743923533
2023-01-28 10:03:59.100870,0.4238587617874144
2023-01-28 10:03:59.105870,0.2806658205070292
2023-01-28 10:03:59.110870,0.15215258300304402
2023-01-28 10:03:59.115870,0.05493564744974901
2023-01-28 10:03:59.120870,-0.006659229751676269
2023-01-28 10:03:59.125870,-0.038075854896101116
2023-01-28 10:03:59.130870,-0.049331188201904165
2023-01-28 10:03:59.135870,-0.05013794711823065
2023-01-28 10:03:59.140870,-0.0470954179763793
2023-01-28 10:03:59.145870,-0.04322103687896534
2023-01-28 10:03:59.150870,-0.03916203975677488
2023-01-28 10:03:59.155870,-0.03488011592592107
2023-01-28 10:03:59.160870,-0.03065168857574462
2023-01-28 10:03:59.165870,-0.027090083459655096
2023-01-28 10:03:59.170870,-0.02476175688207145
2023-01-28 10:03:59.175870,-0.023930132481005253
2023-01-28 10:03:59.180870,-0.024449229240417383
2023-01-28 10:03:59.185870,-0.02575382137035598
2023-01-28 10:03:59.190870,-0.02706964872777456
2023-01-28 10:03:59.195870,-0.02776524374473129
2023-01-28 10:03:59.200870,-0.02750237844884384
2023-01-28 10:03:59.205870,-0.026109748276521835
2023-01-28 10:03:59.210870,-0.023487608879804563
2023-01-28 10:03:59.215870,-0.019680152195120135
2023-01-28 10:03:59.220870,-0.014905135147273473
2023-01-28 10:03:59.225870,-0.009464428379374284
2023-01-28 10:03:59.230870,-0.003726283786818355
2023-01-28 10:03:59.235870,0.0018245530514573477
2023-01-28 10:03:59.240870,0.00673135137185449
2023-01-28 10:03:59.245870,0.010896460809482823
2023-01-28 10:03:59.250870,0.01473685167729842
2023-01-28 10:03:59.255870,0.019021793475597047
2023-01-28 10:03:59.260870,0.02464155480265614
2023-01-28 10:03:59.265870,0.03244797711074662
2023-01-28 10:03:59.270870,0.043032567948103
2023-01-28 10:03:59.275870,0.05646361627444389
2023-01-28 10:03:59.280870,0.07224182784557337
2023-01-28 10:03:59.285870,0.0894955350173733
2023-01-28 10:03:59.290870,0.10712464898824686
2023-01-28 10:03:59.295870,0.12381061805227797
2023-01-28 10:03:59.300870,0.1381369531154631
2023-01-28 10:03:59.305870,0.14888617800760534
2023-01-28 10:03:59.310870,0.15525381267070773
2023-01-28 10:03:59.315870,0.15686646635292148
2023-01-28 10:03:59.320870,0.1537873446941374
2023-01-28 10:03:59.325870,0.14655713963629338
2023-01-28 10:03:59.330870,0.13606946170330042
2023-01-28 10:03:59.335870,0.12326931556514373
2023-01-28 10:03:59.340870,0.10895173251628877
2023-01-28 10:03:59.345870,0.09376574413796114
2023-01-28 10:03:59.350870,0.0782279223203659
2023-01-28 10:03:59.355870,0.06267892458123174
2023-01-28 10:03:59.360870,0.04735986515879642
2023-01-28 10:03:59.365870,0.032606693078491296
2023-01-28 10:03:59.370870,0.01889586448669439
2023-01-28 10:03:59.375870,0.006673695438511733
2023-01-28 10:03:59.380870,-0.0037743649445474148
2023-01-28 10:03:59.385870,-0.012293827601506237
2023-01-28 10:03:59.390870,-0.018847784027457154
2023-01-28 10:03:59.395870,-0.023582568251749838
2023-01-28 10:03:59.400870,-0.02678116224706168
2023-01-28 10:03:59.405870,-0.028674937075842098
2023-01-28 10:03:59.410870,-0.029377540573477648
2023-01-28 10:03:59.415870,-0.02904696898157118
2023-01-28 10:03:59.420870,-0.028031270951032656
2023-01-28 10:03:59.425870,-0.026821469729093394
2023-01-28 10:03:59.430870,-0.025939743965864077
2023-01-28 10:03:59.435870,-0.025861012325291765
2023-01-28 10:03:59.440870,-0.026853283867239904
2023-01-28 10:03:59.445870,-0.028744446709321747
2023-01-28 10:03:59.450870,-0.030892094597220438
2023-01-28 10:03:59.455870,-0.03249076133014457
2023-01-28 10:03:59.460870,-0.0329595804214476
2023-01-28 10:03:59.465870,-0.032125775233593876
2023-01-28 10:03:59.470870,-0.03021895885467518
2023-01-28 10:03:59.475870,-0.027776075597585416
2023-01-28 10:03:59.480870,-0.025410851463675346
2023-01-28 10:03:59.485870,-0.02347111827122124
2023-01-28 10:03:59.490870,-0.0218528509140014
2023-01-28 10:03:59.495870,-0.02017316108560301
2023-01-28 10:03:59.500870,-0.018126567825674976
2023-01-28 10:03:59.505870,-0.01570105365466185
2023-01-28 10:03:59.510870,-0.013174216262996103
2023-01-28 10:03:59.515870,-0.011009122131336478
2023-01-28 10:03:59.520870,-0.00968833826482283
2023-01-28 10:03:59.525870,-0.009464823186841506
2023-01-28 10:03:59.530870,-0.01016914844512931
2023-01-28 10:03:59.535870,-0.011295122922834572
2023-01-28 10:03:59.540870,-0.012332797050475986
2023-01-28 10:03:59.545870,-0.013026234902348806
2023-01-28 10:03:59.550870,-0.01334249973297114
2023-01-28 10:03:59.555870,-0.013317124835935295
2023-01-28 10:03:59.560870,-0.01302997302263967
2023-01-28 10:03:59.565870,-0.012642349583559611
2023-01-28 10:03:59.570870,-0.01226067543029786
2023-01-28 10:03:59.575870,-0.01173548962740519
2023-01-28 10:03:59.580870,-0.010794202797114707
2023-01-28 10:03:59.585870,-0.009508873484015799
2023-01-28 10:03:59.590870,-0.00851035118103018
2023-01-28 10:03:59.595870,-0.008577350116678891
2023-01-28 10:03:59.600870,-0.010048946365713992
2023-01-28 10:03:59.605870,-0.012684138418230914
2023-01-28 10:03:59.610870,-0.015890797600150088
2023-01-28 10:03:59.615870,-0.018883230409173796
2023-01-28 10:03:59.620870,-0.020819108933210324
2023-01-28 10:03:59.625870,-0.021206865226658073
2023-01-28 10:03:59.630870,-0.020266175270080487
2023-01-28 10:03:59.635870,-0.018660917870888926
2023-01-28 10:03:59.640870,-0.016876459121704095
2023-01-28 10:03:59.645870,-0.015108074416648107
2023-01-28 10:03:59.650870,-0.01367906760424369
2023-01-28 10:03:59.655870,-0.013085022094911187
2023-01-28 10:03:59.660870,-0.013438662514090456
2023-01-28 10:03:59.665870,-0.014235733294118166
2023-01-28 10:03:59.670870,-0.014905135147273431
2023-01-28 10:03:59.675870,-0.015293038535810443
2023-01-28 10:03:59.680870,-0.015385946258902487
2023-01-28 10:03:59.685870,-0.01492506356573576
2023-01-28 10:03:59.690870,-0.013703107833862362
2023-01-28 10:03:59.695870,-0.012067050005467981
2023-01-28 10:03:59.700870,-0.010770162567496223
2023-01-28 10:03:59.705870,-0.01041136974609979
2023-01-28 10:03:59.710870,-0.011226932518184051
2023-01-28 10:03:59.715870,-0.013160584424422684
2023-01-28 10:03:59.720870,-0.015698473900556505
2023-01-28 10:03:59.725870,-0.017724330302251453
2023-01-28 10:03:59.730870,-0.017982324585318545
2023-01-28 10:03:59.735870,-0.015819315814311157
2023-01-28 10:03:59.740870,-0.011371175758540636
2023-01-28 10:03:59.745870,-0.005220788832286809
2023-01-28 10:03:59.750870,0.001779000042006326
2023-01-28 10:03:59.755870,0.008462833498937311
2023-01-28 10:03:59.760870,0.013606945984065574
2023-01-28 10:03:59.765870,0.016396870595476058
2023-01-28 10:03:59.770870,0.016515851020812874
2023-01-28 10:03:59.775870,0.013902676342319885
2023-01-28 10:03:59.780870,0.008774797432124594
2023-01-28 10:03:59.785870,0.0018761677226590537
2023-01-28 10:03:59.790870,-0.005673567764461002
2023-01-28 10:03:59.795870,-0.012914164257075735
2023-01-28 10:03:59.800870,-0.019280513748526545
2023-01-28 10:03:59.805870,-0.024413738180206417
2023-01-28 10:03:59.810870,-0.028127431869506798
2023-01-28 10:03:59.815870,-0.030655831776032677
2023-01-28 10:03:59.820870,-0.032647054642438854
2023-01-28 10:03:59.825870,-0.034754003565522856
2023-01-28 10:03:59.830870,-0.03723879903554908
2023-01-28 10:03:59.835870,-0.03956423476417891
2023-01-28 10:03:59.840870,-0.03947456926107396
2023-01-28 10:03:59.845870,-0.03185948103256134
2023-01-28 10:03:59.850870,-0.008726716041564886
2023-01-28 10:03:59.855870,0.0387844587748399
2023-01-28 10:03:59.860870,0.1167408674955368
2023-01-28 10:03:59.865870,0.2243008717105513
2023-01-28 10:03:59.870870,0.3507034182548521
2023-01-28 10:03:59.875870,0.4753372109158451
2023-01-28 10:03:59.880870,0.5723091363906859
2023-01-28 10:03:59.885870,0.6185291971733352
2023-01-28 10:03:59.890870,0.6018068790435788
2023-01-28 10:03:59.895870,0.5252471352790778
2023-01-28 10:03:59.900870,0.4062130153179167
2023-01-28 10:03:59.905870,0.2704051591425949
2023-01-28 10:03:59.910870,0.1433777809143066
2023-01-28 10:03:59.915870,0.043007699657881315
2023-01-28 10:03:59.920870,-0.02392033860087385
2023-01-28 10:03:59.925870,-0.06031084213485921
2023-01-28 10:03:59.930870,-0.07454971969127641
2023-01-28 10:03:59.935870,-0.07613070498252333
2023-01-28 10:03:59.940870,-0.07260243594646443
2023-01-28 10:03:59.945870,-0.06828815052708762
2023-01-28 10:03:59.950870,-0.06471713632345186
2023-01-28 10:03:59.955870,-0.061994469020917486
2023-01-28 10:03:59.960870,-0.05988498777151103
2023-01-28 10:03:59.965870,-0.05810451390656795
2023-01-28 10:03:59.970870,-0.05635102838277805
2023-01-28 10:03:59.975870,-0.05450622992859335
2023-01-28 10:03:59.980870,-0.05269686505198469
2023-01-28 10:03:59.985870,-0.05100740988615667
2023-01-28 10:03:59.990870,-0.049283109605312354
2023-01-28 10:03:59.995870,-0.04730844529877496
2023-01-28 10:04:00.000870,-0.04497985169291491
2023-01-28 10:04:00.005870,-0.042211188073590096
2023-01-28 10:04:00.010870,-0.03892163559794413
2023-01-28 10:04:00.015870,-0.03528195990932884
2023-01-28 10:04:00.020870,-0.03175755590200423
2023-01-28 10:04:00.025870,-0.028697037156978245
2023-01-28 10:04:00.030870,-0.02596378326416008
2023-01-28 10:04:00.035870,-0.02302260560754964
2023-01-28 10:04:00.040870,-0.019184350967407147
2023-01-28 10:04:00.045870,-0.01370853632129022
2023-01-28 10:04:00.050870,-0.006010135170072241
2023-01-28 10:04:00.055870,0.003929984507051337
2023-01-28 10:04:00.060870,0.015458067879080665
2023-01-28 10:04:00.065870,0.027728109036102448
2023-01-28 10:04:00.070870,0.04024386405944822
2023-01-28 10:04:00.075870,0.05293307663452586
2023-01-28 10:04:00.080870,0.06594320386648168
2023-01-28 10:04:00.085870,0.07947222126856555
2023-01-28 10:04:00.090870,0.09349366277456288
2023-01-28 10:04:00.095870,0.10735118186329923
2023-01-28 10:04:00.100870,0.11972188949584964
2023-01-28 10:04:00.105870,0.1291862296741458
2023-01-28 10:04:00.110870,0.13484339416027058
2023-01-28 10:04:00.115870,0.13643885815977666
2023-01-28 10:04:00.120870,0.1342183351516724
2023-01-28 10:04:00.125870,0.12884003402828167
2023-01-28 10:04:00.130870,0.12116432189941402
2023-01-28 10:04:00.135870,0.11181398429431386
2023-01-28 10:04:00.140870,0.10097026824951169
2023-01-28 10:04:00.145870,0.08869766045793089
2023-01-28 10:04:00.150870,0.07531901448965068
2023-01-28 10:04:00.155870,0.061364236104773526
2023-01-28 10:04:00.160870,0.04735986515879632
2023-01-28 10:04:00.165870,0.033836086491997645
2023-01-28 10:04:00.170870,0.0213239602744579
2023-01-28 10:04:00.175870,0.010087527347838717
2023-01-28 10:04:00.180870,-4.808108133131128e-05
2023-01-28 10:04:00.185870,-0.009422487333948635
2023-01-28 10:04:00.190870,-0.018174648284912116
2023-01-28 10:04:00.195870,-0.026234858222647515
2023-01-28 10:04:00.200870,-0.03346443176269533
2023-01-28 10:04:00.205870,-0.03959143916019619
2023-01-28 10:04:00.210870,-0.04416247457265848
2023-01-28 10:04:00.215870,-0.0468174952127912
2023-01-28 10:04:00.220870,-0.0476002693176268
2023-01-28 10:04:00.225870,-0.0469074220678414
2023-01-28 10:04:00.230870,-0.04526833817362783
2023-01-28 10:04:00.235870,-0.0433054101931336
2023-01-28 10:04:00.240870,-0.041710339486599
2023-01-28 10:04:00.245870,-0.04096117392293997
2023-01-28 10:04:00.250870,-0.04103720188140856
2023-01-28 10:04:00.255870,-0.041525629072343286
2023-01-28 10:04:00.260870,-0.04197478294372547
2023-01-28 10:04:00.265870,-0.04209341801075476
2023-01-28 10:04:00.270870,-0.0417584180831908
2023-01-28 10:04:00.275870,-0.04100739152630615
2023-01-28 10:04:00.280870,-0.04000345990061746
2023-01-28 10:04:00.285870,-0.038940613346237454
2023-01-28 10:04:00.290870,-0.03803213685750957
2023-01-28 10:04:00.295870,-0.03757146298674841
2023-01-28 10:04:00.300870,-0.0378157719969749
2023-01-28 10:04:00.305870,-0.03872833296811447
2023-01-28 10:04:00.310870,-0.039979420602321625
2023-01-28 10:04:00.315870,-0.04125513921359949
2023-01-28 10:04:00.320870,-0.04240751266479491
2023-01-28 10:04:00.325870,-0.043294449614389996
2023-01-28 10:04:00.330870,-0.0437537841498851
2023-01-28 10:04:00.335870,-0.0438730514222295
2023-01-28 10:04:00.340870,-0.04406630992889397
2023-01-28 10:04:00.345870,-0.044734288994457846
2023-01-28 10:04:00.350870,-0.046013593673706076
2023-01-28 10:04:00.355870,-0.04792855315648355
2023-01-28 10:04:00.360870,-0.05050917714834212
2023-01-28 10:04:00.365870,-0.05357610650497557
2023-01-28 10:04:00.370870,-0.05663951486349104
2023-01-28 10:04:00.375870,-0.059237521090121315
2023-01-28 10:04:00.380870,-0.06125529855489732
2023-01-28 10:04:00.385870,-0.06281301132654504
2023-01-28 10:04:00.390870,-0.0640680417418479
2023-01-28 10:04:00.395870,-0.06527942803350646
2023-01-28 10:04:00.400870,-0.0668086633086204
2023-01-28 10:04:00.405870,-0.068802602796691
2023-01-28 10:04:00.410870,-0.07101576030254358
2023-01-28 10:04:00.415870,-0.07312611552721252
2023-01-28 10:04:00.420870,-0.0750786066055297
2023-01-28 10:04:00.425870,-0.07697588004367062
2023-01-28 10:04:00.430870,-0.07882893085479725
2023-01-28 10:04:00.435870,-0.08058792876139305
2023-01-28 10:04:00.440870,-0.0822186470031738
2023-01-28 10:04:00.445870,-0.08355714499238966
2023-01-28 10:04:00.450870,-0.08428613841533668
2023-01-28 10:04:00.455870,-0.08427896362950678
2023-01-28 10:04:00.460870,-0.08382936567068086
2023-01-28 10:04:00.465870,-0.0833726330070187
2023-01-28 10:04:00.470870,-0.08313219249248496
2023-01-28 10:04:00.475870,-0.08316090985684058
2023-01-28 10:04:00.480870,-0.08346875756978979
2023-01-28 10:04:00.485870,-0.0838591257521233
2023-01-28 10:04:00.490870,-0.08380532264709468
2023-01-28 10:04:00.495870,-0.08271897913022593
2023-01-28 10:04:00.500870,-0.08024732768535606
2023-01-28 10:04:00.505870,-0.07624547937249665
2023-01-28 10:04:00.510870,-0.07079939544200889
2023-01-28 10:04:00.515870,-0.06460820518074172
2023-01-28 10:04:00.520870,-0.05918781086802471
2023-01-28 10:04:00.525870,-0.05636178726069113
2023-01-28 10:04:00.530870,-0.057456891983747385
2023-01-28 10:04:00.535870,-0.06287101034947946
2023-01-28 10:04:00.540870,-0.07197737693786622
2023-01-28 10:04:00.545870,-0.0831416863303185
2023-01-28 10:04:00.550870,-0.09414275735616673
2023-01-28 10:04:00.555870,-0.10311755985760339
2023-01-28 10:04:00.560870,-0.10931234061717982
2023-01-28 10:04:00.565870,-0.11299491070064925
2023-01-28 10:04:00.570870,-0.11491378396749488
2023-01-28 10:04:00.575870,-0.11597211618151602
2023-01-28 10:04:00.580870,-0.11705338954925529
2023-01-28 10:04:00.585870,-0.11872143575176262
2023-01-28 10:04:00.590870,-0.12104412168264378
2023-01-28 10:04:00.595870,-0.1236533121006827
2023-01-28 10:04:00.600870,-0.12539546191692347
2023-01-28 10:04:00.605870,-0.12322370388151982
2023-01-28 10:04:00.610870,-0.11133174598217008
2023-01-28 10:04:00.615870,-0.0819149998233765
2023-01-28 10:04:00.620870,-0.027790864929556847
2023-01-28 10:04:00.625870,0.053976052127562124
2023-01-28 10:04:00.630870,0.15861949324607844
2023-01-28 10:04:00.635870,0.2720047419310345
2023-01-28 10:04:00.640870,0.37262839078903187
2023-01-28 10:04:00.645870,0.4376799767662954
2023-01-28 10:04:00.650870,0.4508082270622252
2023-01-28 10:04:00.655870,0.4079275288734854
2023-01-28 10:04:00.660870,0.3186333179473875
2023-01-28 10:04:00.665870,0.2028905085039077
2023-01-28 10:04:00.670870,0.08428613841533651
2023-01-28 10:04:00.675870,-0.017486474768380954
2023-01-28 10:04:00.680870,-0.09161850064992895
2023-01-28 10:04:00.685870,-0.13679967599543305
2023-01-28 10:04:00.690870,-0.15837907791137687
2023-01-28 10:04:00.695870,-0.16445790003831864
2023-01-28 10:04:00.700870,-0.16263425350189198
2023-01-28 10:04:00.705870,-0.1580935100833221
2023-01-28 10:04:00.710870,-0.15333056449890137
2023-01-28 10:04:00.715870,-0.14916183394865232
2023-01-28 10:04:00.720870,-0.14585396647453291
2023-01-28 10:04:00.725870,-0.1434841205090614
2023-01-28 10:04:00.730870,-0.14186322689056388
2023-01-28 10:04:00.735870,-0.14067406767118662
2023-01-28 10:04:00.740870,-0.13967554271221153
2023-01-28 10:04:00.745870,-0.13860072965369866
2023-01-28 10:04:00.750870,-0.13705512881278983
2023-01-28 10:04:00.755870,-0.1347803081638782
2023-01-28 10:04:00.760870,-0.13188640773296348
2023-01-28 10:04:00.765870,-0.1286169830985348
2023-01-28 10:04:00.770870,-0.12503485381603238
2023-01-28 10:04:00.775870,-0.12111161163689202
2023-01-28 10:04:00.780870,-0.11690914630889884
2023-01-28 10:04:00.785870,-0.11244595747381371
2023-01-28 10:04:00.790870,-0.10758142173290247
2023-01-28 10:04:00.795870,-0.10226193412843516
2023-01-28 10:04:00.800870,-0.09669105708599092
2023-01-28 10:04:00.805870,-0.09101854299854512
2023-01-28 10:04:00.810870,-0.08500735461711877
2023-01-28 10:04:00.815870,-0.07816430771050094
2023-01-28 10:04:00.820870,-0.06998201459646222
2023-01-28 10:04:00.825870,-0.05990390871007959
2023-01-28 10:04:00.830870,-0.04738390445709221
2023-01-28 10:04:00.835870,-0.03231777049844441
2023-01-28 10:04:00.840870,-0.015289783477783165
2023-01-28 10:04:00.845870,0.0027696907106120154
2023-01-28 10:04:00.850870,0.020963352173566895
2023-01-28 10:04:00.855870,0.038357395509079385
2023-01-28 10:04:00.860870,0.05389889329671848
2023-01-28 10:04:00.865870,0.06668665853575295
2023-01-28 10:04:00.870870,0.07611235231161115
2023-01-28 10:04:00.875870,0.08159157027490149
2023-01-28 10:04:00.880870,0.08250713348388668
2023-01-28 10:04:00.885870,0.07867205306030237
2023-01-28 10:04:00.890870,0.07058303058147435
2023-01-28 10:04:00.895870,0.059052339254890965
2023-01-28 10:04:00.900870,0.04490773007273671
2023-01-28 10:04:00.905870,0.02913691016666084
2023-01-28 10:04:00.910870,0.012789567932486482
2023-01-28 10:04:00.915870,-0.0035652141248248104
2023-01-28 10:04:00.920870,-0.019881527870893412
2023-01-28 10:04:00.925870,-0.035956221020331816
2023-01-28 10:04:00.930870,-0.05123039335012437
2023-01-28 10:04:00.935870,-0.06543479953952747
2023-01-28 10:04:00.940870,-0.07868468761444092
2023-01-28 10:04:00.945870,-0.0905698481310715
2023-01-28 10:04:00.950870,-0.1000086516141891
2023-01-28 10:04:00.955870,-0.106673265469277
2023-01-28 10:04:00.960870,-0.1118125542998313
2023-01-28 10:04:00.965870,-0.11680707744145385
2023-01-28 10:04:00.970870,-0.12147685140371318
2023-01-28 10:04:00.975870,-0.12470663161709877
2023-01-28 10:04:00.980870,-0.12621283531188962
2023-01-28 10:04:00.985870,-0.12663163931365548
2023-01-28 10:04:00.990870,-0.12621283531188957
2023-01-28 10:04:00.995870,-0.12461647138846059
2023-01-28 10:04:01.000870,-0.12198170274496065
2023-01-28 10:04:01.005870,-0.11913448610558686
2023-01-28 10:04:01.010870,-0.11654853820800778
2023-01-28 10:04:01.015870,-0.1139068328133803
2023-01-28 10:04:01.020870,-0.11082689464092249
2023-01-28 10:04:01.025870,-0.10728226538261387
2023-01-28 10:04:01.030870,-0.10320603847503657
2023-01-28 10:04:01.035870,-0.09846089498345528
2023-01-28 10:04:01.040870,-0.0934455841779708
2023-01-28 10:04:01.045870,-0.08908900431947617
2023-01-28 10:04:01.050870,-0.08596897125244136
2023-01-28 10:04:01.055870,-0.08388776580837869
2023-01-28 10:04:01.060870,-0.08241097629070286
2023-01-28 10:04:01.065870,-0.0813034923951903
2023-01-28 10:04:01.070870,-0.0803675279021263
2023-01-28 10:04:01.075870,-0.07947076449682394
2023-01-28 10:04:01.080870,-0.07894913852214808
2023-01-28 10:04:01.085870,-0.07947467653940081
2023-01-28 10:04:01.090870,-0.08128106594085685
2023-01-28 10:04:01.095870,-0.08385765044292835
2023-01-28 10:04:01.100870,-0.0864738225936888
2023-01-28 10:04:01.105870,-0.08860282744264324
2023-01-28 10:04:01.110870,-0.08983950316905961
2023-01-28 10:04:01.115870,-0.08998333828330587
2023-01-28 10:04:01.120870,-0.08940677344799026
2023-01-28 10:04:01.125870,-0.08890877670978176
2023-01-28 10:04:01.130870,-0.08899807929992666
2023-01-28 10:04:01.135870,-0.08959906892044861
2023-01-28 10:04:01.140870,-0.09046455472707728
2023-01-28 10:04:01.145870,-0.09144778267699058
2023-01-28 10:04:01.150870,-0.09231567382812492
2023-01-28 10:04:01.155870,-0.09277025935169467
2023-01-28 10:04:01.160870,-0.09282052516937246
2023-01-28 10:04:01.165870,-0.09278308226105647
2023-01-28 10:04:01.170870,-0.0928205251693725
2023-01-28 10:04:01.175870,-0.09281783643414458
2023-01-28 10:04:01.180870,-0.09274840354919418
2023-01-28 10:04:01.185870,-0.09275692269498508
2023-01-28 10:04:01.190870,-0.09279648959636677
2023-01-28 10:04:01.195870,-0.09256542617988606
2023-01-28 10:04:01.200870,-0.09190698713064188
2023-01-28 10:04:01.205870,-0.09095299619509581
2023-01-28 10:04:01.210870,-0.08983950316905973
2023-01-28 10:04:01.215870,-0.08863443491814553
2023-01-28 10:04:01.220870,-0.08755564689636228
2023-01-28 10:04:01.225870,-0.08682064257670374
2023-01-28 10:04:01.230870,-0.08613725751638408
2023-01-28 10:04:01.235870,-0.084650903411352
2023-01-28 10:04:01.240870,-0.0814974308013915
2023-01-28 10:04:01.245870,-0.07622428799767472
2023-01-28 10:04:01.250870,-0.06885211169719682
2023-01-28 10:04:01.255870,-0.060066168174594335
2023-01-28 10:04:01.260870,-0.05144675821065895
2023-01-28 10:04:01.265870,-0.04502741327486868
2023-01-28 10:04:01.270870,-0.04228731244802467
2023-01-28 10:04:01.275870,-0.043574397798893265
2023-01-28 10:04:01.280870,-0.04829744622111316
2023-01-28 10:04:01.285870,-0.055269958558139445
2023-01-28 10:04:01.290870,-0.06296217441558827
2023-01-28 10:04:01.295870,-0.07002953170947597
2023-01-28 10:04:01.300870,-0.07592003047466263
2023-01-28 10:04:01.305870,-0.08080741081380746
2023-01-28 10:04:01.310870,-0.08491118997335423
2023-01-28 10:04:01.315870,-0.08812329900334528
2023-01-28 10:04:01.320870,-0.09024818986654279
2023-01-28 10:04:01.325870,-0.09125899424368059
2023-01-28 10:04:01.330870,-0.0912578925490379
2023-01-28 10:04:01.335870,-0.09031263754185599
2023-01-28 10:04:01.340870,-0.0878922194242477
2023-01-28 10:04:01.345870,-0.08149065382234467
2023-01-28 10:04:01.350870,-0.06527006626129143
2023-01-28 10:04:01.355870,-0.030500618913638703
2023-01-28 10:04:01.360870,0.03144502639770496
2023-01-28 10:04:01.365870,0.12456622320383746
2023-01-28 10:04:01.370870,0.2439874410629272
2023-01-28 10:04:01.375870,0.37394468148646576
2023-01-28 10:04:01.380870,0.4899462163448332
2023-01-28 10:04:01.385870,0.5656526651804409
2023-01-28 10:04:01.390870,0.5820214748382566
2023-01-28 10:04:01.395870,0.5343072305565834
2023-01-28 10:04:01.400870,0.43369135260581954
2023-01-28 10:04:01.405870,0.3032023839272833
2023-01-28 10:04:01.410870,0.1698223799467085
2023-01-28 10:04:01.415870,0.05592695483136917
2023-01-28 10:04:01.420870,-0.026396512985229367
2023-01-28 10:04:01.425870,-0.0760334251398095
2023-01-28 10:04:01.430870,-0.09940763562917698
2023-01-28 10:04:01.435870,-0.10578182874045186
2023-01-28 10:04:01.440870,-0.10356664657592762
2023-01-28 10:04:01.445870,-0.09838557636044344
2023-01-28 10:04:01.450870,-0.09289264678955063
2023-01-28 10:04:01.455870,-0.08787279081877926
2023-01-28 10:04:01.460870,-0.08349280059337606
2023-01-28 10:04:01.465870,-0.0797613270996033
2023-01-28 10:04:01.470870,-0.07644891738891593
2023-01-28 10:04:01.475870,-0.07320560159245564
2023-01-28 10:04:01.480870,-0.06983777135610582
2023-01-28 10:04:01.485870,-0.06630393428422737
2023-01-28 10:04:01.490870,-0.06260156631469724
2023-01-28 10:04:01.495870,-0.05889932438597615
2023-01-28 10:04:01.500870,-0.05560576915740957
2023-01-28 10:04:01.505870,-0.053028588544635255
2023-01-28 10:04:01.510870,-0.051062107086181564
2023-01-28 10:04:01.515870,-0.04934325293047957
2023-01-28 10:04:01.520870,-0.04748006910085666
2023-01-28 10:04:01.525870,-0.0449812890114477
2023-01-28 10:04:01.530870,-0.04130164906382552
2023-01-28 10:04:01.535870,-0.03620504445578778
2023-01-28 10:04:01.540870,-0.029810270294547053
2023-01-28 10:04:01.545870,-0.022137757780355566
2023-01-28 10:04:01.550870,-0.013005932793021178
2023-01-28 10:04:01.555870,-0.0025126893133192423
2023-01-28 10:04:01.560870,0.0088950004428625
2023-01-28 10:04:01.565870,0.021004235963248675
2023-01-28 10:04:01.570870,0.03389716148376459
2023-01-28 10:04:01.575870,0.047305971083523975
2023-01-28 10:04:01.580870,0.06075044721364971
2023-01-28 10:04:01.585870,0.07455290776983844
2023-01-28 10:04:01.590870,0.08957505226135254
2023-01-28 10:04:01.595870,0.10534031112608672
2023-01-28 10:04:01.600870,0.11962573230266577
2023-01-28 10:04:01.605870,0.13089614027365828
2023-01-28 10:04:01.610870,0.14001211524009693
2023-01-28 10:04:01.615870,0.14823111007506903
2023-01-28 10:04:01.620870,0.1545325964689253
2023-01-28 10:04:01.625870,0.15661082839144855
2023-01-28 10:04:01.630870,0.1538835018873213
2023-01-28 10:04:01.635870,0.1476810473801222
2023-01-28 10:04:01.640870,0.13873796164989474
2023-01-28 10:04:01.645870,0.12643143310513733
2023-01-28 10:04:01.650870,0.1107066869735717
2023-01-28 10:04:01.655870,0.09302915459180751
2023-01-28 10:04:01.660870,0.07493436336517335
2023-01-28 10:04:01.665870,0.05704470114884561
2023-01-28 10:04:01.670870,0.040027499198913435
2023-01-28 10:04:01.675870,0.025181780054520358
2023-01-28 10:04:01.680870,0.013342499732971152
2023-01-28 10:04:01.685870,0.004171939793049643
2023-01-28 10:04:01.690870,-0.0029089055024087143
2023-01-28 10:04:01.695870,-0.008015653170828429
2023-01-28 10:04:01.700870,-0.011515418998897
2023-01-28 10:04:01.705870,-0.014447201830197412
2023-01-28 10:04:01.710870,-0.017525553703308085
2023-01-28 10:04:01.715870,-0.020400817845077454
2023-01-28 10:04:01.720870,-0.02240578457713116
2023-01-28 10:04:01.725870,-0.02336008719969635
2023-01-28 10:04:01.730870,-0.023247202858328795
2023-01-28 10:04:01.735870,-0.021915771818237544
2023-01-28 10:04:01.740870,-0.019665163010358738
2023-01-28 10:04:01.745870,-0.017448402577760744
2023-01-28 10:04:01.750870,-0.01591483876109122
2023-01-28 10:04:01.755870,-0.014746725374745286
2023-01-28 10:04:01.760870,-0.013318459503352623
2023-01-28 10:04:01.765870,-0.011421579630290902
2023-01-28 10:04:01.770870,-0.008991162292659149
2023-01-28 10:04:01.775870,-0.005827359428770857
2023-01-28 10:04:01.780870,-0.0021155676804481232
2023-01-28 10:04:01.785870,0.0013285640577071452
2023-01-28 10:04:01.790870,0.0038224458694458576
2023-01-28 10:04:01.795870,0.005387750970343746
2023-01-28 10:04:01.800870,0.006250540725886822
2023-01-28 10:04:01.805870,0.0063578378614550955
2023-01-28 10:04:01.810870,0.005793770309537582
2023-01-28 10:04:01.815870,0.005115165513033768
2023-01-28 10:04:01.820870,0.004808108322322292
2023-01-28 10:04:01.825870,0.004844326019155683
2023-01-28 10:04:01.830870,0.00512063503265377
2023-01-28 10:04:01.835870,0.0058341500687985525
2023-01-28 10:04:01.840870,0.007043878547847188
2023-01-28 10:04:01.845870,0.008354925075753996
2023-01-28 10:04:01.850870,0.009447932243347034
2023-01-28 10:04:01.855870,0.010499820495220993
2023-01-28 10:04:01.860870,0.011731783859431744
2023-01-28 10:04:01.865870,0.012972918029601866
2023-01-28 10:04:01.870870,0.013991594314574987
2023-01-28 10:04:01.875870,0.014792442485337839
2023-01-28 10:04:01.880870,0.015241703018546047
2023-01-28 10:04:01.885870,0.014871379184267387
2023-01-28 10:04:01.890870,0.013462702743709013
2023-01-28 10:04:01.895870,0.011466987931546897
2023-01-28 10:04:01.900870,0.009544095024466496
2023-01-28 10:04:01.905870,0.008065137392948894
2023-01-28 10:04:01.910870,0.007308324333280296
2023-01-28 10:04:01.915870,0.007632751097596407
2023-01-28 10:04:01.920870,0.009063283912837608
2023-01-28 10:04:01.925870,0.011085799008749684
2023-01-28 10:04:01.930870,0.013198256492614748
2023-01-28 10:04:01.935870,0.015325151846433594
2023-01-28 10:04:01.940870,0.017429392784833943
2023-01-28 10:04:01.945870,0.019131156682019364
2023-01-28 10:04:01.950870,0.020025771111249868
2023-01-28 10:04:01.955870,0.020017469454519102
2023-01-28 10:04:01.960870,0.019088190048933
2023-01-28 10:04:01.965870,0.01717243777840521
2023-01-28 10:04:01.970870,0.014592608436942071
2023-01-28 10:04:01.975870,0.012238272618300109
2023-01-28 10:04:01.980870,0.010962486267089806
2023-01-28 10:04:01.985870,0.011066201091800261
2023-01-28 10:04:01.990870,0.012573203071951795
2023-01-28 10:04:01.995870,0.01561230932838573
2023-01-28 10:04:02.000870,0.02024213597178448
2023-01-28 10:04:02.005870,0.026239233009774623
2023-01-28 10:04:02.010870,0.03329614922404282
2023-01-28 10:04:02.015870,0.04103615137470646
2023-01-28 10:04:02.020870,0.04853785037994382
2023-01-28 10:04:02.025870,0.05421862424246998
2023-01-28 10:04:02.030870,0.05659143254160877
2023-01-28 10:04:02.035870,0.055055999286089626
2023-01-28 10:04:02.040870,0.04995624348521231
2023-01-28 10:04:02.045870,0.04233263262207585
2023-01-28 10:04:02.050870,0.03382503986358634
2023-01-28 10:04:02.055870,0.02628761071221563
2023-01-28 10:04:02.060870,0.02093931101262558
2023-01-28 10:04:02.065870,0.017879509615662793
2023-01-28 10:04:02.070870,0.016467770561575803
2023-01-28 10:04:02.075870,0.01587422555541865
2023-01-28 10:04:02.080870,0.015193621627986383
2023-01-28 10:04:02.085870,0.013533068844765883
2023-01-28 10:04:02.090870,0.010433594696223679
2023-01-28 10:04:02.095870,0.006208378834709009
2023-01-28 10:04:02.100870,0.0020674865227191977
2023-01-28 10:04:02.105870,0.0006869264626190652
2023-01-28 10:04:02.110870,0.007284283638000375
2023-01-28 10:04:02.115870,0.029909829533625122
2023-01-28 10:04:02.120870,0.07772307097911839
2023-01-28 10:04:02.125870,0.15741431884430976
2023-01-28 10:04:02.130870,0.2689175009727478
2023-01-28 10:04:02.135870,0.40198288344211314
2023-01-28 10:04:02.140870,0.5357193946838379
2023-01-28 10:04:02.145870,0.6428514160348636
2023-01-28 10:04:02.150870,0.6980171203613281
2023-01-28 10:04:02.155870,0.6866199064344
2023-01-28 10:04:02.160870,0.6101970076560972
2023-01-28 10:04:02.165870,0.48607315327432954
2023-01-28 10:04:02.170870,0.34147185087203963
2023-01-28 10:04:02.175870,0.2044238371939548
2023-01-28 10:04:02.180870,0.0953447818756103
2023-01-28 10:04:02.185870,0.022791156854586422
2023-01-28 10:04:02.190870,-0.01567443273961536
2023-01-28 10:04:02.195870,-0.029268627008588607
2023-01-28 10:04:02.200870,-0.02899289131164547
2023-01-28 10:04:02.205870,-0.023796912626335216
2023-01-28 10:04:02.210870,-0.018919905647635342
2023-01-28 10:04:02.215870,-0.01629705910664643
2023-01-28 10:04:02.220870,-0.015866756439208755
2023-01-28 10:04:02.225870,-0.01669135174214551
2023-01-28 10:04:02.230870,-0.017741918563842617
2023-01-28 10:04:02.235870,-0.01845512403610657
2023-01-28 10:04:02.240870,-0.018775662407278966
2023-01-28 10:04:02.245870,-0.018738360685301516
2023-01-28 10:04:02.250870,-0.018294852226972417
2023-01-28 10:04:02.255870,-0.017520676449440845
2023-01-28 10:04:02.260870,-0.016491811722517027
2023-01-28 10:04:02.265870,-0.014895628397782856
2023-01-28 10:04:02.270870,-0.012380878441035699
2023-01-28 10:04:02.275870,-0.009372927134563117
2023-01-28 10:04:02.280870,-0.006731351371854551
2023-01-28 10:04:02.285870,-0.004443570078688014
2023-01-28 10:04:02.290870,-0.001682837842963598
2023-01-28 10:04:02.295870,0.0016008279840473538
2023-01-28 10:04:02.300870,0.004567702766507774
2023-01-28 10:04:02.305870,0.007584690477812807
2023-01-28 10:04:02.310870,0.012717446312308287
2023-01-28 10:04:02.315870,0.020794518777658904
2023-01-28 10:04:02.320870,0.029521783813834166
2023-01-28 10:04:02.325870,0.03642348470647356
2023-01-28 10:04:02.330870,0.04255175590515135
2023-01-28 10:04:02.335870,0.05110623870961384
2023-01-28 10:04:02.340870,0.06310641765594481
2023-01-28 10:04:02.345870,0.07678710835514478
2023-01-28 10:04:02.350870,0.09087324142456055
2023-01-28 10:04:02.355870,0.10578107064157852
2023-01-28 10:04:02.360870,0.12126048654317848
2023-01-28 10:04:02.365870,0.1353542462536326
2023-01-28 10:04:02.370870,0.14662325382232658
2023-01-28 10:04:02.375870,0.15549255649562893
2023-01-28 10:04:02.380870,0.1624659746885299
2023-01-28 10:04:02.385870,0.166691597512492
2023-01-28 10:04:02.390870,0.16727408766746515
2023-01-28 10:04:02.395870,0.1645088291007063
2023-01-28 10:04:02.400870,0.15878777205944064
2023-01-28 10:04:02.405870,0.14959927863428046
2023-01-28 10:04:02.410870,0.13667047023773185
2023-01-28 10:04:02.415870,0.12100634486871097
2023-01-28 10:04:02.420870,0.10385513305664062
2023-01-28 10:04:02.425870,0.08568389978888721
2023-01-28 10:04:02.430870,0.06707310676574692
2023-01-28 10:04:02.435870,0.04956743983468438
2023-01-28 10:04:02.440870,0.03459433838725091
2023-01-28 10:04:02.445870,0.0222985002752047
2023-01-28 10:04:02.450870,0.012236635200679285
2023-01-28 10:04:02.455870,0.00436647128719467
2023-01-28 10:04:02.460870,-0.0014424324035643963
2023-01-28 10:04:02.465870,-0.0059505122608343106
2023-01-28 10:04:02.470870,-0.009640256874263191
2023-01-28 10:04:02.475870,-0.01197033007290137
2023-01-28 10:04:02.480870,-0.012380878441035633
2023-01-28 10:04:02.485870,-0.011409294015777524
2023-01-28 10:04:02.490870,-0.010097026824951123
2023-01-28 10:04:02.495870,-0.008988287037471664
2023-01-28 10:04:02.500870,-0.008390149101614957
2023-01-28 10:04:02.505870,-0.008789064511305213
2023-01-28 10:04:02.510870,-0.010121067985892247
2023-01-28 10:04:02.515870,-0.011270841677208552
2023-01-28 10:04:02.520870,-0.011154810898005943
2023-01-28 10:04:02.525870,-0.00984029707037725
2023-01-28 10:04:02.530870,-0.008005499839782704
2023-01-28 10:04:02.535870,-0.005970765403424882
2023-01-28 10:04:02.540870,-0.003942648880183593
2023-01-28 10:04:02.545870,-0.0024858219679341786
2023-01-28 10:04:02.550870,-0.0018992027034982742
2023-01-28 10:04:02.555870,-0.0016421708403283521
2023-01-28 10:04:02.560870,-0.0011058648815377788
