14.67
15.43
16.33
17.33
18.51
19.96
21.78
23.97
26.28
28.32
29.65
29.94
29.13
27.46
25.32
23.12
21.07
19.1
17.05
14.76
12.22
9.56
6.98
4.63
2.55
0.64
-1.24
-3.26
-5.53
-8.08
-10.82
-13.62
-16.31
-18.75
-20.96
-23.09
-25.44
-28.35
-32.02
-36.36
-40.99
-45.17
-48.05
-48.81
-46.91
-42.3
-35.43
-27.16
-18.51
-10.44
-3.52
1.98
6.16
9.26
11.61
13.52
15.22
16.83
18.34
19.63
20.53
20.98
21.05
20.96
20.92
21.1
21.54
22.19
23
23.95
24.96
25.89
26.5
26.51
25.8
24.44
22.69
20.87
19.16
17.55
15.89
13.99
11.74
9.19
6.59
4.21
2.26
0.75
-0.49
-1.76
-3.36
-5.5
-8.14
-11.04
-13.86
-16.31
-18.33
-20.01
-21.65
-23.5
-25.78
-28.56
-31.8
-35.33
-38.84
-41.84
-43.68
-43.68
-41.31
-36.48
-29.58
-21.46
-13.17
-5.6
0.69
5.57
9.2
11.9
13.96
15.55
16.72
17.46
17.77
17.68
17.33
16.9
16.57
16.49
16.65
17
17.46
17.99
18.61
19.3
19.97
20.37
20.24
19.4
17.87
15.84
13.59
11.36
9.27
7.36
5.65
4.17
2.86
1.52
-0.16
-2.39
-5.19
-8.3
-11.27
-13.76
-15.64
-17.11
-18.47
-20.05
-22.01
-24.43
-27.25
-30.28
-33.09
-34.98
-35.13
-32.9
-28.18
-21.55
-14.03
-6.81
-0.71
3.96
7.38
9.97
12.11
14.02
15.71
17.14
18.28
19.12
19.67
19.92
19.83
19.41
18.71
17.88
17.15
16.71
16.67
17.03
17.66
18.34
18.78
18.75
18.07
16.71
14.81
12.61
10.45
8.6
7.17
6.1
5.24
4.43
3.59
2.69
1.7
0.53
-0.99
-3.02
-5.64
-8.8
-12.27
-15.8
-19.12
-22.07
-24.72
-27.24
-29.86
-32.81
-36.15
-39.78
-43.31
-46.13
-47.52
-46.85
-43.78
-38.37
-31.18
-23.09
-15.08
-7.92
-2
2.73
6.59
9.99
13.16
16.14
18.76
20.82
22.22
23.02
23.42
23.62
23.79
23.97
24.15
24.32
24.57
25.05
25.86
26.99
28.24
29.25
29.61
29.09
27.68
25.66
23.41
21.3
19.51
17.99
16.56
15.06
13.39
11.57
9.75
8.1
6.76
5.84
5.31
5.06
4.86
4.5
3.84
2.84
1.55
-0.03
-2
-4.55
-7.78
-11.59
-15.64
-19.5
-22.85
-25.59
-27.84
-29.8
-31.67
-33.59
-35.79
-38.48
-41.81
-45.63
-49.27
-51.69
-51.71
-48.58
-42.3
-33.69
-24.06
-14.77
-6.76
-0.4
4.49
8.38
11.71
14.7
17.34
19.48
21
21.9
22.34
22.53
22.64
22.76
22.88
22.93
22.89
22.78
22.65
22.59
22.59
22.6
22.49
22.09
21.25
19.92
18.17
16.17
14.18
12.33
10.6
8.87
6.98
4.89
2.68
0.52
-1.49
-3.3
-5.01
-6.73
-8.49
-10.27
-11.96
-13.54
-15.05
-16.61
-18.39
-20.5
-23.04
-26.07
-29.6
-33.52
-37.47
-40.74
-42.48
-41.85
-38.47
-32.57
-24.91
-16.58
-8.58
-1.61
4.08
8.47
11.75
14.11
15.73
16.86
17.71
18.45
19.1
19.58
19.8
19.74
19.53
19.38
19.53
20.04
20.84
21.76
22.61
23.35
23.94
24.37
24.5
24.13
23.06
21.28
19.03
16.7
14.7
13.21
12.1
11
9.56
7.59
5.2
2.7
0.41
-1.49
-2.99
-4.27
-5.54
-6.99
-8.77
-10.9
-13.33
-15.95
-18.63
-21.27
-23.8
-26.33
-29.01
-32.06
-35.62
-39.69
-44
-47.99
-50.85
-51.69
-49.82
-45.04
-37.77
-29
-19.92
-11.54
-4.38
1.55
6.56
10.99
14.97
18.43
21.17
23.09
24.24
24.85
25.21
25.54
25.95
26.36
26.65
26.7
26.57
26.4
26.41
26.68
27.17
27.66
27.91
27.81
27.42
26.9
26.39
25.86
25.15
24.03
22.4
20.31
17.98
15.7
13.74
12.2
10.97
9.79
8.35
6.45
4.08
1.45
-1.12
-3.36
-5.22
-6.89
-8.7
-10.92
-13.59
-16.5
-19.31
-21.71
-23.6
-25.08
-26.39
-27.84
-29.67
-32.05
-35.03
-38.48
-42.01
-44.98
-46.52
-45.82
-42.36
-36.22
-28.01
-18.81
-9.81
-1.98
4.08
8.24
10.8
12.25
13.17
14.02
15
16.09
17.09
17.77
17.97
17.68
17.02
16.22
15.52
15.17
15.33
15.99
16.99
17.98
18.65
18.75
18.26
17.35
16.24
15.08
13.98
12.9
11.78
10.64
9.48
8.35
7.22
6.07
4.83
3.49
2.02
0.4
-1.41
-3.48
-5.84
-8.46
-11.24
-14.05
-16.74
-19.23
-21.59
-23.96
-26.62
-29.75
-33.39
-37.24
-40.68
-42.88
-42.97
-40.42
-35.22
-27.93
-19.59
-11.35
-4.12
1.63
5.92
9.14
11.71
13.96
15.98
17.74
19.13
20.12
20.77
21.17
21.48
21.75
22.05
22.44
22.97
23.66
24.49
25.37
26.1
26.54
26.52
25.91
24.65
22.75
20.4
17.86
15.44
13.41
11.82
10.58
9.43
8.17
6.72
5.15
3.57
2.04
0.53
-1.09
-2.89
-4.87
-6.95
-9.03
-11.12
-13.24
-15.46
-17.76
-20.03
-22.12
-23.97
-25.66
-27.47
-29.72
-32.66
-36.31
-40.41
-44.41
-47.56
-49.14
-48.52
-45.42
-39.93
-32.53
-24.02
-15.37
-7.49
-1.02
3.85
7.31
9.85
12.01
14.21
16.59
19
21.18
22.88
24
24.58
24.75
24.65
24.36
23.95
23.48
23.07
22.82
22.78
22.91
23.04
22.93
22.42
21.45
20.14
18.63
17.08
15.62
14.31
13.15
12.04
10.9
9.54
7.85
5.81
3.57
1.39
-0.44
-1.81
-2.78
-3.61
-4.64
-6.07
-7.94
-10.11
-12.39
-14.57
-16.58
-18.36
-19.96
-21.47
-23.11
-25.14
-27.82
-31.25
-35.17
-38.96
-41.7
-42.42
-40.45
-35.66
-28.58
-20.27
-11.93
-4.64
0.96
4.79
7.24
8.9
10.29
11.67
12.99
14.06
14.68
14.81
14.56
14.09
13.57
13.13
12.92
13.12
13.97
15.54
17.67
19.95
21.8
22.73
22.48
21.1
18.83
15.97
12.72
9.29
5.83
2.57
-0.27
-2.51
-4.14
-5.32
-6.35
-7.5
-8.91
-10.55
-12.24
-13.77
-14.99
-15.89
-16.6
-17.36
-18.44
-20.17
-22.74
-26.16
-30.08
-33.75
-36.18
-36.46
-34.02
-28.97
-22.02
-14.29
-6.91
-0.58
4.44
8.38
11.62
14.46
16.96
18.94
20.18
20.55
20.11
19.13
17.94
16.85
16.01
15.48
15.27
15.43
15.98
16.95
18.25
19.64
20.81
21.46
21.4
20.63
19.32
17.71
16.07
14.62
13.45
12.55
11.76
10.89
9.7
8.07
6.04
3.8
1.64
-0.22
-1.7
-2.9
-4.07
-5.44
-7.08
-8.9
-10.77
-12.61
-14.5
-16.6
-19.04
-21.74
-24.44
-26.87
-28.94
-30.9
-33.15
-36.02
-39.39
-42.59
-44.63
-44.52
-41.72
-36.36
-29.16
-21.13
-13.26
-6.2
-0.23
4.68
8.72
12.07
14.9
17.29
19.3
20.96
22.32
23.38
24.15
24.63
24.85
24.85
24.73
24.6
24.56
24.73
25.2
25.95
26.9
27.81
28.37
28.3
27.44
25.8
23.63
21.26
19.07
17.31
16.02
15.08
14.24
13.26
11.93
10.24
8.27
6.2
4.23
2.43
0.75
-0.92
-2.7
-4.65
-6.74
-8.91
-11.09
-13.26
-15.46
-17.74
-20.1
-22.44
-24.64
-26.6
-28.38
-30.23
-32.45
-35.23
-38.43
-41.47
-43.48
-43.58
-41.22
-36.4
-29.71
-22.04
-14.34
-7.3
-1.23
3.81
7.94
11.33
14.1
16.33
18.02
19.14
19.71
19.81
19.59
19.24
18.96
18.82
18.84
19.01
19.35
19.89
20.63
21.46
22.18
22.57
22.48
21.93
21.07
20.04
18.96
17.8
16.46
14.87
12.97
10.77
8.31
5.68
2.96
0.29
-2.16
-4.31
-6.13
-7.69
-9.17
-10.76
-12.6
-14.71
-17.03
-19.44
-21.91
-24.5
-27.39
-30.7
-34.4
-38.17
-41.4
-43.32
-43.22
-40.72
-35.85
-29.09
-21.28
-13.34
-6.15
-0.22
4.25
7.45
9.8
11.73
13.57
15.47
17.37
19.1
20.46
21.26
21.41
21.02
20.26
19.46
18.86
18.64
18.79
19.14
19.53
19.83
20.08
20.3
20.53
20.71
20.71
20.35
19.54
18.28
16.63
14.78
12.86
11.04
9.36
7.83
6.36
4.86
3.25
1.51
-0.26
-1.97
-3.59
-5.22
-7.06
-9.27
-11.91
-14.83
-17.74
-20.32
-22.36
-23.88
-25.14
-26.53
-28.47
-31.23
-34.91
-39.23
-43.63
-47.26
-49.24
-48.82
-45.68
-40.05
-32.66
-24.52
-16.6
-9.53
-3.52
1.53
5.84
9.54
12.61
14.93
16.47
17.33
17.74
17.98
18.21
18.44
18.54
18.38
17.96
17.45
17.14
17.27
17.95
19.09
20.49
21.89
23.04
23.76
23.91
23.49
22.54
21.23
19.79
18.41
17.14
15.95
14.67
13.17
11.4
9.46
7.48
5.56
3.74
1.95
0.06
-2.04
-4.44
-7.09
-9.85
-12.5
-14.8
-16.6
-17.9
-18.96
-20.17
-22.01
-24.81
-28.54
-32.72
-36.48
-38.79
-38.77
-36.04
-30.84
-23.97
-16.46
-9.28
-3
2.21
6.49
10.03
12.95
15.27
16.89
17.81
18.14
18.09
17.88
17.67
17.55
17.51
17.62
17.92
18.52
19.46
20.64
21.83
22.65
22.77
22.01
20.44
18.36
16.21
14.37
13.01
12.11
11.46
10.84
10.11
9.21
8.14
6.86
5.24
3.15
0.48
-2.71
-6.22
-9.72
-12.97
-15.85
-18.4
-20.74
-23
-25.25
-27.55
-29.99
-32.78
-36.14
-40.09
-44.19
-47.56
-49.05
-47.69
-43.17
-36.03
-27.52
-19.13
-12.06
-6.8
-3.21
-0.68
1.45
3.64
6.06
8.65
11.26
13.76
16.04
17.99
19.51
20.55
21.11
21.3
21.33
21.46
21.86
22.61
23.63
24.72
25.66
26.28
26.47
26.21
25.49
24.32
22.75
20.89
18.93
17.1
15.51
14.11
12.69
11
8.91
6.53
4.14
2.06
0.42
-0.89
-2.19
-3.81
-5.91
-8.41
-11.09
-13.7
-16.12
-18.34
-20.48
-22.61
-24.82
-27.22
-29.99
-33.29
-37.18
-41.41
-45.36
-48.07
-48.56
-46.15
-40.73
-32.95
-23.87
-14.71
-6.47
0.34
5.62
9.58
12.46
14.48
15.82
16.68
17.3
17.88
18.55
19.3
20.02
20.48
20.58
20.32
19.82
19.33
19.04
19.07
19.42
19.98
20.6
21.12
21.39
21.28
20.68
19.56
17.94
15.91
13.68
11.45
9.42
7.7
6.31
5.16
4.11
2.98
1.6
-0.14
-2.22
-4.57
-7.01
-9.38
-11.6
-13.68
-15.72
-17.86
-20.23
-22.93
-26.04
-29.43
-32.8
-35.55
-36.92
-36.19
-32.95
-27.35
-20.12
-12.32
-4.99
1.14
5.82
9.2
11.59
13.28
14.41
15.03
15.17
14.93
14.46
13.97
13.63
13.52
13.6
13.79
13.98
14.18
14.45
14.86
15.48
16.2
16.76
16.91
16.48
15.51
14.2
12.73
11.24
9.7
8.08
6.35
4.59
2.89
1.24
-0.51
-2.66
-5.46
-8.93
-12.8
-16.6
-19.83
-22.23
-23.86
-25.13
-26.57
-28.63
-31.46
-34.86
-38.35
-41.26
-42.89
-42.71
-40.45
-36.14
-30.16
-23.07
-15.55
-8.23
-1.64
3.88
8.17
11.26
13.39
14.87
16.06
17.18
18.28
19.3
20.1
20.67
21.1
21.57
22.27
23.25
24.41
25.59
26.66
27.55
28.22
28.67
28.81
28.54
27.73
26.3
24.38
22.19
20.06
18.27
16.98
16.12
15.44
14.61
13.31
11.4
8.92
6.1
3.25
0.6
-1.69
-3.66
-5.43
-7.15
-8.95
-10.95
-13.17
-15.61
-18.19
-20.73
-23.03
-24.99
-26.69
-28.44
-30.75
-33.99
-38.28
-43.29
-48.25
-52.16
-54.02
-53.08
-49.06
-42.25
-33.44
-23.75
-14.36
-6.22
0.15
4.76
7.97
10.32
12.33
14.32
16.41
18.52
20.5
22.17
23.41
24.19
24.54
24.6
24.53
24.46
24.54
24.82
25.34
26.08
26.96
27.81
28.36
28.31
27.43
25.7
23.3
20.61
17.99
15.7
13.82
12.28
10.9
9.55
8.18
6.71
5.04
3.01
0.41
-2.92
-7.02
-11.8
-17.05
-22.6
-28.32
-34.2
-40.25
-46.41
-52.54
-58.39
-63.85
-68.98
-74.08
-79.56
-85.77
-92.9
-100.9
-109.61
-118.66
-127.55
-135.53
-141.6
-144.57
-143.3
-137.01
-125.55
-109.41
-89.59
-67.34
-43.71
-19.46
5
29.46
53.67
77.26
99.64
120.03
137.4
150.56
158.26
159.43
153.46
140.71
122.83
102.69
83.73
68.93
59.71
55.57
54.33
53.26
50.24
44.62
37.19
29.45
22.8
17.8
14.18
11.3
8.67
6.24
4.37
3.39
3.29
3.63
3.71
2.84
0.67
-2.63
-6.52
-10.26
-13.32
-15.51
-17.07
-18.53
-20.48
-23.34
-27.25
-32.1
-37.62
-43.51
-49.53
-55.4
-60.75
-65.03
-67.59
-67.98
-66.13
-62.51
-58.07
-53.79
-50.49
-48.51
-47.76
-47.9
-48.55
-49.46
-50.52
-51.69
-52.86
-53.69
-53.7
-52.3
-49.07
-43.95
-37.26
-29.67
-22.03
-15.03
-9.01
-3.98
0.39
4.48
8.62
12.97
17.53
22.23
27.03
31.94
36.99
42.2
47.57
53.06
58.72
64.76
71.46
79.26
88.47
99.16
111.01
123.28
134.96
144.96
152.39
156.75
158.08
156.82
153.62
149.11
143.72
137.73
131.36
124.97
118.97
113.82
109.81
106.99
105.24
104.24
103.61
102.9
101.61
99.32
95.9
91.61
87.24
83.87
82.57
83.98
88.07
94.07
100.58
105.92
108.43
106.81
100.35
89.03
73.47
54.6
33.44
10.82
-12.65
-36.39
-59.76
-82.06
-102.61
-121.05
-137.38
-151.87
-164.67
-175.56
-183.86
-188.55
-188.69
-183.89
-174.45
-161.36
-145.93
-129.43
-112.87
-96.89
-81.88
-68.17
-56.21
-46.49
-39.5
-35.41
-33.91
-34.34
-35.8
-37.63
-39.49
-41.51
-44.09
-47.58
-52.14
-57.67
-63.94
-70.58
-77.19
-83.15
-87.71
-90.09
-89.71
-86.44
-80.65
-73.06
-64.49
-55.64
-47.16
-39.65
-33.71
-29.76
-27.82
-27.31
-27.26
-26.66
-24.85
-21.81
-17.95
-13.88
-10.04
-6.55
-3.22
0.26
4.17
8.68
13.9
19.79
26.03
31.92
36.49
38.74
38.19
35.08
30.39
25.45
21.38
18.7
17.23
16.43
15.73
14.87
13.85
12.79
11.72
10.38
8.48
5.75
2.15
-2.14
-6.76
-11.29
-15.24
-18.15
-19.63
-19.43
-17.5
-13.99
-9.23
-3.62
2.38
8.32
13.82
18.61
22.56
25.75
28.43
30.9
33.38
35.93
38.4
40.49
41.91
42.48
42.26
41.49
40.46
39.41
38.33
37.01
35.1
32.25
28.3
23.29
17.53
11.43
5.44
-0.06
-4.82
-8.69
-11.62
-13.64
-14.81
-15.28
-15.17
-14.65
-13.83
-12.88
-11.96
-11.26
-10.96
-11.22
-12.13
-13.66
-15.63
-17.73
-19.46
-20.28
-19.71
-17.5
-13.76
-8.94
-3.73
1.28
5.7
9.42
12.55
15.24
17.51
19.3
20.41
20.75
20.33
19.35
18.12
16.92
15.94
15.26
14.85
14.64
14.56
14.61
14.73
14.85
14.81
14.43
13.54
12.06
10.02
7.55
4.77
1.76
-1.46
-4.88
-8.44
-11.99
-15.34
-18.35
-20.98
-23.32
-25.59
-28
-30.71
-33.65
-36.52
-38.75
-39.67
-38.68
-35.41
-29.93
-22.76
-14.75
-6.83
0.22
6.01
10.53
14.01
16.76
18.94
20.54
21.43
21.49
20.76
19.43
17.89
16.51
15.61
15.32
15.58
16.17
16.83
17.29
17.34
16.89
15.94
14.55
12.85
10.95
8.92
6.81
4.55
2.1
-0.59
-3.47
-6.4
-9.26
-11.93
-14.48
-17.06
-19.96
-23.42
-27.56
-32.21
-36.92
-41.04
-43.85
-44.73
-43.38
-39.8
-34.36
-27.58
-20.09
-12.46
-5.09
1.69
7.72
12.93
17.36
21.03
23.99
26.21
27.61
28.18
27.97
27.16
26
24.78
23.73
23
22.7
22.84
23.38
24.17
24.97
25.47
25.42
24.66
23.25
21.34
19.15
16.87
14.63
12.46
10.33
8.16
5.88
3.51
1.11
-1.28
-3.67
-6.16
-8.83
-11.73
-14.75
-17.7
-20.38
-22.72
-24.9
-27.23
-30.01
-33.44
-37.37
-41.4
-44.86
-47
-47.08
-44.65
-39.63
-32.45
-23.88
-14.85
-6.19
1.58
8.25
13.9
18.64
22.62
25.95
28.65
30.8
32.4
33.46
33.94
33.87
33.32
32.48
31.61
30.91
30.52
30.49
30.81
31.44
32.26
33.02
33.42
33.2
32.23
30.62
28.64
26.6
24.69
22.87
20.97
18.86
16.53
14.12
11.87
9.95
8.35
6.94
5.49
3.81
1.83
-0.37
-2.61
-4.73
-6.66
-8.51
-10.48
-12.8
-15.51
-18.44
-21.26
-23.6
-25.3
-26.55
-27.79
-29.55
-32.21
-35.78
-39.83
-43.59
-46.17
-46.74
-44.86
-40.51
-34.11
-26.41
-18.26
-10.4
-3.34
2.7
7.71
11.78
14.94
17.26
18.76
19.54
19.77
19.71
19.64
19.77
20.24
21.04
22.06
23.13
24.09
24.83
25.35
25.75
26.15
26.61
27.06
27.27
26.91
25.78
23.88
21.48
19
16.82
15.14
13.8
12.45
10.71
8.36
5.5
2.42
-0.5
-3.01
-5.03
-6.72
-8.25
-9.79
-11.41
-13.1
-14.85
-16.64
-18.5
-20.44
-22.5
-24.67
-27.01
-29.61
-32.55
-35.76
-38.91
-41.43
-42.54
-41.59
-38.23
-32.58
-25.23
-17.01
-8.8
-1.33
5.03
10.17
14.22
17.31
19.58
21.07
21.88
22.18
22.25
22.39
22.8
23.4
23.9
24
23.57
22.76
22.01
21.76
22.25
23.36
24.69
25.67
25.87
25.1
23.42
21.14
18.61
16.19
14.09
12.4
11.07
9.93
8.8
7.51
5.97
4.2
2.25
0.22
-1.8
-3.71
-5.47
-7.06
-8.53
-9.93
-11.34
-12.79
-14.29
-15.85
-17.52
-19.37
-21.48
-23.9
-26.63
-29.66
-32.95
-36.46
-39.98
-43.11
-45.19
-45.51
-43.48
-38.98
-32.38
-24.55
-16.45
-8.92
-2.42
2.98
7.45
11.18
14.24
16.59
18.15
18.94
19.14
19.04
18.96
19.06
19.33
19.65
19.93
20.11
20.26
20.47
20.77
21.09
21.31
21.34
21.16
20.83
20.38
19.75
18.78
17.31
15.28
12.82
10.22
7.81
5.86
4.41
3.34
2.4
1.37
0.17
-1.13
-2.35
-3.42
-4.42
-5.59
-7.2
-9.38
-12.04
-14.84
-17.42
-19.5
-21.09
-22.36
-23.63
-25.17
-27.15
-29.64
-32.54
-35.61
-38.41
-40.33
-40.72
-39.13
-35.48
-30.07
-23.48
-16.31
-9.07
-2.17
4.05
9.27
13.21
15.73
16.9
17.03
16.51
15.69
14.79
13.98
13.38
13.11
13.18
13.44
13.58
13.31
12.52
11.39
10.4
10.05
10.66
12.14
14.08
15.87
16.95
17.03
16.07
14.26
11.88
9.24
6.55
3.97
1.63
-0.37
-1.98
-3.17
-4.01
-4.7
-5.47
-6.6
-8.25
-10.47
-13.08
-15.78
-18.24
-20.21
-21.66
-22.75
-23.85
-25.27
-27.23
-29.77
-32.68
-35.66
-38.28
-40.07
-40.57
-39.36
-36.14
-30.93
-24.1
-16.32
-8.48
-1.38
4.44
8.86
12.02
14.26
15.83
16.89
17.48
17.67
17.6
17.43
17.34
17.35
17.37
17.31
17.1
16.87
16.76
16.94
17.38
17.94
18.35
18.44
18.16
17.57
16.82
16
15.1
13.96
12.49
10.71
8.79
6.99
5.51
4.42
3.54
2.64
1.48
0.02
-1.61
-3.21
-4.55
-5.57
-6.36
-7.07
-7.87
-8.84
-10.04
-11.44
-13.04
-14.79
-16.73
-18.89
-21.34
-24.16
-27.41
-31.03
-34.78
-38.23
-40.76
-41.72
-40.58
-37.19
-31.85
-25.2
-18.06
-11.14
-4.91
0.52
5.22
9.31
12.79
15.57
17.49
18.5
18.68
18.34
17.86
17.57
17.69
18.2
18.97
19.79
20.54
21.18
21.78
22.4
22.97
23.38
23.42
22.95
21.93
20.41
18.56
16.52
14.41
12.29
10.22
8.23
6.41
4.79
3.38
2.1
0.86
-0.49
-2.04
-3.8
-5.73
-7.69
-9.54
-11.22
-12.71
-14.08
-15.4
-16.66
-17.82
-18.87
-19.82
-20.77
-21.84
-23.16
-24.78
-26.7
-28.89
-31.3
-33.79
-36.1
-37.8
-38.32
-37.16
-34.02
-28.97
-22.47
-15.16
-7.79
-0.98
4.8
9.36
12.68
14.95
16.37
17.2
17.66
17.87
17.92
17.85
17.71
17.54
17.39
17.28
17.17
16.96
16.56
15.92
15.12
14.33
13.7
13.29
13.01
12.63
11.93
10.76
9.2
7.52
6.07
5.06
4.48
4.08
3.52
2.53
1.05
-0.75
-2.59
-4.26
-5.69
-6.97
-8.29
-9.75
-11.35
-12.94
-14.32
-15.35
-16.11
-16.82
-17.8
-19.34
-21.62
-24.61
-28.07
-31.56
-34.53
-36.37
-36.63
-35.07
-31.75
-27
-21.3
-15.16
-9.07
-3.41
1.46
5.3
7.97
9.49
10.07
10.01
9.61
9.08
8.55
8.08
7.75
7.64
7.81
8.24
8.86
9.59
10.44
11.47
12.77
14.3
15.83
17.03
17.56
17.24
16.1
14.44
12.61
10.9
9.48
8.34
7.34
6.33
5.21
3.97
2.65
1.32
0.05
-1.12
-2.25
-3.45
-4.84
-6.51
-8.45
-10.49
-12.37
-13.91
-15.05
-15.94
-16.96
-18.52
-20.9
-24.14
-27.96
-31.75
-34.79
-36.34
-35.91
-33.3
-28.73
-22.71
-15.93
-9.06
-2.63
2.97
7.51
10.89
13.13
14.39
14.97
15.23
15.47
15.83
16.27
16.7
17
17.18
17.32
17.55
18.01
18.82
20.04
21.57
23.22
24.63
25.4
25.28
24.27
22.68
20.92
19.34
18.07
16.98
15.87
14.6
13.18
11.7
10.23
8.75
7.13
5.22
3.02
0.73
-1.39
-3.11
-4.4
-5.46
-6.6
-8.06
-9.93
-12.07
-14.2
-16.11
-17.74
-19.22
-20.8
-22.73
-25.15
-27.97
-30.94
-33.61
-35.47
-36.04
-34.97
-32.14
-27.68
-21.98
-15.6
-9.1
-2.93
2.59
7.3
11.18
14.28
16.64
18.34
19.5
20.19
20.54
20.68
20.68
20.58
20.34
19.9
19.22
18.39
17.61
17.12
17.14
17.67
18.56
19.49
20.14
20.27
19.8
18.8
17.42
15.81
14.09
12.36
10.75
9.33
8.11
7.02
5.91
4.63
3.15
1.57
0.06
-1.21
-2.22
-3.1
-4.09
-5.41
-7.13
-9.1
-11.11
-12.93
-14.52
-15.92
-17.34
-18.94
-20.83
-23.09
-25.73
-28.65
-31.61
-34.13
-35.58
-35.35
-33.07
-28.82
-23.08
-16.62
-10.18
-4.3
0.75
4.92
8.23
10.75
12.54
13.73
14.5
15.08
15.65
16.31
17.05
17.75
18.3
18.63
18.74
18.73
18.76
18.9
19.23
19.71
20.29
20.84
21.17
21.14
20.61
19.58
18.18
16.63
15.12
13.75
12.44
11.02
9.35
7.4
5.35
3.41
1.79
0.48
-0.63
-1.83
-3.3
-5.09
-7.07
-8.97
-10.6
-11.88
-12.98
-14.17
-15.7
-17.76
-20.37
-23.48
-26.95
-30.6
-34.13
-37.16
-39.2
-39.78
-38.59
-35.55
-30.88
-24.97
-18.39
-11.66
-5.28
0.4
5.24
9.26
12.63
15.48
17.91
19.92
21.46
22.54
23.23
23.69
24.07
24.44
24.78
24.96
24.87
24.51
23.98
23.46
23.09
22.89
22.75
22.5
21.98
21.13
20.03
18.76
17.44
16.08
14.65
13.13
11.59
10.14
8.84
7.66
6.45
5.04
3.39
1.6
-0.11
-1.58
-2.79
-3.89
-5.05
-6.44
-8.02
-9.72
-11.41
-13.11
-14.9
-16.9
-19.15
-21.6
-24.15
-26.76
-29.52
-32.54
-35.83
-39.17
-42.08
-43.84
-43.74
-41.34
-36.64
-30.15
-22.68
-15.11
-8.13
-2.09
2.99
7.19
10.56
13.09
14.74
15.61
15.94
16.07
16.36
16.95
17.83
18.79
19.62
20.16
20.39
20.42
20.44
20.67
21.22
22.03
22.9
23.53
23.65
23.13
22.02
20.52
18.86
17.19
15.57
13.97
12.4
10.88
9.46
8.21
7.11
6.13
5.14
4.08
2.96
1.78
0.63
-0.48
-1.59
-2.82
-4.36
-6.28
-8.56
-11
-13.39
-15.58
-17.55
-19.48
-21.63
-24.22
-27.32
-30.73
-34.02
-36.65
-38.03
-37.79
-35.76
-32.06
-27.07
-21.28
-15.23
-9.38
-4.06
0.58
4.5
7.76
10.44
12.59
14.23
15.35
15.96
16.16
16.08
15.88
15.7
15.64
15.72
15.96
16.4
17.05
17.9
18.84
19.67
20.2
20.26
19.8
18.88
17.54
15.91
14.05
12.05
10.02
8.11
6.43
5.04
3.9
2.88
1.85
0.72
-0.52
-1.82
-3.16
-4.53
-5.97
-7.51
-9.15
-10.81
-12.44
-14.05
-15.76
-17.79
-20.35
-23.55
-27.29
-31.31
-35.2
-38.49
-40.7
-41.4
-40.29
-37.28
-32.56
-26.59
-19.96
-13.29
-7.08
-1.64
2.97
6.79
9.96
12.64
14.92
16.87
18.46
19.67
20.48
20.94
21.13
21.17
21.09
20.93
20.67
20.4
20.25
20.4
20.89
21.59
22.19
22.38
21.98
21.05
19.85
18.67
17.59
16.55
15.35
13.88
12.24
10.63
9.23
8.06
6.96
5.72
4.26
2.64
1.05
-0.39
-1.74
-3.18
-4.91
-6.97
-9.2
-11.35
-13.23
-14.77
-16.1
-17.45
-18.99
-20.81
-22.92
-25.27
-27.93
-30.93
-34.25
-37.59
-40.41
-41.97
-41.64
-39.17
-34.78
-29.1
-22.89
-16.77
-11.07
-5.91
-1.33
2.61
5.81
8.24
10.05
11.46
12.76
14.08
15.39
16.57
17.5
18.14
18.54
18.78
18.96
19.17
19.5
20.07
20.87
21.81
22.63
23.09
22.99
22.36
21.37
20.23
19.13
18.1
17.07
15.93
14.61
13.07
11.26
9.19
6.9
4.55
2.37
0.57
-0.77
-1.75
-2.64
-3.74
-5.19
-6.97
-8.92
-10.85
-12.64
-14.23
-15.68
-17.1
-18.69
-20.61
-23.05
-26
-29.29
-32.48
-35.01
-36.32
-35.98
-33.8
-29.89
-24.61
-18.53
-12.24
-6.33
-1.24
2.84
5.92
8.2
9.91
11.3
12.47
13.46
14.19
14.66
14.84
14.84
14.79
14.82
15.04
15.47
16.1
16.82
17.59
18.31
18.88
19.19
19.09
18.45
17.22
15.47
13.36
11.17
9.11
7.31
5.77
4.36
2.95
1.47
-0.07
-1.6
-3.04
-4.4
-5.79
-7.34
-9.13
-11.15
-13.25
-15.28
-17.17
-18.96
-20.81
-22.87
-25.23
-27.89
-30.72
-33.47
-35.8
-37.24
-37.37
-35.86
-32.61
-27.85
-22.06
-15.78
-9.47
-3.42
2.21
7.2
11.33
14.37
16.25
17.12
17.39
17.46
17.65
18
18.44
18.77
18.88
18.76
18.47
18.16
17.94
17.91
18.12
18.52
19.01
19.41
19.53
19.27
18.64
17.7
16.58
15.41
14.28
13.23
12.25
11.29
10.25
9.03
7.61
6.02
4.37
2.75
1.22
-0.3
-1.88
-3.58
-5.4
-7.29
-9.18
-11.09
-13.06
-15.19
-17.48
-19.92
-22.44
-25.04
-27.81
-30.91
-34.35
-37.92
-41.12
-43.28
-43.74
-42.17
-38.57
-33.31
-26.94
-20
-13
-6.35
-0.42
4.5
8.27
10.93
12.74
14.06
15.19
16.34
17.48
18.49
19.21
19.62
19.78
19.83
19.95
20.19
20.59
21.1
21.67
22.22
22.7
23.04
23.12
22.85
22.13
20.95
19.36
17.47
15.42
13.34
11.29
9.37
7.63
6.15
4.93
3.88
2.86
1.72
0.37
-1.16
-2.74
-4.29
-5.77
-7.26
-8.86
-10.59
-12.36
-14.02
-15.51
-16.89
-18.33
-20.06
-22.21
-24.78
-27.6
-30.41
-32.8
-34.25
-34.22
-32.31
-28.48
-23.03
-16.64
-10.1
-4.04
1.16
5.42
8.8
11.47
13.53
15.1
16.29
17.2
17.89
18.37
18.62
18.67
18.59
18.44
18.28
18.13
18
17.98
18.15
18.59
19.24
19.94
20.46
20.56
20.16
19.28
17.99
16.41
14.57
12.56
10.41
8.21
6.04
3.95
1.92
-0.14
-2.28
-4.57
-6.96
-9.29
-11.36
-12.97
-14.07
-14.8
-15.48
-16.51
-18.19
-20.59
-23.55
-26.68
-29.44
-31.33
-31.88
-30.79
-27.98
-23.64
-18.2
-12.28
-6.5
-1.35
2.9
6.23
8.81
10.81
12.35
13.43
13.98
13.95
13.43
12.56
11.61
10.77
10.17
9.84
9.8
10.06
10.64
11.54
12.57
13.51
14.03
13.92
13.15
11.85
10.21
8.38
6.45
4.41
2.34
0.37
-1.38
-2.82
-4.05
-5.3
-6.84
-8.85
-11.31
-13.99
-16.6
-18.91
-20.78
-22.27
-23.58
-24.99
-26.71
-28.89
-31.41
-33.86
-35.56
-35.7
-33.68
-29.34
-23.15
-15.97
-8.92
-2.85
1.84
5.17
7.5
9.13
10.26
10.95
11.22
11.17
10.99
10.8
10.6
10.32
9.88
9.38
9.07
9.29
10.19
11.67
13.34
14.72
15.54
15.75
15.54
15.16
14.75
14.29
13.67
12.81
11.73
10.55
9.38
8.24
7.05
5.65
3.95
2
-0.03
-1.96
-3.64
-5.05
-6.25
-7.34
-8.41
-9.63
-11.16
-13.22
-15.92
-19.21
-22.73
-25.92
-28.11
-28.76
-27.57
-24.61
-20.22
-14.87
-9.08
-3.31
2
6.51
9.99
12.45
14.05
15.12
15.94
16.64
17.23
17.56
17.51
17.12
16.53
15.92
15.46
15.17
15.05
15.09
15.28
15.59
15.93
16.09
15.84
15.03
13.68
11.98
10.26
8.8
7.72
6.9
6.07
4.94
3.36
1.38
-0.72
-2.57
-3.94
-4.82
-5.44
-6.19
-7.38
-9.18
-11.53
-14.24
-17.13
-20.09
-23.18
-26.53
-30.19
-34.03
-37.63
-40.37
-41.58
-40.78
-37.85
-33.08
-27.04
-20.47
-13.98
-8.02
-2.82
1.53
5.04
7.81
9.98
11.7
13.12
14.35
15.43
16.4
17.29
18.16
19.06
20.02
21.01
22
22.93
23.78
24.56
25.25
25.81
26.12
26
25.33
24.09
22.38
20.36
18.21
16.03
13.78
11.36
8.65
5.58
2.25
-1.16
-4.44
-7.37
-9.85
-11.92
-13.79
-15.74
-18.06
-20.92
-24.31
-27.92
-31.2
-33.51
-34.2
-32.91
-29.62
-24.69
-18.78
-12.56
-6.58
-1.13
3.69
7.9
11.48
14.35
16.39
17.56
17.92
17.68
17.12
16.48
15.97
15.63
15.49
15.51
15.69
16.03
16.51
17.04
17.47
17.62
17.24
16.24
14.6
12.46
10.06
7.63
5.4
3.5
1.98
0.75
-0.37
-1.6
-3.16
-5.15
-7.5
-9.97
-12.3
-14.3
-16.03
-17.69
-19.6
-22.01
-24.99
-28.33
-31.61
-34.2
-35.41
-34.69
-31.78
-26.84
-20.47
-13.53
-6.9
-1.22
3.32
6.91
9.86
12.41
14.64
16.43
17.66
18.27
18.37
18.14
17.78
17.48
17.36
17.5
17.93
18.57
19.29
19.93
20.38
20.59
20.58
20.37
19.96
19.28
18.29
17.01
15.52
13.96
12.4
10.86
9.27
7.62
5.9
4.19
2.56
1.02
-0.51
-2.16
-4.03
-6.15
-8.46
-10.81
-13.04
-15.05
-16.85
-18.48
-20.1
-21.89
-24.05
-26.69
-29.7
-32.68
-34.95
-35.74
-34.44
-30.88
-25.37
-18.66
-11.7
-5.28
0.07
4.22
7.26
9.41
10.89
11.83
12.35
12.55
12.55
12.44
12.35
12.4
12.64
13.12
13.76
14.49
15.17
15.72
16.1
16.31
16.35
16.16
15.69
14.84
13.56
11.86
9.87
7.8
5.9
4.34
3.18
2.29
1.41
0.27
-1.32
-3.38
-5.69
-7.92
-9.78
-11.18
-12.25
-13.31
-14.68
-16.53
-18.84
-21.41
-24.02
-26.39
-28.23
-29.22
-28.97
-27.11
-23.53
-18.44
-12.41
-6.19
-0.48
4.27
7.92
10.58
12.43
13.64
14.3
14.48
14.26
13.77
13.19
12.68
12.32
12.13
12.09
12.19
12.46
13.01
13.91
15.15
16.57
17.89
18.75
18.92
18.31
17.01
15.25
13.29
11.4
9.75
8.44
7.42
6.56
5.63
4.47
2.97
1.18
-0.74
-2.65
-4.41
-6.06
-7.69
-9.44
-11.4
-13.55
-15.8
-17.97
-19.95
-21.67
-23.27
-25.03
-27.23
-29.97
-33.04
-35.89
-37.69
-37.74
-35.61
-31.44
-25.79
-19.37
-12.89
-6.79
-1.34
3.33
7.1
9.91
11.77
12.9
13.63
14.28
15.06
15.96
16.81
17.37
17.49
17.22
16.74
16.36
16.31
16.69
17.43
18.32
19.06
19.45
19.41
18.98
18.28
17.42
16.41
15.24
13.89
12.46
11.07
9.86
8.87
8.02
7.25
6.45
5.62
4.78
4.01
3.29
2.6
1.81
0.82
-0.5
-2.22
-4.32
-6.73
-9.31
-11.84
-14.17
-16.25
-18.11
-19.84
-21.47
-23.01
-24.42
-25.74
-27.12
-28.79
-30.88
-33.24
-35.43
-36.8
-36.68
-34.67
-30.78
-25.39
-19.14
-12.69
-6.59
-1.2
3.28
6.76
9.22
10.77
11.59
12
12.36
12.92
13.83
15
16.16
17
17.32
17.05
16.39
15.65
15.17
15.22
15.83
16.86
17.98
18.83
19.12
18.71
17.66
16.14
14.43
12.75
11.24
9.89
8.59
7.24
5.78
4.28
2.9
1.8
1.02
0.49
0.02
-0.57
-1.37
-2.37
-3.53
-4.83
-6.28
-7.97
-9.91
-11.95
-13.88
-15.49
-16.7
-17.69
-18.8
-20.39
-22.66
-25.56
-28.69
-31.48
-33.26
-33.5
-31.92
-28.55
-23.79
-18.22
-12.54
-7.35
-3.04
0.29
2.79
4.75
6.42
7.96
9.36
10.51
11.3
11.7
11.75
11.63
11.5
11.51
11.77
12.34
13.22
14.38
15.76
17.17
18.37
19.08
19.13
18.45
17.21
15.63
13.98
12.47
11.16
10
8.88
7.67
6.31
4.76
3.04
1.22
-0.55
-2.15
-3.49
-4.67
-5.86
-7.27
-9.01
-10.97
-12.89
-14.49
-15.65
-16.45
-17.2
-18.26
-19.94
-22.35
-25.42
-28.87
-32.27
-35.09
-36.72
-36.65
-34.6
-30.6
-25.04
-18.58
-12.02
-6.05
-1.15
2.58
5.34
7.47
9.3
11
12.54
13.81
14.69
15.22
15.5
15.67
15.81
15.9
15.91
15.85
15.77
15.8
16.01
16.4
16.9
17.43
17.9
18.21
18.22
17.85
17.05
15.89
14.51
13.11
11.81
10.69
9.64
8.53
7.24
5.76
4.18
2.65
1.31
0.2
-0.73
-1.6
-2.51
-3.53
-4.64
-5.86
-7.21
-8.74
-10.45
-12.26
-13.99
-15.49
-16.71
-17.83
-19.18
-21.09
-23.78
-27.19
-30.99
-34.65
-37.55
-39.14
-39.04
-37.17
-33.7
-29.04
-23.64
-17.93
-12.19
-6.64
-1.47
3.06
6.7
9.33
11
11.94
12.52
13.06
13.75
14.61
15.59
16.59
17.55
18.41
19.13
19.7
20.12
20.45
20.75
21.04
21.21
21.13
20.65
19.73
18.49
17.1
15.75
14.52
13.36
12.18
10.89
9.51
8.13
6.87
5.7
4.53
3.23
1.77
0.28
-0.99
-1.85
-2.3
-2.55
-2.96
-3.84
-5.27
-7.14
-9.17
-11.11
-12.81
-14.31
-15.71
-17.19
-18.87
-20.86
-23.23
-25.93
-28.81
-31.53
-33.58
-34.38
-33.43
-30.52
-25.82
-19.9
-13.54
-7.54
-2.44
1.54
4.49
6.65
8.3
9.61
10.67
11.48
12.07
12.42
12.6
12.67
12.7
12.78
12.98
13.34
13.9
14.65
15.57
16.56
17.49
18.17
18.42
18.1
17.22
15.89
14.34
12.81
11.48
10.41
9.49
8.56
7.44
6.05
4.43
2.71
1.02
-0.53
-1.95
-3.29
-4.66
-6.16
-7.79
-9.51
-11.22
-12.8
-14.19
-15.46
-16.76
-18.32
-20.28
-22.68
-25.3
-27.78
-29.67
-30.52
-30.03
-28.01
-24.47
-19.66
-14.05
-8.27
-2.99
1.34
4.53
6.75
8.38
9.75
11.07
12.26
13.15
13.59
13.58
13.34
13.14
13.23
13.68
14.43
15.28
16.04
16.63
17.02
17.26
17.38
17.36
17.14
16.63
15.81
14.75
13.57
12.47
11.59
10.96
10.48
9.96
9.2
8.05
6.55
4.87
3.28
2
1.12
0.5
-0.15
-1.18
-2.85
-5.16
-7.89
-10.67
-13.12
-15.07
-16.56
-17.88
-19.39
-21.42
-24.17
-27.61
-31.48
-35.26
-38.3
-39.88
-39.52
-37.02
-32.61
-26.86
-20.54
-14.29
-8.58
-3.6
0.65
4.22
7.2
9.67
11.74
13.51
15.11
16.63
18.09
19.44
20.56
21.31
21.64
21.59
21.32
21.04
20.97
21.21
21.76
22.46
23.13
23.58
23.68
23.41
22.77
21.86
20.76
19.58
18.4
17.24
16.09
14.89
13.58
12.16
10.68
9.22
7.9
6.79
5.88
5.1
4.33
3.46
2.43
1.24
-0.02
-1.29
-2.54
-3.81
-5.18
-6.72
-8.43
-10.3
-12.27
-14.27
-16.29
-18.34
-20.39
-22.44
-24.46
-26.46
-28.49
-30.68
-33.14
-35.87
-38.7
-41.23
-42.86
-43.04
-41.35
-37.74
-32.5
-26.23
-19.63
-13.31
-7.72
-3.1
0.49
3.13
4.99
6.32
7.41
8.54
9.89
11.44
13.03
14.36
15.2
15.42
15.18
14.8
14.63
14.96
15.81
17.02
18.27
19.26
19.82
19.95
19.76
19.35
18.74
17.89
16.76
15.39
13.93
12.55
11.39
10.45
9.59
8.66
7.53
6.22
4.83
3.5
2.31
1.24
0.2
-0.91
-2.17
-3.59
-5.17
-6.85
-8.55
-10.21
-11.78
-13.28
-14.81
-16.46
-18.39
-20.66
-23.29
-26.19
-29.11
-31.68
-33.4
-33.75
-32.35
-29.16
-24.52
-19.07
-13.51
-8.39
-3.96
-0.19
3.04
5.87
8.32
10.34
11.85
12.82
13.33
13.55
13.72
14.04
14.61
15.38
16.18
16.83
17.25
17.56
17.97
18.65
19.63
20.65
21.35
21.45
20.91
19.91
18.79
17.75
16.83
15.87
14.65
13.06
11.16
9.15
7.22
5.55
4.12
2.89
1.73
0.55
-0.71
-2.14
-3.8
-5.75
-7.93
-10.25
-12.56
-14.71
-16.71
-18.65
-20.68
-22.9
-25.32
-27.84
-30.37
-32.82
-35.1
-37
-38.09
-37.9
-35.98
-32.25
-27.05
-21.08
-15.14
-9.81
-5.33
-1.57
1.7
4.71
7.51
10.01
12.11
13.72
14.9
15.77
16.49
17.17
17.84
18.45
18.92
19.26
19.52
19.85
20.37
21.13
22.01
22.75
23.1
22.87
22.1
20.96
19.72
18.57
17.55
16.57
15.48
14.18
12.72
11.2
9.75
8.47
7.29
6.08
4.71
3.13
1.46
-0.12
-1.42
-2.36
-3.06
-3.78
-4.81
-6.28
-8.17
-10.28
-12.31
-14.08
-15.57
-16.98
-18.61
-20.75
-23.56
-27.03
-30.98
-35.11
-38.99
-42.08
-43.78
-43.49
-40.88
-35.93
-29.17
-21.47
-13.91
-7.38
-2.36
1.19
3.74
5.86
7.97
10.16
12.27
14.08
15.44
16.39
17.1
17.73
18.35
18.94
19.42
19.77
20.07
20.45
20.97
21.61
22.26
22.75
22.93
22.73
22.12
21.14
19.87
18.43
16.92
15.43
13.94
12.38
10.68
8.8
6.85
5
3.43
2.19
1.19
0.24
-0.91
-2.41
-4.27
-6.37
-8.52
-10.56
-12.36
-13.88
-15.15
-16.3
-17.5
-18.99
-20.98
-23.58
-26.61
-29.63
-31.93
-32.78
-31.67
-28.53
-23.75
-18.03
-12.1
-6.5
-1.54
2.71
6.25
9.11
11.32
12.95
14.12
15
15.73
16.4
16.98
17.43
17.69
17.77
17.68
17.53
17.44
17.54
17.89
18.42
18.93
19.18
19.01
18.43
17.58
16.61
15.61
14.48
13.08
11.3
9.24
7.14
5.35
4.02
3.07
2.2
1.06
-0.59
-2.71
-5.1
-7.43
-9.45
-11.08
-12.43
-13.66
-14.91
-16.31
-17.93
-19.86
-22.2
-25.11
-28.6
-32.51
-36.39
-39.53
-41.1
-40.45
-37.35
-32.11
-25.53
-18.54
-11.99
-6.33
-1.62
2.3
5.63
8.4
10.55
12.05
13.03
13.7
14.32
15.02
15.71
16.24
16.52
16.62
16.75
17.15
17.93
19.02
20.22
21.32
22.24
22.93
23.4
23.61
23.47
22.95
22.08
21
19.86
18.74
17.61
16.37
14.99
13.48
11.94
10.43
8.95
7.44
5.85
4.15
2.39
0.66
-1
-2.55
-4.01
-5.36
-6.59
-7.67
-8.71
-9.87
-11.37
-13.35
-15.82
-18.63
-21.61
-24.62
-27.61
-30.67
-33.91
-37.29
-40.56
-43.18
-44.43
-43.69
-40.68
-35.6
-29.08
-21.99
-15.13
-9.02
-3.77
0.69
4.54
7.88
10.64
12.77
14.27
15.26
15.91
16.37
16.71
16.93
17.02
16.98
16.92
16.98
17.31
17.98
18.94
20.04
21.1
21.96
22.49
22.66
22.45
21.86
20.9
19.66
18.29
16.95
15.73
14.6
13.41
11.94
10.12
8.05
5.98
4.2
2.89
2.04
1.43
0.8
-0.13
-1.43
-3.13
-5.13
-7.31
-9.59
-11.84
-13.99
-15.96
-17.77
-19.55
-21.51
-23.89
-26.79
-30.1
-33.38
-36
-37.27
-36.69
-34.14
-29.85
-24.37
-18.33
-12.35
-6.85
-2.04
2.03
5.41
8.17
10.36
12
13.17
13.93
14.47
14.96
15.5
16.13
16.73
17.18
17.4
17.44
17.44
17.57
17.94
18.49
19.03
19.34
19.26
18.75
17.9
16.89
15.85
14.85
13.82
12.65
11.21
9.43
7.39
5.27
3.33
1.8
0.73
-0.08
-0.92
-2.12
-3.83
-5.99
-8.36
-10.66
-12.73
-14.57
-16.38
-18.36
-20.68
-23.4
-26.52
-29.92
-33.43
-36.69
-39.21
-40.36
-39.62
-36.71
-31.78
-25.42
-18.42
-11.62
-5.59
-0.61
3.3
6.3
8.6
10.4
11.93
13.35
14.73
16.06
17.2
18.06
18.63
19.01
19.37
19.86
20.52
21.27
21.98
22.47
22.7
22.64
22.32
21.77
21.04
20.14
19.05
17.79
16.4
14.95
13.54
12.3
11.3
10.5
9.75
8.85
7.66
6.17
4.58
3.14
2.05
1.32
0.75
0.05
-1.05
-2.61
-4.61
-6.86
-9.25
-11.69
-14.11
-16.52
-18.87
-21.18
-23.48
-25.93
-28.68
-31.86
-35.38
-38.9
-41.84
-43.46
-43.15
-40.57
-35.88
-29.64
-22.69
-15.88
-9.8
-4.74
-0.65
2.63
5.25
7.31
8.88
10.07
11.01
11.92
12.93
14.12
15.37
16.56
17.5
18.14
18.52
18.79
19.12
19.64
20.37
21.16
21.87
22.32
22.44
22.25
21.8
21.09
20.1
18.8
17.23
15.51
13.84
12.33
11.01
9.77
8.46
6.97
5.35
3.69
2.14
0.76
-0.51
-1.75
-3.09
-4.59
-6.26
-8.04
-9.82
-11.48
-12.96
-14.28
-15.58
-17.03
-18.84
-21.09
-23.79
-26.77
-29.76
-32.35
-34.06
-34.39
-33.02
-29.91
-25.34
-19.94
-14.38
-9.23
-4.74
-0.91
2.46
5.52
8.31
10.72
12.59
13.87
14.65
15.13
15.49
15.81
16.1
16.27
16.33
16.35
16.51
16.96
17.72
18.69
19.58
20.09
20.02
19.33
18.18
16.78
15.29
13.76
12.13
10.29
8.21
6.02
3.95
2.24
1.03
0.26
-0.3
-0.93
-1.86
-3.15
-4.7
-6.31
-7.87
-9.37
-10.88
-12.55
-14.47
-16.7
-19.22
-22.04
-25.17
-28.52
-31.82
-34.56
-36.09
-35.79
-33.34
-28.87
-22.94
-16.38
-10.05
-4.53
-0.05
3.49
6.4
8.94
11.24
13.23
14.77
15.78
16.34
16.65
16.92
17.27
17.67
17.99
18.12
18.12
18.19
18.54
19.33
20.43
21.53
22.21
22.18
21.38
20
18.41
16.95
15.79
14.88
14
12.89
11.42
9.64
7.68
5.74
3.92
2.26
0.7
-0.76
-2.13
-3.35
-4.43
-5.44
-6.51
-7.84
-9.5
-11.45
-13.54
-15.59
-17.51
-19.36
-21.34
-23.7
-26.66
-30.23
-34.15
-37.93
-40.82
-42.12
-41.33
-38.33
-33.5
-27.55
-21.3
-15.4
-10.19
-5.67
-1.7
1.9
5.17
8.08
10.6
12.72
14.55
16.09
17.35
18.25
18.71
18.79
18.69
18.67
18.94
19.56
20.43
21.33
22.03
22.41
22.46
22.2
21.72
21.01
20.07
18.93
17.69
16.48
15.41
14.51
13.61
12.52
11.06
9.22
7.18
5.19
3.5
2.14
0.96
-0.36
-2.05
-4.18
-6.6
-9.01
-11.11
-12.71
-13.84
-14.62
-15.33
-16.21
-17.49
-19.3
-21.68
-24.56
-27.72
-30.79
-33.26
-34.61
-34.39
-32.39
-28.67
-23.57
-17.64
-11.48
-5.68
-0.66
3.29
6.16
8.13
9.47
10.52
11.47
12.35
13.07
13.49
13.57
13.41
13.19
13.12
13.32
13.77
14.42
15.16
15.92
16.66
17.3
17.77
17.94
17.75
17.15
16.19
14.94
13.51
12.01
10.49
8.99
7.5
6
4.44
2.78
0.99
-0.94
-2.96
-4.98
-6.9
-8.66
-10.24
-11.69
-13.15
-14.76
-16.68
-19
-21.76
-24.91
-28.32
-31.7
-34.61
-36.48
-36.75
-35.04
-31.4
-26.19
-20.13
-13.99
-8.37
-3.55
0.48
3.94
7.04
9.91
12.53
14.81
16.63
17.96
18.81
19.29
19.48
19.42
19.16
18.8
18.49
18.46
18.86
19.69
20.77
21.75
22.34
22.34
21.74
20.68
19.29
17.69
15.89
13.96
11.99
10.12
8.49
7.12
5.97
4.9
3.83
2.71
1.59
0.51
-0.51
-1.52
-2.61
-3.91
-5.55
-7.56
-9.9
-12.42
-14.9
-17.12
-19.02
-20.64
-22.23
-24.07
-26.41
-29.33
-32.7
-36.15
-39.14
-41.04
-41.29
-39.57
-35.91
-30.67
-24.47
-17.99
-11.8
-6.26
-1.58
2.22
5.22
7.56
9.49
11.23
12.95
14.65
16.17
17.26
17.83
17.95
17.84
17.81
18.06
18.62
19.39
20.25
21.1
21.88
22.58
23.14
23.44
23.36
22.81
21.79
20.39
18.78
17.16
15.7
14.51
13.54
12.65
11.66
10.43
8.91
7.22
5.51
3.93
2.51
1.2
-0.06
-1.32
-2.52
-3.66
-4.74
-5.88
-7.24
-8.94
-10.96
-13.16
-15.32
-17.25
-18.88
-20.31
-21.85
-23.77
-26.29
-29.41
-32.88
-36.25
-38.92
-40.33
-40.02
-37.83
-33.89
-28.59
-22.47
-16.13
-10.11
-4.8
-0.41
3.07
5.81
8.03
9.95
11.65
13.09
14.17
14.82
15.09
15.15
15.23
15.46
15.85
16.28
16.64
16.9
17.15
17.5
17.99
18.49
18.75
18.56
17.81
16.62
15.23
13.92
12.85
12.05
11.43
10.83
10.12
9.23
8.17
6.96
5.7
4.44
3.19
1.87
0.32
-1.61
-3.99
-6.66
-9.35
-11.71
-13.53
-14.81
-15.82
-16.96
-18.6
-20.93
-23.86
-27.01
-29.76
-31.48
-31.61
-29.89
-26.46
-21.8
-16.6
-11.5
-6.93
-2.98
0.47
3.62
6.58
9.29
11.6
13.34
14.45
14.97
15.06
14.91
14.68
14.46
14.31
14.23
14.28
14.52
14.98
15.71
16.67
17.72
18.67
19.31
19.47
19.11
18.28
17.08
15.69
14.25
12.88
11.69
10.7
9.9
9.18
8.4
7.38
5.98
4.19
2.16
0.14
-1.6
-2.92
-3.86
-4.66
-5.63
-7
-8.8
-10.92
-13.13
-15.23
-17.18
-19
-20.82
-22.79
-25.07
-27.78
-30.97
-34.47
-37.86
-40.53
-41.8
-41.14
-38.39
-33.77
-27.79
-21.12
-14.33
-7.88
-2.08
2.85
6.82
9.8
11.89
13.3
14.33
15.24
16.2
17.2
18.11
18.74
18.95
18.77
18.37
18.05
18.06
18.59
19.61
20.94
22.28
23.33
23.9
23.87
23.26
22.19
20.84
19.39
18
16.74
15.62
14.59
13.6
12.57
11.5
10.36
9.14
7.88
6.61
5.4
4.28
3.23
2.15
0.97
-0.37
-1.82
-3.27
-4.65
-5.98
-7.36
-8.9
-10.61
-12.39
-14.03
-15.39
-16.5
-17.58
-18.94
-20.85
-23.38
-26.41
-29.69
-32.87
-35.67
-37.79
-39.01
-39.12
-37.93
-35.38
-31.54
-26.72
-21.35
-15.91
-10.77
-6.13
-2.04
1.6
4.86
7.78
10.32
12.45
14.14
15.39
16.21
16.63
16.7
16.54
16.28
16.06
16.01
16.13
16.38
16.66
16.89
16.99
17
16.93
16.81
16.63
16.37
15.96
15.33
14.45
13.29
11.9
10.36
8.76
7.22
5.83
4.64
3.63
2.76
1.89
0.87
-0.39
-1.95
-3.7
-5.46
-7.04
-8.33
-9.34
-10.21
-11.11
-12.17
-13.5
-15.13
-17.14
-19.6
-22.45
-25.51
-28.33
-30.31
-30.88
-29.72
-26.84
-22.6
-17.56
-12.3
-7.3
-2.86
0.92
4.05
6.67
8.89
10.75
12.21
13.22
13.75
13.85
13.71
13.49
13.3
13.15
13
12.81
12.69
12.81
13.39
14.5
16
17.57
18.82
19.44
19.3
18.44
17.03
15.29
13.41
11.53
9.75
8.12
6.71
5.54
4.54
3.61
2.56
1.22
-0.48
-2.44
-4.46
-6.29
-7.74
-8.83
-9.72
-10.65
-11.78
-13.08
-14.41
-15.61
-16.61
-17.54
-18.65
-20.21
-22.39
-25.18
-28.33
-31.45
-34
-35.44
-35.32
-33.45
-29.89
-25.03
-19.41
-13.58
-7.98
-2.87
1.62
5.45
8.6
11.1
13.03
14.5
15.7
16.71
17.59
18.3
18.77
18.92
18.79
18.5
18.23
18.15
18.34
18.75
19.26
19.67
19.86
19.74
19.34
18.7
17.9
16.94
15.83
14.61
13.35
12.12
11
10.02
9.13
8.27
7.39
6.48
5.53
4.52
3.45
2.29
1.06
-0.22
-1.54
-2.95
-4.52
-6.35
-8.42
-10.62
-12.73
-14.6
-16.18
-17.58
-18.99
-20.57
-22.36
-24.37
-26.54
-28.85
-31.34
-33.9
-36.22
-37.76
-37.9
-36.2
-32.6
-27.52
-21.71
-15.92
-10.69
-6.19
-2.33
1.11
4.25
7.08
9.48
11.32
12.58
13.34
13.69
13.78
13.66
13.41
13.09
12.83
12.81
13.13
13.86
14.91
16.1
17.19
17.93
18.17
17.86
17.05
15.92
14.63
13.36
12.22
11.23
10.35
9.54
8.72
7.88
6.98
5.98
4.83
3.48
1.9
0.12
-1.76
-3.62
-5.36
-6.93
-8.41
-9.88
-11.44
-13.11
-14.85
-16.63
-18.46
-20.39
-22.53
-24.85
-27.11
-28.85
-29.52
-28.66
-26.14
-22.2
-17.34
-12.17
-7.15
-2.51
1.69
5.45
8.76
11.5
13.56
14.87
15.44
15.36
14.81
13.99
13.12
12.35
11.79
11.49
11.43
11.58
11.93
12.51
13.33
14.35
15.43
16.36
16.93
17.01
16.57
15.72
14.61
13.43
12.33
11.34
10.46
9.56
8.53
7.24
5.69
3.96
2.21
0.59
-0.87
-2.26
-3.72
-5.4
-7.33
-9.38
-11.37
-13.16
-14.7
-16.13
-17.67
-19.55
-21.9
-24.73
-27.97
-31.42
-34.78
-37.63
-39.43
-39.66
-37.97
-34.39
-29.31
-23.36
-17.23
-11.42
-6.17
-1.54
2.5
5.95
8.8
11.04
12.77
14.14
15.3
16.34
17.25
17.94
18.38
18.55
18.58
18.62
18.84
19.28
19.91
20.56
21
21.04
20.56
19.59
18.28
16.84
15.51
14.45
13.67
13.09
12.55
11.84
10.86
9.57
8.07
6.51
5.03
3.72
2.57
1.57
0.66
-0.2
-1.09
-2.12
-3.42
-5.08
-7.07
-9.32
-11.65
-13.92
-16.08
-18.14
-20.08
-21.89
-23.51
-24.98
-26.48
-28.28
-30.55
-33.12
-35.48
-36.88
-36.66
-34.49
-30.53
-25.33
-19.54
-13.75
-8.29
-3.35
1.02
4.73
7.69
9.89
11.44
12.51
13.35
14.13
14.88
15.53
15.98
16.16
16.15
16.07
16.09
16.29
16.66
17.12
17.53
17.79
17.83
17.64
17.26
16.74
16.1
15.41
14.7
13.98
13.21
12.3
11.14
9.68
7.91
5.97
4.08
2.46
1.26
0.46
-0.16
-0.88
-1.98
-3.57
-5.61
-7.88
-10.13
-12.11
-13.7
-14.91
-15.9
-16.94
-18.34
-20.34
-22.95
-25.89
-28.58
-30.36
-30.69
-29.33
-26.42
-22.35
-17.61
-12.58
-7.59
-2.81
1.61
5.49
8.72
11.23
13.06
14.35
15.28
16.02
16.7
17.33
17.87
18.28
18.49
18.47
18.27
18
17.8
17.78
18.07
18.56
19.08
19.34
19.04
18.06
16.45
14.48
12.51
10.83
9.54
8.55
7.62
6.51
5.1
3.37
1.44
-0.52
-2.39
-4.14
-5.8
-7.45
-9.17
-10.95
-12.75
-14.44
-15.93
-17.2
-18.35
-19.57
-21.06
-23.01
-25.45
-28.29
-31.25
-33.93
-35.86
-36.61
-35.91
-33.72
-30.22
-25.71
-20.54
-15.07
-9.6
-4.42
0.24
4.21
7.43
9.99
12.12
14
15.72
17.2
18.27
18.86
18.99
18.88
18.77
18.87
19.25
19.87
20.68
21.64
22.78
23.99
25.09
25.83
25.93
25.26
23.91
22.14
20.23
18.47
16.95
15.63
14.39
13.1
11.7
10.23
8.79
7.44
6.18
4.97
3.71
2.36
0.93
-0.54
-2.04
-3.61
-5.32
-7.25
-9.39
-11.65
-13.87
-15.94
-17.82
-19.62
-21.58
-23.96
-26.95
-30.58
-34.58
-38.45
-41.51
-43.12
-42.9
-40.75
-36.94
-31.92
-26.26
-20.46
-14.9
-9.82
-5.33
-1.43
1.95
4.92
7.55
9.91
11.98
13.8
15.37
16.71
17.83
18.69
19.24
19.46
19.45
19.38
19.44
19.79
20.41
21.16
21.84
22.28
22.41
22.28
22.04
21.77
21.47
21.04
20.38
19.39
18.13
16.72
15.33
14.02
12.75
11.38
9.8
7.96
5.93
3.91
2.08
0.57
-0.64
-1.71
-2.86
-4.31
-6.15
-8.38
-10.83
-13.28
-15.51
-17.37
-18.86
-20.1
-21.37
-22.95
-25.02
-27.55
-30.25
-32.65
-34.17
-34.32
-32.83
-29.74
-25.32
-20.04
-14.43
-8.97
-4.02
0.25
3.84
6.87
9.47
11.72
13.56
14.87
15.55
15.6
15.17
14.56
14.06
13.85
14.03
14.56
15.38
16.35
17.36
18.25
18.88
19.14
19
18.51
17.73
16.77
15.73
14.68
13.67
12.73
11.82
10.85
9.71
8.31
6.68
4.93
3.2
1.61
0.14
-1.33
-2.94
-4.8
-6.89
-9.11
-11.27
-13.28
-15.09
-16.77
-18.38
-20.03
-21.83
-23.88
-26.23
-28.84
-31.49
-33.75
-35.1
-35.1
-33.51
-30.45
-26.27
-21.42
-16.3
-11.18
-6.23
-1.58
2.63
6.26
9.22
11.5
13.15
14.26
14.98
15.41
15.7
15.97
16.35
16.9
17.61
18.35
18.96
19.33
19.41
19.3
19.17
19.14
19.27
19.5
19.64
19.52
18.99
17.99
16.59
14.9
13.1
11.34
9.74
8.38
7.28
6.46
5.86
5.43
5.06
4.61
3.93
2.92
1.59
-0
-1.76
-3.6
-5.48
-7.41
-9.38
-11.35
-13.24
-15.02
-16.73
-18.52
-20.61
-23.19
-26.35
-29.96
-33.75
-37.23
-39.87
-41.16
-40.75
-38.52
-34.65
-29.54
-23.74
-17.78
-12.09
-6.96
-2.51
1.22
4.26
6.69
8.6
10.12
11.42
12.59
13.72
14.79
15.79
16.64
17.35
17.94
18.5
19.13
19.89
20.79
21.71
22.5
22.96
22.98
22.52
21.66
20.5
19.19
17.81
16.46
15.16
13.92
12.76
11.66
10.59
9.5
8.3
6.96
5.49
3.97
2.53
1.24
0.08
-1.09
-2.46
-4.11
-6.01
-7.99
-9.87
-11.56
-13.08
-14.56
-16.07
-17.66
-19.34
-21.2
-23.38
-25.95
-28.8
-31.51
-33.43
-33.93
-32.66
-29.7
-25.5
-20.64
-15.58
-10.6
-5.81
-1.31
2.76
6.23
8.95
10.88
12.14
12.89
13.31
13.52
13.59
13.58
13.54
13.5
13.5
13.55
13.73
14.12
14.83
15.86
17.12
18.35
19.24
19.5
19.02
17.86
16.21
14.37
12.53
10.83
9.3
7.87
6.52
5.21
3.98
2.82
1.72
0.54
-0.86
-2.58
-4.63
-6.89
-9.19
-11.35
-13.31
-15.1
-16.87
-18.78
-20.95
-23.46
-26.27
-29.27
-32.21
-34.73
-36.4
-36.79
-35.59
-32.72
-28.37
-22.95
-16.97
-11
-5.47
-0.64
3.4
6.69
9.32
11.37
12.88
13.88
14.4
14.53
14.4
14.21
14.14
14.34
14.86
15.67
16.67
17.74
18.77
19.69
20.42
20.92
21.1
20.89
20.27
19.28
18.08
16.85
15.76
14.9
14.24
13.61
12.82
11.69
10.17
8.38
6.54
4.86
3.51
2.48
1.63
0.74
-0.35
-1.77
-3.49
-5.48
-7.63
-9.87
-12.12
-14.31
-16.37
-18.34
-20.29
-22.41
-24.9
-27.88
-31.34
-35.02
-38.42
-40.9
-41.86
-40.9
-37.99
-33.44
-27.81
-21.76
-15.79
-10.26
-5.35
-1.13
2.4
5.31
7.72
9.85
11.83
13.73
15.45
16.77
17.51
17.66
17.37
17
16.89
17.25
18.1
19.26
20.48
21.55
22.33
22.81
22.97
22.83
22.39
21.66
20.7
19.6
18.47
17.33
16.17
14.93
13.54
12.03
10.47
8.97
7.59
6.32
5.09
3.8
2.39
0.86
-0.75
-2.36
-3.96
-5.58
-7.25
-9
-10.73
-12.31
-13.66
-14.85
-16.06
-17.59
-19.66
-22.33
-25.52
-28.94
-32.18
-34.82
-36.39
-36.52
-34.96
-31.68
-26.92
-21.22
-15.18
-9.45
-4.44
-0.35
2.91
5.54
7.78
9.81
11.63
13.14
14.19
14.69
14.71
14.42
14.08
13.91
14.06
14.59
15.44
16.51
17.64
18.67
19.49
19.98
20.06
19.66
18.74
17.36
15.7
13.97
12.45
11.24
10.28
9.4
8.36
7.06
5.52
3.91
2.37
0.97
-0.35
-1.71
-3.2
-4.84
-6.58
-8.32
-9.98
-11.55
-13.08
-14.7
-16.57
-18.84
-21.58
-24.76
-28.17
-31.45
-34.12
-35.64
-35.59
-33.77
-30.24
-25.37
-19.71
-13.84
-8.26
-3.29
0.91
4.35
7.14
9.42
11.32
12.91
14.19
15.11
15.66
15.94
16.09
16.28
16.59
17.02
17.52
18.07
18.71
19.49
20.37
21.24
21.88
22.08
21.76
20.98
19.89
18.63
17.3
15.93
14.54
13.21
12
10.98
10.14
9.43
8.78
8.13
7.47
6.76
5.96
4.96
3.71
2.22
0.58
-1.05
-2.6
-4.06
-5.54
-7.17
-9
-11
-13.07
-15.13
-17.13
-19.14
-21.21
-23.44
-25.89
-28.63
-31.7
-35.01
-38.3
-41.12
-42.89
-43.11
-41.54
-38.23
-33.56
-28.01
-22.07
-16.13
-10.5
-5.43
-1.05
2.57
5.5
7.92
10.01
11.94
13.72
15.33
16.68
17.76
18.62
19.31
19.92
20.44
20.86
21.15
21.35
21.47
21.53
21.53
21.43
21.23
20.91
20.49
19.95
19.3
18.54
17.7
16.83
16.01
15.23
14.45
13.55
12.43
11.04
9.39
7.6
5.83
4.25
2.99
2.08
1.47
0.99
0.43
-0.39
-1.52
-2.89
-4.37
-5.82
-7.23
-8.68
-10.23
-11.88
-13.56
-15.16
-16.64
-18.11
-19.74
-21.73
-24.22
-27.22
-30.58
-33.99
-36.99
-39.06
-39.71
-38.63
-35.78
-31.43
-26.05
-20.2
-14.36
-8.87
-3.94
0.3
3.83
6.63
8.77
10.39
11.64
12.71
13.73
14.76
15.81
16.84
17.78
18.55
19.07
19.31
19.3
19.13
18.95
18.91
19.05
19.28
19.4
19.23
18.64
17.69
16.51
15.29
14.13
13.02
11.9
10.67
9.31
7.79
6.15
4.43
2.72
1.17
-0.1
-1.03
-1.68
-2.27
-3.04
-4.17
-5.71
-7.55
-9.52
-11.46
-13.25
-14.88
-16.41
-17.94
-19.66
-21.72
-24.28
-27.28
-30.45
-33.25
-35.03
-35.21
-33.49
-29.99
-25.17
-19.68
-14.09
-8.84
-4.13
-0.01
3.53
6.54
9.02
11.01
12.55
13.74
14.69
15.55
16.43
17.39
18.45
19.48
20.31
20.84
20.98
20.83
20.55
20.31
20.16
20.07
19.92
19.59
19.08
18.43
17.76
17.1
16.39
15.51
14.33
12.85
11.18
9.52
8.01
6.73
5.63
4.62
3.6
2.52
1.37
0.22
-0.89
-1.97
-3.06
-4.23
-5.55
-6.97
-8.44
-9.87
-11.21
-12.51
-13.85
-15.33
-17.04
-19.01
-21.27
-23.86
-26.88
-30.31
-33.96
-37.37
-39.92
-40.98
-40.17
-37.47
-33.22
-27.99
-22.36
-16.82
-11.63
-6.85
-2.49
1.45
4.93
7.84
10.16
11.92
13.25
14.29
15.12
15.73
16.07
16.14
16.03
15.91
15.98
16.36
17.03
17.85
18.7
19.47
20.1
20.56
20.8
20.77
20.42
19.72
18.71
17.45
16.01
14.52
13.04
11.63
10.31
9.09
7.94
6.79
5.59
4.28
2.83
1.28
-0.27
-1.69
-2.89
-3.86
-4.72
-5.64
-6.8
-8.26
-9.95
-11.76
-13.58
-15.37
-17.16
-19
-20.96
-23.09
-25.42
-27.96
-30.58
-32.94
-34.58
-35.01
-33.85
-31.08
-26.96
-21.93
-16.48
-11.02
-5.81
-1.05
3.11
6.59
9.3
11.32
12.75
13.78
14.5
15
15.24
15.19
14.88
14.37
13.86
13.5
13.46
13.78
14.43
15.28
16.14
16.84
17.17
17.06
16.46
15.46
14.25
13.05
12
11.18
10.5
9.76
8.82
7.57
6.05
4.38
2.71
1.17
-0.14
-1.23
-2.15
-3.02
-3.97
-5.15
-6.63
-8.42
-10.46
-12.66
-14.92
-17.2
-19.49
-21.85
-24.37
-27.09
-29.98
-32.83
-35.21
-36.58
-36.41
-34.41
-30.63
-25.5
-19.65
-13.7
-8.14
-3.21
1.04
4.66
7.72
10.25
12.28
13.84
14.99
15.77
16.32
16.7
16.98
17.22
17.4
17.57
17.8
18.23
18.93
19.91
20.97
21.86
22.35
22.32
21.84
21.08
20.18
19.21
18.14
16.9
15.46
13.9
12.32
10.91
9.72
8.79
8.04
7.33
6.5
5.36
3.87
2.03
0.06
-1.84
-3.53
-4.95
-6.25
-7.59
-9.15
-10.97
-12.99
-15.06
-17.06
-18.91
-20.63
-22.32
-24.11
-26.15
-28.54
-31.33
-34.37
-37.38
-39.84
-41.18
-40.87
-38.67
-34.71
-29.43
-23.46
-17.36
-11.59
-6.33
-1.65
2.43
5.94
8.86
11.25
13.21
14.89
16.35
17.6
18.55
19.11
19.34
19.39
19.5
19.86
20.5
21.31
22.11
22.72
23.04
23.04
22.71
22.01
20.93
19.52
17.92
16.35
14.96
13.81
12.84
11.94
11.03
10.08
9.15
8.31
7.51
6.67
5.65
4.37
2.88
1.36
0.02
-1.01
-1.78
-2.54
-3.59
-5.14
-7.21
-9.63
-12.12
-14.43
-16.46
-18.24
-19.85
-21.46
-23.18
-25.19
-27.59
-30.4
-33.34
-35.93
-37.5
-37.46
-35.53
-31.81
-26.79
-21.08
-15.25
-9.69
-4.63
-0.2
3.52
6.5
8.8
10.55
11.96
13.16
14.2
15.04
15.55
15.72
15.63
15.49
15.49
15.82
16.52
17.47
18.5
19.37
19.93
20.05
19.72
18.96
17.86
16.57
15.25
14.04
12.97
11.95
10.8
9.35
7.51
5.4
3.27
1.39
-0.09
-1.29
-2.51
-4.05
-6.08
-8.44
-10.81
-12.86
-14.43
-15.61
-16.67
-17.91
-19.49
-21.46
-23.76
-26.3
-28.93
-31.36
-33.14
-33.79
-32.88
-30.28
-26.28
-21.43
-16.37
-11.59
-7.3
-3.45
0.1
3.42
6.49
9.19
11.43
13.18
14.53
15.61
16.47
17.17
17.7
18.12
18.48
18.9
19.42
20
20.51
20.86
21.02
21.06
21.1
21.14
21.06
20.69
19.88
18.67
17.31
16.15
15.42
15.13
14.99
14.53
13.45
11.66
9.43
7.21
5.44
4.24
3.57
3.16
2.65
1.9
0.73
-0.94
-3.33
-6.47
-9.97
-12.86
-13.93
-12.37
-8.37
-3.36
0.56
1.43
-1.64
-8.32
-17.3
-27.06
-36.42
-44.64
-51.22
-55.49
-56.65
-54.07
-47.77
-38.66
-28.36
-18.61
-10.66
-5.02
-1.21
1.66
4.55
8.01
11.91
15.73
18.74
20.34
20.29
18.82
16.82
15.62
16.59
20.45
26.73
33.66
38.94
40.71
38.61
33.83
28.4
24.02
21.17
19.16
16.92
14.12
11.47
10.41
11.95
15.85
20.53
23.96
24.71
22.57
18.71
14.7
11.74
10.09
9.16
8.18
6.8
5.34
4.38
4.29
4.78
5.07
4.29
2.01
-1.59
-5.86
-10.16
-14.09
-17.53
-20.46
-22.71
-24.06
-24.43
-24.2
-24.2
-25.44
-28.56
-33.35
-38.86
-43.65
-46.49
-46.81
-44.75
-40.91
-35.93
-30.19
-23.88
-17.2
-10.58
-4.64
-0.01
2.94
4.36
4.74
4.74
4.88
5.34
6.07
6.87
7.65
8.41
9.27
10.3
11.52
12.86
14.28
15.76
17.37
19.07
20.71
21.98
22.5
22.09
20.85
19.24
17.83
17.06
17.04
17.48
17.95
18.05
17.56
16.38
14.42
11.68
8.43
5.42
3.74
4.23
6.92
10.67
13.51
13.45
9.39
1.66
-8.26
-18.53
-27.71
-35.26
-41.3
-46.17
-49.92
-52.21
-52.52
-50.56
-46.49
-40.92
-34.72
-28.72
-23.44
-18.94
-14.96
-11.09
-7.1
-3.09
0.6
3.57
5.55
6.54
6.8
6.68
6.49
6.46
6.72
7.33
8.26
9.37
10.5
11.39
11.93
12.11
12.09
12.1
12.33
12.85
13.58
14.37
15.03
15.45
15.5
15.08
14.04
12.31
10.14
8.19
7.35
8.34
11.25
15.23
18.81
20.52
19.54
16.16
11.52
7.03
3.65
1.58
0.31
-0.88
-2.48
-4.55
-6.73
-8.59
-9.88
-10.64
-11.23
-12.17
-13.91
-16.58
-20
-23.71
-27.17
-29.97
-31.86
-32.78
-32.64
-31.3
-28.57
-24.36
-18.9
-12.74
-6.68
-1.46
2.51
5.27
7.29
9.2
11.47
14.12
16.8
18.92
19.98
19.89
18.96
17.82
17.1
17.24
18.28
19.9
21.57
22.82
23.34
23.1
22.33
21.35
20.44
19.76
19.33
19.02
18.61
17.82
16.3
13.76
10.11
5.79
1.85
-0.27
0.59
4.62
10.71
16.67
20.19
19.8
15.41
8.24
-0.02
-7.92
-14.76
-20.39
-24.84
-27.88
-29.15
-28.45
-26.11
-23
-20.22
-18.65
-18.67
-20.16
-22.59
-25.36
-27.88
-29.61
-30.15
-29.17
-26.62
-22.7
-17.85
-12.56
-7.25
-2.16
2.62
7.02
10.97
14.32
16.98
18.94
20.33
21.35
22.16
22.86
23.45
23.93
24.32
24.66
24.99
25.32
25.61
25.78
25.77
25.53
25.05
24.35
23.44
22.35
21.03
19.45
17.56
15.32
12.79
10.07
7.32
4.7
2.37
0.44
-1.06
-2.29
-3.52
-5.04
-7.13
-9.78
-12.76
-15.63
-17.96
-19.49
-20.33
-20.89
-21.69
-23.11
-25.18
-27.5
-29.44
-30.44
-30.22
-28.86
-26.78
-24.38
-21.97
-19.7
-17.67
-15.88
-13.94
-10.87
-5.29
3.88
16.52
30.73
43.2
50.37
49.99
42.09
28.91
13.85
0.03
-10.71
-17.95
-22.09
-23.6
-22.72
-19.57
-14.52
-8.43
-2.5
2.18
4.93
5.86
5.75
5.56
6.14
7.69
9.73
11.38
11.84
10.71
8.24
5.11
2.09
-0.25
-1.75
-2.61
-3.24
-3.99
-5.11
-6.61
-8.29
-9.87
-10.98
-11.48
-11.43
-11.18
-11.23
-12.03
-13.82
-16.44
-19.49
-22.47
-25.01
-26.99
-28.52
-29.86
-31.24
-32.84
-34.71
-36.8
-38.91
-40.76
-41.93
-41.97
-40.54
-37.46
-32.78
-26.79
-19.93
-12.7
-5.58
1.02
6.82
11.66
15.57
18.69
21.19
23.24
24.9
26.16
26.96
27.27
27.14
26.68
26.12
25.7
25.6
25.93
26.65
27.58
28.49
29.11
29.23
28.72
27.56
25.83
23.73
21.47
19.27
17.28
15.52
13.91
12.33
10.67
8.98
7.35
5.89
4.66
3.56
2.43
1.14
-0.29
-1.71
-2.81
-3.42
-3.58
-3.66
-4.14
-5.4
-7.49
-10.04
-12.43
-14.08
-14.75
-14.68
-14.52
-15.07
-16.89
-20.09
-24.15
-28.16
-31.01
-31.81
-30.12
-26.04
-20.23
-13.59
-7.22
-2.08
1.09
2.23
2.2
2.69
5.6
11.95
21.07
30.44
36.67
37.01
30.69
19.29
5.97
-6.03
-14.71
-19.73
-21.95
-22.4
-21.61
-19.46
-15.71
-10.6
-4.95
0.02
3.25
4.25
3.39
1.63
0.13
-0.23
0.78
2.74
4.74
5.86
5.56
3.82
1.21
-1.39
-3.12
-3.52
-2.69
-1.2
0.15
0.7
0.22
-0.96
-2.15
-2.62
-1.97
-0.26
1.85
3.54
4.16
3.36
1.26
-1.71
-4.69
-6.35
-4.95
1.07
12.2
27.16
42.8
55.04
60.37
57.33
47.12
32.92
18.47
6.54
-1.81
-7
-10.11
-12.01
-13
-12.95
-11.77
-9.66
-7.08
-4.66
-2.96
-2.13
-1.99
-2.09
-1.94
-1.28
-0.13
1.2
2.3
2.76
2.46
1.48
0.03
-1.67
-3.49
-5.26
-6.52
-6.48
-4.23
0.69
7.77
15.37
21.23
23.3
20.64
13.76
4.33
-5.58
-14.3
-21.05
-25.78
-28.8
-30.4
-30.68
-29.75
-27.93
-25.82
-24.2
-23.77
-24.91
-27.53
-31.03
-34.53
-37.12
-38.15
-37.42
-35.08
-31.58
-27.41
-22.95
-18.38
-13.69
-8.83
-3.87
0.95
5.18
8.36
10.15
10.5
9.71
8.32
6.97
6.19
6.24
7.12
8.58
10.34
12.12
13.82
15.43
17.01
18.56
19.99
21.17
21.9
22.11
21.83
21.18
20.3
19.38
18.55
17.9
17.53
17.41
17.47
17.49
17.29
16.72
15.77
14.55
13.21
11.92
10.76
9.83
9.15
8.7
8.39
7.99
7.28
6.07
4.38
2.37
0.29
-1.65
-3.39
-5.03
-6.69
-8.51
-10.52
-12.69
-14.99
-17.38
-19.82
-22.19
-24.28
-25.83
-26.52
-26.13
-24.57
-21.86
-18.12
-13.56
-8.43
-3.04
2.22
6.89
10.59
13.07
14.31
14.53
14.08
13.38
12.73
12.25
11.87
11.44
10.77
9.79
8.63
7.53
6.74
6.42
6.58
7.14
8
9.08
10.27
11.35
12.04
12.05
11.3
9.92
8.29
6.75
5.42
4.13
2.59
0.52
-2.05
-4.86
-7.59
-10.09
-12.43
-14.85
-17.53
-20.39
-23.14
-25.36
-26.71
-27.11
-26.78
-26.12
-25.57
-25.44
-25.83
-26.65
-27.67
-28.6
-29.15
-29.02
-28.03
-26.12
-23.35
-19.89
-15.91
-11.5
-6.73
-1.73
3.32
8.09
12.25
15.58
18.03
19.78
21.05
22.03
22.81
23.41
23.83
24.08
24.21
24.28
24.37
24.67
25.48
27.13
29.69
32.86
35.81
37.52
37.11
34.31
29.63
24.18
19.16
15.4
13
11.51
10.27
8.85
7.25
5.81
4.89
4.67
4.95
5.26
5.08
4.03
1.98
-0.89
-4.22
-7.45
-9.98
-11.37
-11.57
-11.06
-10.79
-11.8
-14.8
-19.85
-26.32
-33.21
-39.48
-44.39
-47.54
-48.83
-48.25
-45.86
-41.8
-36.37
-30.02
-23.27
-16.65
-10.56
-5.26
-0.91
2.46
4.94
6.76
8.28
9.85
11.71
13.85
15.98
17.63
18.36
17.97
16.63
14.8
13.1
12.03
11.87
12.59
13.94
15.61
17.28
18.69
19.71
20.22
20.27
19.95
19.27
18.21
16.75
15.03
13.47
12.61
12.88
14.2
15.93
17.02
16.56
14.24
10.57
6.58
3.27
1.07
-0.27
-1.46
-3.2
-5.77
-8.92
-12.04
-14.55
-16.13
-16.85
-17.11
-17.47
-18.52
-20.56
-23.65
-27.36
-30.96
-33.51
-34.19
-32.58
-28.81
-23.46
-17.4
-11.46
-6.25
-2.08
1.02
3.1
4.29
4.71
4.57
4.17
3.82
3.79
4.08
4.51
4.76
4.59
3.92
2.89
1.84
1.07
0.77
0.97
1.47
2.02
2.33
2.21
1.51
0.22
-1.59
-3.79
-6.23
-8.81
-11.45
-14.1
-16.71
-19.21
-21.52
-23.63
-25.52
-27.27
-28.93
-30.58
-32.27
-33.99
-35.74
-37.41
-38.83
-39.82
-40.21
-40.01
-39.33
-38.43
-37.4
-36.16
-34.31
-31.36
-26.94
-20.97
-13.79
-6
1.79
9.16
15.92
22.03
27.44
32.06
35.79
38.59
40.57
41.95
42.97
43.86
44.74
45.64
46.49
47.2
47.63
47.73
47.57
47.32
47.15
47.11
47
46.4
44.85
42.01
37.84
32.53
26.43
19.86
13.12
6.49
0.2
-5.5
-10.43
-14.52
-17.75
-20.07
-21.28
-21.07
-19.14
-15.5
-10.57
-5.15
-0.25
3.22
4.69
4.1
1.95
-0.86
-3.21
-4.1
-2.89
0.44
5.42
11.17
16.85
21.78
25.61
28.3
29.85
30.32
29.68
28
25.45
22.31
18.96
15.71
12.82
10.4
8.5
7.05
5.96
5.06
4.12
2.95
1.4
-0.51
-2.65
-4.78
-6.66
-8.09
-9
-9.4
-9.35
-8.96
-8.34
-7.69
-7.27
-7.37
-8.18
-9.61
-11.38
-13.06
-14.34
-15.11
-15.47
-15.68
-16
-16.63
-17.7
-19.34
-21.57
-24.26
-26.97
-29.02
-29.65
-28.37
-25.16
-20.53
-15.33
-10.4
-6.34
-3.32
-1.16
0.58
2.38
4.58
7.33
10.55
13.99
17.31
20.21
22.42
23.73
24
23.21
21.5
19.22
16.88
14.95
13.66
12.96
12.44
11.69
10.4
8.51
6.25
3.9
1.71
-0.24
-1.93
-3.4
-4.61
-5.54
-6.22
-6.75
-7.29
-7.94
-8.73
-9.54
-10.2
-10.57
-10.64
-10.55
-10.58
-11.06
-12.29
-14.4
-17.32
-20.68
-23.9
-26.34
-27.46
-26.94
-24.77
-21.14
-16.38
-10.83
-4.81
1.32
7.17
12.27
16.18
18.58
19.36
18.65
16.69
13.89
10.67
7.49
4.72
2.65
1.38
0.85
0.92
1.42
2.25
3.36
4.69
6.04
7.14
7.8
8.1
8.35
8.94
10.04
11.43
12.53
12.66
11.42
8.88
5.46
1.71
-1.99
-5.52
-9.01
-12.66
-16.68
-21.28
-26.57
-32.59
-39.1
-45.5
-50.84
-54
-54
-50.35
-43.22
-33.41
-22.17
-10.81
-0.33
8.74
16.4
23.13
29.61
36.46
44.11
52.46
60.89
68.22
72.95
73.66
69.61
61.12
49.67
37.5
26.94
19.7
16.4
16.59
19.05
22.33
25.19
26.86
27.12
26.24
24.76
23.34
22.55
22.68
23.64
24.92
25.77
25.38
23.14
18.77
12.35
4.26
-4.96
-14.74
-24.58
-34.06
-42.81
-50.43
-56.51
-60.59
-62.22
-61.02
-56.9
-50.06
-41.06
-30.68
-19.82
-9.21
0.65
9.4
16.75
22.31
25.62
26.31
24.34
20.11
14.47
8.49
3.19
-0.71
-2.87
-3.33
-2.49
-0.97
0.5
1.22
0.76
-0.97
-3.6
-6.47
-8.83
-10.13
-10.22
-9.45
-8.57
-8.54
-10.19
-13.95
-19.59
-26.29
-32.81
-37.94
-40.86
-41.41
-39.99
-37.38
-34.31
-31.32
-28.7
-26.55
-24.87
-23.61
-22.54
-21.23
-19.08
-15.58
-10.56
-4.35
2.27
8.34
13.07
16.09
17.47
17.57
16.85
15.73
14.47
13.18
11.91
10.63
9.4
8.27
7.46
7.18
7.65
8.93
10.83
12.97
14.86
16.16
16.68
16.52
15.91
15.02
13.92
12.46
10.43
7.69
4.26
0.25
-4.16
-8.75
-13.33
-17.66
-21.4
-24.14
-25.48
-25.15
-23.12
-19.54
-14.76
-9.17
-3.14
2.97
8.82
14.03
18.2
21
22.26
22.04
20.65
18.57
16.27
14.14
12.39
11.04
10.03
9.25
8.63
8.16
7.86
7.78
7.97
8.4
8.88
9.07
8.54
7.02
4.54
1.54
-1.36
-3.6
-4.98
-5.8
-6.61
-8
-10.23
-13.16
-16.41
-19.49
-22
-23.65
-24.23
-23.52
-21.32
-17.62
-12.63
-6.84
-0.93
4.46
8.88
12.14
14.31
15.56
16.08
15.96
15.24
13.98
12.39
10.82
9.69
9.29
9.67
10.56
11.48
11.93
11.63
10.55
8.94
7.07
5.21
3.44
1.74
0.05
-1.64
-3.27
-4.78
-6.18
-7.53
-8.95
-10.53
-12.29
-14.19
-16.16
-18.09
-19.78
-20.94
-21.19
-20.19
-17.82
-14.24
-9.84
-5.17
-0.67
3.39
6.86
9.68
11.77
13.06
13.58
13.49
13.09
12.62
12.18
11.65
10.82
9.54
7.85
5.95
4.12
2.64
1.62
1.03
0.68
0.34
-0.19
-1.02
-2.15
-3.5
-4.89
-6.22
-7.46
-8.73
-10.21
-12.1
-14.56
-17.58
-21.01
-24.44
-27.36
-29.19
-29.47
-27.95
-24.75
-20.19
-14.81
-9.1
-3.42
1.94
6.83
11.17
14.84
17.75
19.8
20.91
21.05
20.32
18.9
17.05
15.09
13.24
11.6
10.22
9.1
8.28
7.88
7.94
8.36
8.84
8.95
8.33
6.87
4.72
2.23
-0.26
-2.53
-4.54
-6.36
-8.13
-9.98
-12.05
-14.51
-17.48
-20.9
-24.48
-27.72
-29.95
-30.65
-29.52
-26.64
-22.4
-17.32
-11.94
-6.69
-1.78
2.71
6.72
10.19
13.05
15.24
16.87
18.16
19.35
20.58
21.85
22.92
23.52
23.45
22.66
21.31
19.65
17.95
16.38
15.03
13.87
12.79
11.67
10.38
8.91
7.35
5.83
4.51
3.38
2.33
1.12
-0.4
-2.28
-4.36
-6.42
-8.33
-10.13
-12.06
-14.42
-17.42
-21.06
-25.07
-29.02
-32.37
-34.63
-35.38
-34.38
-31.6
-27.24
-21.71
-15.61
-9.49
-3.79
1.24
5.55
9.17
12.12
14.4
15.98
16.88
17.18
17.12
16.93
16.79
16.73
16.67
16.46
16.08
15.59
15.19
15.05
15.16
15.37
15.38
14.95
13.99
12.58
10.94
9.29
7.81
6.63
5.78
5.21
4.76
4.16
3.11
1.45
-0.83
-3.53
-6.35
-9.01
-11.32
-13.24
-14.86
-16.37
-18.06
-20.22
-23.01
-26.3
-29.58
-32.03
-32.83
-31.45
-27.88
-22.63
-16.5
-10.28
-4.5
0.57
4.84
8.3
10.96
12.88
14.14
14.95
15.48
15.82
15.95
15.78
15.23
14.38
13.43
12.62
12.15
12.1
12.35
12.73
13.02
13.08
12.86
12.37
11.63
10.64
9.42
7.99
6.43
4.86
3.35
1.94
0.56
-0.88
-2.48
-4.32
-6.4
-8.68
-11.09
-13.57
-16.07
-18.62
-21.21
-23.78
-26.11
-27.81
-28.38
-27.39
-24.67
-20.38
-15.03
-9.27
-3.72
1.14
5.09
8.07
10.13
11.44
12.17
12.49
12.54
12.33
11.83
11.03
10.01
8.97
8.18
7.84
8.02
8.6
9.37
10.08
10.55
10.65
10.28
9.46
8.22
6.66
4.91
3.09
1.24
-0.65
-2.6
-4.57
-6.46
-8.17
-9.62
-10.87
-12.1
-13.49
-15.2
-17.23
-19.55
-22.07
-24.76
-27.49
-30.01
-31.87
-32.51
-31.48
-28.63
-24.22
-18.79
-12.94
-7.11
-1.54
3.66
8.35
12.24
15.03
16.54
16.88
16.4
15.58
14.75
14.06
13.49
12.94
12.39
11.87
11.48
11.29
11.34
11.61
12.09
12.7
13.28
13.62
13.46
12.64
11.17
9.23
7.13
5.16
3.46
2
0.58
-1.04
-3.01
-5.32
-7.82
-10.21
-12.24
-13.79
-14.94
-15.9
-17.01
-18.52
-20.57
-23.09
-25.83
-28.4
-30.33
-31.16
-30.55
-28.38
-24.76
-20.01
-14.53
-8.76
-3.09
2.22
6.9
10.79
13.79
15.89
17.19
17.83
17.99
17.84
17.49
17
16.36
15.58
14.68
13.74
12.87
12.25
12
12.18
12.7
13.43
14.15
14.65
14.77
14.38
13.42
11.92
10.02
7.93
5.88
4.03
2.37
0.84
-0.73
-2.41
-4.16
-5.83
-7.27
-8.41
-9.33
-10.2
-11.19
-12.43
-14
-15.95
-18.36
-21.24
-24.48
-27.69
-30.32
-31.74
-31.49
-29.43
-25.81
-21.09
-15.78
-10.29
-4.84
0.47
5.5
10.02
13.74
16.39
17.83
18.18
17.73
16.87
15.95
15.21
14.73
14.49
14.44
14.5
14.62
14.75
14.86
14.95
15.03
15.1
15.05
14.72
13.91
12.5
10.59
8.44
6.43
4.87
3.84
3.17
2.52
1.57
0.12
-1.81
-4.04
-6.3
-8.41
-10.28
-11.92
-13.44
-14.99
-16.68
-18.62
-20.89
-23.43
-26.05
-28.31
-29.67
-29.6
-27.8
-24.3
-19.47
-13.87
-8.1
-2.68
2.03
5.8
8.53
10.3
11.29
11.78
12.01
12.17
12.27
12.28
12.14
11.82
11.45
11.1
10.89
10.86
11.04
11.39
11.88
12.4
12.81
12.91
12.53
11.59
10.12
8.31
6.37
4.52
2.89
1.48
0.18
-1.14
-2.56
-4.08
-5.59
-6.97
-8.15
-9.16
-10.12
-11.22
-12.6
-14.38
-16.54
-19.03
-21.62
-23.94
-25.56
-26.01
-25
-22.54
-18.9
-14.5
-9.79
-5.1
-0.62
3.53
7.27
10.52
13.17
15.16
16.43
17.02
16.98
16.4
15.4
14.12
12.79
11.63
10.87
10.67
11.14
12.15
13.49
14.81
15.78
16.24
16.2
15.79
15.16
14.39
13.43
12.22
10.72
9
7.22
5.52
4.03
2.77
1.67
0.65
-0.37
-1.42
-2.53
-3.72
-5.08
-6.67
-8.54
-10.65
-12.91
-15.2
-17.56
-20.1
-22.96
-26.14
-29.32
-31.92
-33.25
-32.79
-30.4
-26.33
-21.14
-15.42
-9.69
-4.28
0.55
4.6
7.73
9.87
11.12
11.79
12.23
12.76
13.58
14.66
15.84
16.9
17.66
18.07
18.17
18.09
17.98
17.99
18.21
18.64
19.23
19.85
20.34
20.56
20.38
19.79
18.83
17.58
16.16
14.63
13
11.24
9.32
7.26
5.17
3.19
1.4
-0.19
-1.7
-3.27
-5.01
-6.96
-9.03
-11.11
-13.11
-14.99
-16.78
-18.56
-20.42
-22.44
-24.7
-27.26
-30.03
-32.77
-35.08
-36.4
-36.25
-34.29
-30.55
-25.38
-19.36
-13.17
-7.37
-2.33
1.86
5.23
7.93
10.07
11.76
13.04
13.94
14.51
14.81
14.91
14.87
14.73
14.55
14.38
14.29
14.34
14.55
14.91
15.35
15.79
16.11
16.22
16
15.4
14.43
13.16
11.73
10.25
8.81
7.42
6.01
4.5
2.87
1.13
-0.66
-2.38
-3.96
-5.34
-6.56
-7.66
-8.72
-9.85
-11.21
-12.95
-15.23
-18.09
-21.38
-24.71
-27.57
-29.38
-29.69
-28.33
-25.39
-21.21
-16.3
-11.12
-6.08
-1.34
3.06
7.13
10.86
14.09
16.58
18.12
18.68
18.45
17.77
17
16.39
15.96
15.61
15.25
14.89
14.65
14.7
15.1
15.79
16.54
17.09
17.21
16.85
16.11
15.13
14.05
12.9
11.62
10.09
8.31
6.35
4.42
2.7
1.28
0.13
-0.95
-2.1
-3.46
-5.04
-6.84
-8.81
-10.95
-13.21
-15.52
-17.81
-20.07
-22.36
-24.84
-27.6
-30.56
-33.41
-35.66
-36.75
-36.25
-34.02
-30.16
-25.01
-19.04
-12.79
-6.77
-1.44
2.95
6.38
9.02
11.15
12.98
14.56
15.79
16.59
16.93
16.94
16.8
16.65
16.57
16.54
16.55
16.7
17.12
17.89
18.95
20.01
20.73
20.89
20.41
19.49
18.38
17.28
16.22
15.08
13.74
12.16
10.47
8.9
7.61
6.62
5.75
4.71
3.26
1.31
-1.01
-3.49
-5.88
-8.04
-9.94
-11.66
-13.35
-15.16
-17.21
-19.64
-22.48
-25.7
-29.12
-32.36
-34.92
-36.2
-35.77
-33.43
-29.36
-24.09
-18.28
-12.56
-7.34
-2.76
1.23
4.69
7.61
9.89
11.44
12.29
12.64
12.8
13.07
13.58
14.27
14.98
15.55
15.93
16.21
16.56
17.12
17.93
18.86
19.67
20.11
19.99
19.29
18.11
16.66
15.16
13.77
12.58
11.54
10.56
9.5
8.29
6.91
5.41
3.87
2.33
0.79
-0.86
-2.71
-4.78
-6.96
-9.06
-10.88
-12.32
-13.42
-14.37
-15.38
-16.67
-18.35
-20.49
-23
-25.71
-28.28
-30.26
-31.12
-30.46
-28.09
-24.16
-19.11
-13.52
-7.98
-2.92
1.44
5.04
7.9
10.1
11.7
12.77
13.48
13.97
14.4
14.83
15.24
15.54
15.7
15.74
15.72
15.72
15.76
15.87
16.02
16.22
16.43
16.57
16.45
15.88
14.76
13.12
11.11
8.98
6.9
5.02
3.4
2.05
0.96
0.08
-0.72
-1.64
-2.85
-4.43
-6.3
-8.24
-10.09
-11.75
-13.34
-15.05
-17.15
-19.79
-22.98
-26.57
-30.22
-33.38
-35.45
-35.86
-34.33
-30.9
-25.98
-20.2
-14.22
-8.51
-3.32
1.29
5.3
8.71
11.47
13.56
15.06
16.09
16.82
17.37
17.73
17.86
17.76
17.46
17.1
16.86
16.89
17.23
17.8
18.43
18.95
19.19
19.03
18.45
17.46
16.22
14.93
13.78
12.95
12.41
11.98
11.35
10.29
8.68
6.63
4.42
2.35
0.65
-0.69
-1.81
-3.02
-4.52
-6.39
-8.56
-10.8
-12.91
-14.8
-16.51
-18.19
-20
-22.06
-24.36
-26.85
-29.35
-31.63
-33.31
-33.89
-32.95
-30.26
-25.94
-20.47
-14.55
-8.83
-3.74
0.55
4.05
6.87
9.09
10.76
11.95
12.74
13.27
13.62
13.85
13.93
13.87
13.7
13.51
13.43
13.53
13.84
14.3
14.89
15.52
16.13
16.6
16.75
16.4
15.45
13.97
12.17
10.34
8.73
7.37
6.13
4.77
3.11
1.09
-1.16
-3.42
-5.43
-7.04
-8.23
-9.1
-9.85
-10.69
-11.8
-13.21
-14.74
-16.03
-16.62
-16.04
-14.08
-10.8
-6.56
-1.93
2.53
6.33
9.2
11.03
11.91
12.02
11.55
10.69
9.59
8.36
7.08
5.81
4.67
3.84
3.45
3.57
4.18
5.12
6.17
7.11
7.69
7.77
7.29
6.28
4.93
3.49
2.18
1.17
0.45
-0.15
-0.85
-1.84
-3.25
-5.04
-7.1
-9.27
-11.42
-13.47
-15.41
-17.34
-19.39
-21.71
-24.32
-27.05
-29.57
-31.32
-31.75
-30.42
-27.18
-22.22
-16.07
-9.39
-2.88
2.9
7.65
11.27
13.91
15.8
17.22
18.38
19.42
20.32
21.02
21.41
21.44
21.17
20.71
20.24
19.95
20.03
20.58
21.55
22.72
23.68
23.99
23.3
21.48
18.63
15.03
10.95
6.57
1.98
-2.82
-7.72
-12.6
-17.3
-21.72
-25.8
-29.58
-33.11
-36.53
-40.05
-43.92
-48.31
-53.17
-58.12
-62.48
-65.47
-66.48
-65.31
-62.28
-58.09
-53.55
-49.31
-45.66
-42.49
-39.53
-36.47
-33.2
-29.82
-26.49
-23.34
-20.35
-17.45
-14.62
-12.01
-9.95
-8.72
-8.52
-9.29
-10.81
-12.83
-15.19
-17.83
-20.81
-24.09
-27.47
-30.66
-33.3
-35.18
-36.38
-37.19
-38.08
-39.46
-41.49
-44.01
-46.58
-48.66
-49.85
-49.98
-49.1
-47.43
-45.15
-42.28
-38.61
-33.79
-27.37
-18.93
-8.27
4.56
19.13
34.58
49.72
63.25
74.04
81.55
85.95
88.07
89.1
90.1
91.73
94.1
96.9
99.79
102.53
105.08
107.44
109.51
111.02
111.71
111.51
110.6
109.34
107.97
106.49
104.56
101.71
97.59
92.21
85.93
79.32
72.93
67.05
61.75
56.86
52.17
47.47
42.7
37.88
33.04
28.24
23.48
18.75
14.07
9.44
4.93
0.58
-3.56
-7.49
-11.14
-14.3
-16.64
-17.79
-17.56
-16.04
-13.63
-10.95
-8.56
-6.83
-5.86
-5.63
-6.1
-7.24
-9.05
-11.41
-14.06
-16.71
-19.19
-21.58
-24.28
-27.72
-32.12
-37.3
-42.78
-48.07
-52.92
-57.47
-62.08
-66.95
-71.81
-75.98
-78.58
-79.04
-77.4
-74.32
-70.73
-67.44
-64.77
-62.55
-60.36
-57.82
-54.73
-51.08
-46.9
-42.22
-36.97
-31.11
-24.66
-17.73
-10.47
-3.08
4.22
11.04
16.88
21.19
23.6
24.13
23.28
21.89
20.91
20.95
22.12
23.94
25.6
26.31
25.66
23.75
21.18
18.83
17.46
17.4
18.51
20.13
21.47
21.9
21.22
19.66
17.73
15.93
14.54
13.61
13.11
13.1
13.86
15.73
18.86
23.02
27.48
31.31
33.7
34.39
33.78
32.72
32.12
32.46
33.71
35.35
36.79
37.68
38.02
38.05
38.07
38.12
38
37.38
36.02
33.94
31.42
28.86
26.59
24.68
23.02
21.43
19.84
18.4
17.46
17.35
18.26
20.01
22.18
24.23
25.71
26.38
26.27
25.51
24.24
22.56
20.57
18.52
16.78
15.76
15.68
16.41
17.3
17.31
15.24
10.11
1.45
-10.51
-25.03
-41.25
-58.57
-76.79
-96.1
-116.54
-137.51
-157.48
-174.09
-184.88
-188.13
-183.51
-172.15
-156.09
-137.46
-117.8
-97.84
-77.75
-57.69
-38.15
-19.99
-4.13
8.84
18.89
26.42
31.88
35.46
37.02
36.29
33.19
28.15
21.98
15.74
10.27
5.99
2.94
0.99
0.01
-0.1
0.5
1.54
2.59
3.19
3.03
2.08
0.48
-1.5
-3.68
-5.97
-8.37
-10.86
-13.47
-16.2
-19.16
-22.47
-26.22
-30.27
-34.24
-37.54
-39.49
-39.58
-37.59
-33.68
-28.32
-22.15
-15.81
-9.81
-4.49
0.09
4.02
7.47
10.54
13.24
15.43
17.02
17.97
18.39
18.47
18.39
18.26
18.08
17.86
17.68
17.68
18.05
18.83
19.89
20.9
21.51
21.43
20.66
19.35
17.82
16.31
14.94
13.65
12.25
10.57
8.55
6.23
3.75
1.3
-0.91
-2.82
-4.48
-6.16
-8.25
-11.1
-14.85
-19.28
-23.72
-27.3
-29.17
-28.75
-25.98
-21.25
-15.29
-8.88
-2.71
2.79
7.47
11.37
14.6
17.27
19.47
21.19
22.43
23.21
23.62
23.79
23.84
23.88
23.99
24.23
24.62
25.17
25.8
26.35
26.58
26.22
25.09
23.23
20.8
18.11
15.43
12.94
10.65
8.47
6.32
4.17
2.11
0.23
-1.41
-2.87
-4.33
-6.07
-8.37
-11.39
-15.15
-19.4
-23.61
-27.07
-29.06
-29.01
-26.69
-22.32
-16.43
-9.76
-3.04
3.1
8.26
12.26
15.14
17.08
18.35
19.2
19.78
20.09
20.11
19.8
19.26
18.69
18.38
18.49
19.08
20.01
21.02
21.82
22.18
21.95
21.12
19.76
18.03
16.09
14.07
11.99
9.86
7.66
5.41
3.19
1.1
-0.73
-2.22
-3.41
-4.42
-5.41
-6.63
-8.3
-10.62
-13.64
-17.21
-20.87
-23.96
-25.71
-25.53
-23.22
-19.03
-13.59
-7.69
-2.03
2.97
7.13
10.5
13.15
15.15
16.53
17.36
17.76
17.86
17.75
17.49
17.08
16.57
16.07
15.72
15.67
15.94
16.4
16.82
16.95
16.59
15.71
14.37
12.73
10.95
9.14
7.33
5.5
3.61
1.64
-0.36
-2.31
-4.11
-5.7
-7.09
-8.39
-9.75
-11.38
-13.43
-15.97
-18.96
-22.14
-25.04
-27.08
-27.7
-26.51
-23.49
-19.01
-13.67
-8.16
-3.01
1.52
5.4
8.67
11.4
13.53
14.97
15.72
15.88
15.66
15.3
14.96
14.64
14.31
13.94
13.59
13.44
13.64
14.23
15.11
16.05
16.74
16.96
16.58
15.63
14.27
12.7
11.17
9.89
8.91
8.12
7.27
6.01
4.14
1.62
-1.37
-4.49
-7.38
-9.77
-11.57
-12.87
-13.92
-15.13
-16.84
-19.34
-22.61
-26.35
-29.91
-32.52
-33.39
-32.01
-28.3
-22.64
-15.82
-8.79
-2.48
2.5
5.93
8.01
9.14
9.77
10.21
10.6
10.95
11.24
11.52
11.87
12.36
12.98
13.64
14.22
14.69
15.06
15.45
15.89
16.37
16.74
16.88
16.71
16.3
15.78
15.26
14.78
14.26
13.57
12.59
11.22
9.46
7.39
5.15
2.93
0.91
-0.84
-2.36
-3.8
-5.39
-7.25
-9.39
-11.68
-13.92
-15.92
-17.66
-19.27
-20.99
-23.08
-25.6
-28.36
-30.9
-32.57
-32.75
-31.11
-27.72
-23.06
-17.82
-12.64
-7.96
-3.93
-0.48
2.47
4.95
6.93
8.37
9.35
10.04
10.64
11.28
12
12.73
13.38
13.93
14.44
14.96
15.47
15.89
16.01
15.71
15.02
14.11
13.24
12.6
12.23
12.03
11.78
11.29
10.51
9.46
8.24
6.94
5.54
4.02
2.37
0.66
-1.01
-2.53
-3.9
-5.21
-6.59
-8.14
-9.86
-11.61
-13.24
-14.67
-15.87
-16.98
-18.19
-19.69
-21.59
-23.84
-26.19
-28.18
-29.26
-28.92
-26.91
-23.35
-18.69
-13.58
-8.63
-4.24
-0.52
2.61
5.23
7.32
8.73
9.29
8.96
7.95
6.67
5.61
5.16
5.41
6.23
7.28
8.26
8.96
9.4
9.74
10.13
10.64
11.16
11.5
11.51
11.11
10.37
9.41
8.38
7.31
6.17
4.89
3.4
1.66
-0.31
-2.4
-4.49
-6.42
-8.04
-9.27
-10.16
-10.91
-11.83
-13.27
-15.42
-18.25
-21.47
-24.57
-26.95
-28.1
-27.67
-25.6
-22.09
-17.51
-12.4
-7.27
-2.58
1.4
4.59
7.06
8.92
10.21
10.91
10.96
10.39
9.44
8.47
7.94
8.13
9.09
10.59
12.23
13.61
14.46
14.72
14.5
13.94
13.21
12.43
11.72
11.2
10.97
11.04
11.26
11.38
11.07
10.11
8.43
6.18
3.68
1.27
-0.8
-2.44
-3.76
-4.95
-6.23
-7.72
-9.44
-11.31
-13.23
-15.08
-16.86
-18.65
-20.58
-22.81
-25.39
-28.28
-31.2
-33.74
-35.35
-35.55
-33.98
-30.64
-25.85
-20.15
-14.13
-8.33
-3.06
1.5
5.25
8.14
10.2
11.53
12.35
12.87
13.22
13.43
13.38
12.96
12.21
11.36
10.78
10.84
11.73
13.39
15.53
17.76
19.62
20.78
21.02
20.32
18.82
16.81
14.62
12.58
10.9
9.58
8.58
7.7
6.82
5.84
4.71
3.4
1.89
0.19
-1.69
-3.66
-5.65
-7.6
-9.51
-11.39
-13.27
-15.15
-17.01
-18.86
-20.74
-22.79
-25.11
-27.66
-30.21
-32.27
-33.25
-32.68
-30.41
-26.66
-21.99
-17.04
-12.31
-8.07
-4.3
-0.86
2.34
5.25
7.76
9.77
11.25
12.28
12.93
13.26
13.32
13.16
12.91
12.78
12.97
13.61
14.66
15.93
17.14
18.02
18.39
18.21
17.51
16.43
15.11
13.65
12.1
10.48
8.85
7.29
5.94
4.9
4.16
3.6
3.03
2.24
1.14
-0.25
-1.82
-3.42
-4.95
-6.39
-7.77
-9.12
-10.51
-11.96
-13.54
-15.27
-17.19
-19.3
-21.47
-23.4
-24.66
-24.79
-23.51
-20.81
-17.03
-12.71
-8.41
-4.51
-1.15
1.75
4.27
6.49
8.37
9.85
10.92
11.54
11.77
11.66
11.28
10.78
10.3
10.04
10.13
10.61
11.42
12.39
13.33
14.11
14.64
14.87
14.8
14.39
13.66
12.64
11.44
10.2
9.03
7.94
6.85
5.66
4.24
2.58
0.72
-1.24
-3.2
-5.13
-7.05
-8.98
-10.89
-12.7
-14.31
-15.73
-17.1
-18.68
-20.75
-23.47
-26.69
-29.93
-32.5
-33.69
-33.03
-30.44
-26.25
-21.08
-15.64
-10.49
-5.98
-2.2
0.96
3.66
6.07
8.2
9.97
11.27
12.04
12.38
12.53
12.75
13.26
14.11
15.22
16.45
17.63
18.67
19.49
20.07
20.41
20.52
20.44
20.23
19.92
19.53
19.01
18.26
17.24
15.93
14.41
12.79
11.2
9.72
8.37
7.08
5.81
4.53
3.27
2.03
0.79
-0.54
-2.09
-4.01
-6.33
-8.95
-11.69
-14.27
-16.49
-18.21
-19.43
-20.29
-21.01
-21.91
-23.31
-25.45
-28.38
-31.84
-35.25
-37.83
-38.83
-37.77
-34.63
-29.86
-24.21
-18.42
-13.01
-8.17
-3.88
-0.02
3.42
6.39
8.81
10.63
11.92
12.79
13.37
13.74
13.96
14.12
14.34
14.75
15.43
16.36
17.39
18.36
19.14
19.67
19.94
19.93
19.63
19
18.1
17.06
16.05
15.17
14.37
13.48
12.29
10.72
8.85
6.91
5.14
3.64
2.33
1.01
-0.47
-2.12
-3.78
-5.27
-6.48
-7.49
-8.55
-9.87
-11.61
-13.79
-16.35
-19.23
-22.33
-25.43
-28.07
-29.64
-29.54
-27.55
-23.88
-19.22
-14.41
-10.1
-6.52
-3.53
-0.84
1.77
4.32
6.65
8.59
10.1
11.21
12.02
12.63
13.08
13.44
13.75
14.11
14.61
15.33
16.25
17.26
18.2
18.88
19.17
18.98
18.31
17.21
15.74
14.03
12.16
10.26
8.48
6.92
5.63
4.55
3.53
2.37
0.91
-0.93
-3.06
-5.33
-7.6
-9.75
-11.74
-13.58
-15.35
-17.13
-19.11
-21.46
-24.27
-27.42
-30.5
-32.89
-33.95
-33.27
-30.81
-26.91
-22.15
-17.14
-12.3
-7.88
-3.95
-0.52
2.42
4.88
6.89
8.52
9.9
11.16
12.4
13.63
14.78
15.74
16.46
16.96
17.38
17.83
18.38
18.97
19.44
19.65
19.52
19.05
18.33
17.48
16.58
15.7
14.91
14.23
13.65
13.08
12.37
11.43
10.18
8.63
6.87
5
3.1
1.22
-0.55
-2.14
-3.46
-4.48
-5.27
-5.96
-6.76
-7.81
-9.22
-11.04
-13.28
-15.99
-19.24
-23.05
-27.28
-31.49
-35.01
-37.12
-37.25
-35.25
-31.47
-26.58
-21.39
-16.54
-12.34
-8.78
-5.66
-2.75
0.09
2.88
5.53
7.91
9.91
11.51
12.74
13.68
14.41
14.96
15.3
15.46
15.48
15.48
15.63
15.99
16.58
17.26
17.84
18.13
18.08
17.69
17.09
16.37
15.61
14.83
14.02
13.13
12.11
10.88
9.38
7.65
5.75
3.85
2.22
0.98
0.21
-0.21
-0.51
-0.91
-1.57
-2.52
-3.75
-5.23
-6.92
-8.79
-10.79
-12.84
-14.88
-16.88
-18.92
-21.05
-23.27
-25.42
-27.16
-28.04
-27.7
-25.92
-22.81
-18.76
-14.27
-9.82
-5.71
-2.02
1.34
4.43
7.24
9.66
11.5
12.61
12.98
12.74
12.15
11.56
11.25
11.42
12.1
13.2
14.49
15.74
16.77
17.48
17.83
17.8
17.4
16.67
15.74
14.83
14.14
13.77
13.57
13.26
12.5
11.15
9.26
7.1
4.99
3.16
1.7
0.48
-0.67
-1.95
-3.46
-5.18
-6.99
-8.75
-10.36
-11.83
-13.3
-14.97
-17.02
-19.56
-22.54
-25.84
-29.16
-32.07
-34.05
-34.57
-33.33
-30.37
-26.11
-21.26
-16.49
-12.23
-8.63
-5.54
-2.74
-0.06
2.55
5.04
7.38
9.53
11.47
13.16
14.56
15.59
16.3
16.78
17.2
17.7
18.29
18.88
19.26
19.27
18.9
18.27
17.68
17.31
17.26
17.39
17.49
17.29
16.64
15.52
14
12.24
10.39
8.59
6.93
5.47
4.23
3.21
2.4
1.75
1.17
0.56
-0.22
-1.34
-2.89
-4.85
-7.12
-9.54
-11.92
-14.09
-15.95
-17.5
-18.84
-20.15
-21.66
-23.56
-25.84
-28.28
-30.43
-31.71
-31.69
-30.18
-27.28
-23.41
-19.08
-14.76
-10.77
-7.23
-4.15
-1.48
0.83
2.87
4.72
6.41
7.95
9.22
10.09
10.49
10.54
10.52
10.83
11.74
13.28
15.22
17.09
18.5
19.25
19.35
19.01
18.42
17.67
16.79
15.78
14.69
13.63
12.71
11.93
11.14
10.14
8.78
7.08
5.22
3.51
2.17
1.3
0.74
0.23
-0.51
-1.67
-3.22
-5.02
-6.9
-8.76
-10.6
-12.46
-14.38
-16.38
-18.43
-20.5
-22.58
-24.56
-26.24
-27.26
-27.18
-25.68
-22.75
-18.69
-14.02
-9.31
-4.95
-1.06
2.4
5.51
8.24
10.47
12.03
12.85
13
12.69
12.24
11.95
12.01
12.49
13.28
14.21
15.08
15.7
16.01
16.04
15.9
15.69
15.46
15.14
14.66
13.93
12.97
11.9
10.87
9.97
9.14
8.29
7.23
5.91
4.32
2.6
0.92
-0.63
-2.03
-3.38
-4.79
-6.36
-8.12
-9.98
-11.82
-13.49
-14.92
-16.09
-17.16
-18.34
-19.89
-21.98
-24.68
-27.81
-30.99
-33.65
-35.15
-34.95
-32.81
-28.86
-23.58
-17.71
-11.95
-6.89
-2.81
0.26
2.48
4.15
5.52
6.83
8.15
9.45
10.65
11.65
12.44
13.11
13.82
14.71
15.83
17.1
18.33
19.33
19.96
20.17
19.97
19.38
18.45
17.24
15.82
14.34
12.92
11.69
10.7
9.98
9.46
9.06
8.63
8.08
7.31
6.28
5.03
3.56
