8.68
8.58
8.32
7.99
7.82
7.98
8.45
9.03
9.45
9.5
9.15
8.53
7.78
6.97
6.05
4.95
3.68
2.35
1.19
0.33
-0.16
-0.42
-0.71
-1.28
-2.3
-3.75
-5.47
-7.17
-8.64
-9.78
-10.7
-11.65
-12.92
-14.68
-16.89
-19.27
-21.38
-22.71
-22.85
-21.54
-18.77
-14.79
-10.06
-5.17
-0.68
3.01
5.77
7.64
8.84
9.58
10.03
10.26
10.33
10.31
10.27
10.32
10.52
10.89
11.34
11.78
12.07
12.13
11.99
11.73
11.5
11.41
11.51
11.72
11.85
11.73
11.2
10.29
9.19
8.14
7.37
6.97
6.81
6.64
6.25
5.53
4.61
3.69
2.96
2.45
2.01
1.37
0.34
-1.11
-2.84
-4.6
-6.2
-7.53
-8.61
-9.57
-10.56
-11.74
-13.24
-15.13
-17.33
-19.56
-21.38
-22.26
-21.74
-19.68
-16.26
-11.94
-7.34
-3.01
0.65
3.46
5.4
6.57
7.16
7.36
7.38
7.34
7.31
7.3
7.32
7.48
7.89
8.62
9.6
10.66
11.55
12.13
12.4
12.48
12.52
12.56
12.52
12.24
11.61
10.67
9.58
8.5
7.54
6.68
5.83
4.94
4.01
3.13
2.38
1.77
1.23
0.67
-0.02
-0.87
-1.87
-2.95
-4.07
-5.22
-6.42
-7.65
-8.88
-10.05
-11.17
-12.33
-13.7
-15.45
-17.62
-19.98
-21.99
-23.01
-22.46
-20.1
-16.17
-11.32
-6.35
-1.98
1.39
3.73
5.2
6.1
6.64
6.91
6.92
6.64
6.12
5.52
5.05
4.92
5.21
5.9
6.8
7.7
8.43
8.97
9.35
9.69
9.99
10.16
10.06
9.51
8.51
7.21
5.86
4.73
3.96
3.52
3.22
2.8
2.06
0.91
-0.62
-2.41
-4.28
-6.06
-7.58
-8.73
-9.48
-9.89
-10.14
-10.49
-11.23
-12.55
-14.5
-16.87
-19.26
-21.1
-21.85
-21.09
-18.73
-15.06
-10.68
-6.32
-2.57
0.27
2.22
3.51
4.41
5.08
5.56
5.87
6.04
6.14
6.29
6.54
6.89
7.3
7.71
8.13
8.61
9.16
9.75
10.35
10.9
11.35
11.7
11.88
11.79
11.31
10.36
8.95
7.22
5.4
3.73
2.38
1.41
0.75
0.29
-0.13
-0.64
-1.33
-2.27
-3.47
-4.88
-6.44
-8.06
-9.62
-11.07
-12.44
-13.84
-15.44
-17.32
-19.39
-21.41
-22.94
-23.5
-22.76
-20.6
-17.24
-13.14
-8.85
-4.9
-1.61
0.87
2.61
3.8
4.64
5.34
6.02
6.73
7.44
8.12
8.71
9.2
9.62
10.05
10.57
11.19
11.87
12.53
13.13
13.63
14.04
14.3
14.33
13.95
13.09
11.77
10.21
8.68
7.42
6.55
5.97
5.49
4.91
4.12
3.16
2.14
1.16
0.28
-0.56
-1.5
-2.66
-4.08
-5.66
-7.22
-8.57
-9.65
-10.53
-11.43
-12.59
-14.22
-16.39
-19.02
-21.83
-24.37
-26.05
-26.32
-24.85
-21.7
-17.29
-12.34
-7.61
-3.65
-0.67
1.44
2.98
4.23
5.34
6.32
7.12
7.7
8.16
8.63
9.23
10
10.83
11.55
12.03
12.27
12.42
12.69
13.2
13.95
14.76
15.42
15.76
15.72
15.32
14.63
13.74
12.69
11.52
10.27
9.03
7.83
6.68
5.57
4.47
3.45
2.62
2.07
1.78
1.6
1.3
0.65
-0.45
-1.97
-3.74
-5.56
-7.26
-8.75
-10
-11.07
-12.09
-13.26
-14.81
-16.87
-19.31
-21.68
-23.3
-23.46
-21.73
-18.16
-13.27
-7.9
-2.9
1.18
4.17
6.28
7.9
9.41
11.05
12.85
14.68
16.36
17.75
18.77
19.52
20.16
20.97
22.23
24.15
26.76
29.86
33.03
35.72
37.42
37.8
36.86
34.93
32.46
29.93
27.56
25.38
23.21
20.92
18.49
16.05
13.78
11.72
9.7
7.33
4.24
0.27
-4.38
-9.23
-13.71
-17.4
-20.28
-22.65
-25
-27.83
-31.46
-36.04
-41.57
-47.84
-54.36
-60.33
-64.75
-66.78
-66.17
-63.4
-59.52
-55.66
-52.45
-49.73
-46.6
-41.87
-34.57
-24.42
-11.95
1.72
15
26.36
34.55
38.99
39.99
38.81
37.39
37.96
42.4
51.77
65.88
83.28
101.52
117.74
129.46
135.3
135.29
130.78
123.89
116.75
110.84
106.63
103.65
100.82
97
91.41
83.99
75.34
66.5
58.5
51.94
46.81
42.56
38.47
34.02
29.09
23.92
18.95
14.47
10.62
7.37
4.69
2.59
1.11
0.23
-0.17
-0.25
-0.11
0.26
0.89
1.78
2.64
2.96
2.01
-0.83
-5.74
-12.21
-19.17
-25.34
-29.81
-32.61
-34.65
-37.48
-42.59
-50.82
-62.05
-75.39
-89.65
-103.77
-117.18
-129.89
-142.42
-155.74
-171.08
-189.65
-211.92
-236.87
-261.61
-281.72
-292.5
-290.44
-274.47
-246.04
-208.24
-164.56
-117.92
-70.79
-25.8
13.84
44.7
64.31
72.4
71.33
65.12
57.84
52.06
48.3
45.66
43.24
41.22
41.04
44.56
52.82
65.16
79.25
91.99
100.62
103.76
101.68
95.92
88.47
81
74.52
69.31
65.27
62.25
60.28
59.53
60.16
62.21
65.49
69.54
73.77
77.59
80.54
82.24
82.36
80.6
76.91
71.73
66.09
61.47
59.22
59.95
63.14
67.27
70.43
71.12
68.72
63.63
56.75
48.96
40.69
31.91
22.54
12.79
3.37
-4.74
-10.65
-14.02
-15.17
-14.9
-14.06
-13.27
-12.68
-12.14
-11.41
-10.42
-9.4
-8.79
-9.06
-10.51
-13.12
-16.58
-20.31
-23.71
-26.35
-28.16
-29.41
-30.68
-32.6
-35.63
-39.94
-45.41
-51.59
-57.91
-63.74
-68.51
-71.76
-73.16
-72.5
-69.72
-65.01
-58.8
-51.73
-44.56
-37.94
-32.32
-27.93
-24.73
-22.6
-21.29
-20.56
-20.15
-19.84
-19.46
-18.95
-18.34
-17.71
-17.08
-16.43
-15.72
-14.94
-14.2
-13.7
-13.64
-14.08
-14.96
-16.02
-16.99
-17.65
-17.91
-17.77
-17.27
-16.47
-15.4
-14.15
-12.79
-11.4
-10.02
-8.62
-7.14
-5.57
-3.93
-2.35
-1.02
-0.07
0.43
0.53
0.36
0.09
-0.1
-0.15
-0.03
0.27
0.73
1.38
2.27
3.38
4.56
5.54
6.03
5.83
4.94
3.59
2.1
0.78
-0.26
-1.11
-2
-3.17
-4.72
-6.58
-8.53
-10.37
-11.95
-13.34
-14.74
-16.34
-18.27
-20.41
-22.48
-24.13
-25.08
-25.26
-24.76
-23.8
-22.61
-21.32
-19.92
-18.36
-16.57
-14.54
-12.35
-10.1
-7.93
-5.91
-4.09
-2.47
-1
0.34
1.56
2.73
3.93
5.27
6.83
8.59
10.41
12.06
13.3
14
14.16
13.92
13.5
13.07
12.67
12.28
11.83
11.27
10.67
10.09
9.58
9.14
8.64
7.97
6.99
5.69
4.15
2.52
0.92
-0.62
-2.14
-3.77
-5.61
-7.69
-9.89
-12.05
-13.9
-15.27
-16.06
-16.26
-15.99
-15.35
-14.38
-13.08
-11.45
-9.56
-7.56
-5.67
-4
-2.58
-1.24
0.21
1.9
3.82
5.82
7.66
9.19
10.37
11.24
11.87
12.31
12.62
12.87
13.13
13.42
13.66
13.71
13.39
12.6
11.42
10.09
8.89
8.01
7.49
7.16
6.81
6.23
5.32
4.11
2.76
1.44
0.32
-0.52
-1.09
-1.55
-2.08
-2.9
-4.14
-5.82
-7.82
-9.93
-11.98
-13.86
-15.6
-17.27
-18.94
-20.65
-22.31
-23.79
-24.88
-25.38
-25.19
-24.27
-22.72
-20.79
-18.78
-17.02
-15.71
-14.8
-14.02
-12.93
-11.2
-8.7
-5.67
-2.55
0.24
2.45
4.14
5.57
7.04
8.73
10.63
12.65
14.66
16.55
18.27
19.76
20.95
21.79
22.29
22.51
22.57
22.6
22.74
23.09
23.78
24.88
26.39
28.2
29.98
31.27
31.61
30.74
28.67
25.75
22.47
19.28
16.39
13.76
11.16
8.37
5.35
2.18
-0.98
-4.05
-7.18
-10.66
-14.8
-19.78
-25.6
-32.06
-38.88
-45.57
-51.56
-56.15
-58.58
-58.29
-55.18
-49.71
-42.82
-35.63
-29.1
-23.69
-19.41
-15.92
-12.81
-9.71
-6.43
-2.88
0.91
4.79
8.58
12.02
14.94
17.27
19.1
20.56
21.76
22.77
23.57
24.14
24.49
24.72
24.84
24.86
24.72
24.33
23.66
22.76
21.75
20.7
19.61
18.4
16.93
15.17
13.22
11.33
9.73
8.59
7.84
7.25
6.51
5.33
3.62
1.45
-0.97
-3.48
-5.99
-8.59
-11.47
-14.84
-18.83
-23.41
-28.33
-33.14
-37.21
-39.86
-40.5
-38.79
-34.77
-28.95
-22.13
-15.22
-8.98
-3.8
0.31
3.59
6.33
8.73
10.9
12.86
14.64
16.31
17.91
19.49
21.05
22.61
24.18
25.76
27.23
28.39
29
28.91
28.16
27
25.75
24.64
23.68
22.67
21.39
19.69
17.68
15.6
13.73
12.24
11.18
10.36
9.56
8.56
7.2
5.48
3.52
1.5
-0.36
-1.94
-3.25
-4.42
-5.68
-7.3
-9.48
-12.36
-15.88
-19.82
-23.73
-26.94
-28.73
-28.49
-26.03
-21.67
-16.21
-10.63
-5.75
-1.97
0.79
2.95
4.91
6.86
8.74
10.28
11.29
11.76
11.92
12.12
12.62
13.47
14.54
15.59
16.43
17.03
17.45
17.78
18.02
17.99
17.47
16.28
14.41
12.07
9.57
7.23
5.29
3.79
2.66
1.7
0.66
-0.67
-2.36
-4.3
-6.27
-7.94
-9.1
-9.71
-9.94
-10.15
-10.72
-12
-14.14
-17.11
-20.6
-24.08
-26.77
-27.95
-27.1
-24.13
-19.41
-13.65
-7.71
-2.25
2.27
5.73
8.21
9.88
10.88
11.38
11.5
11.41
11.26
11.22
11.41
11.87
12.56
13.39
14.23
15.07
15.94
16.95
18.12
19.3
20.19
20.41
19.69
17.98
15.5
12.65
9.9
7.55
5.67
4.1
2.59
0.89
-1.07
-3.22
-5.41
-7.45
-9.31
-11.05
-12.81
-14.77
-17.01
-19.6
-22.52
-25.62
-28.6
-30.99
-32.18
-31.64
-29.12
-24.74
-19.05
-12.84
-6.93
-1.92
1.89
4.54
6.34
7.65
8.84
10.15
11.67
13.38
15.12
16.71
17.99
18.91
19.48
19.83
20.13
20.51
21
21.55
21.99
22.14
21.9
21.24
20.24
19.03
17.7
16.25
14.7
13.04
11.33
9.67
8.15
6.8
5.54
4.2
2.64
0.82
-1.19
-3.23
-5.15
-6.89
-8.47
-9.98
-11.54
-13.2
-15.02
-17.09
-19.52
-22.46
-25.95
-29.77
-33.42
-36.16
-37.2
-35.98
-32.43
-26.96
-20.41
-13.8
-7.98
-3.4
-0.06
2.44
4.58
6.74
9.05
11.37
13.43
15.04
16.18
16.99
17.76
18.67
19.76
20.95
22.09
23.1
24.01
24.91
25.83
26.69
27.34
27.53
27.13
26.14
24.73
23.14
21.58
20.11
18.72
17.3
15.76
14.06
12.23
10.34
8.49
6.73
5.13
3.72
2.54
1.58
0.76
-0.09
-1.18
-2.69
-4.68
-7.04
-9.56
-11.99
-14.21
-16.2
-18.11
-20.17
-22.6
-25.5
-28.83
-32.34
-35.59
-37.98
-38.94
-38.03
-35.15
-30.55
-24.85
-18.77
-12.99
-7.97
-3.91
-0.84
1.31
2.73
3.66
4.44
5.4
6.75
8.47
10.31
11.9
13.03
13.66
14.04
14.45
15.09
15.94
16.83
17.61
18.16
18.54
18.77
18.84
18.64
18.05
17.09
15.89
14.66
13.55
12.57
11.59
10.46
9.06
7.41
5.65
3.98
2.55
1.32
0.18
-1.08
-2.61
-4.47
-6.52
-8.52
-10.26
-11.61
-12.67
-13.73
-15.2
-17.47
-20.68
-24.68
-28.92
-32.61
-34.85
-34.98
-32.77
-28.48
-22.82
-16.67
-10.81
-5.73
-1.6
1.67
4.27
6.43
8.33
10.07
11.71
13.24
14.61
15.77
16.73
17.52
18.2
18.81
19.32
19.71
19.96
20.13
20.29
20.46
20.57
20.42
19.82
18.69
17.1
15.28
13.55
12.09
10.95
9.99
9
7.86
6.57
5.25
4.03
2.94
1.87
0.65
-0.87
-2.67
-4.58
-6.4
-8.01
-9.5
-11.12
-13.16
-15.79
-18.99
-22.56
-26.14
-29.32
-31.66
-32.71
-32.12
-29.71
-25.6
-20.23
-14.32
-8.63
-3.75
0.02
2.74
4.64
6.08
7.31
8.51
9.69
10.83
11.83
12.61
13.15
13.48
13.73
14.02
14.43
14.92
15.41
15.81
16.04
16.12
16.02
15.73
15.2
14.38
13.28
11.97
10.59
9.23
7.94
6.69
5.45
4.18
2.88
1.52
0
-1.75
-3.76
-5.97
-8.21
-10.35
-12.29
-14.09
-15.9
-17.92
-20.28
-23.01
-26.1
-29.43
-32.79
-35.86
-38.19
-39.2
-38.49
-35.85
-31.48
-25.9
-19.83
-13.94
-8.67
-4.21
-0.48
2.65
5.31
7.59
9.45
10.92
12.02
12.85
13.59
14.44
15.52
16.89
18.46
20.03
21.38
22.33
22.76
22.72
22.27
21.48
20.35
18.83
16.89
14.63
12.27
10.12
8.43
7.26
6.51
5.9
5.14
4.05
2.56
0.77
-1.22
-3.22
-5.15
-6.95
-8.66
-10.43
-12.5
-15.06
-18.17
-21.66
-25.07
-27.8
-29.19
-28.79
-26.47
-22.51
-17.45
-11.95
-6.59
-1.73
2.49
6.11
9.21
11.81
13.87
15.34
16.22
16.63
16.78
16.93
17.33
18.07
19.12
20.35
21.64
22.88
24.02
25.02
25.82
26.22
25.97
24.85
22.78
19.88
16.51
13.14
10.14
7.68
5.6
3.54
1.08
-1.99
-5.58
-9.3
-12.63
-15.16
-16.7
-17.42
-17.67
-17.87
-18.42
-19.63
-21.67
-24.5
-27.82
-31.03
-33.32
-33.88
-32.23
-28.4
-22.98
-16.85
-10.96
-5.95
-2.13
0.54
2.28
3.34
3.96
4.33
4.6
4.88
5.2
5.54
5.85
6.14
6.47
6.95
7.65
8.52
9.39
10.06
10.42
10.42
10.13
9.63
8.91
7.9
6.46
4.53
2.18
-0.37
-2.84
-4.97
-6.66
-7.94
-9.02
-10.2
-11.72
-13.71
-16.15
-18.97
-22.05
-25.2
-28.14
-30.34
-31.18
-30.07
-26.77
-21.61
-15.45
-9.36
-4.19
-0.33
2.41
4.5
6.38
8.25
10.04
11.62
12.95
14.11
15.22
16.25
17.05
17.41
17.26
16.73
16.2
16.02
16.42
17.34
18.47
19.42
19.82
19.47
18.37
16.62
14.43
12.02
9.58
7.24
5.02
2.9
0.87
-1.1
-2.99
-4.79
-6.52
-8.21
-9.99
-11.99
-14.36
-17.17
-20.33
-23.52
-26.21
-27.72
-27.43
-25.02
-20.58
-14.67
-8.09
-1.72
3.82
8.22
11.51
13.96
15.94
17.87
20.13
22.96
26.47
30.53
34.91
39.28
43.36
46.89
49.69
51.6
52.58
52.75
52.49
52.26
52.43
53.11
54.07
54.95
55.51
55.81
56.2
57.06
58.6
60.7
63.08
65.37
67.27
68.46
68.59
67.22
64.04
59.03
52.6
45.54
38.74
32.87
28.29
24.98
22.63
20.74
18.69
15.82
11.62
5.87
-1.19
-8.93
-16.42
-22.75
-27.26
-29.77
-30.56
-30.3
-29.92
-30.26
-31.92
-35.03
-39.21
-43.72
-47.7
-50.53
-52.01
-52.42
-52.31
-52.26
-52.64
-53.48
-54.54
-55.37
-55.57
-54.77
-52.85
-49.8
-45.81
-41.16
-36.15
-31.08
-26.18
-21.65
-17.63
-14.25
-11.62
-9.8
-8.76
-8.35
-8.32
-8.43
-8.54
-8.59
-8.64
-8.76
-8.98
-9.33
-9.81
-10.48
-11.39
-12.53
-13.82
-15.04
-16.04
-16.7
-17.06
-17.21
-17.25
-17.17
-16.94
-16.51
-15.94
-15.35
-14.82
-14.33
-13.75
-12.87
-11.54
-9.78
-7.74
-5.68
-3.83
-2.34
-1.23
-0.42
0.24
0.95
1.86
3.05
4.48
5.95
7.2
8.02
8.33
8.16
7.64
6.86
5.83
4.51
2.88
0.96
-1.17
-3.36
-5.54
-7.63
-9.58
-11.39
-13.04
-14.62
-16.21
-17.96
-19.95
-22.2
-24.56
-26.78
-28.55
-29.57
-29.61
-28.56
-26.48
-23.61
-20.34
-17.05
-14.13
-11.75
-9.94
-8.59
-7.58
-6.84
-6.35
-6.13
-6.13
-6.18
-6.09
-5.65
-4.69
-3.26
-1.5
0.36
2.07
3.48
4.56
5.38
6.06
6.68
7.16
7.31
6.9
5.78
4.02
1.91
-0.18
-1.88
-3.11
-4.05
-5.07
-6.58
-8.86
-11.91
-15.52
-19.26
-22.68
-25.28
-26.61
-26.31
-24.23
-20.51
-15.65
-10.41
-5.54
-1.62
1.15
2.98
4.23
5.29
6.37
7.44
8.35
8.92
9.06
8.86
8.53
8.33
8.49
9.08
10.05
11.19
12.24
12.99
13.29
13.07
12.34
11.17
9.68
7.95
6.12
4.25
2.32
0.3
-1.86
-4.16
-6.55
-8.93
-11.22
-13.4
-15.5
-17.63
-19.91
-22.44
-25.24
-28.18
-30.93
-32.98
-33.74
-32.76
-29.83
-25.18
-19.43
-13.33
-7.61
-2.72
1.23
4.38
6.99
9.28
11.4
13.36
15.15
16.69
17.98
19.02
19.84
20.44
20.83
21
20.97
20.8
20.59
20.47
20.51
20.7
20.92
20.93
20.53
19.54
17.96
15.88
13.53
11.14
8.89
6.87
5.02
3.26
1.45
-0.55
-2.81
-5.31
-7.95
-10.58
-13.04
-15.25
-17.27
-19.26
-21.46
-24.11
-27.3
-30.95
-34.71
-37.99
-40.07
-40.24
-38.08
-33.54
-27.06
-19.47
-11.75
-4.82
0.79
4.91
7.79
9.81
11.45
13.06
14.85
16.8
18.79
20.61
22.05
22.97
23.36
23.28
22.9
22.47
22.22
22.35
22.9
23.8
24.79
25.57
25.89
25.58
24.65
23.25
21.61
19.95
18.41
17.04
15.77
14.48
13
11.24
9.17
6.87
4.55
2.36
0.38
-1.41
-3.22
-5.23
-7.58
-10.25
-13.04
-15.69
-17.95
-19.71
-21.09
-22.38
-23.98
-26.25
-29.32
-33.03
-36.9
-40.12
-41.86
-41.4
-38.4
-33.04
-25.96
-18.13
-10.57
-4.06
1.04
4.74
7.38
9.43
11.34
13.39
15.64
18
20.23
22.1
23.45
24.27
24.69
24.94
25.2
25.54
25.93
26.26
26.45
26.5
26.43
26.22
25.75
24.9
23.62
21.98
20.27
18.75
17.62
16.87
16.28
15.57
14.55
13.15
11.46
9.61
7.72
5.85
4.03
2.25
0.45
-1.44
-3.53
-5.86
-8.43
-11.11
-13.74
-16.16
-18.34
-20.38
-22.5
-25.01
-28.16
-31.95
-36.11
-40
-42.75
-43.55
-41.9
-37.77
-31.69
-24.55
-17.33
-10.83
-5.5
-1.39
1.69
4.08
6.11
8.04
9.97
11.95
13.92
15.78
17.44
18.83
19.94
20.78
21.42
21.94
22.47
23.07
23.75
24.44
24.96
25.16
24.88
24.08
22.84
21.32
19.7
18.15
16.77
15.57
14.49
13.42
12.23
10.86
9.3
7.61
5.92
4.35
2.93
1.6
0.13
-1.7
-4.04
-6.83
-9.84
-12.71
-15.13
-16.96
-18.33
-19.54
-20.96
-22.9
-25.55
-28.87
-32.62
-36.32
-39.33
-40.85
-40.23
-37.11
-31.62
-24.46
-16.67
-9.33
-3.24
1.27
4.35
6.46
8.12
9.72
11.36
12.97
14.37
15.45
16.24
16.9
17.58
18.34
19.15
19.86
20.43
20.89
21.36
21.94
22.55
23.01
23.07
22.58
21.54
20.15
18.66
17.27
16.09
15.07
14.13
13.16
12.07
10.84
9.46
7.97
6.43
4.86
3.28
1.68
0.04
-1.63
-3.34
-5.07
-6.8
-8.55
-10.3
-12.04
-13.78
-15.57
-17.46
-19.54
-21.96
-24.84
-28.22
-31.96
-35.65
-38.59
-40.03
-39.31
-36.21
-31.02
-24.48
-17.54
-11.04
-5.48
-1
2.54
5.39
7.76
9.74
11.33
12.53
13.38
14
14.49
14.97
15.49
16.04
16.6
17.12
17.62
18.14
18.76
19.5
20.31
21.01
21.4
21.27
20.59
19.45
18.1
16.81
15.76
14.96
14.24
13.41
12.33
11.02
9.65
8.42
7.46
6.73
6.05
5.11
3.64
1.5
-1.27
-4.41
-7.58
-10.45
-12.85
-14.8
-16.44
-17.98
-19.54
-21.25
-23.18
-25.43
-28.13
-31.21
-34.34
-36.87
-37.94
-36.87
-33.37
-27.79
-20.95
-13.91
-7.55
-2.4
1.49
4.36
6.53
8.26
9.65
10.73
11.52
12.06
12.43
12.72
12.92
13.04
13.09
13.11
13.23
13.53
14.05
14.71
15.35
15.85
16.14
16.22
16.08
15.71
15
13.9
12.38
10.55
8.58
6.62
4.74
2.9
1.02
-0.96
-2.94
-4.82
-6.45
-7.81
-9.05
-10.35
-11.87
-13.61
-15.48
-17.31
-19.07
-20.85
-22.87
-25.27
-27.93
-30.4
-31.96
-31.87
-29.69
-25.45
-19.73
-13.36
-7.23
-1.92
2.32
5.58
8.08
10.01
11.4
12.21
12.47
12.32
12.04
11.87
11.96
12.33
12.88
13.48
14.05
14.59
15.07
15.47
15.7
15.71
15.5
15.13
14.65
14.07
13.32
12.26
10.83
9.07
7.16
5.36
3.86
2.68
1.66
0.49
-1.1
-3.29
-6.02
-9.07
-12.09
-14.78
-16.95
-18.61
-19.9
-21.11
-22.56
-24.54
-27.23
-30.52
-34
-36.96
-38.61
-38.29
-35.72
-31.11
-25.12
-18.59
-12.35
-6.94
-2.59
0.77
3.34
5.36
7.03
8.5
9.91
11.32
12.81
14.37
15.95
17.41
18.58
19.33
19.66
19.69
19.67
19.86
20.37
21.14
21.92
22.47
22.56
22.13
21.21
19.91
18.39
16.83
15.42
14.29
13.43
12.66
11.67
10.15
8.01
5.46
2.91
0.76
-0.85
-2.08
-3.36
-5.07
-7.38
-10.15
-13.01
-15.66
-17.93
-19.95
-21.97
-24.24
-26.93
-30.09
-33.65
-37.34
-40.73
-43.2
-44.07
-42.76
-39.08
-33.38
-26.46
-19.32
-12.83
-7.5
-3.35
-0.05
2.8
5.53
8.25
10.9
13.32
15.38
17.05
18.38
19.48
20.43
21.29
22.1
22.93
23.78
24.63
25.42
26.05
26.44
26.53
26.35
25.98
25.46
24.77
23.85
22.65
21.16
19.48
17.75
16.12
14.66
13.35
12.08
10.72
9.18
7.44
5.61
3.83
2.28
1.03
0.01
-0.97
-2.16
-3.71
-5.65
-7.88
-10.27
-12.73
-15.24
-17.79
-20.34
-22.82
-25.2
-27.6
-30.24
-33.33
-36.78
-40.09
-42.39
-42.73
-40.48
-35.66
-28.94
-21.41
-14.15
-7.93
-3
0.75
3.62
5.9
7.79
9.42
10.95
12.51
14.23
16.1
17.96
19.51
20.51
20.87
20.74
20.46
20.41
20.81
21.63
22.62
23.42
23.74
23.42
22.58
21.43
20.27
19.28
18.54
17.96
17.33
16.48
15.3
13.8
12.12
10.43
8.88
7.55
6.4
5.31
4.08
2.5
0.43
-2.2
-5.28
-8.56
-11.75
-14.59
-17.03
-19.2
-21.4
-23.93
-26.93
-30.36
-33.86
-36.96
-39.04
-39.53
-37.98
-34.23
-28.51
-21.45
-13.97
-7.01
-1.3
2.87
5.63
7.4
8.65
9.73
10.78
11.76
12.63
13.37
13.99
14.57
15.15
15.71
16.21
16.63
17
17.39
17.9
18.58
19.36
20.03
20.36
20.1
19.21
17.78
16.03
14.16
12.27
10.38
8.47
6.56
4.78
3.25
2.05
1.14
0.3
-0.71
-2.11
-3.97
-6.23
-8.73
-11.28
-13.66
-15.78
-17.63
-19.41
-21.41
-23.99
-27.35
-31.4
-35.72
-39.55
-42
-42.28
-39.98
-35.16
-28.42
-20.68
-12.99
-6.2
-0.83
3.03
5.62
7.37
8.75
10.11
11.64
13.34
15.08
16.67
17.93
18.79
19.28
19.54
19.71
19.91
20.21
20.59
21
21.37
21.57
21.48
20.91
19.77
18.07
15.99
13.8
11.81
10.19
8.92
7.81
6.63
5.22
3.62
2.03
0.69
-0.28
-0.96
-1.63
-2.64
-4.26
-6.57
-9.39
-12.39
-15.17
-17.44
-19.19
-20.66
-22.33
-24.66
-27.95
-32.14
-36.76
-41.07
-44.21
-45.42
-44.28
-40.74
-35.18
-28.29
-20.97
-14.03
-8.08
-3.36
0.26
3.15
5.75
8.33
10.99
13.61
16.03
18.12
19.86
21.31
22.5
23.45
24.15
24.61
24.89
25.08
25.29
25.56
25.89
26.19
26.36
26.29
25.88
25.05
23.79
22.19
20.37
18.52
16.72
15.03
13.43
11.93
10.56
9.34
8.29
7.3
6.21
4.84
3.1
1.05
-1.14
-3.22
-5.04
-6.54
-7.83
-9.14
-10.66
-12.48
-14.56
-16.78
-19
-21.21
-23.49
-26.03
-29.03
-32.57
-36.56
-40.61
-44.13
-46.34
-46.52
-44.24
-39.53
-32.92
-25.37
-17.93
-11.4
-6.22
-2.34
0.57
2.95
5.13
7.3
9.52
11.71
13.78
15.52
16.78
17.43
17.44
16.95
16.17
15.38
14.76
14.42
14.32
14.37
14.4
14.18
13.53
12.31
10.5
8.2
5.61
2.94
0.35
-2.09
-4.38
-6.6
-8.85
-11.23
-13.77
-16.49
-19.29
-22.04
-24.53
-26.62
-28.3
-29.74
-31.29
-33.26
-35.8
-38.75
-41.62
-43.73
-44.52
-43.67
-41.32
-37.95
-34.25
-30.91
-28.53
-27.51
-27.97
-29.71
-32.12
-34.18
-34.76
-32.93
-28.36
-21.49
-13.35
-5.25
1.72
7
10.57
12.84
14.39
15.77
17.4
19.5
22.16
25.24
28.49
31.55
34.1
35.97
37.19
37.92
38.45
39.06
39.94
41.17
42.75
44.54
46.4
48.15
49.61
50.63
51.12
51.14
50.81
50.36
49.87
49.32
48.49
47.08
44.89
41.9
38.38
34.75
31.44
28.71
26.62
25.07
23.83
22.64
21.26
19.5
17.27
14.58
11.51
8.07
4.16
-0.34
-5.48
-10.96
-16.11
-20.01
-21.8
-20.99
-17.69
-12.38
-5.76
1.63
9.46
17.59
25.92
34.25
42.32
49.82
56.56
62.37
67.13
70.66
72.77
73.26
72.01
69.08
64.69
59.25
53.19
47
41.11
35.82
31.27
27.4
24.04
20.9
17.77
14.46
10.88
7.06
3.17
-0.47
-3.41
-5.17
-5.49
-4.42
-2.43
-0.23
1.48
2.21
1.91
0.79
-0.77
-2.49
-4.26
-6.12
-8.06
-10
-11.73
-13.05
-13.88
-14.3
-14.51
-14.67
-14.82
-14.86
-14.71
-14.38
-14.04
-13.98
-14.41
-15.4
-16.77
-18.24
-19.55
-20.5
-20.97
-20.91
-20.37
-19.48
-18.52
-17.83
-17.63
-17.88
-18.23
-18.2
-17.42
-15.83
-13.71
-11.57
-9.83
-8.69
-8.12
-7.87
-7.71
-7.46
-6.98
-6.22
-5.19
-3.97
-2.72
-1.62
-0.85
-0.45
-0.42
-0.65
-1.04
-1.43
-1.7
-1.7
-1.4
-0.88
-0.38
-0.19
-0.5
-1.31
-2.37
-3.3
-3.79
-3.75
-3.33
-2.84
-2.59
-2.66
-2.88
-2.92
-2.43
-1.24
0.59
2.83
5.2
7.43
9.32
10.62
10.99
10.08
7.72
4.09
-0.27
-4.57
-8.21
-10.93
-12.96
-14.79
-16.86
-19.35
-22.05
-24.58
-26.58
-27.98
-28.98
-29.95
-31.16
-32.64
-34.23
-35.67
-36.82
-37.7
-38.41
-38.94
-39.1
-38.55
-36.98
-34.37
-31.05
-27.57
-24.37
-21.68
-19.42
-17.48
-15.89
-14.92
-14.92
-16.03
-17.99
-20.2
-21.89
-22.56
-22.08
-20.7
-18.8
-16.64
-14.28
-11.63
-8.68
-5.56
-2.67
-0.43
0.9
1.29
1.07
0.68
0.54
0.88
1.68
2.71
3.67
4.34
4.64
4.66
4.51
4.27
3.91
3.35
2.52
1.48
0.45
-0.29
-0.53
-0.23
0.42
1.13
1.59
1.57
0.99
-0.11
-1.56
-3.1
-4.45
-5.39
-5.8
-5.76
-5.49
-5.32
-5.46
-5.96
-6.66
-7.25
-7.41
-6.93
-5.85
-4.43
-3.11
-2.3
-2.33
-3.22
-4.81
-6.78
-8.72
-10.32
-11.27
-11.37
-10.52
-8.81
-6.52
-4.07
-1.92
-0.41
0.36
0.51
0.29
-0.05
-0.33
-0.47
-0.43
-0.24
0.09
0.53
1.04
1.5
1.84
1.96
1.84
1.57
1.26
1.06
0.99
0.97
0.81
0.34
-0.43
-1.33
-2.02
-2.28
-2.04
-1.56
-1.16
-1.15
-1.58
-2.32
-3.18
-4.04
-4.89
-5.8
-6.78
-7.7
-8.34
-8.58
-8.47
-8.24
-8.22
-8.67
-9.64
-10.93
-12.22
-13.2
-13.66
-13.59
-13.16
-12.51
-11.77
-10.95
-10.01
-8.93
-7.78
-6.71
-5.85
-5.31
-5.13
-5.29
-5.76
-6.49
-7.44
-8.38
-8.97
-8.73
-7.19
-4.1
0.48
6.1
12.03
17.41
21.48
23.75
24.18
23.12
21.23
19.14
17.3
15.86
14.67
13.48
12.08
10.38
8.47
6.47
4.52
2.7
1.1
-0.22
-1.17
-1.73
-1.93
-1.91
-1.87
-2.01
-2.43
-3.09
-3.82
-4.38
-4.51
-4.13
-3.3
-2.27
-1.39
-0.95
-1.1
-1.75
-2.6
-3.27
-3.46
-3.01
-2.01
-0.68
0.65
1.68
2.24
2.24
1.74
0.85
-0.23
-1.31
-2.22
-2.9
-3.43
-4
-4.83
-5.99
-7.38
-8.73
-9.69
-10.04
-9.73
-8.95
-7.96
-6.96
-6.05
-5.2
-4.38
-3.58
-2.91
-2.49
-2.38
-2.5
-2.66
-2.65
-2.41
-2.05
-1.73
-1.66
-1.82
-2.07
-2.15
-1.85
-1.13
-0.12
0.9
1.72
2.19
2.42
2.67
3.24
4.33
5.88
7.51
8.61
8.59
7.16
4.47
1.14
-1.99
-4.16
-5
-4.58
-3.39
-2.07
-1.2
-1.14
-1.9
-3.21
-4.55
-5.42
-5.4
-4.38
-2.51
-0.11
2.5
5.11
7.61
10.02
12.25
14.14
15.44
15.97
15.7
14.79
13.52
12.22
11.11
10.28
9.76
9.52
9.53
9.75
10.09
10.38
10.39
9.79
8.24
5.55
1.76
-2.8
-7.53
-11.81
-15.18
-17.56
-19.2
-20.51
-21.84
-23.3
-24.71
-25.72
-25.99
-25.25
-23.46
-20.76
-17.41
-13.79
-10.24
-7.04
-4.3
-1.99
0.03
1.83
3.38
4.56
5.23
5.37
5.11
4.71
4.41
4.31
4.35
4.38
4.37
4.42
4.73
5.46
6.57
7.84
8.97
9.66
9.84
9.59
9.11
8.58
8.14
7.89
7.92
8.27
8.88
9.59
10.15
10.35
10.13
9.63
9.02
8.44
7.86
7.19
6.32
5.24
4.03
2.78
1.57
0.33
-0.96
-2.36
-3.78
-5.09
-6.21
-7.12
-7.87
-8.56
-9.24
-9.84
-10.26
-10.36
-10.12
-9.58
-8.9
-8.25
-7.71
-7.31
-6.99
-6.69
-6.39
-6.12
-5.93
-5.9
-6.09
-6.53
-7.25
-8.24
-9.4
-10.58
-11.55
-12.14
-12.23
-11.81
-10.95
-9.79
-8.46
-7.17
-6.14
-5.52
-5.35
-5.52
-5.76
-5.76
-5.26
-4.13
-2.33
0.08
3.06
6.54
10.32
14.04
17.16
19.09
19.47
18.3
15.99
13.25
10.77
8.95
7.87
7.33
7.03
6.82
6.73
6.78
6.94
6.92
6.36
4.96
2.71
-0.06
-2.85
-5.15
-6.71
-7.59
-8.11
-8.68
-9.61
-11.02
-12.78
-14.6
-16.13
-17.05
-17.23
-16.7
-15.66
-14.39
-13.14
-12.04
-11.06
-10.02
-8.63
-6.64
-3.94
-0.62
3.03
6.58
9.63
11.92
13.45
14.41
15.08
15.68
16.24
16.67
16.86
16.7
16.19
15.38
14.29
12.91
11.32
9.65
8.18
7.23
7.05
7.71
9.02
10.58
11.96
12.79
12.91
12.38
11.4
10.21
9.04
7.98
7.06
6.3
5.71
5.33
5.21
5.34
5.62
5.91
6.08
6.08
6.01
6.06
6.43
7.24
8.49
10.08
11.84
13.58
15.14
16.44
17.49
18.34
19.12
19.92
20.8
21.72
22.57
23.15
23.14
22.14
19.69
15.42
9.25
1.6
-6.59
-14.02
-19.49
-22.24
-22.26
-20.21
-17.14
-14.05
-11.59
-10.02
-9.33
-9.41
-10.18
-11.59
-13.47
-15.57
-17.57
-19.14
-20.07
-20.35
-20.15
-19.76
-19.45
-19.38
-19.58
-19.95
-20.42
-20.94
-21.55
-22.31
-23.16
-23.91
-24.24
-23.86
-22.71
-21.04
-19.35
-18.13
-17.59
-17.44
-16.96
-15.31
-11.9
-6.79
-0.67
5.33
10.04
12.64
12.89
11.11
7.98
4.36
1.05
-1.35
-2.49
-2.28
-0.93
1.2
3.66
6.03
7.93
9.15
9.56
9.19
8.22
6.99
5.86
5.15
4.99
5.37
6.23
7.51
9.22
11.33
13.6
15.56
16.55
15.97
13.55
9.5
4.43
-0.87
-5.7
-9.62
-12.56
-14.63
-16.13
-17.31
-18.38
-19.4
-20.3
-20.93
-21.09
-20.62
-19.42
-17.54
-15.1
-12.25
-9.2
-6.15
-3.26
-0.65
1.6
3.45
4.97
6.27
7.46
8.6
9.65
10.5
10.99
11.05
10.76
10.4
10.29
10.64
11.47
12.55
13.53
14.12
14.17
13.76
13.1
12.43
11.91
11.58
11.46
11.46
11.52
11.55
11.41
11.01
10.25
9.12
7.73
6.24
4.87
3.76
2.99
2.52
2.19
1.83
1.29
0.48
-0.59
-1.8
-2.98
-3.93
-4.54
-4.8
-4.9
-5.14
-5.9
-7.43
-9.78
-12.73
-15.81
-18.5
-20.3
-20.89
-20.24
-18.49
-15.96
-13
-9.98
-7.15
-4.77
-2.98
-1.81
-1.14
-0.65
0.01
1.19
2.99
5.22
7.52
9.44
10.71
11.31
11.41
11.29
11.18
11.19
11.31
11.51
11.73
11.95
12.09
12.09
11.86
11.33
10.52
9.49
8.43
7.53
6.95
6.71
6.77
6.93
7.02
6.93
6.63
6.22
5.82
5.54
5.44
5.51
5.7
5.93
6.16
6.27
6.23
5.96
5.46
4.79
4.01
3.23
2.53
2
1.67
1.56
1.54
1.41
0.96
0.05
-1.27
-2.82
-4.26
-5.32
-5.83
-5.84
-5.51
-4.97
-4.29
-3.44
-2.43
-1.33
-0.35
0.32
0.52
0.3
-0.14
-0.51
-0.54
-0.05
0.91
2.13
3.28
4.07
4.36
4.21
3.9
3.77
4.09
4.94
6.19
7.61
8.99
10.22
11.25
11.99
12.41
12.48
12.28
11.95
11.66
11.43
11.11
10.44
9.2
7.35
5.05
2.7
0.7
-0.61
-1.13
-1.01
-0.55
-0.16
-0.18
-0.8
-1.97
-3.45
-4.9
-5.99
-6.54
-6.57
-6.3
-6.05
-6.15
-6.82
-8.04
-9.55
-10.99
-11.95
-12.19
-11.68
-10.54
-9
-7.32
-5.7
-4.29
-3.14
-2.25
-1.51
-0.77
0.05
0.92
1.75
2.41
2.83
3.04
3.13
3.17
3.14
2.91
2.41
1.66
0.84
0.19
-0.09
0.02
0.43
0.91
1.3
1.53
1.6
1.51
1.26
0.81
0.16
-0.57
-1.22
-1.65
-1.79
-1.74
-1.68
-1.75
-1.95
-2.12
-2.07
-1.69
-1.1
-0.59
-0.5
-1.02
-2.15
-3.67
-5.29
-6.75
-7.87
-8.58
-8.85
-8.67
-8.06
-7.1
-5.95
-4.83
-3.95
-3.45
-3.29
-3.26
-3.08
-2.5
-1.38
0.15
1.82
3.28
4.26
4.63
4.42
3.76
2.87
2.02
1.46
1.39
1.87
2.75
3.73
4.48
4.83
4.75
4.43
4.07
3.79
3.57
3.29
2.85
2.23
1.48
0.7
-0.07
-0.82
-1.56
-2.26
-2.86
-3.27
-3.53
-3.79
-4.29
-5.18
-6.47
-7.97
-9.37
-10.35
-10.72
-10.45
-9.66
-8.52
-7.23
-5.98
-4.95
-4.24
-3.85
-3.67
-3.49
-3.11
-2.39
-1.32
-0.05
1.19
2.15
2.67
2.77
2.62
2.44
2.45
2.74
3.25
3.83
4.35
4.71
4.92
5.01
5.03
4.99
4.88
4.74
4.59
4.46
4.42
4.49
4.69
4.97
5.2
5.2
4.82
4.01
2.92
1.81
0.94
0.46
0.31
0.26
0.01
-0.6
-1.59
-2.86
-4.22
-5.54
-6.8
-7.94
-8.91
-9.65
-10.09
-10.23
-10.2
-10.11
-10
-9.76
-9.14
-7.9
-5.97
-3.55
-0.98
1.34
3.14
4.27
4.74
4.6
3.91
2.78
1.41
0.1
-0.86
-1.32
-1.31
-1.02
-0.64
-0.28
-0
0.18
0.21
-0.04
-0.67
-1.65
-2.86
-4.06
-5.1
-5.95
-6.66
-7.34
-8.04
-8.73
-9.35
-9.87
-10.33
-10.82
-11.45
-12.4
-13.84
-15.99
-18.97
-22.66
-26.62
-30.08
-32.16
-32.2
-30.04
-26.19
-21.69
-17.85
-15.83
-16.46
-20.01
-26.31
-34.83
-44.76
-55.03
-64.42
-71.65
-75.69
-75.96
-72.5
-66.07
-57.81
-48.93
-40.36
-32.49
-25.36
-18.78
-12.67
-7.15
-2.46
1.26
4.15
6.68
9.42
12.79
16.84
21.27
25.58
29.32
32.3
34.6
36.42
37.94
39.19
40.09
40.49
40.31
39.6
38.5
37.18
35.71
34.12
32.29
30.13
27.62
24.86
22.05
19.39
16.99
14.78
12.56
10.07
7.1
3.64
-0.19
-4.14
-7.94
-11.45
-14.67
-17.75
-20.96
-24.58
-28.81
-33.76
-39.33
-45.16
-50.58
-54.72
-56.65
-55.67
-51.62
-44.95
-36.7
-28.09
-20.2
-13.62
-8.4
-4.11
-0.22
3.63
7.49
11.13
14.26
16.73
18.62
20.19
21.7
23.33
25.05
26.78
28.47
30.18
31.99
33.98
36.01
37.83
39.09
39.5
39
37.75
36.08
34.34
32.84
31.71
30.88
30.1
29.07
27.55
25.51
23.11
20.7
18.64
17.12
16.09
15.18
13.86
11.64
8.24
3.77
-1.31
-6.37
-10.84
-14.42
-17.18
-19.57
-22.2
-25.64
-30.14
-35.49
-40.97
-45.51
-47.96
-47.45
-43.69
-37.07
-28.58
-19.5
-11.05
-4.05
1.16
4.79
7.31
9.27
11.13
13.08
15.13
17.13
18.94
20.49
21.78
22.87
23.79
24.57
25.23
25.79
26.33
26.93
27.58
28.2
28.69
28.84
28.5
27.54
25.92
23.65
20.85
17.68
14.35
11.04
7.84
4.83
2.02
-0.59
-3.09
-5.64
-8.5
-11.89
-15.96
-20.62
-25.59
-30.51
-35.12
-39.46
-43.83
-48.7
-54.5
-61.28
-68.62
-75.6
-80.98
-83.58
-82.62
-78
-70.38
-60.92
-50.97
-41.65
-33.64
-27.18
-22.18
-18.45
-15.76
-13.94
-12.7
-11.74
-10.74
-9.5
-8.07
-6.68
-5.69
-5.37
-5.74
-6.57
-7.36
-7.55
-6.6
-4.12
0.11
6.07
13.45
21.64
29.8
37.18
43.35
48.59
53.86
60.5
69.54
81.03
93.66
105.03
112.55
114.42
110.41
101.84
91.03
80.33
71.39
64.79
60.21
56.88
53.96
50.88
47.35
43.37
39.02
34.49
29.93
25.58
21.67
18.46
16.12
14.6
13.51
12.26
10.26
7.31
3.7
0.2
-2.31
-3.22
-2.4
-0.19
2.88
6.35
9.97
13.65
17.34
20.95
24.31
27.22
29.51
31.04
31.71
31.46
30.27
28.23
25.58
22.63
19.75
17.29
15.5
14.51
14.26
14.59
15.19
15.78
16.2
16.55
17.1
18.15
19.87
22.13
24.6
26.8
28.33
28.98
28.67
27.35
24.96
21.46
16.88
11.48
5.63
-0.23
-5.77
-10.81
-15.22
-18.85
-21.39
-22.49
-21.92
-19.78
-16.51
-12.84
-9.45
-6.74
-4.74
-3.19
-1.8
-0.42
0.87
1.93
2.65
3.09
3.47
4
4.79
5.74
6.64
7.29
7.65
7.89
8.31
9.19
10.61
12.35
13.94
14.79
14.4
12.51
9.15
4.61
-0.59
-5.85
-10.5
-13.87
-15.39
-14.7
-11.79
-7.03
-1.21
4.7
9.69
13.06
14.53
14.17
12.39
9.66
6.42
3.01
-0.34
-3.48
-6.39
-9.21
-12.24
-15.84
-20.22
-25.26
-30.47
-35.04
-38.22
-39.5
-38.82
-36.56
-33.29
-29.6
-25.92
-22.48
-19.27
-16.24
-13.28
-10.33
-7.4
-4.51
-1.72
0.95
3.5
5.97
8.39
10.69
12.7
14.18
14.88
14.69
13.7
12.18
10.49
8.91
7.57
6.38
5.12
3.64
1.9
0.01
-1.83
-3.44
-4.74
-5.7
-6.4
-6.91
-7.3
-7.61
-7.86
-8.06
-8.2
-8.22
-8.1
-7.84
-7.4
-6.8
-6.01
-5.03
-3.92
-2.85
-2.06
-1.81
-2.31
-3.63
-5.65
-8.13
-10.81
-13.42
-15.69
-17.35
-18.11
-17.74
-16.16
-13.58
-10.45
-7.36
-4.84
-3.12
-2.16
-1.65
-1.23
-0.65
0.18
1.17
2.17
2.96
3.29
2.92
1.67
-0.45
-3.18
-6.05
-8.57
-10.34
-11.27
-11.53
-11.5
-11.56
-11.95
-12.72
-13.71
-14.69
-15.36
-15.5
-14.93
-13.62
-11.74
-9.61
-7.67
-6.24
-5.43
-4.99
-4.43
-3.18
-0.94
2.15
5.54
8.45
10.23
10.61
9.77
8.19
6.43
4.87
3.66
2.8
2.18
1.74
1.45
1.27
1.11
0.8
0.31
-0.2
-0.28
0.67
3.14
7.23
12.53
18.23
23.45
27.66
30.8
33.25
35.52
37.9
40.35
42.51
44
44.61
44.43
43.69
42.66
41.45
40.02
38.26
36.1
33.65
31.11
28.74
26.78
25.34
24.43
23.93
23.64
23.33
22.75
21.77
20.37
18.69
16.99
15.58
14.67
14.31
14.43
14.82
15.3
15.69
15.81
15.48
14.45
12.53
9.72
6.31
2.85
-0.04
-1.92
-2.78
-3.02
-3.3
-4.25
-6.28
-9.44
-13.42
-17.76
-21.89
-25.34
-27.8
-29.23
-29.83
-30.04
-30.37
-31.28
-32.99
-35.46
-38.42
-41.47
-44.26
-46.54
-48.21
-49.26
-49.73
-49.69
-49.21
-48.41
-47.4
-46.33
-45.26
-44.13
-42.78
-41.03
-38.8
-36.2
-33.56
-31.24
-29.5
-28.35
-27.54
-26.71
-25.53
-23.87
-21.76
-19.38
-16.93
-14.5
-12.13
-9.87
-7.78
-6.04
-4.84
-4.34
-4.54
-5.33
-6.52
-7.98
-9.67
-11.71
-14.27
-17.43
-21.08
-24.87
-28.32
-30.91
-32.28
-32.26
-30.9
-28.43
-25.18
-21.54
-17.86
-14.38
-11.21
-8.31
-5.61
-3.04
-0.63
1.55
3.41
4.95
6.25
7.47
8.73
10.12
11.73
13.59
15.71
17.94
20.02
21.67
22.67
22.96
22.71
22.2
21.69
21.28
20.92
20.47
19.84
19.04
18.16
17.26
16.32
15.21
13.81
12.04
9.96
7.71
5.43
3.22
1.1
-1.03
-3.22
-5.54
-8
-10.62
-13.4
-16.32
-19.2
-21.75
-23.52
-24.07
-23.16
-20.81
-17.37
-13.37
-9.41
-5.93
-3.12
-0.94
0.83
2.41
3.97
5.52
7
8.3
9.35
10.14
10.75
11.24
11.68
12.05
12.34
12.54
12.7
12.85
13.04
13.23
13.36
13.3
12.98
12.37
11.52
10.52
9.47
8.44
7.43
6.39
5.21
3.78
2.02
-0.05
-2.31
-4.55
-6.57
-8.31
-9.8
-11.26
-12.9
-14.88
-17.21
-19.75
-22.19
-24.14
-25.19
-25.02
-23.43
-20.51
-16.58
-12.18
-7.85
-4.03
-0.89
1.64
3.74
5.61
7.34
8.94
10.39
11.65
12.74
13.7
14.53
15.22
15.76
16.11
16.27
16.26
16.13
15.97
15.87
15.91
16.07
16.26
16.33
16.1
15.52
14.64
13.59
12.49
11.42
10.33
9.17
7.88
6.42
4.85
3.2
1.5
-0.23
-1.99
-3.78
-5.59
-7.42
-9.28
-11.16
-13.05
-14.95
-16.88
-18.89
-21.01
-23.18
-25.14
-26.48
-26.69
-25.43
-22.69
-18.81
-14.35
-9.93
-5.96
-2.6
0.17
2.44
4.28
5.74
6.93
8
9.15
10.51
12.02
13.49
14.66
15.34
15.58
15.59
15.66
16.02
16.73
17.63
18.47
19.03
19.16
18.91
18.42
17.8
17.12
16.33
15.32
14.04
12.54
10.99
9.57
8.4
7.46
6.6
5.63
4.39
2.89
1.18
-0.59
-2.33
-4.02
-5.71
-7.46
-9.34
-11.34
-13.46
-15.65
-17.89
-20.11
-22.2
-23.98
-25.17
-25.52
-24.81
-23.02
-20.27
-16.84
-13.1
-9.41
-6.09
-3.29
-1.03
0.85
2.53
4.23
6.04
7.89
9.64
11.08
12.11
12.76
13.18
13.6
14.21
15.04
16.02
17
17.82
18.4
18.72
18.77
18.57
18.11
17.4
16.5
15.5
14.53
13.71
13.11
12.66
12.22
11.59
10.59
9.17
7.48
5.8
4.44
3.62
3.3
3.27
3.13
2.56
1.4
-0.29
-2.29
-4.41
-6.52
-8.59
-10.64
-12.63
-14.4
-15.7
-16.27
-15.98
-14.85
-13.07
-10.95
-8.83
-6.95
-5.45
-4.32
-3.48
-2.88
-2.5
-2.4
-2.63
-3.18
-3.91
-4.62
-5.09
-5.21
-4.95
-4.43
-3.78
-3.1
-2.38
-1.55
-0.55
0.62
1.86
3.01
3.91
4.51
4.87
5.19
5.61
6.24
7.07
8.01
8.95
9.77
10.37
10.62
10.37
9.53
8.12
6.27
4.19
2.14
0.34
-1.02
-1.85
-2.09
-1.78
-1.07
-0.24
0.37
0.45
-0.2
-1.49
-3.15
-4.72
-5.8
-6.09
-5.52
-4.19
-2.3
-0.08
2.25
4.53
6.62
8.39
9.76
10.68
11.22
11.49
11.62
11.67
11.68
11.57
11.28
10.79
10.15
9.47
8.9
8.52
8.4
8.55
8.92
9.48
10.19
11
11.79
12.42
12.76
12.72
12.34
11.74
11.11
10.55
10.1
9.73
9.44
9.29
9.44
10.02
11.05
12.35
13.63
14.52
14.84
14.61
14.04
13.44
13.05
12.97
13.14
13.34
13.25
12.58
11.06
8.61
5.35
1.72
-1.66
-4.1
-5.19
-4.9
-3.63
-2.03
-0.68
0.1
0.31
0.18
-0.06
-0.31
-0.59
-0.98
-1.48
-1.99
-2.36
-2.44
-2.1
-1.3
-0.02
1.69
3.72
5.9
8.12
10.22
12.09
13.59
14.52
14.67
13.85
12.01
9.25
5.8
1.94
-2
-5.73
-8.97
-11.53
-13.33
-14.48
-15.18
-15.73
-16.33
-17.09
-17.98
-18.9
-19.68
-20.12
-20.02
-19.26
-17.9
-16.16
-14.38
-12.89
-11.93
-11.61
-11.96
-12.93
-14.29
-15.6
-16.28
-15.77
-13.93
-11.2
-8.52
-6.9
-6.96
-8.53
-10.82
-12.82
-13.74
-13.37
-11.99
-10.12
-8.24
-6.62
-5.42
-4.77
-4.77
-5.48
-6.75
-8.27
-9.61
-10.43
-10.55
-10.02
-9.02
-7.75
-6.42
-5.27
-4.59
-4.65
-5.58
-7.16
-8.88
-10.01
-9.87
-8.12
-4.88
-0.66
3.85
8.01
11.52
14.36
16.74
18.87
20.81
22.41
23.41
23.59
22.86
21.39
19.41
17.22
14.96
12.65
10.23
7.69
5.15
2.91
1.29
0.54
0.69
1.49
2.46
3.11
3.02
1.97
-0.06
-2.95
-6.59
-10.81
-15.39
-20.01
-24.22
-27.56
-29.68
-30.51
-30.24
-29.29
-28.1
-27.05
-26.41
-26.31
-26.8
-27.83
-29.29
-30.89
-32.31
-33.26
-33.59
-33.28
-32.37
-30.88
-28.75
-25.87
-22.26
-18.16
-13.99
-10.27
-7.41
-5.61
-4.79
-4.71
-5.11
-5.74
-6.48
-7.25
-7.93
-8.43
-8.62
-8.59
-8.54
-8.84
-9.82
-11.64
-14.15
-16.96
-19.67
-22.08
-24.25
-26.46
-28.99
-31.9
-35.02
-37.98
-40.45
-42.23
-43.28
-43.65
-43.33
-42.22
-40.15
-37
-32.83
-27.91
-22.7
-17.7
-13.32
-9.76
-6.98
-4.74
-2.77
-0.86
1.03
2.79
4.28
5.46
6.41
7.34
8.46
9.84
11.34
12.59
13.22
12.98
11.82
9.95
7.68
5.3
3.04
1.01
-0.72
-2.07
-2.94
-3.24
-2.94
-2.19
-1.22
-0.36
0.19
0.36
0.29
0.21
0.27
0.44
0.44
-0.09
-1.44
-3.6
-6.29
-9.04
-11.46
-13.43
-15.2
-17.24
-20.08
-23.97
-28.85
-34.32
-39.76
-44.47
-47.79
-49.12
-48.06
-44.47
-38.62
-31.22
-23.27
-15.71
-9.12
-3.56
1.34
6.08
10.99
16.02
20.85
25.05
28.31
30.59
32.06
32.94
33.39
33.55
33.49
33.33
33.21
33.25
33.43
33.57
33.45
32.85
31.72
30.22
28.67
27.4
26.61
26.27
26.15
25.93
25.34
24.2
22.51
20.38
17.98
15.49
12.98
10.45
7.86
5.18
2.4
-0.47
-3.46
-6.67
-10.26
-14.38
-19.08
-24.26
-29.67
-35.01
-39.92
-44.07
-47.13
-48.76
-48.73
-46.99
-43.7
-39.32
-34.46
-29.74
-25.61
-22.23
-19.51
-17.18
-14.91
-12.4
-9.44
-5.91
-1.9
2.42
6.71
10.67
14.07
16.92
19.4
21.84
24.54
27.72
31.34
35.16
38.82
41.83
43.81
44.5
43.92
42.33
40.22
38.05
36.19
34.76
33.6
32.46
31.07
29.26
27
24.39
21.53
18.5
15.29
11.82
8.06
4.08
0.02
-3.94
-7.71
-11.27
-14.72
-18.13
-21.59
-25.05
-28.53
-32.02
-35.41
-38.45
-40.63
-41.29
-39.85
-36.17
-30.59
-23.94
-17.23
-11.27
-6.51
-2.94
-0.29
1.73
3.2
4.04
4.11
3.36
2
0.41
-0.94
-1.74
-1.9
-1.51
-0.82
-0.01
0.78
1.51
2.13
2.62
2.93
3
2.84
2.46
1.87
1.06
0.05
-1.11
-2.33
-3.48
-4.42
-5.02
-5.22
-5.07
-4.72
-4.37
-4.31
-4.72
-5.62
-6.9
-8.3
-9.57
-10.64
-11.6
-12.76
-14.47
-17.05
-20.58
-24.86
-29.29
-32.94
-34.77
-33.88
-29.85
-22.93
-14.07
-4.61
4.16
11.36
16.73
20.54
23.35
25.64
27.69
29.53
31.09
32.33
33.28
34.06
34.76
35.38
35.82
35.92
35.57
34.84
33.98
33.35
33.25
33.76
34.66
35.42
35.43
34.25
31.78
28.31
24.39
20.58
17.25
14.48
12.13
9.97
7.76
5.37
2.75
-0.05
-2.93
-5.78
-8.47
-10.88
-13
-14.95
-16.99
-19.48
-22.73
-26.83
-31.42
-35.71
-38.69
-39.38
-37.25
-32.39
-25.51
-17.7
-9.98
-3.1
2.66
7.4
11.4
14.91
18.06
20.87
23.23
25.08
26.39
27.2
27.65
27.89
28.1
28.36
28.7
29.04
29.3
29.43
29.44
29.44
29.51
29.64
29.67
29.36
28.42
26.73
24.31
21.45
18.51
15.79
13.41
11.23
8.98
6.37
3.26
-0.27
-3.98
-7.47
-10.48
-12.89
-14.9
-16.91
-19.39
-22.73
-27.03
-31.96
-36.78
-40.48
-42.06
-40.8
-36.51
-29.61
-20.99
-11.76
-2.94
4.76
11.06
16.09
20.17
23.59
26.53
28.94
30.66
31.62
31.89
31.73
31.51
31.52
31.86
32.44
33.06
33.55
33.85
34
34.11
34.23
34.29
34.09
33.4
32.06
30.02
27.44
24.62
21.91
19.58
17.7
16.03
14.23
11.94
9.01
5.57
2.02
-1.22
-3.84
-5.8
-7.33
-8.8
-10.64
-13.13
-16.4
-20.4
-24.8
-29.04
-32.3
-33.76
-32.74
-29.1
-23.24
-16.06
-8.64
-1.87
3.74
8.12
11.45
14.02
16.02
17.55
18.64
19.27
19.5
19.34
18.9
18.25
17.54
16.89
16.39
16.07
15.87
15.73
15.56
15.29
14.9
14.39
13.74
12.94
11.98
10.83
9.46
7.82
5.9
3.75
1.44
-0.87
-3.07
-5.08
-6.93
-8.77
-10.82
-13.29
-16.37
-20.17
-24.63
-29.49
-34.25
-38.19
-40.53
-40.63
-38.24
-33.56
-27.29
-20.36
-13.69
-7.92
-3.29
0.29
3.08
5.31
7.05
8.21
8.7
8.49
7.7
6.61
5.51
4.69
4.24
4.19
4.47
4.99
5.67
6.49
7.42
8.42
9.44
10.35
10.95
11
10.26
8.63
6.14
2.98
-0.6
-4.26
-7.72
-10.78
-13.34
-15.47
-17.36
-19.3
-21.66
-24.74
-28.6
-33.01
-37.33
-40.71
-42.33
-41.61
-38.46
-33.31
-26.95
-20.24
-13.93
-8.41
-3.71
0.34
3.94
7.25
10.25
12.85
14.92
16.39
17.31
17.84
18.19
18.59
19.15
19.91
20.82
21.79
22.74
23.6
24.3
24.65
24.44
23.44
21.59
19
16.03
13.11
10.55
8.43
6.52
4.45
1.87
-1.33
-5
-8.76
-12.18
-14.98
-17.06
-18.59
-19.92
-21.47
-23.63
-26.6
-30.26
-34.09
-37.3
-39
-38.47
-35.47
-30.3
-23.77
-16.84
-10.38
-4.93
-0.62
2.7
5.31
7.51
9.55
11.59
13.69
15.82
17.86
19.64
21.03
21.99
22.65
23.22
23.9
24.76
25.69
26.44
26.79
26.61
25.89
24.76
23.35
21.72
19.95
18.09
16.21
14.41
12.71
10.99
9.1
6.88
4.28
1.36
-1.73
-4.87
-7.99
-11.02
-13.96
-16.74
-19.36
-21.88
-24.44
-27.24
-30.45
-34.14
-38.32
-42.86
-47.53
-51.81
-54.94
-55.99
-54.2
-49.34
-41.84
-32.81
-23.62
-15.41
-8.75
-3.57
0.61
4.3
7.76
11
13.89
16.34
18.41
20.19
21.73
22.99
23.82
24.1
23.76
22.88
21.61
20.2
18.88
17.84
17.2
16.94
16.95
17.05
17.09
17.04
16.94
16.81
16.63
16.2
15.31
13.83
11.8
9.43
7.03
4.87
3.1
1.75
0.65
-0.48
-2
-4.24
-7.29
-11.01
-14.96
-18.62
-21.61
-23.83
-25.53
-27.19
-29.3
-32.19
-35.9
-40.2
-44.53
-48.09
-50.01
-49.48
-46.1
-40.06
-32.15
-23.58
-15.53
-8.8
-3.56
0.55
4.16
7.79
11.6
15.41
18.84
21.55
23.4
24.48
25.04
25.35
25.56
25.72
25.8
25.8
25.81
26
26.52
27.42
28.57
29.67
30.37
30.36
29.52
27.94
25.88
23.65
21.47
19.39
17.32
15.18
12.94
10.76
8.8
7.25
6.07
5.01
3.68
1.7
-1.05
-4.45
-8.16
-11.83
-15.18
-18.13
-20.69
-23.01
-25.25
-27.63
-30.43
-33.85
-37.9
-42.22
-46.09
-48.53
-48.65
-46.02
-40.78
-33.67
-25.71
-17.91
-10.93
-5.07
-0.22
3.87
7.49
10.8
13.81
16.45
18.62
20.31
21.57
22.48
23.1
23.43
23.43
23.08
22.52
21.97
21.69
21.85
22.36
22.95
23.22
22.82
21.62
19.7
17.35
14.94
12.8
11.1
9.86
8.89
7.9
6.52
4.48
1.67
-1.74
-5.4
-8.9
-11.94
-14.47
-16.69
-19.01
-21.87
-25.57
-30.2
-35.44
-40.65
-44.91
-47.23
-46.84
-43.46
-37.45
-29.75
-21.57
-14.01
-7.75
-2.92
0.79
3.83
6.64
9.41
12.12
14.63
16.73
18.3
19.3
19.83
20.02
20.06
20.03
19.98
19.92
19.89
20.01
20.36
20.97
21.64
22.05
21.86
20.89
19.27
17.29
15.33
13.54
11.86
10.06
7.87
5.16
2.01
-1.37
-4.74
-7.87
-10.62
-12.96
-14.97
-16.85
-18.92
-21.5
-24.75
-28.64
-32.77
-36.47
-38.93
-39.38
-37.32
-32.73
-26.08
-18.24
-10.29
-3.16
2.6
6.91
10.11
12.67
14.99
17.24
19.38
21.27
22.82
24.06
25.05
25.89
26.6
27.12
27.39
27.4
27.26
27.1
27.07
27.21
27.43
27.54
27.32
26.59
25.3
23.52
21.46
19.33
17.33
15.6
14.07
12.64
11.08
9.2
6.83
3.9
0.47
-3.3
-7.14
-10.78
-14.01
-16.77
-19.12
-21.29
-23.51
-25.97
-28.83
-32.08
-35.69
-39.54
-43.33
-46.55
-48.45
-48.25
-45.44
-40.06
-32.74
-24.6
-16.8
-10.17
-4.97
-0.9
2.59
5.99
9.51
13.02
16.17
18.58
20.09
20.73
20.78
20.62
20.55
20.73
21.12
21.61
22.07
22.48
22.89
23.37
23.89
24.28
24.28
23.65
22.29
20.27
17.83
15.25
12.78
10.56
8.6
6.8
5.05
3.24
1.33
-0.71
-2.89
-5.17
-7.51
-9.85
-12.06
-14.09
-16
-18.03
-20.54
-23.9
-28.26
-33.29
-38.22
-41.93
-43.33
-41.66
-36.87
-29.6
-21.02
-12.47
-4.99
0.8
4.93
7.76
9.82
11.53
13.1
14.5
15.63
16.41
16.92
17.3
17.68
18.13
18.6
19.01
19.33
19.6
19.94
20.43
21.02
21.53
21.68
21.19
19.89
17.83
15.18
12.27
9.45
6.99
5.03
3.46
2.05
0.48
-1.5
-3.97
-6.8
-9.71
-12.41
-14.65
-16.38
-17.71
-18.97
-20.54
-22.81
-25.99
-30.03
-34.44
-38.36
-40.74
-40.64
-37.55
-31.65
-23.84
-15.38
-7.55
-1.17
3.55
6.86
9.27
11.14
12.62
13.69
14.29
14.51
14.59
14.8
15.27
16.01
16.86
17.68
18.41
19.1
19.8
20.55
21.23
21.67
21.64
20.97
19.6
17.63
15.26
12.77
10.44
8.54
7.18
6.31
5.67
4.83
3.4
1.11
-2.03
-5.7
-9.42
-12.73
-15.44
-17.61
-19.58
-21.73
-24.36
-27.63
-31.44
-35.47
-39.11
-41.58
-42.04
-39.89
-35.04
-28.03
-19.94
-12
-5.21
-0.04
3.6
6.14
8.11
9.86
11.49
12.93
14.07
14.9
15.51
16.05
16.67
17.37
18.05
18.56
18.77
18.74
18.64
18.7
19.03
19.56
19.95
19.82
18.87
17.02
14.48
11.58
8.7
6.13
3.98
2.21
0.66
-0.92
-2.78
-5.11
-7.96
-11.15
-14.34
-17.13
-19.22
-20.56
-21.38
-22.12
-23.32
-25.43
-28.64
-32.77
-37.2
-40.91
-42.76
-41.85
-37.88
-31.3
-23.28
-15.16
-8.06
-2.52
1.61
4.83
7.65
10.33
12.86
15.05
16.77
18.03
18.97
19.77
20.49
21.09
21.51
21.74
21.89
22.13
22.64
23.45
24.46
25.39
25.95
25.9
25.11
23.62
21.59
19.27
16.93
14.77
12.89
11.27
9.77
8.21
6.46
4.49
2.35
0.17
-2
-4.13
-6.27
-8.51
-10.89
-13.41
-15.99
-18.51
-20.81
-22.82
-24.52
-26.06
-27.74
-30
-33.2
-37.53
-42.73
-48.09
-52.55
-54.95
-54.43
-50.71
-44.16
-35.67
-26.43
-17.55
-9.83
-3.66
1.06
4.71
7.78
10.76
13.89
17.2
20.46
23.31
25.44
26.72
27.25
27.31
27.27
27.39
27.82
28.59
29.68
31
32.47
33.92
35.04
35.48
34.89
33.07
30.09
26.29
22.2
18.35
15.18
12.88
11.39
10.44
9.69
8.8
7.55
5.87
3.9
1.83
-0.11
-1.8
-3.26
-4.66
-6.25
-8.25
-10.75
-13.67
-16.79
-19.83
-22.58
-24.96
-27.03
-28.97
-31.02
-33.43
-36.42
-40.11
-44.36
-48.65
-52.16
-53.89
-53.01
-49.2
-42.83
-34.84
-26.4
-18.5
-11.7
-6.11
-1.52
2.32
5.57
8.41
10.98
13.49
16.13
18.97
21.87
24.6
26.89
28.54
29.54
29.98
30.02
29.85
29.65
29.53
29.52
29.56
29.48
29.12
28.35
27.15
25.63
23.94
22.18
20.41
18.64
16.91
15.26
13.74
12.32
10.91
9.38
7.62
5.68
3.72
1.93
0.45
-0.79
-2.01
-3.49
-5.47
-8.02
-11.03
-14.27
-17.47
-20.44
-23.09
-25.44
-27.62
-29.86
-32.46
-35.73
-39.82
-44.59
-49.54
-53.8
-56.32
-56.2
-52.95
-46.78
-38.47
-29.21
-20.22
-12.39
-6.08
-1.21
2.65
5.94
9.03
12.11
15.16
18.09
20.73
22.9
24.52
25.57
26.15
26.42
26.56
26.72
27.06
27.65
28.52
29.57
30.57
31.19
31.15
30.33
28.81
26.91
25.01
23.37
22.04
20.88
19.73
18.41
16.9
15.2
13.36
11.43
9.44
7.44
5.49
3.65
1.95
0.33
-1.31
-3.08
-5.06
-7.29
-9.75
-12.44
-15.32
-18.29
-21.22
-23.93
-26.32
-28.41
-30.48
-32.93
-36.12
-40.16
-44.74
-49.06
-52.06
-52.72
-50.45
-45.25
-37.8
-29.2
-20.64
-13.02
-6.85
-2.09
1.57
4.62
7.47
10.35
13.27
16.08
18.55
20.5
21.87
22.69
23.1
23.25
23.3
23.38
23.64
24.21
25.12
26.28
27.44
28.27
28.53
28.09
27.02
25.51
23.78
22
20.27
18.67
17.25
16.06
15.06
14.12
13.06
11.68
9.93
7.86
5.7
3.65
1.82
0.18
-1.46
-3.31
-5.54
-8.16
-11.04
-13.96
-16.68
-19.06
-21.11
-22.95
-24.8
-26.93
-29.48
-32.56
-36.11
-39.99
-43.92
-47.39
-49.77
-50.34
-48.53
-44.13
-37.46
-29.33
-20.75
-12.67
-5.65
0.13
4.79
8.54
11.49
13.69
15.23
16.27
17.06
17.82
18.66
19.52
20.3
20.93
21.46
22.03
22.77
23.74
24.88
26.04
27.01
27.6
27.64
27.05
25.85
24.22
22.4
20.67
19.19
17.96
16.88
15.81
14.65
13.4
12.06
10.6
8.93
6.92
4.54
1.92
-0.72
-3.07
-4.96
-6.41
-7.66
-9.08
-10.94
-13.34
-16.05
-18.74
-21.06
-22.87
-24.31
-25.77
-27.73
-30.59
-34.43
-38.97
-43.52
-47.18
-48.98
-48.26
-44.77
-38.84
-31.28
-23.1
-15.26
-8.42
-2.86
1.5
4.94
7.79
10.3
12.61
14.72
16.59
18.15
19.37
20.23
20.76
21
21.03
20.99
21.05
21.41
22.21
23.42
24.83
26.05
26.68
26.45
25.35
23.59
21.58
19.69
18.14
16.92
15.79
14.49
12.82
10.79
8.57
6.38
4.37
2.57
0.87
-0.84
-2.68
-4.73
-7.03
-9.56
-12.23
-14.88
-17.31
-19.34
-20.95
-22.28
-23.67
-25.51
-28.11
-31.54
-35.54
-39.52
-42.64
-44.05
-43.06
-39.43
-33.46
-25.89
-17.79
-10.13
-3.62
1.45
5.19
7.87
9.88
11.5
12.91
14.16
15.24
16.11
16.72
17.08
17.23
17.31
17.5
17.9
18.54
19.35
20.2
20.9
21.28
21.2
20.57
19.39
17.79
15.98
14.21
12.66
11.4
10.29
9.14
7.73
5.98
3.99
1.96
0.13
-1.45
-2.86
-4.34
-6.11
-8.26
-10.7
-13.16
-15.38
-17.21
-18.68
-19.98
-21.38
-23.19
-25.59
-28.68
-32.28
-35.96
-38.95
-40.36
-39.4
-35.75
-29.71
-22.14
-14.21
-6.96
-1.05
3.39
6.64
9.09
11.07
12.66
13.82
14.45
14.63
14.57
14.56
14.82
15.34
15.95
16.43
16.72
16.92
17.33
18.17
19.41
20.76
21.75
22
21.38
20.05
18.36
16.61
14.95
13.35
11.71
9.94
8.09
6.25
4.47
2.75
0.9
-1.27
-3.92
-7.02
-10.32
-13.47
-16.13
-18.17
-19.72
-21.1
-22.72
-24.95
-28.03
-31.99
-36.64
-41.48
-45.74
-48.44
-48.68
-45.91
-40.25
-32.49
-23.84
-15.57
-8.58
-3.24
0.64
3.5
5.86
8.05
10.22
12.37
14.45
16.42
18.24
19.9
21.32
22.38
23.01
23.25
23.27
23.35
23.72
24.42
25.24
25.83
25.84
25.15
23.88
22.31
20.71
19.19
17.64
15.92
13.9
11.63
9.28
7.04
5.02
3.22
1.5
-0.32
-2.38
-4.72
-7.32
-10.04
-12.72
-15.24
-17.51
-19.54
-21.41
-23.3
-25.46
-28.14
-31.56
-35.73
-40.35
-44.69
-47.72
-48.44
-46.21
-41.06
-33.71
-25.4
-17.36
-10.52
-5.22
-1.31
1.72
4.36
6.96
9.64
12.35
14.99
17.45
19.69
21.67
23.35
24.67
25.59
26.18
26.55
26.93
27.44
28.09
28.74
29.18
29.21
28.76
27.81
26.46
24.8
22.91
20.91
18.95
17.16
15.59
14.19
12.8
11.24
9.38
7.21
4.87
2.57
0.52
-1.18
-2.59
-3.97
-5.63
-7.84
-10.63
-13.79
-16.96
-19.82
-22.21
-24.3
-26.41
-28.94
-32.17
-36.12
-40.5
-44.63
-47.65
-48.6
-46.8
-42.04
-34.82
-26.17
-17.39
-9.57
-3.26
1.56
5.34
8.62
11.73
14.71
17.4
19.69
21.55
23.15
24.65
26.12
27.47
28.57
29.36
29.97
30.69
31.74
33.2
34.85
36.26
36.98
36.74
35.52
33.54
31.15
28.66
26.31
24.18
22.24
20.39
18.46
16.33
13.92
11.2
8.26
5.29
2.5
0.03
-2.09
-4.02
-6.08
-8.55
-11.59
-15.09
-18.76
-22.16
-25.01
-27.28
-29.24
-31.34
-34.04
-37.59
-41.9
-46.51
-50.58
-53.15
-53.32
-50.6
-45.05
-37.34
-28.54
-19.77
-11.95
-5.53
-0.52
3.37
6.54
9.29
11.77
14
15.95
17.59
18.94
20.07
21.01
21.8
22.43
22.94
23.4
23.88
24.38
24.85
25.13
25.06
24.61
23.8
22.75
21.56
20.24
18.76
17.05
15.13
13.04
10.86
8.66
6.49
4.41
2.47
0.74
-0.83
-2.44
-4.34
-6.74
-9.67
-12.89
-16.05
-18.83
-21.12
-23.1
-25.1
-27.52
-30.58
-34.33
-38.54
-42.73
-46.23
-48.25
-48.07
-45.28
-39.92
-32.57
-24.18
-15.78
-8.16
-1.76
3.39
7.52
10.9
13.75
16.14
18.07
19.53
20.58
21.4
22.14
22.93
23.81
24.75
25.66
26.53
27.39
28.27
29.16
29.92
30.35
30.29
29.65
28.46
26.82
24.84
22.69
20.53
18.49
16.66
14.98
13.27
11.29
8.9
6.1
3.15
0.39
-1.9
-3.68
-5.15
-6.71
-8.74
-11.42
-14.68
-18.21
-21.65
-24.67
-27.21
-29.42
-31.64
-34.3
-37.67
-41.76
-46.13
-49.97
-52.18
-51.8
-48.3
-41.85
-33.33
-23.99
-15.09
-7.53
-1.61
2.84
6.27
9.15
11.8
14.32
16.7
18.84
20.62
22
23.02
23.78
24.43
25.09
25.83
26.66
27.52
28.32
29
29.47
29.68
29.54
28.97
27.9
26.3
24.21
21.8
19.31
17.02
15.1
13.57
12.25
10.91
9.27
7.21
4.78
2.12
-0.56
-3.13
-5.51
-7.7
-9.76
-11.76
-13.81
-16.03
-18.53
-21.36
-24.51
-27.89
-31.42
-35.04
-38.87
-43.1
-48.01
-53.78
-60.29
-66.98
-72.91
-76.95
-78.15
-76.12
-71.17
-64.22
-56.55
-49.26
-43.13
-38.36
-34.8
-32.11
-30.01
-28.38
-27.15
-26.33
-25.8
-25.39
-24.91
-24.31
-23.55
-22.65
-21.47
-19.7
-16.96
-12.95
-7.55
-0.95
6.52
14.47
22.58
30.59
38.26
45.23
51.13
55.62
58.52
59.85
59.81
58.64
56.49
53.46
49.68
45.35
40.78
36.3
32.21
28.57
25.21
21.85
18.23
14.26
10.07
5.94
2.17
-1.06
-3.88
-6.65
-9.91
-14.14
-19.54
-25.79
-32.01
-36.96
-39.42
-38.54
-34.27
-27.28
-18.74
-9.96
-2.01
4.5
9.42
12.92
15.42
17.41
19.32
21.39
23.62
25.76
27.48
28.56
29.07
29.29
29.58
30.24
31.34
32.81
34.52
36.34
38.14
39.65
40.54
40.47
39.26
37.03
34.19
31.26
28.61
26.36
24.33
22.25
19.86
17.09
14.06
11
8.12
5.53
3.22
1.01
-1.35
-4.06
-7.26
-10.89
-14.75
-18.57
-22.1
-25.21
-27.98
-30.7
-33.81
-37.73
-42.65
-48.33
-53.96
-58.29
-59.98
-58.04
-52.23
-43.22
-32.33
-21.15
-11.06
-2.85
3.28
7.62
10.73
13.16
15.35
17.57
19.9
22.26
24.49
26.39
27.86
28.89
29.55
30
30.4
30.87
31.52
32.4
33.41
34.35
34.95
34.9
34.06
32.46
30.34
28.06
25.93
24.06
22.41
20.79
18.97
16.8
14.27
11.54
8.8
6.24
3.96
1.9
-0.1
-2.29
-4.88
-7.98
-11.49
-15.17
-18.7
-21.84
-24.53
-26.95
-29.45
-32.46
-36.33
-41.18
-46.71
-52.22
-56.62
-58.7
-57.49
-52.61
-44.42
-34.06
-23.02
-12.74
-4.18
2.33
7.07
10.63
13.63
16.47
19.29
21.96
24.25
25.97
27.08
27.66
27.9
28.01
28.14
28.4
28.87
29.61
30.64
31.85
33
33.81
34
33.44
32.19
30.45
28.44
26.31
24.17
22.08
20.07
18.17
16.32
14.43
12.34
10.05
7.67
5.43
3.55
2.06
0.75
-0.73
-2.71
-5.33
-8.47
-11.82
-15.03
-17.86
-20.32
-22.57
-24.94
-27.76
-31.3
-35.7
-40.87
-46.38
-51.48
-55.11
-56.22
-54.04
-48.43
-39.95
-29.78
-19.34
-9.92
-2.27
3.44
7.54
10.6
13.15
15.55
17.95
20.33
22.6
24.65
26.34
27.63
28.47
28.93
29.12
29.16
29.16
29.18
29.22
29.24
29.19
28.99
28.54
27.74
26.52
24.87
22.89
20.75
18.64
16.67
14.86
13.11
11.32
9.4
7.38
5.36
3.48
1.83
0.38
-1.07
-2.78
-5.02
-7.93
-11.38
-15.12
-18.74
-21.94
-24.59
-26.81
-28.93
-31.41
-34.69
-39
-44.28
-49.97
-55.1
-58.41
-58.78
-55.58
-49.03
-40.11
-30.24
-20.82
-12.75
-6.32
-1.26
2.92
6.66
10.2
13.57
16.68
19.45
21.85
23.91
25.67
27.12
28.24
28.97
29.33
29.44
29.51
29.79
30.44
31.41
32.41
33.06
33.03
32.18
30.62
28.61
26.4
24.16
21.9
19.58
17.15
14.66
12.19
9.87
7.74
5.73
3.75
1.68
-0.55
-2.94
-5.43
-7.96
-10.4
-12.71
-14.86
-16.89
-18.94
-21.22
-24.01
-27.55
-31.99
-37.14
-42.43
-46.95
-49.6
-49.4
-45.88
-39.26
-30.48
-20.93
-11.99
-4.66
0.72
4.43
7.07
9.31
11.57
13.93
16.22
18.19
19.63
20.47
20.81
20.82
20.69
20.57
20.57
20.76
21.12
21.58
21.99
22.23
22.17
21.76
21.03
20.05
18.88
17.56
16.13
14.6
13.01
11.33
9.52
7.56
5.46
3.33
1.31
-0.47
-1.97
-3.36
-4.87
-6.7
-8.9
-11.36
-13.83
-16.13
-18.15
-19.99
-21.86
-24.05
-26.82
-30.37
-34.65
-39.29
-43.53
-46.37
-46.82
-44.32
-38.94
-31.47
-23.11
-15.12
-8.41
-3.35
0.16
2.56
4.32
5.81
7.24
8.64
9.98
11.22
12.31
13.25
14.02
14.68
15.24
15.74
16.23
16.73
17.23
17.68
17.99
18.08
17.86
17.26
16.23
14.78
12.94
10.81
8.49
6.13
3.89
1.88
0.12
-1.5
-3.16
-5.09
-7.45
-10.29
-13.48
-16.76
-19.85
-22.58
-24.98
-27.3
-29.91
-33.16
-37.2
-42.01
-47.31
-52.62
-57.34
-60.77
-62.21
-61.15
-57.42
-51.26
-43.24
-34.05
-24.26
-14.13
-3.71
7.05
17.94
28.41
37.63
44.74
49.08
50.38
48.8
44.76
38.93
31.93
24.39
16.87
9.81
3.56
-1.59
-5.46
-7.89
-8.8
-8.18
-6.19
-3.09
0.7
4.76
8.65
12.09
14.8
16.6
17.28
16.7
14.82
11.82
8.06
4.02
0.07
-3.63
-7.19
-10.9
-15.02
-19.65
-24.73
-30.04
-35.34
-40.39
-44.82
-48.13
-49.65
-48.73
-44.97
-38.5
-29.98
-20.44
-10.93
-2.18
5.62
12.69
19.38
25.83
31.8
36.83
40.49
42.73
43.97
44.95
46.35
48.52
51.36
54.49
57.59
60.62
63.84
67.63
72.15
77.16
82.06
86.08
88.56
89.19
88.08
85.77
83.02
80.68
79.46
79.74
81.46
84.07
86.67
88.21
87.78
84.9
79.69
72.85
65.57
59.16
54.62
52.44
52.46
54.09
56.63
59.45
62.16
64.52
66.37
67.52
67.8
67.14
65.61
63.35
60.45
56.86
52.46
47.19
41.24
35.1
29.41
24.66
20.9
17.65
14.06
9.25
2.71
-5.52
-14.89
-24.63
-34.05
-42.75
-50.67
-57.93
-64.72
-71.09
-76.9
-81.83
-85.42
-87.2
-86.84
-84.36
-80.27
-75.58
-71.57
-69.34
-69.35
-71.12
-73.3
-74.08
-71.91
-66
-56.68
-45.32
-33.82
-24.17
-18.02
-16.44
-19.86
-28.2
-40.91
-57.14
-75.96
-96.49
-118.11
-140.36
-162.82
-184.98
-206.17
-225.77
-243.26
-258.27
-270.19
-277.92
-279.71
-273.68
-258.58
-234.65
-203.97
-169.97
-136.42
-106.24
-80.82
-60.2
-43.7
-30.78
-21.38
-15.71
-13.75
-14.72
-17
-18.59
-17.81
-14
-7.76
-0.76
5.04
8.09
7.96
5.5
2.51
0.98
2.4
7.19
14.63
23.22
31.36
37.9
42.5
45.55
47.84
50.11
52.77
55.82
59.03
62.13
65.01
67.69
70.2
72.47
74.26
75.37
75.74
75.62
75.43
75.58
76.18
77.02
77.65
77.65
76.97
75.89
75.01
74.85
75.65
77.29
79.36
81.34
82.81
83.56
83.49
82.71
81.43
80.06
79.16
79.37
81.11
84.17
87.49
89.18
87.09
79.49
65.76
46.56
23.6
-0.98
-25.04
-46.65
-64.02
-75.41
-79.37
-75.26
-63.87
-47.62
-30.24
-15.74
-7.27
-6.2
-11.85
-21.88
-33.16
-42.79
-48.87
-50.88
-49.48
-46.08
-42.14
-38.68
-36.04
-34.01
-32.04
-29.63
-26.43
-22.31
-17.34
-11.71
-5.67
0.41
6.09
10.9
14.5
16.71
17.6
17.43
16.54
15.32
14.07
12.96
11.98
10.89
9.37
7.09
3.88
-0.11
-4.49
-8.68
-12.17
-14.7
-16.41
-17.76
-19.44
-22.1
-26.1
-31.3
-36.96
-41.82
-44.44
-43.6
-38.77
-30.36
-19.61
-8.17
2.41
11.11
17.61
22.13
25.13
27.03
28.09
28.47
28.34
27.88
27.31
26.8
26.38
26.06
25.81
25.68
25.77
26.17
26.88
27.76
28.63
29.34
29.84
30.1
29.97
29.07
26.82
22.76
16.8
9.39
1.45
-5.95
-12.04
-16.56
-19.7
-21.95
-23.67
-24.99
-25.87
-26.35
-26.76
-27.72
-29.8
-33.17
-37.33
-41.12
-43.14
-42.25
-38.09
-31.17
-22.67
-14.05
-6.44
-0.52
3.58
6.06
7.14
7.03
5.85
3.81
1.25
-1.36
-3.56
-5.05
-5.77
-5.76
-4.92
-2.86
1.11
7.76
17.46
29.8
43.45
56.38
66.42
71.92
72.13
67.29
58.36
46.63
33.39
19.88
7.34
-2.92
-9.69
-12.16
-10.26
-4.87
2.26
8.9
12.9
12.86
8.53
0.97
-7.87
-15.79
-21.2
-23.65
-23.82
-23.17
-23.25
-25.17
-29.35
-35.47
-42.75
-50.1
-56.39
-60.64
-62.22
-61
-57.32
-51.78
-45.03
-37.57
-29.74
-21.79
-13.96
-6.49
0.44
6.71
12.26
17.02
20.81
23.43
24.76
24.76
23.57
21.42
18.55
15.16
11.42
7.49
3.57
-0.15
-3.48
-6.29
-8.57
-10.47
-12.24
-14.26
-16.87
-20.24
-24.23
-28.27
-31.41
-32.59
-30.91
-25.97
-18.05
-8.06
2.59
12.32
19.8
24.32
25.99
25.72
24.88
24.74
26.06
28.84
32.47
36.16
39.36
41.98
44.3
46.7
49.33
52.07
54.49
56.18
56.87
56.54
55.39
53.62
51.3
48.33
44.49
39.69
34.04
27.98
22.12
16.99
12.83
9.48
6.52
3.47
0.02
-3.8
-7.74
-11.4
-14.45
-16.79
-18.56
-20.13
-21.99
-24.61
-28.24
-32.77
-37.7
-42.17
-45.13
-45.65
-43.23
-37.97
-30.53
-21.93
-13.24
-5.29
1.45
6.86
11.05
14.29
16.86
19.03
20.98
22.77
24.4
25.79
26.89
27.71
28.26
28.56
28.59
28.36
27.94
27.53
27.3
27.35
27.55
27.56
27.03
25.75
23.86
21.8
20.09
19.08
18.76
18.78
18.61
17.79
16.05
13.36
9.95
6.2
2.6
-0.4
-2.48
-3.63
-4.15
-4.58
-5.45
-7.05
-9.28
-11.77
-14.04
-15.87
-17.39
-19.04
-21.35
-24.61
-28.63
-32.77
-36.07
-37.64
-36.91
-33.85
-28.93
-22.86
-16.35
-9.93
-3.86
1.72
6.67
10.83
14.06
16.29
17.66
18.45
19.04
19.69
20.53
21.47
22.31
22.88
23.11
23.08
23.03
23.22
23.78
24.64
25.56
26.13
26.08
25.24
23.67
21.64
19.45
17.42
15.73
14.42
13.31
12.08
10.3
7.56
3.71
-1.05
-6.12
-10.69
-14.01
-15.68
-15.71
-14.49
-12.57
-10.44
-8.43
-6.77
-5.65
-5.34
-6.16
-8.35
-11.93
-16.69
-22.13
-27.6
-32.37
-35.75
-37.2
-36.48
-33.65
-29.1
-23.44
-17.33
-11.37
-5.94
-1.27
2.52
5.37
7.29
8.37
8.85
9.06
9.28
9.68
10.29
10.98
11.6
12.06
12.36
12.59
12.84
13.19
13.66
14.2
14.71
15
14.87
14.17
12.87
11.16
9.32
7.73
6.64
6.11
6.01
6.01
5.76
4.9
3.17
0.42
-3.34
-7.85
-12.66
-17.11
-20.58
-22.71
-23.49
-23.26
-22.52
-21.74
-21.18
-20.91
-20.91
-21.09
-21.29
-21.27
-20.62
-18.87
-15.68
-11.02
-5.3
0.81
6.52
11.25
14.65
16.66
17.4
17.06
15.89
14.17
12.21
10.37
8.92
8.01
7.57
7.41
7.28
7.01
6.63
6.36
6.51
7.32
8.85
10.91
13.04
14.6
14.94
13.54
10.16
5.08
-0.98
-6.93
-11.65
-14.42
-15.12
-14.22
-12.5
-10.61
-8.91
-7.39
-5.93
-4.62
-3.77
-3.91
-5.49
-8.65
-13.18
-18.52
-24.03
-29.03
-32.94
-35.31
-35.88
-34.57
-31.55
-27.26
-22.27
-17.15
-12.4
-8.33
-4.99
-2.25
0.21
2.76
5.74
9.32
13.45
17.85
22.02
25.36
27.37
27.77
26.59
24.22
21.27
18.37
16.07
14.69
14.27
14.65
15.48
16.32
16.8
16.65
15.76
14.2
12.13
9.7
6.98
4.02
0.83
-2.46
-5.62
-8.41
-10.72
-12.59
-14.24
-15.97
-17.99
-20.44
-23.32
-26.58
-30.13
-33.85
-37.46
-40.51
-42.4
-42.52
-40.51
-36.42
-30.76
-24.41
-18.27
-13.01
-8.96
-6.01
-3.83
-2.08
-0.46
1.14
2.73
4.28
5.79
7.24
8.63
9.92
11.06
12.06
12.94
13.83
14.83
15.97
17.12
18.01
18.34
17.89
16.68
14.93
12.99
11.18
9.6
8.17
6.6
4.61
2.07
-0.87
-3.83
-6.34
-8.04
-8.94
-9.44
-10.21
-11.91
-14.86
-18.9
-23.36
-27.41
-30.36
-32.04
-32.89
-33.85
-35.98
-40.04
-46.02
-53.04
-59.52
-63.67
-64.13
-60.57
-53.86
-45.77
-38.27
-32.64
-28.81
-25.19
-18.99
-7.09
12.65
40.4
73.63
107.13
134.15
148.22
145.31
125.34
92.36
53.58
17.26
-9.65
-23.26
-23.26
-12.37
4.95
23.93
40.46
51.68
56.12
53.49
44.49
30.59
13.74
-3.79
-19.63
-31.64
-38.28
-39.08
-34.82
-27.4
-19.06
-11.73
-6.42
-3.1
-1.19
-0.23
-0.26
-1.78
-5.23
-10.5
-16.93
-23.45
-29.11
-33.39
-36.17
-37.58
-37.81
-37.2
-36.36
-36.25
-37.87
-41.84
-47.98
-55.28
-62.18
-67.14
-69.07
-67.63
-63.13
-56.33
-48.1
-39.32
-30.72
-22.84
-16.03
-10.42
-5.97
-2.56
0
1.86
3.13
4
4.67
5.4
6.36
7.53
8.62
9.19
8.8
7.27
4.75
1.65
-1.57
-4.68
-7.8
-11.27
-15.49
-20.7
-26.9
-33.95
-41.72
-50.17
-59.2
-68.38
-76.79
-83.15
-86.09
-84.72
-78.97
-69.65
-58.11
-45.81
-33.87
-22.94
-13.28
-4.91
2.27
8.53
14.36
20.53
27.89
36.95
47.64
59.12
70.06
78.99
84.8
87.03
85.99
82.58
78
73.38
69.54
66.77
64.89
63.4
61.89
60.22
58.6
57.43
56.95
57.03
57.18
56.84
55.7
53.87
51.78
49.93
48.56
47.66
46.98
46.23
45.27
44.07
42.64
41.05
39.38
37.7
36.04
34.4
32.62
30.5
27.93
24.96
21.86
19
16.75
15.28
14.61
14.6
15.07
15.81
16.62
17.32
17.88
18.63
20.26
23.59
29.16
36.71
45.03
52.14
55.93
54.87
48.46
37.33
22.89
6.77
-9.64
-25.3
-39.49
-51.5
-60.59
-66.06
-67.53
-65.18
-59.91
-53.08
-46.12
-40.08
-35.26
-31.35
-27.75
-24.06
-20.32
-17.02
-14.71
-13.64
-13.48
-13.44
-12.59
-10.24
-6.3
-1.3
3.77
7.86
10.19
10.5
9.1
6.7
4.2
2.35
1.59
2
3.25
4.84
6.18
6.86
6.7
5.89
4.81
3.9
3.36
3.19
3.25
3.46
3.93
4.8
6.04
7.27
7.84
7.18
5.24
2.63
0.43
-0.29
1.15
4.9
10.81
18.7
28.58
40.54
54.5
70.04
86.43
102.87
118.72
133.63
147.44
159.97
170.87
179.64
185.73
188.69
188.23
184.17
176.34
164.49
148.43
128.32
104.99
80.11
55.85
34.33
16.89
3.66
-6.39
-14.84
-23.16
-32.08
-41.58
-51.16
-60.34
-69.07
-77.78
-87.07
-97.34
-108.49
-119.95
-131.02
-141.11
-149.92
-157.2
-162.53
-165.11
-164
-158.65
-149.48
-138.1
-126.88
-118.2
-113.59
-113.33
-116.47
-121.33
-126.08
-129.14
-129.5
-126.78
-121.17
-113.34
-104.11
-94.15
-83.85
-73.39
-62.91
-52.76
-43.44
-35.43
-28.93
-23.81
-19.72
-16.31
-13.45
-11.11
-9.4
-8.32
-7.73
-7.47
-7.39
-7.35
-7.32
-7.26
-7.18
-7.12
-7.1
-7.02
-6.75
-6.11
-5.08
-3.85
-2.76
-2.11
-2.05
-2.44
-3.06
-3.74
-4.46
-5.3
-6.29
-7.29
-8.05
-8.43
-8.54
-8.79
-9.69
-11.64
-14.67
-18.52
-22.65
-26.45
-29.3
-30.59
-29.88
-26.97
-22.04
-15.7
-8.82
-2.25
3.44
8.07
11.8
14.91
17.67
20.24
22.72
25.19
27.68
30.17
32.55
34.65
36.33
37.6
38.55
39.3
39.93
40.4
40.66
40.69
40.49
40.09
39.49
38.52
36.98
34.67
31.58
27.86
23.87
19.99
16.56
13.71
11.45
9.66
8.23
7.06
6.04
5.08
4.05
2.83
1.37
-0.27
-1.92
-3.41
-4.67
-5.73
-6.77
-7.96
-9.39
-11.1
-13.12
-15.57
-18.63
-22.5
-27.07
-31.81
-35.83
-38.14
-37.99
-35.26
-30.46
-24.52
-18.35
-12.62
-7.51
-2.97
1.13
4.84
8.11
10.9
13.33
15.64
18.12
20.94
24.09
27.38
30.56
33.44
35.93
38.07
39.96
41.72
43.44
45.18
46.93
48.65
50.19
51.36
51.94
51.82
51.03
49.81
48.56
47.76
47.75
48.65
50.19
51.86
53.11
53.61
53.42
52.89
52.47
52.46
52.83
53.35
53.83
54.32
55.02
55.85
56.24
55.19
51.81
45.88
37.95
29
19.59
9.47
-2.33
-16.71
-33.63
-51.86
-69.41
-84.53
-96.43
-105.38
-112.07
-116.8
-119.07
-117.88
-112.49
-103.04
-90.77
-77.55
-65.24
-55.04
-47.18
-41.07
-35.66
-30.05
-23.79
-17.01
-10.26
-4.23
0.65
4.28
6.92
8.98
10.74
12.34
13.77
15.05
16.32
17.85
19.82
22.12
24.3
25.72
25.8
24.38
21.83
18.92
16.45
14.94
14.37
14.35
14.32
13.92
13.05
11.83
10.42
8.9
7.22
5.37
3.41
1.55
-0
-1.11
-1.92
-2.73
-3.92
-5.76
-8.3
-11.29
-14.36
-17.12
-19.34
-21.03
-22.49
-24.11
-26.29
-29.22
-32.91
-37.24
-42.02
-47.01
-51.92
-56.25
-59.33
-60.48
-59.18
-55.35
-49.46
-42.39
-35.17
-28.68
-23.46
-19.69
-17.24
-15.79
-14.94
-14.26
-13.35
-11.96
-10.14
-8.26
-6.9
-6.67
-7.82
-10.1
-12.72
-14.62
-14.93
-13.34
-10.25
-6.73
-4.01
-3.08
-4.27
-6.93
-9.46
-9.48
-4.46
7.54
26.84
51.6
77.88
100.49
114.58
117.09
107.7
88.78
64.4
38.99
16.23
-1.61
-13.58
-19.82
-21.09
-18.55
-13.55
-7.52
-1.82
2.46
4.62
4.47
2.34
-1.04
-4.77
-8.1
-10.69
-12.68
-14.63
-17.17
-20.71
-25.21
-30.26
-35.26
-39.66
-43.1
-45.41
-46.52
-46.33
-44.75
-41.82
-37.74
-32.98
-28.11
-23.68
-20.03
-17.29
-15.32
-13.9
-12.86
-12.09
-11.59
-11.39
-11.5
-11.86
-12.41
-13.09
-13.89
-14.87
-16.04
-17.4
-18.91
-20.49
-22.1
-23.69
-25.17
-26.31
-26.79
-26.22
-24.27
-20.81
-15.91
-9.83
-2.97
4.25
11.39
18.12
24.23
29.69
34.6
39.16
43.47
47.54
51.21
54.31
56.69
58.26
58.82
58
55.34
50.53
43.78
35.89
28.08
21.44
16.5
13.03
10.35
7.81
5.25
3.11
2.09
2.66
4.75
7.7
10.71
13.18
14.99
16.42
17.93
19.83
22.13
24.59
26.88
28.66
29.77
30.17
29.96
29.32
28.45
27.52
26.59
25.65
24.62
23.53
22.47
21.58
20.98
20.57
20.08
19.11
17.37
14.83
11.77
8.66
5.96
3.86
2.26
0.88
-0.6
-2.32
-4.23
-6.16
-7.96
-9.54
-10.93
-12.17
-13.24
-14.07
-14.57
-14.77
-14.81
-14.91
-15.22
-15.66
-15.87
-15.33
-13.54
-10.31
-5.88
-0.84
4.06
8.21
11.28
13.31
14.55
15.33
15.88
16.36
16.8
17.21
17.59
17.91
18.13
18.19
18.07
17.78
17.4
17.06
16.81
16.63
16.43
16.01
15.21
13.94
12.24
10.28
8.31
6.57
5.16
4.04
3.06
2.01
0.76
-0.69
-2.25
-3.77
-5.12
-6.25
-7.21
-8.09
-9.01
-10.17
-11.75
-13.94
-16.78
-20.05
-23.24
-25.69
-26.79
-26.18
-23.91
-20.35
-16.03
-11.45
-7
-2.91
0.67
3.66
6.03
7.86
9.29
10.51
11.62
12.62
13.46
14.09
14.57
15.01
15.55
16.25
17.03
17.75
18.26
18.51
18.56
18.45
18.22
17.9
17.46
16.89
16.25
15.53
14.71
13.74
12.55
11.13
9.58
7.98
6.44
4.99
3.63
2.28
0.9
-0.61
-2.29
-4.2
-6.33
-8.59
-10.83
-12.94
-14.87
-16.7
-18.59
-20.71
-23.15
-25.9
-28.78
-31.44
-33.41
-34.13
-33.13
-30.26
-25.73
-20.23
-14.58
-9.54
-5.51
-2.46
-0.06
2.16
4.52
7.16
9.97
12.74
15.25
17.33
18.92
20.07
20.93
21.67
22.42
23.21
23.96
24.51
24.79
24.8
24.67
24.53
24.49
24.51
24.46
24.18
23.67
23.11
22.86
23.32
24.75
27.16
30.29
33.75
37.16
40.27
42.98
45.26
47.1
48.5
49.6
50.72
52.36
54.95
58.44
62.14
64.75
64.78
61.18
53.75
43.27
31.13
18.81
7.35
-2.73
-11.35
-18.5
-24.25
-28.71
-32.22
-35.4
-38.96
-43.27
-48.17
-52.91
-56.43
-57.83
-56.8
-53.63
-49.12
-44.19
-39.59
-35.79
-32.92
-30.91
-29.52
-28.42
-27.26
-25.74
-23.69
-21.18
-18.48
-15.97
-13.95
-12.51
-11.49
-10.56
-9.38
-7.69
-5.46
-2.87
-0.17
2.41
4.71
6.73
8.5
10.08
11.56
13.01
14.5
16.1
17.78
19.43
20.86
21.85
22.22
21.87
20.85
19.25
17.23
14.97
12.71
10.7
9.13
8.04
7.3
6.58
5.54
3.93
1.75
-0.79
-3.27
-5.3
-6.65
-7.33
-7.62
-7.94
-8.71
-10.2
-12.44
-15.24
-18.21
-20.88
-22.8
-23.66
-23.33
-21.92
-19.77
-17.32
-14.94
-12.82
-10.91
-9
-6.88
-4.49
-1.99
0.36
2.28
3.63
4.4
4.61
4.32
3.48
2.1
0.28
-1.78
-3.78
-5.41
-6.46
-6.85
-6.53
-5.54
-3.94
-1.89
0.38
2.57
4.4
5.67
6.35
6.55
6.44
6.2
6.01
6
6.27
6.81
7.57
8.41
9.24
10.06
11.01
12.3
14.07
16.26
18.58
20.66
22.18
23.03
23.2
22.73
21.51
19.28
15.76
10.81
4.67
-2.16
-9.03
-15.35
-20.75
-25.02
-28.03
-29.54
-29.24
-26.78
-22.12
-15.67
-8.32
-1.2
4.62
8.6
10.82
11.91
12.71
13.91
15.76
18.09
20.53
22.72
24.59
26.23
27.87
29.63
31.55
33.58
35.7
37.92
40.17
42.21
43.51
43.34
41.05
36.32
29.41
21.1
12.45
4.44
-2.34
-7.82
-12.26
-16.06
-19.53
-22.76
-25.65
-27.99
-29.53
-30.07
-29.53
-28.02
-25.93
-23.85
-22.39
-21.89
-22.21
-22.7
-22.5
-20.94
-17.91
-13.92
-9.82
-6.39
-3.94
-2.12
-0.06
3.3
8.77
16.65
26.71
38.37
50.97
64.08
77.55
91.48
106.01
121.18
136.71
152.02
166.17
177.83
185.33
186.93
181.45
168.87
150.72
129.71
108.86
90.31
74.6
60.71
46.87
31.66
14.6
-3.7
-22.2
-39.92
-56.35
-71.37
-84.95
-96.98
-107.33
-116
-123.29
-129.61
-135.4
-140.87
-146.06
-150.76
-154.68
-157.41
-158.57
-157.96
-155.78
-152.7
-149.73
-147.93
-147.86
-149.37
-151.56
-153.17
-153.1
-150.76
-146.28
-140.21
-133.27
-125.93
-118.43
-110.73
-102.79
-94.71
-86.7
-79.09
-72.06
-65.53
-59.22
-52.77
-45.93
-38.71
-31.35
-24.18
-17.49
-11.36
-5.77
-0.66
3.9
7.67
10.28
11.46
11.21
9.85
7.88
5.77
3.81
2.08
0.57
-0.68
-1.5
-1.72
-1.41
-0.91
-0.71
-1.21
-2.5
-4.33
-6.34
-8.36
-10.53
-13.16
-16.38
-19.89
-22.91
-24.51
-24.05
-21.49
-17.35
-12.48
-7.62
-3.15
0.86
4.49
7.77
10.59
12.83
14.48
15.7
16.72
17.58
18.03
17.57
15.76
12.5
8.23
3.76
-0.09
-2.89
-4.77
-6.33
-8.29
-11.15
-14.98
-19.38
-23.8
-27.72
-30.88
-33.29
-35.22
-36.97
-38.8
-40.83
-42.9
-44.68
-45.45
-44.15
-39.5
-30.37
-16.38
1.55
21.17
39.42
53.45
61.75
64.57
63.65
61.2
58.96
57.65
57.22
57.45
58.48
60.83
65
70.89
77.76
84.47
90.05
94.32
97.88
101.85
107.37
114.98
124.19
133.39
140.11
141.65
135.92
122.11
100.93
74.45
45.4
16.52
-10.01
-32.85
-51.35
-65.4
-75.12
-80.82
-82.97
-82.23
-79.46
-75.61
-71.6
-68.1
-65.39
-63.33
-61.5
-59.45
-56.99
-54.21
-51.34
-48.58
-45.82
-42.76
-38.95
-34.15
-28.39
-22.05
-15.71
-9.97
-5.3
-1.96
-0.02
0.56
-0.14
-2
-4.89
-8.65
-13.04
-17.7
-22.1
-25.6
-27.52
-27.3
-24.73
-20.01
-13.74
-6.76
0.11
6.3
11.56
15.94
19.69
23.08
26.29
29.37
32.25
34.8
36.88
38.41
39.37
39.79
39.71
39.16
38.17
36.82
35.18
33.42
31.71
30.22
28.98
27.95
26.98
25.96
24.85
23.74
22.81
22.22
22.01
22.05
22.15
22.08
21.63
20.71
19.33
17.6
15.72
13.81
11.95
10.11
8.17
6
3.51
0.71
-2.3
-5.39
-8.43
-11.35
-14.15
-16.88
-19.65
-22.62
-25.96
-29.75
-33.84
-37.85
-41.14
-43.05
-43.06
-40.88
-36.66
-30.87
-24.18
-17.28
-10.76
-4.99
-0.13
3.8
6.9
9.27
11.03
12.26
13.09
13.64
14.04
14.37
14.67
14.92
15.07
15.1
15.04
14.99
15.1
15.51
16.27
17.3
18.4
19.32
19.95
20.28
20.47
20.75
21.28
22.1
23.16
24.38
25.67
26.94
28.02
28.62
28.39
27.09
24.64
21.18
16.88
11.83
5.98
-0.78
-8.47
-16.87
-25.54
-33.92
-41.51
-47.93
-52.99
-56.65
-59.01
-60.32
-60.9
-61.04
-60.82
-60.06
-58.33
-55.18
-50.37
-44.04
-36.66
-28.87
-21.25
-14.15
-7.67
-1.74
3.76
8.91
13.65
17.87
21.44
24.23
26.2
27.39
27.99
28.21
28.25
28.23
28.2
28.13
28.01
27.9
27.83
27.84
27.88
27.77
27.29
26.25
24.57
22.37
19.9
17.48
15.35
13.56
11.99
10.38
8.52
6.32
3.92
1.53
-0.64
-2.54
-4.31
-6.12
-8.18
-10.52
-13.1
-15.77
-18.41
-20.93
-23.31
-25.59
-27.83
-30.06
-32.34
-34.7
-37.07
-39.32
-41.21
-42.44
-42.78
-42.2
-40.97
-39.61
-38.78
-38.94
-40.2
-42.22
-44.33
-45.8
-46.04
-44.71
-41.71
-37.06
-30.83
-23.2
-14.56
-5.52
3.19
10.89
17.26
22.28
26.32
29.86
33.37
37.17
41.4
46.11
51.27
56.82
62.62
68.45
73.95
78.63
81.98
83.52
82.98
80.44
76.28
71.12
65.63
60.3
55.41
51
47.05
43.59
40.68
38.4
36.75
35.59
34.66
33.71
32.54
31.09
29.36
27.35
25.05
22.45
19.59
16.69
14.11
12.26
11.5
11.97
13.54
15.78
18.18
20.21
21.57
22.22
22.36
22.33
22.45
22.84
23.42
23.97
24.18
23.82
22.79
21.16
19.11
16.85
14.63
12.62
10.99
9.79
9.01
8.51
8.05
7.32
6.13
4.43
2.35
0.16
-1.9
-3.68
-5.21
-6.64
-8.16
-9.87
-11.77
-13.69
-15.45
-16.9
-18.04
-18.96
-19.89
-21.04
-22.5
-24.21
-25.99
-27.56
-28.75
-29.52
-30.05
-30.65
-31.72
-33.56
-36.25
-39.64
-43.33
-46.79
-49.48
-50.92
-50.81
-49.09
-45.95
-41.86
-37.47
-33.49
-30.5
-28.83
-28.55
-29.5
-31.42
-33.98
-36.75
-39.27
-41.12
-42.01
-41.92
-41.16
-40.27
-39.87
-40.45
-42.2
-44.73
-46.94
-47.15
-43.44
-34.19
-18.76
2.26
27.09
53.35
78.82
102.06
122.53
140.23
154.98
166.04
172.12
171.92
164.88
151.53
133.48
112.78
91.23
69.96
49.42
29.78
11.36
-5.24
-19.36
-30.69
-39.46
-46.38
-52.31
-57.9
-63.4
-68.74
-73.67
-77.97
-81.53
-84.43
-86.87
-89.06
-91.06
-92.64
-93.27
-92.27
-89.12
-83.67
-76.32
-67.93
-59.5
-51.83
-45.37
-40.11
-35.79
-32.09
-28.74
-25.65
-22.83
-20.36
-18.31
-16.73
-15.57
-14.73
-14.1
-13.58
-13.13
-12.69
-12.15
-11.27
-9.81
-7.54
-4.45
-0.77
3.08
6.61
9.42
11.22
11.92
11.57
10.32
8.49
6.43
4.49
2.96
2.08
1.98
2.75
4.37
6.61
8.95
10.65
11.02
9.82
7.41
4.62
2.23
0.36
-1.65
-5.01
-10.72
-18.84
-28.33
-37.44
-44.42
-48.26
-48.86
-46.83
-42.91
-37.64
-31.26
-23.97
-16.18
-8.53
-1.66
4.08
8.81
13.05
17.44
22.39
27.9
33.56
38.85
43.38
47.03
49.92
52.3
54.36
56.09
57.35
57.93
57.67
56.43
54.1
50.64
46.08
40.54
34.34
27.9
21.64
15.92
10.93
6.75
3.4
0.88
-0.86
-1.99
-2.78
-3.61
-4.82
-6.57
-8.77
-11.11
-13.23
-14.84
-15.83
-16.31
-16.56
-16.93
-17.8
-19.45
-22.06
-25.58
-29.7
-33.8
-37.1
-38.8
-38.35
-35.58
-30.8
-24.71
-18.18
-12.05
-6.84
-2.77
0.31
2.69
4.72
6.68
8.74
10.96
13.37
15.86
18.28
20.34
21.78
22.44
22.36
21.84
21.31
21.1
21.3
21.75
22.06
21.89
21.04
19.55
17.65
15.61
13.62
11.78
10.05
8.39
6.76
5.16
3.56
1.86
-0.11
-2.47
-5.26
-8.33
-11.44
-14.24
-16.56
-18.37
-19.87
-21.4
-23.32
-25.89
-29.12
-32.73
-36.14
-38.57
-39.26
-37.74
-34.01
-28.57
-22.28
-16.03
-10.46
-5.82
-1.96
1.42
4.62
7.77
10.79
13.52
15.78
17.53
18.8
19.64
20.11
20.27
20.18
19.93
19.66
19.5
19.53
19.72
19.99
20.24
20.38
20.41
20.32
20.09
19.66
18.96
17.98
16.78
15.47
14.18
12.97
11.83
10.69
9.45
8.03
6.44
4.71
2.93
1.19
-0.44
-1.9
-3.2
-4.42
-5.7
-7.29
-9.42
-12.2
-15.51
-18.92
-21.7
-23.04
-22.28
-19.16
-13.95
-7.4
-0.53
5.67
10.54
13.84
15.76
16.73
17.2
17.53
17.9
18.34
18.8
19.19
19.4
19.36
19.07
18.59
18.13
17.9
18.04
18.53
19.18
19.66
19.7
19.17
18.16
16.89
15.6
14.38
13.22
12.03
10.75
9.4
8.09
6.88
5.79
4.69
3.42
1.84
-0.12
-2.4
-4.9
-7.48
-10.02
-12.39
-14.48
-16.17
-17.47
-18.5
-19.53
-20.95
-23.01
-25.72
-28.71
-31.29
-32.65
-32.11
-29.41
-24.76
-18.81
-12.4
-6.37
-1.33
2.44
4.93
6.38
7.16
7.72
8.44
9.54
11.09
12.93
14.78
16.35
17.43
17.91
17.77
17.06
15.86
14.39
12.91
11.82
11.41
11.74
12.57
13.39
13.64
12.88
11.06
8.37
5.26
2.16
-0.55
-2.62
-3.94
-4.54
-4.68
-4.8
-5.45
-7.08
-9.74
-13.11
-16.54
-19.43
-21.46
-22.68
-23.43
-24.1
-24.95
-25.95
-26.86
-27.3
-26.9
-25.36
-22.54
-18.45
-13.33
-7.55
-1.62
3.95
8.81
12.78
15.91
18.47
20.8
23.22
25.84
28.61
31.24
33.43
34.98
35.9
36.36
36.61
36.83
37
36.97
36.55
35.67
34.39
32.92
31.44
30.06
28.74
27.37
25.82
24.06
22.13
20.08
17.94
15.66
13.19
10.49
7.66
4.87
2.28
-0.09
-2.38
-4.85
-7.8
-11.35
-15.41
-19.7
-23.8
-27.35
-30.02
-31.63
-32.12
-31.6
-30.35
-28.84
-27.61
-27.1
-27.53
-28.83
-30.62
-32.43
-33.88
-34.73
-34.99
-34.84
-34.57
-34.51
-34.94
-36
-37.57
-39.25
-40.36
-40.2
-38.27
-34.55
-29.54
-24.11
-19.24
-15.63
-13.53
-12.69
-12.61
-12.71
-12.62
-12.24
-11.64
-10.94
-10.15
-9.08
-7.43
-4.95
-1.56
2.55
6.97
11.28
15.15
18.39
20.91
22.67
23.63
23.82
23.47
23.06
23.22
24.53
27.27
31.29
36.16
41.32
46.44
51.57
57
63.09
69.94
77.22
84.18
89.91
93.65
95.07
94.29
91.77
88.07
83.62
78.69
73.41
67.9
62.25
56.64
51.23
46.17
41.57
37.54
34.13
31.32
28.93
26.7
24.42
22.14
20.18
18.97
18.67
18.93
18.92
17.61
14.29
8.8
1.55
-6.8
-15.72
-24.9
-34.2
-43.33
-51.72
-58.7
-63.77
-66.97
-68.84
-70.12
-71.34
-72.52
-73.3
-73.16
-71.78
-69.19
-65.67
-61.63
-57.43
-53.31
-49.41
-45.86
-42.72
-40
-37.66
-35.54
-33.48
-31.35
-29.12
-26.93
-25.04
-23.88
-23.83
-25.07
-27.4
-30.22
-32.7
-34.02
-33.67
-31.59
-28.04
-23.57
-18.81
-14.43
-11.01
-9.01
-8.59
-9.49
-10.85
-11.28
-9.11
-2.86
8.28
24.02
42.91
62.62
80.53
94.39
102.91
105.81
103.69
97.59
88.71
78.36
67.95
59.04
52.97
50.51
51.42
54.4
57.43
58.39
55.87
49.51
40.15
29.32
18.78
9.92
3.43
-0.76
-3.28
-5.06
-7.03
-9.86
-13.94
-19.32
-25.81
-33.08
-40.7
-48.26
-55.4
-61.94
-67.83
-73.17
-78.04
-82.45
-86.24
-89.15
-90.88
-91.21
-90.05
-87.46
-83.55
-78.46
-72.33
-65.37
-57.95
-50.54
-43.67
-37.75
-32.87
-28.83
-25.18
-21.42
-17.2
-12.52
-7.6
-2.84
1.41
4.96
7.78
9.92
11.47
12.46
12.91
12.86
12.33
11.39
10.07
8.46
6.67
4.86
3.22
1.84
0.73
-0.25
-1.32
-2.62
-4.21
-6
-7.82
-9.51
-10.98
-12.22
-13.29
-14.29
-15.36
-16.66
-18.39
-20.71
-23.69
-27.12
-30.49
-33.07
-34.11
-33.09
-29.95
-25.11
-19.31
-13.44
-8.21
-4.06
-1.04
1.07
2.72
4.28
6.03
7.98
9.94
11.61
12.74
13.3
13.45
13.52
13.75
14.2
14.7
15
14.88
14.32
13.49
12.6
11.82
11.11
10.24
8.87
6.76
3.9
0.58
-2.71
-5.52
-7.56
-8.91
-9.84
-10.75
-11.95
-13.61
-15.74
-18.3
-21.16
-24.05
-26.51
-27.87
-27.46
-24.84
-20.11
-13.86
-7.04
-0.62
4.7
8.63
11.22
12.74
13.46
13.61
13.41
13
12.55
12.16
11.87
11.68
11.5
11.23
10.78
10.16
9.42
8.71
8.17
7.87
7.79
7.74
7.38
6.42
4.64
2.08
-1.03
-4.3
-7.34
-9.89
-11.96
-13.75
-15.6
-17.86
-20.74
-24.2
-27.92
-31.39
-33.85
-34.64
-33.27
-29.69
-24.27
-17.74
-10.94
-4.55
1
5.55
9.13
11.83
13.81
15.27
16.44
17.55
18.75
20.05
21.32
22.39
23.1
23.37
23.16
22.46
21.29
19.75
18.05
16.48
15.23
14.35
13.62
12.67
11.16
8.92
6.05
2.83
-0.39
-3.38
-6.06
-8.5
-10.91
-13.48
-16.41
-19.8
-23.58
-27.45
-30.85
-33.05
-33.33
-31.3
-26.99
-20.95
-14.04
-7.12
-0.8
4.64
9.19
12.94
15.92
18.08
19.4
19.97
19.98
19.74
19.5
19.43
19.55
19.85
20.25
20.7
21.15
21.53
21.77
21.83
21.65
21.17
20.28
18.88
16.93
14.46
11.62
8.6
5.54
2.51
-0.52
-3.58
-6.68
-9.73
-12.68
-15.51
-18.34
-21.38
-24.8
-28.56
-32.32
-35.47
-37.2
-36.83
-34.03
-28.94
-22.17
-14.59
-7.08
-0.31
5.33
9.78
13.15
15.64
17.48
18.83
19.87
20.72
21.43
22.06
22.62
23.09
23.47
23.78
24.04
24.32
24.66
25.07
25.49
25.79
25.8
25.34
24.31
22.7
20.67
18.42
16.18
14.08
12.12
10.17
8.06
5.66
2.93
0
-2.93
-5.67
-8.12
-10.29
-12.34
-14.46
-16.91
-19.88
-23.47
-27.58
-31.83
-35.55
-37.84
-37.86
-35.1
-29.67
-22.27
-14.04
-6.19
0.45
5.52
9.18
11.81
