35.19
50.87
70.71
91.89
111.44
126.33
133.74
131.64
119.77
100.41
78.1
57.98
43.48
34.66
28.18
19.21
3.87
-18.95
-47.47
-78.5
-109.23
-138.37
-165.79
-192.09
-217.66
-242.59
-266.84
-290.05
-311.27
-328.91
-341.5
-348.75
-352.31
-355.01
-358.99
-363.68
-365.17
-357.81
-337.2
-302.78
-258.29
-209.94
-163.24
-120.89
-82.5
-46.32
-11.28
21.94
51.46
75.61
94.02
107.77
118.59
127.83
135.81
141.74
144.42
143.08
137.79
129.5
119.62
109.39
99.45
89.84
80.45
71.69
64.82
61.83
64.9
75.5
93.68
117.66
144.14
168.96
188.06
198.66
199.97
193.7
183.57
174
168.28
167.01
167.95
167.31
161.92
151.13
137.26
124.37
116.03
113.3
114.07
113.77
107.42
91.84
66.84
35.49
3.19
-23.75
-39.77
-41.51
-28.65
-3.96
27.56
60.16
88.71
109.52
120.52
121.13
111.92
94.48
71.13
44.74
18.34
-5.25
-23.89
-36.39
-42.82
-44.4
-43.08
-40.88
-39.18
-38.24
-37.21
-34.77
-30.05
-23.35
-16.26
-10.92
-8.96
-10.78
-15.37
-21.03
-26.3
-30.6
-34.32
-38.28
-42.98
-48.16
-52.65
-54.79
-53.12
-46.98
-36.83
-23.97
-10.1
3.36
15.6
26.39
35.69
43.37
49.29
53.7
57.55
62.45
70.05
81.09
94.9
109.51
122.51
132.23
138.5
142.7
147.02
153.48
163.09
175.52
189.2
201.73
210.38
212.77
207.43
194.21
174.22
149.43
122.1
94.32
67.77
43.62
22.5
4.59
-10.35
-22.91
-33.84
-43.86
-53.49
-63.16
-73.4
-84.88
-98.22
-113.54
-130.01
-145.78
-158.44
-165.79
-166.54
-160.65
-149.08
-133.34
-115.03
-95.64
-76.69
-59.85
-46.81
-39.02
-37.06
-40.4
-47.37
-55.56
-62.41
-65.8
-64.67
-59.2
-50.82
-41.61
-33.49
-27.44
-23.22
-19.65
-15.45
-10.05
-3.93
1.69
5.54
7.01
6.26
3.97
0.87
-2.56
-6.08
-9.58
-12.84
-15.65
-17.78
-19.12
-19.55
-19.01
-17.48
-15.14
-12.45
-10.03
-8.47
-8
-8.45
-9.35
-10.28
-11.16
-12.3
-14.32
-17.73
-22.74
-28.93
-35.36
-40.71
-43.83
-44.21
-42.39
-39.96
-39.03
-41.41
-47.85
-57.74
-69.41
-80.89
-90.57
-97.58
-101.66
-102.66
-100.26
-94.02
-83.71
-69.72
-53.22
-35.87
-19.3
-4.59
7.89
18.42
27.51
35.72
43.39
50.75
57.98
65.16
72.29
79.12
85.21
90.08
93.36
94.94
95
93.84
91.76
88.97
85.6
81.8
77.8
73.81
69.99
66.31
62.66
58.89
54.95
50.9
46.82
42.71
38.44
33.77
28.53
22.84
17.1
12.01
8.27
6.27
5.96
6.74
7.69
7.96
7.06
4.99
2.23
-0.65
-3.22
-5.44
-7.65
-10.53
-15.03
-22.16
-32.77
-47.24
-65
-84.57
-103.77
-120.49
-133.38
-142.22
-147.71
-150.9
-152.48
-152.55
-150.76
-146.73
-140.42
-132.29
-123.18
-114.07
-105.72
-98.47
-91.96
-85.12
-76.32
-64.08
-47.76
-28.14
-7.34
11.88
27.17
37.48
43.21
45.79
46.83
47.45
48.19
49.25
50.9
53.63
57.9
63.78
70.69
77.52
83.08
86.63
88.03
87.76
86.48
84.77
82.93
81.07
79.24
77.51
75.97
74.53
73.02
71.16
68.73
65.71
62.26
58.59
54.92
51.34
47.88
44.61
41.64
39.11
37.13
35.7
34.63
33.62
32.33
30.54
28.16
25.31
22.23
19.2
16.44
14.1
12.15
10.47
8.93
7.45
6.09
4.95
4.16
3.7
3.44
3.15
2.65
1.82
0.72
-0.48
-1.63
-2.56
-3.25
-3.7
-3.97
-4.17
-4.36
-4.6
-4.89
-5.14
-5.26
-5.18
-4.91
-4.59
-4.38
-4.43
-4.73
-5.13
-5.4
-5.3
-4.75
-3.77
-2.47
-0.97
0.66
2.37
4.15
5.88
7.46
8.78
9.85
10.78
11.68
12.62
13.53
14.23
14.49
14.15
13.17
11.67
9.88
8.03
6.3
4.72
3.25
1.84
0.49
-0.74
-1.75
-2.47
-2.92
-3.17
-3.29
-3.31
-3.22
-3.01
-2.75
-2.57
-2.61
-2.94
-3.5
-4.15
-4.67
-4.94
-4.92
-4.77
-4.74
-5.11
-6.1
-7.69
-9.69
-11.72
-13.37
-14.31
-14.36
-13.6
-12.23
-10.56
-8.97
-7.73
-7.06
-6.96
-7.31
-7.82
-8.23
-8.32
-8.03
-7.42
-6.62
-5.69
-4.62
-3.3
-1.6
0.55
3.03
5.5
7.61
9.09
9.92
10.45
11.15
12.49
14.7
17.68
20.99
24.14
26.59
28.01
28.31
27.63
26.39
25.19
24.68
25.3
27.02
29.27
31.07
31.4
29.55
25.43
19.55
12.8
6.16
0.37
-4.16
-7.28
-8.97
-9.22
-8.08
-5.7
-2.5
0.88
3.71
5.42
5.79
4.96
3.32
1.24
-1.12
-3.84
-7.11
-10.96
-15.11
-18.97
-21.9
-23.46
-23.63
-22.77
-21.45
-20.23
-19.54
-19.56
-20.32
-21.76
-23.68
-25.86
-28.04
-30.02
-31.75
-33.35
-35.08
-37.17
-39.69
-42.55
-45.55
-48.47
-51.18
-53.68
-55.97
-58
-59.63
-60.72
-61.21
-61.29
-61.27
-61.48
-61.97
-62.43
-62.28
-60.97
-58.23
-54.05
-48.48
-41.3
-32.02
-20.33
-6.51
8.18
21.8
32.37
38.75
40.96
40.04
37.35
33.88
29.9
25.13
19.09
11.6
2.84
-6.68
-16.39
-25.89
-34.94
-43.56
-51.75
-59.38
-65.86
-70.09
-70.54
-65.8
-55.14
-39.1
-19.61
0.42
17.87
30.4
37.03
38.3
35.85
31.74
27.81
25.13
23.92
23.78
23.94
23.69
22.66
20.95
19.03
17.54
16.86
16.91
17.16
16.83
15.35
12.63
9.26
6.17
4.24
3.79
4.29
4.51
3.11
-0.71
-6.62
-13.08
-17.69
-18.01
-12.37
-0.51
16.11
34.65
51.47
62.91
66.08
59.47
43.31
19.65
-7.82
-34.66
-56.75
-71.52
-78.59
-79.64
-77.39
-74.29
-71.43
-68.49
-64.35
-58.12
-49.88
-40.66
-31.97
-25.14
-20.82
-18.9
-18.64
-18.82
-18.04
-15.08
-9.33
-1.07
8.42
17.31
23.6
25.71
22.83
15.07
3.44
-10.32
-24.23
-36.53
-46.25
-53.53
-59.29
-64.61
-70.01
-75.06
-78.52
-78.97
-75.54
-68.22
-57.84
-45.62
-32.7
-19.92
-7.8
3.19
12.48
19.3
23.06
23.54
21.2
17.08
12.41
8.17
4.78
2.04
-0.49
-3.15
-5.84
-8.11
-9.31
-9.08
-7.51
-5.12
-2.61
-0.53
0.92
1.83
2.48
3.08
3.75
4.46
5.15
5.76
6.29
6.74
7.21
7.86
9.01
11.11
14.46
19.11
24.63
30.04
34.17
36.02
35.21
32.21
28.13
24.14
20.93
18.28
15.22
10.6
3.68
-5.26
-14.91
-23.13
-27.73
-27.06
-20.75
-9.81
3.63
17.01
28.22
36.23
41.19
43.99
45.46
45.8
44.56
41.2
35.72
29.03
22.58
17.56
14.17
11.64
8.75
4.68
-0.39
-5.45
-9.22
-11.03
-11.11
-10.44
-10.11
-10.76
-12.35
-14.27
-15.79
-16.19
-15.01
-12.01
-7.39
-1.95
2.85
5.35
4.39
0.02
-6.35
-12.46
-16.14
-16.3
-13.19
-8.11
-2.58
2.38
6.42
9.62
12.02
13.32
13.03
10.82
6.84
1.93
-2.59
-5.28
-4.98
-1.11
6.11
15.79
26.56
37.04
46.15
53.36
58.68
62.45
65.08
66.85
67.92
68.41
68.57
68.71
69.02
69.45
69.6
68.91
66.94
63.6
59.23
54.44
49.78
45.62
42
38.83
35.96
33.33
30.94
28.74
26.64
24.42
21.88
18.93
15.64
12.22
8.92
5.88
3.05
0.22
-2.85
-6.23
-9.79
-13.18
-15.99
-17.94
-19.03
-19.47
-19.55
-19.43
-19.02
-17.96
-15.78
-12.03
-6.5
0.6
8.45
15.78
21.06
23.04
21.22
16.02
8.73
0.95
-5.88
-10.85
-13.64
-14.39
-13.56
-11.83
-10.02
-9.04
-9.62
-12.13
-16.41
-21.92
-28.04
-34.3
-40.48
-46.49
-52.24
-57.54
-62.24
-66.38
-70.31
-74.46
-79.06
-83.8
-87.78
-89.91
-89.37
-85.99
-80.17
-72.55
-63.51
-53
-40.75
-26.72
-11.49
3.73
17.43
28.37
35.99
40.38
42.07
41.62
39.5
36.11
32
27.93
24.7
22.93
22.78
23.89
25.55
27.07
28.11
28.78
29.54
30.86
33
35.88
39.15
42.42
45.38
47.78
49.46
50.18
49.77
48.26
45.98
43.59
41.8
41.1
41.45
42.32
42.88
42.39
40.58
37.63
34.13
30.75
28.04
26.38
25.97
27
29.55
33.62
38.92
44.77
50.11
53.68
54.32
51.34
44.74
35.24
24.03
12.41
1.44
-8.25
-16.6
-23.85
-30.45
-36.81
-43.19
-49.64
-56.08
-62.34
-68.22
-73.52
-78.04
-81.53
-83.64
-83.9
-81.84
-77.13
-69.75
-60.05
-48.74
-36.7
-24.74
-13.45
-3.16
5.95
13.75
19.99
24.33
26.45
26.23
23.94
20.11
15.51
10.87
6.86
3.98
2.5
2.38
3.25
4.45
5.29
5.33
4.55
3.34
2.2
1.52
1.25
1.05
0.4
-1.13
-3.83
-7.9
-13.56
-21.01
-30.17
-40.44
-50.56
-58.8
-63.55
-63.88
-59.97
-53.17
-45.45
-38.73
-34.18
-31.94
-31.19
-30.65
-29.05
-25.56
-19.96
-12.6
-4.23
4.27
12.12
18.85
24.24
28.36
31.38
33.46
34.68
35.14
34.9
34.08
32.72
30.77
28.07
24.48
20.04
15.09
10.22
6.05
3.01
1.12
0.03
-0.87
-2.1
-3.92
-6.18
-8.46
-10.24
-11.13
-11.05
-10.23
-9.1
-8.11
-7.5
-7.18
-6.84
-6.08
-4.63
-2.49
0.13
2.93
5.7
8.4
11.11
13.96
16.94
19.91
22.64
24.85
26.27
26.77
26.3
24.96
22.9
20.29
17.25
13.83
10.11
6.3
2.76
-0.14
-2.21
-3.61
-4.76
-6.23
-8.39
-11.29
-14.59
-17.83
-20.51
-22.26
-22.91
-22.44
-21.01
-18.89
-16.49
-14.24
-12.51
-11.48
-11.11
-11.19
-11.42
-11.52
-11.22
-10.36
-8.82
-6.59
-3.78
-0.68
2.44
5.33
7.89
10.18
12.25
14.1
15.65
16.84
17.76
18.69
19.98
21.82
24.13
26.52
28.51
29.78
30.28
30.18
29.7
28.83
27.28
24.61
20.5
15.04
8.84
2.95
-1.38
-3.12
-1.75
2.45
8.56
15.19
21.04
25.2
27.34
27.68
26.73
25.23
24.06
24.27
26.93
32.67
41.24
51.06
59.46
63.35
60.36
49.74
32.64
11.69
-9.96
-29.55
-45.26
-56.32
-62.81
-65.34
-64.95
-62.85
-60.27
-58.2
-57.13
-57.1
-57.83
-58.9
-59.88
-60.3
-59.63
-57.27
-52.82
-46.38
-38.64
-30.69
-23.61
-18.04
-13.93
-10.74
-7.69
-4.17
0.02
4.63
9.17
13.21
16.64
19.8
23.32
27.86
33.7
40.55
47.64
54.07
59.25
63.09
66
68.47
70.83
72.97
74.43
74.62
73.04
69.47
64.02
57
48.82
39.85
30.33
20.37
9.96
-0.96
-12.53
-24.99
-38.58
-53.32
-68.6
-82.88
-93.74
-98.58
-95.66
-85.05
-68.85
-50.56
-33.71
-20.54
-11.33
-4.72
1.3
8.42
17.34
27.79
38.9
49.64
59.07
66.49
71.56
74.31
75.22
75.12
74.93
75.34
76.62
78.55
80.52
81.74
81.42
79.01
74.32
67.67
59.87
52.01
45.12
39.83
36.14
33.5
31.12
28.29
24.65
20.19
15.17
9.89
4.59
-0.53
-5.31
-9.51
-12.85
-15.07
-15.9
-15.16
-12.75
-8.83
-3.81
1.56
6.39
9.84
11.36
10.77
8.17
3.71
-2.45
-10.08
-18.74
-27.58
-35.49
-41.38
-44.63
-45.34
-44.2
-42.16
-39.98
-37.97
-35.98
-33.74
-31.16
-28.51
-26.3
-25.02
-24.81
-25.39
-26.12
-26.27
-25.34
-23.23
-20.23
-16.86
-13.69
-11.11
-9.26
-8.11
-7.46
-7.14
-6.96
-6.79
-6.54
-6.14
-5.63
-5.11
-4.73
-4.55
-4.52
-4.39
-3.86
-2.61
-0.51
2.39
5.87
9.64
13.51
17.32
21.02
24.56
27.86
30.76
33.02
34.37
34.56
33.46
31.04
27.44
22.91
17.75
12.37
7.28
3.01
-0.04
-1.71
-2.27
-2.32
-2.53
-3.37
-4.87
-6.57
-7.82
-8.11
-7.32
-5.74
-3.94
-2.47
-1.7
-1.79
-2.8
-4.72
-7.49
-10.87
-14.39
-17.36
-19.1
-19.16
-17.55
-14.74
-11.48
-8.55
-6.54
-5.63
-5.73
-6.47
-7.44
-8.25
-8.63
-8.45
-7.71
-6.52
-5.09
-3.68
-2.59
-2.08
-2.32
-3.4
-5.32
-8.05
-11.58
-15.85
-20.67
-25.64
-30.19
-33.7
-35.72
-36.11
-35.06
-32.95
-30.17
-27.04
-23.8
-20.71
-18.04
-16
-14.6
-13.56
-12.34
-10.47
-7.77
-4.56
-1.52
0.55
1.16
0.29
-1.64
-3.94
-6.03
-7.5
-8.14
-7.86
-6.6
-4.4
-1.59
1.14
2.88
2.71
0.12
-4.85
-11.57
-19.08
-26.3
-32.15
-35.65
-35.72
-31.41
-22.15
-8.06
9.83
29.5
48.43
64.11
74.44
78.26
75.35
66.41
53.01
37.44
22.11
9.41
1.14
-1.94
0.05
6.28
15.45
26.23
37.37
47.29
54.6
58.21
57.48
52.92
45.88
37.91
30.2
23.21
16.49
10.08
4.91
0.12
-4.29
-8.18
-11.69
-14.82
-13.91
-7.74
3.38
17.62
32.11
42.14
44.43
37.63
22.73
2.57
-19.57
-40.35
-57.29
-69.35
-76.73
-80.49
-82.16
-82.81
-82.77
-81.96
-79.97
-76.88
-73.71
-71.98
-72.76
-76.02
-80.27
-83.23
-83
-78.6
-70.29
-59.25
-46.88
-34.17
-21.86
-10.64
-1.39
4.77
7.12
5.75
1.66
-3.57
-8.39
-11.79
-13.38
-13.31
-11.89
-9.55
-6.98
-4.86
-3.82
-4
-4.89
-5.58
-5.21
-3.49
-0.89
1.62
3.14
3.4
2.83
2.27
2.42
3.37
4.6
5.31
4.86
3.1
0.3
-3.07
-6.52
-9.71
-12.37
-14.28
-15.36
-15.7
-15.54
-15.24
-15.05
-15.02
-15.02
-14.86
-14.43
-13.76
-12.97
-12.16
-11.44
-10.99
-11.01
-11.68
-12.91
-14.18
-14.59
-13.14
-9.14
-2.53
6
15.34
24.29
31.96
37.9
41.92
43.94
43.8
41.36
36.58
29.78
21.65
13.05
4.81
-2.65
-9.4
-15.85
-22.47
-29.44
-36.46
-42.89
-47.94
-51.06
-52.06
-51.19
-48.97
-46.02
-42.97
-40.37
-38.6
-37.79
-37.73
-38.01
-38.12
-37.66
-36.45
-34.54
-32.14
-29.5
-26.88
-24.61
-23.11
-22.78
-23.87
-26.37
-29.93
-33.94
-37.66
-40.26
-40.93
-38.97
-34.04
-26.48
-17.58
-9.38
-4.13
-3.37
-7.13
-13.82
-20.76
-25.31
-25.94
-22.71
-16.9
-10.17
-3.67
2.33
8.26
14.64
21.78
29.63
38.17
47.63
58.57
71.37
85.89
101.12
115.54
127.71
136.85
143.06
146.96
149.23
150.16
149.56
147.07
142.49
136.01
128.15
119.6
111.01
102.93
95.82
90.1
85.95
83.09
80.74
77.71
72.89
65.74
56.51
46.23
36.22
27.63
21.03
16.31
12.76
9.46
5.48
0.15
-6.77
-15.05
-24.02
-32.84
-40.72
-47.26
-52.53
-56.94
-60.93
-64.64
-67.8
-69.91
-70.55
-69.55
-67.14
-63.79
-60.08
-56.56
-53.63
-51.55
-50.32
-49.63
-48.89
-47.42
-44.74
-40.72
-35.68
-30.14
-24.6
-19.35
-14.44
-9.79
-5.26
-0.68
4.26
10
17
25.46
35.01
44.62
52.81
58.16
59.85
58.01
53.61
48.03
42.5
37.76
33.92
30.72
27.79
24.9
22.01
19.15
16.33
13.46
10.41
7.07
3.43
-0.49
-4.64
-9.02
-13.69
-18.68
-23.92
-29.17
-33.95
-37.71
-39.9
-40.19
-38.68
-35.83
-32.34
-28.94
-26.21
-24.42
-23.5
-23.21
-23.29
-23.57
-24.03
-24.7
-25.62
-26.73
-27.92
-29.03
-29.97
-30.69
-31.24
-31.69
-32.08
-32.51
-33.1
-33.93
-35.01
-36.14
-36.93
-36.86
-35.51
-32.72
-28.72
-23.95
-18.85
-13.7
-8.48
-3.06
2.61
8.3
13.48
17.45
19.61
19.7
17.86
14.67
10.96
7.69
5.68
5.49
7.22
10.54
14.86
19.51
24.06
28.38
32.59
36.99
41.86
47.37
53.47
59.81
65.67
70.13
72.25
71.48
67.95
62.54
56.57
51.29
47.46
45.06
43.51
41.99
39.79
36.58
32.39
27.51
22.34
17.24
12.45
8.02
3.92
0.03
-3.72
-7.3
-10.62
-13.58
-16.19
-18.58
-20.92
-23.36
-25.8
-27.95
-29.47
-30.09
-29.77
-28.7
-27.21
-25.57
-24
-22.67
-22
-22.88
-26.54
-34.15
-46.17
-61.79
-78.94
-94.92
-107.32
-114.81
-117.37
-115.84
-111.24
-104.34
-95.7
-85.97
-76.12
-67.21
-59.83
-53.67
-47.58
-40.12
-30.4
-18.59
-5.75
6.67
17.58
26.6
34.05
40.63
47.1
54.01
61.69
70.19
79.33
88.59
97.21
104.18
108.5
109.35
106.4
100.05
91.38
81.91
73.13
65.98
60.46
55.78
50.78
44.47
36.5
27.23
17.49
8.15
-0.17
-7.23
-13.12
-18.06
-22.23
-25.74
-28.63
-30.92
-32.59
-33.6
-33.87
-33.25
-31.66
-29.07
-25.61
-21.57
-17.27
-12.98
-8.82
-4.73
-0.68
3.28
6.91
9.84
11.84
13.11
14.3
16.16
19.12
22.82
26.24
28.16
27.89
25.71
22.71
20.1
18.46
17.48
16.17
13.63
9.66
4.83
0.12
-3.86
-7.24
-10.73
-15.08
-20.48
-26.37
-31.7
-35.57
-37.69
-38.47
-38.65
-38.86
-39.26
-39.63
-39.68
-39.35
-38.88
-38.55
-38.43
-38.2
-37.41
-35.88
-33.87
-32.11
-31.4
-32.31
-34.9
-38.79
-43.31
-47.73
-51.4
-53.79
-54.48
-53.19
-49.75
-43.99
-35.72
-24.73
-10.92
5.49
23.73
42.54
60.46
76.08
88.29
96.38
100.09
99.61
95.66
89.44
82.42
76.01
71.16
68.16
66.65
65.81
64.64
62.26
58.09
52.01
44.43
36.34
29.16
24.42
23.32
26.32
32.9
41.64
50.58
57.77
61.73
61.76
57.99
51
41.54
30.12
16.99
2.36
-13.15
-28.23
-41.04
-49.79
-53.47
-52.27
-47.54
-41.15
-34.67
-28.81
-23.4
-17.8
-11.59
-4.91
1.65
7.36
11.87
15.35
18.33
21.4
24.87
28.68
32.44
35.57
37.55
38.01
36.88
34.34
30.85
27.1
23.89
22.05
22.21
24.67
29.3
35.61
42.82
50.04
56.31
60.63
62.06
59.82
53.47
43.15
29.68
14.37
-1.28
-16.05
-29.26
-40.7
-50.41
-58.49
-64.91
-69.65
-72.86
-74.92
-76.39
-77.82
-79.52
-81.46
-83.28
-84.41
-84.17
-81.98
-77.52
-70.85
-62.45
-53.11
-43.76
-35.12
-27.55
-21.07
-15.47
-10.55
-6.23
-2.6
0.19
2.02
2.89
2.89
2.15
0.79
-1.02
-3.11
-5.24
-7.15
-8.62
-9.57
-10.11
-10.46
-10.91
-11.66
-12.74
-14.01
-15.22
-16.13
-16.62
-16.68
-16.41
-15.87
-15.03
-13.77
-12
-9.76
-7.23
-4.71
-2.48
-0.73
0.55
1.51
2.43
3.58
5.15
7.15
9.46
11.87
14.19
16.32
18.32
20.25
22.18
24.02
25.64
26.96
28.02
29.03
30.19
31.63
33.21
34.69
35.82
36.5
36.73
36.53
35.8
34.26
31.65
27.86
23.14
18.06
13.31
9.38
6.42
4.24
2.46
0.83
-0.74
-2.11
-3.17
-3.87
-4.36
-4.8
-5.31
-5.82
-6.13
-6.06
-5.55
-4.73
-3.92
-3.48
-3.62
-4.34
-5.39
-6.37
-6.94
-6.97
-6.57
-6.11
-5.95
-6.35
-7.3
-8.59
-9.93
-11.1
-11.96
-12.55
-12.92
-13.16
-13.34
-13.56
-13.9
-14.45
-15.22
-16.14
-17.06
-17.81
-18.25
-18.39
-18.28
-17.98
-17.53
-16.95
-16.32
-15.77
-15.5
-15.66
-16.26
-17.12
-17.98
-18.59
-18.8
-18.67
-18.34
-17.98
-17.71
-17.54
-17.51
-17.57
-17.73
-17.95
-18.2
-18.43
-18.57
-18.57
-18.36
-17.88
-17.11
-16.07
-14.86
-13.58
-12.35
-11.19
-10.03
-8.76
-7.32
-5.77
-4.31
-3.2
-2.7
-2.88
-3.63
-4.66
-5.63
-6.32
-6.64
-6.73
-6.85
-7.21
-7.94
-9.04
-10.4
-11.87
-13.35
-14.76
-16.13
-17.52
-18.99
-20.64
-22.56
-24.75
-27.07
-29.23
-30.81
-31.43
-30.88
-29.18
-26.62
-23.61
-20.58
-17.9
-15.73
-14.12
-12.99
-12.24
-11.71
-11.31
-10.91
-10.45
-9.92
-9.32
-8.68
-8
-7.27
-6.38
-5.25
-3.79
-2
-0.01
1.94
3.59
4.78
5.51
6.07
6.84
8.27
10.66
14.1
18.41
23.23
28.01
32.17
35.15
36.57
36.29
34.48
31.58
28.12
24.62
21.41
18.6
16.2
14.13
12.39
10.97
9.87
9.03
8.33
7.7
7.12
6.64
6.35
6.29
6.51
7.03
7.91
9.28
11.28
13.95
17.18
20.71
24.14
27.14
29.35
30.46
30.23
28.53
25.49
21.51
17.3
13.64
11.15
10.05
10.16
11.02
12.09
12.94
13.3
13.02
11.95
10.01
7.14
3.44
-0.84
-5.39
-9.88
-14.04
-17.76
-21.02
-23.9
-26.54
-29.05
-31.49
-33.82
-35.85
-37.35
-38.08
-37.91
-36.86
-35.08
-32.82
-30.29
-27.68
-25.14
-22.81
-20.86
-19.41
-18.51
-18.06
-17.88
-17.7
-17.34
-16.76
-16.08
-15.49
-15.14
-15.13
-15.4
-15.85
-16.33
-16.72
-16.93
-16.91
-16.65
-16.2
-15.72
-15.43
-15.54
-16.16
-17.2
-18.34
-19.11
-19.04
-17.81
-15.38
-11.96
-7.97
-3.86
0
3.46
6.49
9.21
11.78
14.35
17.06
19.89
22.74
25.38
27.51
28.84
29.24
28.79
27.76
26.59
25.68
25.27
25.4
25.9
26.59
27.24
27.69
27.81
27.53
26.79
25.67
24.34
22.99
21.81
20.88
20.17
19.56
18.97
18.36
17.71
17.04
16.27
15.29
13.98
12.33
10.44
8.52
6.82
5.57
4.87
4.67
4.79
4.98
4.99
4.67
3.94
2.88
1.62
0.32
-0.9
-1.95
-2.83
-3.59
-4.32
-5.07
-5.87
-6.68
-7.45
-8.19
-8.95
-9.82
-10.96
-12.39
-14.14
-16.12
-18.23
-20.34
-22.25
-23.78
-24.79
-25.26
-25.29
-25.08
-24.75
-24.32
-23.68
-22.72
-21.47
-20.13
-18.9
-17.89
-16.94
-15.69
-13.82
-11.23
-8.2
-5.23
-2.77
-1.03
0.12
0.95
1.77
2.72
3.76
4.75
5.52
5.99
6.14
6.03
5.81
5.62
5.63
5.89
6.36
6.86
7.18
7.17
6.73
5.89
4.63
2.96
0.89
-1.45
-3.79
-5.78
-7.05
-7.4
-6.81
-5.45
-3.5
-1.14
1.57
4.5
7.57
10.62
13.48
16.05
18.22
19.92
21.06
21.5
21.1
19.83
17.76
15.07
12.03
8.85
5.71
2.63
-0.44
-3.58
-6.88
-10.29
-13.62
-16.61
-19.05
-20.86
-22.21
-23.36
-24.54
-25.84
-27.09
-27.98
-28.22
-27.72
-26.66
-25.45
-24.57
-24.31
-24.65
-25.24
-25.63
-25.47
-24.7
-23.51
-22.2
-21.02
-20.04
-19.18
-18.38
-17.7
-17.27
-17.23
-17.66
-18.46
-19.52
-20.71
-21.96
-23.2
-24.32
-25.12
-25.38
-24.95
-23.78
-21.92
-19.5
-16.67
-13.59
-10.36
-7.09
-3.88
-0.93
1.48
3.07
3.68
3.41
2.7
2.26
2.75
4.56
7.65
11.61
15.9
19.99
23.43
25.81
26.68
25.53
22.02
16.16
8.5
0.13
-7.66
-13.72
-17.49
-19.08
-19.21
-18.78
-18.47
-18.51
-18.69
-18.54
-17.63
-15.73
-12.84
-9.16
-4.95
-0.6
3.43
6.49
7.86
6.88
3.13
-3.3
-11.8
-21.23
-30.19
-37.3
-41.6
-42.75
-41.1
-37.59
-33.44
-29.81
-27.53
-26.84
-27.48
-28.8
-30.14
-31.11
-31.68
-32.09
-32.47
-32.67
-32.08
-30
-26
-20.27
-13.66
-7.34
-2.24
1.3
3.69
5.73
8.13
11.18
14.65
18
20.86
23.12
25.02
26.82
28.59
30.17
31.19
31.33
30.5
28.84
26.61
24.1
21.42
18.59
15.51
12.09
8.28
4.12
-0.31
-4.89
-9.46
-13.95
-18.29
-22.31
-25.69
-27.87
-28.25
-26.45
-22.53
-17.02
-10.83
-4.88
0.21
4.17
7.16
9.57
11.9
14.64
18.2
22.74
28.03
33.47
38.16
41.29
42.46
41.89
40.36
38.92
38.42
39.23
41.11
43.37
45.29
46.4
46.71
46.64
46.81
47.78
49.75
52.58
55.74
58.51
60.19
60.18
58.19
54.31
49.05
43.24
37.79
33.34
30.03
27.46
24.84
21.39
16.68
10.83
4.47
-1.54
-6.49
-10.07
-12.5
-14.33
-16.19
-18.51
-21.31
-24.29
-26.94
-28.78
-29.51
-29.08
-27.8
-26.21
-25.04
-25.06
-26.82
-30.36
-35.07
-39.75
-42.91
-43.34
-40.54
-34.93
-27.66
-20.17
-13.66
-8.73
-5.36
-3.02
-1.1
0.93
3.3
6
8.82
11.49
13.81
15.71
17.37
19.05
20.98
23.14
25.23
26.8
27.48
27.21
26.28
25.2
24.47
24.32
24.74
25.49
26.29
26.9
27.11
26.7
25.53
23.54
20.94
18.19
15.9
14.55
14.33
15.04
16.17
17.09
17.32
16.56
14.88
12.5
9.8
7.17
4.89
3.07
1.65
0.39
-1.06
-3
-5.6
-8.8
-12.29
-15.71
-18.75
-21.29
-23.49
-25.6
-27.8
-30.06
-32.11
-33.52
-33.87
-32.9
-30.55
-26.88
-22.16
-16.7
-10.87
-5.07
0.39
5.35
9.78
13.73
17.19
20.02
21.96
22.8
22.63
21.91
21.38
21.77
23.48
26.4
29.99
33.62
36.85
39.64
42.3
45.07
47.91
50.3
51.46
50.77
48.07
43.82
38.83
33.92
29.52
25.62
21.91
18.09
14.1
10.16
6.61
3.66
1.28
-0.79
-2.9
-5.34
-8.25
-11.64
-15.42
-19.42
-23.45
-27.28
-30.74
-33.75
-36.36
-38.78
-41.21
-43.76
-46.26
-48.32
-49.41
-49.12
-47.36
-44.34
-40.57
-36.62
-32.94
-29.83
-27.47
-25.91
-25.12
-24.93
-24.96
-24.68
-23.52
-21.19
-17.65
-13.2
-8.25
-3.17
1.82
6.54
10.83
14.46
17.2
18.95
19.83
20.13
20.23
20.42
20.84
21.5
22.3
23.12
23.83
24.32
24.43
24.06
23.18
21.88
20.33
18.68
17.07
15.52
14
12.43
10.72
8.79
6.56
3.96
0.99
-2.28
-5.67
-8.95
-11.93
-14.56
-16.89
-19.01
-20.9
-22.35
-22.94
-22.21
-19.85
-15.96
-11.01
-5.81
-1.2
2.18
4.14
4.86
4.78
4.4
4.08
3.98
4.12
4.44
4.89
5.44
6.09
6.81
7.56
8.29
8.97
9.53
9.94
10.09
9.86
9.18
8.05
6.65
5.31
4.4
4.23
4.93
6.37
8.23
10.06
11.44
12.13
12.03
11.23
9.89
8.17
6.18
4.01
1.77
-0.43
-2.47
-4.26
-5.82
-7.22
-8.58
-10.01
-11.55
-13.23
-15.07
-17.13
-19.41
-21.8
-24
-25.57
-26.03
-25.06
-22.6
-18.96
-14.67
-10.35
-6.5
-3.42
-1.19
0.34
1.41
2.27
3.1
3.95
4.78
5.5
6.1
6.67
7.42
8.55
10.17
12.16
14.31
16.36
18.09
19.42
20.32
20.8
20.81
20.36
19.46
18.22
16.81
15.41
14.08
12.79
11.38
9.73
7.79
5.66
3.52
1.56
-0.18
-1.81
-3.6
-5.81
-8.53
-11.56
-14.46
-16.69
-17.84
-17.88
-17.12
-16.15
-15.55
-15.66
-16.45
-17.57
-18.47
-18.6
-17.52
-14.96
-10.92
-5.68
0.23
6.13
11.37
15.49
18.38
20.26
21.56
22.7
24.03
25.67
27.66
29.96
32.57
35.46
38.54
41.66
44.59
47.11
49.04
50.22
50.62
50.29
49.34
47.86
45.89
43.32
39.98
35.68
30.38
24.26
17.69
11.11
4.85
-0.94
-6.3
-11.32
-16
-20.24
-23.85
-26.64
-28.53
-29.56
-29.79
-29.24
-27.88
-25.68
-22.65
-18.95
-14.89
-10.82
-7.15
-4.17
-2.09
-0.94
-0.52
-0.45
-0.23
0.62
2.36
4.93
7.98
10.91
13.2
14.49
14.73
14.16
13.06
11.7
10.24
8.76
7.29
5.98
5.04
4.67
4.94
5.72
6.6
7.12
6.92
5.91
4.38
2.87
1.91
1.8
2.43
3.35
4.02
4.01
3.2
1.78
0.06
-1.7
-3.32
-4.78
-6.08
-7.24
-8.32
-9.44
-10.83
-12.73
-15.22
-18.15
-21.19
-23.98
-26.24
-27.98
-29.45
-30.96
-32.85
-35.23
-37.99
-40.78
-43.05
-44.17
-43.6
-41.04
-36.56
-30.58
-23.76
-16.84
-10.51
-5.2
-1.16
1.61
3.27
4.09
4.36
4.31
4.1
3.83
3.6
3.5
3.61
3.91
4.24
4.35
3.96
2.9
1.2
-1
-3.58
-6.52
-9.93
-13.94
-18.53
-23.46
-28.36
-32.89
-36.84
-40.19
-42.95
-45.1
-46.48
-46.78
-45.68
-42.95
-38.53
-32.55
-25.33
-17.34
-9.07
-0.95
6.75
14.02
21.02
27.96
34.99
42.05
48.88
55.1
60.29
64.14
66.51
67.48
67.4
66.72
65.85
64.95
63.86
62.1
59.05
54.26
47.61
39.48
30.57
21.69
13.55
6.51
0.63
-4.24
-8.28
-11.58
-14.15
-15.89
-16.67
-16.34
-14.85
-12.29
-8.89
-5.11
-1.45
1.64
3.99
5.71
7.09
8.4
9.74
11.02
12.09
12.96
13.89
15.25
17.35
20.15
23.23
25.89
27.34
26.99
24.58
20.22
14.32
7.43
0.2
-6.85
-13.38
-19.36
-25.03
-30.69
-36.49
-42.22
-47.39
-51.4
-53.78
-54.4
-53.46
-51.32
-48.37
-44.86
-40.94
-36.62
-31.9
-26.79
-21.32
-15.59
-9.74
-3.99
1.45
6.42
10.83
14.65
17.77
20.02
21.13
20.9
19.33
16.66
13.38
9.99
6.87
4.14
1.61
-1.09
-4.35
-8.42
-13.31
-18.72
-24.14
-28.99
-32.81
-35.43
-37.06
-38.23
-39.51
-41.26
-43.38
-45.26
-45.87
-44.15
-39.2
-30.63
-18.69
-4.31
10.98
25.32
37.07
45.38
50.54
53.94
57.41
62.35
69.13
76.93
84.24
89.64
92.42
92.67
90.97
87.82
83.38
77.52
70.19
61.67
52.65
43.96
36.25
29.77
24.35
19.58
15.14
10.85
6.82
3.21
0.16
-2.35
-4.48
-6.45
-8.31
-9.92
-11.01
-11.31
-10.76
-9.65
-8.51
-7.93
-8.28
-9.58
-11.51
-13.59
-15.36
-16.54
-17.1
-17.16
-16.89
-16.47
-16.05
-15.73
-15.6
-15.74
-16.14
-16.73
-17.31
-17.66
-17.62
-17.21
-16.65
-16.26
-16.36
-17.08
-18.34
-19.88
-21.38
-22.68
-23.85
-25.14
-26.86
-29.13
-31.8
-34.47
-36.63
-37.96
-38.45
-38.52
-38.77
-39.86
-42.12
-45.6
-50.03
-54.95
-59.69
-63.43
-65.17
-64.02
-59.57
-52.19
-43.04
-33.79
-25.97
-20.43
-17.08
-15.05
-13.13
-10.34
-6.11
-0.19
7.53
17.32
29.5
44.05
60.07
75.55
87.56
93.12
90.42
79.73
63.68
46.49
32.59
25.09
24.92
30.74
39.82
49.14
56.34
60.16
60.43
57.73
53.01
47.34
41.61
36.51
32.35
29.02
26
22.52
17.87
11.78
4.51
-3.09
-10.02
-15.51
-19.42
-22.16
-24.45
-26.92
-29.69
-32.48
-34.82
-36.46
-37.55
-38.52
-39.82
-41.74
-44.25
-47.14
-50.05
-52.48
-53.76
-53.18
-50.23
-44.87
-37.68
-29.71
-22.05
-15.3
-9.48
-4.12
1.27
6.78
11.93
15.81
17.53
16.58
13.09
7.85
2.13
-2.62
-5.23
-5.12
-2.57
1.43
5.51
8.53
9.9
9.7
8.46
6.69
4.56
1.94
-1.44
-5.62
-10.25
-14.75
-18.53
-21.34
-23.4
-25.14
-26.96
-28.88
-30.49
-31.08
-30.03
-27.09
-22.49
-16.95
-11.46
-7.03
-4.4
-3.89
-5.29
-8
-11.18
-14.13
-16.43
-17.91
-18.6
-18.41
-17.14
-14.48
-10.24
-4.58
2
8.7
14.71
19.44
22.58
24.18
24.55
24.19
23.72
23.81
25.02
27.6
31.4
35.8
39.83
42.5
43.12
41.52
38.19
34.09
30.3
27.76
26.91
27.75
29.81
32.39
34.78
36.43
37.04
36.58
35.19
33.06
30.37
27.23
23.75
20.03
16.2
12.42
8.73
5.04
1.13
-3.36
-8.78
-15.47
-23.57
-32.96
-43.25
-53.72
-63.56
-72.02
-78.67
-83.51
-86.87
-89.21
-90.92
-92.14
-92.71
-92.32
-90.62
-87.42
-82.71
-76.68
-69.71
-62.27
-54.83
-47.81
-41.45
-35.82
-30.8
-26.21
-21.82
-17.56
-13.49
-9.78
-6.58
-3.93
-1.69
0.38
2.48
4.71
6.97
9.07
10.89
12.33
13.38
14.04
14.27
13.97
13.08
11.64
9.86
8.02
6.37
5.02
3.87
2.71
1.39
-0.13
-1.66
-2.87
-3.46
-3.29
-2.52
-1.59
-1.13
-1.65
-3.35
-6.03
-9.25
-12.55
-15.67
-18.59
-21.45
-24.39
-27.49
-30.74
-34.15
-37.71
-41.27
-44.4
-46.38
-46.41
-44
-39.36
-33.44
-27.6
-23.08
-20.51
-19.68
-19.83
-20.01
-19.56
-18.36
-16.66
-14.93
-13.45
-12.3
-11.4
-10.66
-10.14
-10.07
-10.7
-12.12
-14.16
-16.46
-18.68
-20.73
-22.82
-25.33
-28.54
-32.5
-36.81
-40.77
-43.55
-44.4
-42.81
-38.53
-31.52
-21.94
-10.12
3.44
18.06
32.94
47.23
60.19
71.25
80.1
86.66
91
93.19
93.27
91.24
87.24
81.64
75.02
68.05
61.31
55.05
49.16
43.24
36.85
29.83
22.47
15.46
9.78
6.34
5.67
7.72
11.79
16.75
21.41
24.88
26.78
27.28
26.91
26.22
25.59
25.12
24.66
24.07
23.27
22.39
21.67
21.29
21.3
21.54
21.81
21.91
21.84
21.68
21.53
21.32
20.88
20.02
18.66
16.99
15.31
13.97
13.12
12.63
12.23
11.59
10.57
9.16
7.59
6.06
4.72
3.6
2.59
1.57
0.45
-0.78
-2.11
-3.55
-5.14
-6.95
-8.98
-11.13
-13.19
-14.93
-16.28
-17.4
-18.59
-20.17
-22.2
-24.37
-26.07
-26.61
-25.46
-22.52
-18.02
-12.4
-6.15
0.38
6.95
13.33
19.28
24.47
28.6
31.46
32.95
33.1
32.08
30.15
27.64
24.87
22.04
19.19
16.27
13.19
9.99
6.83
3.95
1.54
-0.32
-1.6
-2.29
-2.31
-1.62
-0.32
1.25
2.62
3.31
3.12
2.19
0.99
0.09
-0.04
0.85
2.71
5.2
7.8
9.9
10.94
10.71
9.35
7.34
5.23
3.43
1.98
0.72
-0.57
-1.93
-3.13
-3.83
-3.76
-2.87
-1.34
0.59
2.66
4.65
6.33
7.43
7.8
7.56
7.17
7.29
8.45
10.78
13.85
17
19.57
21.36
22.54
23.54
24.71
26.11
27.6
29.02
30.38
31.91
33.85
36.3
39.01
41.5
43.22
43.77
43.1
41.55
39.76
38.42
38.05
38.75
40.2
41.75
42.66
42.34
40.47
37.03
32.17
26.07
18.85
10.53
1.25
-8.63
-18.45
-27.35
-34.55
-39.57
-42.51
-43.9
-44.57
-45.42
-47.22
-50.53
-55.67
-62.6
-70.85
-79.39
-86.7
-91.14
-91.37
-86.8
-77.75
-65.36
-51.12
-36.43
-22.2
-8.73
4.08
16.37
28.04
38.55
47.14
53.05
55.97
56.15
54.32
51.42
48.2
45.09
42.16
39.23
36.03
32.29
27.92
22.92
17.56
12.19
7.24
2.92
-0.86
-4.58
-8.86
-14.15
-20.38
-26.9
-32.61
-36.33
-37.27
-35.3
-30.98
-25.43
-20.05
-16.22
-15.01
-16.87
-21.49
-27.86
-34.45
-39.65
-42.31
-41.98
-39.01
-34.21
-28.54
-22.74
-17.24
-12.16
-7.5
-3.24
0.59
3.96
6.9
9.47
11.82
14.15
16.62
19.33
22.23
25.17
27.93
30.32
32.24
33.59
34.3
34.26
33.32
31.45
28.71
25.31
21.44
17.19
12.55
7.49
2.02
-3.68
-9.36
-14.78
-19.75
-24.15
-27.82
-30.57
-32.32
-33.14
-33.34
-33.31
-33.34
-33.48
-33.58
-33.4
-32.8
-31.83
-30.71
-29.63
-28.68
-27.74
-26.57
-24.85
-22.31
-18.76
-14.2
-8.81
-2.99
2.69
7.63
11.33
13.48
14.15
13.71
12.77
11.94
11.61
11.78
12.06
11.81
10.5
7.92
4.26
0.08
-3.98
-7.46
-10.23
-12.47
-14.56
-16.96
-20.07
-24.12
-29.04
-34.34
-39.06
-41.87
-41.51
-37.27
-29.35
-18.97
-7.98
1.81
9.22
14
16.65
17.85
18.08
17.34
15.35
11.83
6.76
0.48
-6.44
-13.43
-19.93
-25.38
-29.22
-30.87
-29.87
-26.15
-20.13
-12.65
-4.74
2.69
9.07
14.23
18.25
21.36
23.68
25.28
26.11
26.12
25.35
23.9
21.97
19.82
17.81
16.31
15.66
16.1
17.7
20.31
23.57
26.97
30.01
32.31
33.6
33.84
33.12
31.6
29.48
26.88
23.81
20.18
15.94
11.05
5.63
-0.1
-5.91
-11.64
-17.34
-23.25
-29.67
-36.73
-44.26
-51.75
-58.42
-63.42
-66.03
-65.79
-62.56
-56.38
-47.38
-35.75
-21.74
-5.8
11.28
28.47
44.63
58.72
69.9
77.55
81.22
80.74
76.45
69.36
61.18
53.9
48.94
46.57
45.68
44.35
40.87
34.66
26.52
18.15
11.23
6.6
4.06
2.74
1.72
0.49
-1.06
-2.87
-5.02
-7.79
-11.49
-16.19
-21.58
-27.04
-31.97
-35.91
-38.76
-40.68
-41.97
-43
-44
-45.04
-45.87
-46.02
-44.86
-41.88
-36.86
-30.09
-22.34
-14.69
-8.19
-3.57
-1.07
-0.48
-1.26
-2.67
-3.94
-4.32
-3.26
-0.47
3.97
9.59
15.69
21.57
26.7
30.83
33.86
35.76
36.49
36
34.4
32.02
29.38
27.03
25.36
24.44
24.04
23.73
23.05
21.6
19.25
16.13
12.57
9.08
6.04
3.61
1.63
-0.27
-2.46
-5.09
-7.97
-10.72
-13.01
-14.73
-16.1
-17.49
-19.2
-21.26
-23.44
-25.44
-27.03
-28.23
-29.25
-30.37
-31.76
-33.43
-35.14
-36.5
-37.04
-36.38
-34.3
-30.87
-26.45
-21.55
-16.67
-12.13
-8
-4.23
-0.79
2.19
4.48
5.91
6.62
6.97
7.44
8.38
9.86
11.63
13.36
14.81
15.98
17.08
18.36
19.93
21.7
23.43
24.85
25.75
26.06
25.82
25.1
23.98
22.54
20.9
19.11
17.27
15.5
13.88
12.55
11.67
11.37
11.64
12.32
13.03
13.31
12.82
11.45
9.36
6.9
4.43
2.12
0.01
-2
-3.99
-5.96
-7.82
-9.43
-10.68
-11.59
-12.33
-13.17
-14.37
-16.12
-18.43
-21.1
-23.76
-25.92
-27.17
-27.22
-26.01
-23.68
-20.52
-16.85
-13.03
-9.36
-6.07
-3.24
-0.89
1.12
2.93
4.64
6.32
7.91
9.36
10.66
11.92
13.31
14.94
16.79
18.68
20.35
21.58
22.28
22.5
22.34
21.88
21.16
20.17
18.94
17.56
16.12
14.7
13.35
12.1
10.98
10.05
9.33
8.74
8.11
7.24
6
4.44
2.81
1.43
0.58
0.36
0.68
1.3
1.95
2.41
2.56
2.34
1.75
0.72
-0.85
-3.11
-6.13
-9.8
-13.73
-17.39
-20.34
-22.49
-24.21
-26.14
-28.82
-32.27
-35.9
-38.8
-40.15
-39.73
-37.93
-35.47
-32.92
-30.45
-27.83
-24.73
-21.03
-16.86
-12.51
-8.24
-4.26
-0.74
2.09
4.01
5.02
5.44
5.87
6.94
9.01
12.01
15.52
19.02
22.15
24.83
27.23
29.6
32.24
35.28
38.65
42.07
45.04
46.92
47.15
45.4
41.65
36.17
29.32
21.49
13.02
4.27
-4.33
-12.3
-19.18
-24.63
-28.45
-30.64
-31.32
-30.72
-29.12
-26.86
-24.3
-21.79
-19.57
-17.76
-16.28
-14.97
-13.64
-12.18
-10.61
-9.02
-7.47
-5.98
-4.52
-3.03
-1.54
-0.15
0.97
1.68
1.9
1.67
1.1
0.34
-0.47
-1.27
-2.04
-2.8
-3.61
-4.5
-5.46
-6.39
-7.15
-7.61
-7.66
-7.32
-6.7
-5.98
-5.3
-4.75
-4.28
-3.82
-3.31
-2.8
-2.43
-2.38
-2.78
-3.65
-4.97
-6.66
-8.67
-10.94
-13.33
-15.55
-17.14
-17.59
-16.55
-14.03
-10.42
-6.4
-2.66
0.35
2.48
3.94
5.08
6.27
7.73
9.54
11.59
13.65
15.46
16.76
17.38
17.33
16.75
15.88
15.03
14.41
14.18
14.43
15.18
16.36
17.77
19.14
20.21
20.86
21.13
21.22
21.29
21.46
21.67
21.75
21.55
20.98
20.03
18.75
17.22
15.55
13.89
12.43
11.37
10.79
10.61
10.6
10.42
9.74
8.34
6.11
3.11
-0.52
-4.52
-8.62
-12.52
-15.94
-18.65
-20.54
-21.58
-21.83
-21.45
-20.63
-19.59
-18.48
-17.41
-16.39
-15.37
-14.28
-13.05
-11.7
-10.26
-8.81
-7.43
-6.18
-5.11
-4.25
-3.64
-3.27
-3.12
-3.11
-3.16
-3.18
-3.1
-2.89
-2.52
-2.07
-1.65
-1.43
-1.53
-1.91
-2.39
-2.67
-2.51
-1.91
-1.14
-0.62
-0.73
-1.57
-2.98
-4.6
-6.09
-7.31
-8.31
-9.28
-10.37
-11.63
-12.97
-14.21
-15.21
-15.87
-16.19
-16.25
-16.16
-16.09
-16.2
-16.63
-17.45
-18.62
-19.96
-21.18
-21.95
-22.07
-21.47
-20.3
-18.78
-17.15
-15.51
-13.83
-12.02
-9.97
-7.69
-5.26
-2.76
-0.22
2.37
5.12
8.02
10.98
13.79
16.24
18.14
19.53
20.57
21.62
23.06
25.21
28.23
31.98
36.06
39.9
42.94
44.78
45.32
44.76
43.41
41.59
39.47
37.08
34.4
31.46
28.37
25.29
22.37
19.62
16.98
14.3
11.42
8.21
4.59
0.53
-3.84
-8.27
-12.42
-16.02
-18.93
-21.26
-23.24
-25.14
-27.18
-29.5
-32.18
-35.19
-38.28
-40.9
-42.28
-41.65
-38.7
-33.78
-27.89
-22.27
-17.88
-15.03
-13.34
-12.04
-10.45
-8.25
-5.57
-2.79
-0.34
1.5
2.56
2.79
2.17
0.79
-1.08
-2.96
-4.19
-4.19
-2.67
0.26
4.06
8.02
11.54
14.26
16.16
17.4
18.13
18.37
18.07
17.2
15.85
14.23
12.63
11.2
10.01
8.93
7.8
6.41
4.72
2.74
0.65
-1.37
-3.14
-4.57
-5.64
-6.41
-6.97
-7.4
-7.73
-8.02
-8.3
-8.62
-8.99
-9.35
-9.62
-9.78
-9.9
-10.23
-11.04
-12.52
-14.58
-16.8
-18.56
-19.22
-18.31
-15.78
-11.94
-7.4
-2.9
0.83
3.31
4.32
4.02
2.86
1.5
0.65
0.84
2.27
4.76
7.84
10.9
13.46
15.27
16.42
17.19
17.86
18.61
19.44
20.22
20.81
21.13
21.18
20.99
20.57
19.94
19.11
18.2
17.37
16.82
16.63
16.75
16.93
16.81
16.06
14.52
12.25
9.45
6.4
3.27
0.12
-3.12
-6.53
-10.15
-13.92
-17.68
-21.28
-24.47
-27.04
-28.77
-29.56
-29.55
-29.12
-28.88
-29.45
-31.18
-33.92
-37.05
-39.7
-41.07
-40.73
-38.78
-35.73
-32.21
-28.74
-25.63
-22.97
-20.75
-18.93
-17.45
-16.13
-14.76
-13.07
-10.93
-8.42
-5.8
-3.38
-1.37
0.17
1.4
2.52
3.66
4.89
6.17
7.45
8.62
9.6
10.29
10.61
10.54
10.18
9.64
9.08
8.55
8.04
7.5
6.91
6.27
5.58
4.84
4.02
3.15
2.34
1.79
1.66
1.95
2.49
2.95
3.07
2.79
2.29
1.86
1.75
1.96
2.29
2.44
2.21
1.66
1.05
0.69
0.85
1.57
2.76
4.22
5.79
7.31
8.65
9.69
10.27
10.23
9.53
8.28
6.76
5.32
4.24
3.58
3.16
2.64
1.68
0.13
-1.94
-4.2
-6.23
-7.65
-8.25
-8.02
-7.13
-5.86
-4.5
-3.29
-2.41
-1.91
-1.75
-1.8
-1.86
-1.76
-1.39
-0.8
-0.1
0.56
1.13
1.6
1.98
2.21
2.14
1.62
0.57
-0.94
-2.65
-4.3
-5.65
-6.63
-7.29
-7.79
-8.36
-9.3
-11.02
-13.89
-18.18
-23.79
-30.18
-36.41
-41.43
-44.36
-44.81
-42.98
-39.68
-35.94
-32.76
-30.71
-29.77
-29.41
-28.81
-27.21
-24.21
-19.89
-14.72
-9.38
-4.47
-0.42
2.67
4.92
6.64
8.17
9.79
11.68
13.88
16.31
18.85
21.31
23.46
25.05
25.91
26.06
25.79
25.58
25.93
27.1
28.94
30.95
32.52
33.24
32.99
32.06
30.82
29.59
28.47
27.36
26.1
24.59
22.94
21.43
20.47
20.34
21.1
22.52
24.09
25.18
25.25
23.94
21.13
16.97
11.8
6.14
0.68
-3.97
-7.3
-9.15
-9.65
-9.18
-8.13
-6.82
-5.42
-3.93
-2.34
-0.7
0.8
1.86
2.17
1.5
-0.13
-2.41
-4.74
-6.45
-7.02
-6.29
-4.55
-2.41
-0.53
0.57
0.76
0.21
-0.69
-1.57
-2.23
-2.69
-3.08
-3.49
-3.91
-4.22
-4.31
-4.23
-4.18
-4.46
-5.33
-6.81
-8.69
-10.58
-12.01
-12.66
-12.37
-11.16
-9.32
-7.3
-5.63
-4.83
-5.14
-6.41
-8.14
-9.62
-10.21
-9.55
-7.68
-4.97
-1.95
0.81
2.95
4.35
5.14
5.62
6.07
6.69
7.47
8.33
9.15
9.96
10.84
11.94
13.32
14.84
16.26
17.26
17.58
17.1
15.93
14.31
12.62
11.22
10.29
9.82
9.56
9.17
8.4
7.19
5.73
4.28
3.1
2.22
1.56
0.89
0.05
-1
-2.12
-3.12
-3.87
-4.33
-4.65
-5.03
-5.7
-6.87
-8.59
-10.87
-13.61
-16.6
-19.57
-22.15
-23.97
-24.77
-24.43
-23.1
-21.06
-18.7
-16.31
-14.09
-12.12
-10.41
-8.97
-7.85
-7.04
-6.53
-6.24
-6.03
-5.81
-5.51
-5.11
-4.57
-3.9
-3.11
-2.25
-1.38
-0.56
0.2
0.98
1.86
2.95
4.27
5.77
7.36
8.99
10.65
12.39
14.23
16.18
18.19
20.22
22.22
24.2
26.19
28.15
29.97
31.42
32.21
32.15
31.11
29.16
26.45
23.15
19.44
15.45
11.36
7.34
3.54
0.01
-3.41
-6.92
-10.73
-14.81
-18.86
-22.37
-24.82
-25.88
-25.48
-23.86
-21.42
-18.54
-15.53
-12.52
-9.55
-6.59
-3.59
-0.55
2.45
5.34
7.95
10.19
12
13.4
14.46
15.28
15.94
16.51
17.02
17.43
17.71
17.83
17.77
17.63
17.48
17.38
17.32
17.18
16.84
16.2
15.26
14.14
12.95
11.8
10.7
9.63
8.55
7.42
6.23
4.94
3.5
1.87
0.08
-1.74
-3.44
-4.86
-5.98
-6.86
-7.63
-8.37
-9.11
-9.89
-10.7
-11.6
-12.66
-13.86
-15.1
-16.23
-17.13
-17.88
-18.72
-19.97
-21.88
-24.38
-27.1
-29.46
-30.81
-30.73
-29.03
-25.88
-21.68
-16.97
-12.33
-8.18
-4.81
-2.21
-0.22
1.51
3.25
5.15
7.13
8.94
10.31
11.08
11.32
11.25
11.15
11.29
11.79
12.67
13.81
15.08
16.32
17.41
18.23
18.7
18.8
18.55
18.04
17.35
16.56
15.67
14.66
13.48
12.07
10.42
8.56
6.61
4.79
3.35
2.43
2.04
1.98
1.92
1.53
0.59
-0.87
-2.7
-4.69
-6.73
-8.82
-11
-13.27
-15.56
-17.72
-19.69
-21.5
-23.32
-25.33
-27.61
-30.03
-32.32
-34.18
-35.4
-35.95
-35.84
-35.06
-33.45
-30.7
-26.54
-20.83
-13.74
-5.75
2.55
10.56
17.85
24.2
29.57
34
37.57
40.32
42.34
43.66
44.37
44.57
44.33
43.67
42.56
40.96
38.82
36.15
32.99
29.49
25.82
22.23
18.94
16.08
13.7
11.73
10.03
8.47
6.97
5.45
3.89
2.26
0.52
-1.32
-3.17
-4.85
-6.13
-6.83
-6.95
-6.67
-6.31
-6.23
-6.7
-7.82
-9.59
-11.94
-14.73
-17.84
-21.06
-24.13
-26.75
-28.63
-29.64
-29.77
-29.1
-27.73
-25.68
-22.99
-19.77
-16.24
-12.69
-9.38
-6.42
-3.74
-1.21
1.19
3.35
5.02
6.04
6.44
6.51
6.63
7.15
8.23
9.73
11.3
12.38
12.32
10.46
6.39
0.13
-7.73
-16.16
-23.94
-30.12
-34.18
-36.1
-36.17
-34.77
-32.18
-28.66
-24.54
-20.27
-16.37
-13.22
-10.9
-9.19
-7.62
-5.77
-3.42
-0.62
2.46
5.58
8.6
11.44
13.99
16.11
17.52
17.95
17.27
15.53
12.96
9.85
6.49
3.08
-0.23
-3.39
-6.38
-9.39
-12.67
-16.5
-20.92
-25.59
-29.85
-32.89
-34.18
-33.65
-31.69
-28.9
-25.69
-22.12
-17.88
-12.61
-6.16
1.27
9.13
16.79
23.75
29.64
34.23
37.35
38.84
38.68
37.02
34.27
31.04
27.96
25.52
23.95
23.24
23.17
23.4
23.65
23.65
23.28
22.43
21.1
19.32
17.22
14.99
12.8
10.82
9.1
7.56
6.09
4.57
3.04
1.62
0.48
-0.25
-0.55
-0.52
-0.34
-0.17
-0.23
-0.64
-1.56
-3.07
-5.16
-7.73
-10.55
-13.29
-15.57
-17.06
-17.54
-16.99
-15.62
-13.84
-12.11
-10.83
-10.19
-10.08
-10.22
-10.2
-9.71
-8.6
-6.93
-4.96
-3.03
-1.5
-0.64
-0.52
-0.96
-1.58
-1.95
-1.68
-0.63
1.04
2.93
4.6
5.73
6.2
6.16
5.79
5.28
4.65
3.89
2.97
1.97
1.02
0.29
-0.15
-0.37
-0.51
-0.76
-1.2
-1.81
-2.49
-3.14
-3.77
-4.49
-5.44
-6.65
-8.01
-9.29
-10.29
-10.96
-11.5
-12.3
-13.67
-15.72
-18.15
-20.41
-21.85
-22.01
-20.72
-18.15
-14.73
-10.91
-7.13
-3.65
-0.61
1.97
4.2
6.18
8.05
9.89
11.76
13.62
15.44
17.16
18.77
20.27
21.67
22.98
24.15
25.15
25.95
26.56
27.02
27.34
27.49
27.31
26.64
25.36
23.55
21.4
19.25
17.37
15.9
14.85
14.09
13.49
12.96
12.49
12.09
11.75
11.39
10.83
9.92
8.58
6.87
4.98
3.07
1.19
-0.82
-3.26
-6.38
-10.16
-14.23
-18
-21.02
-23.17
-24.83
-26.55
-28.71
-31.15
-33.17
-33.83
-32.45
-28.98
-24.04
-18.61
-13.64
-9.64
-6.66
-4.36
-2.34
-0.32
1.75
3.78
5.69
7.48
9.28
11.31
13.72
16.52
19.47
22.1
23.88
24.36
23.41
21.3
18.6
15.95
13.82
12.23
10.81
8.97
6.11
1.82
-4.1
-11.74
-21.09
-31.97
-43.89
-55.89
-66.74
-75.23
-80.61
-82.85
-82.5
-80.37
-77.17
-73.33
-69.08
-64.59
-60.08
-55.71
-51.45
-46.97
-41.81
-35.69
-28.72
-21.5
-14.82
-9.42
-5.59
-3.18
-1.61
-0.12
1.95
4.99
9.03
13.78
18.68
23.21
27.01
29.99
32.3
34.2
35.88
37.36
38.48
39.09
39.14
38.71
38
37.18
36.32
35.38
34.27
33.02
31.75
30.68
29.94
29.5
29.09
28.39
27.11
25.17
22.68
19.94
17.24
14.74
12.46
10.34
8.25
6.14
4
1.86
-0.22
-2.25
-4.23
-6.14
-7.91
-9.4
-10.43
-10.89
-10.85
-10.49
-10.14
-10.05
-10.37
-11.17
-12.45
-14.25
-16.58
-19.34
-22.22
-24.66
-26.03
-25.81
-23.86
-20.43
-16.16
-11.75
-7.84
-4.77
-2.57
-1.01
0.3
1.77
3.66
5.97
8.48
10.75
12.37
13.13
13.09
12.56
11.96
11.72
12.05
13
14.45
16.22
18.1
19.85
21.2
21.85
21.51
20.03
17.48
14.27
10.9
7.91
5.64
4.14
3.23
2.58
1.94
1.16
0.22
-0.84
-1.99
-3.21
-4.47
-5.7
-6.81
-7.66
-8.2
-8.47
-8.68
-9.15
-10.22
-12.09
-14.68
-17.59
-20.15
-21.71
-21.8
-20.33
-17.55
-13.9
-9.88
-5.84
-2.03
1.4
4.3
6.57
8.14
9.03
9.33
9.23
8.95
8.71
8.69
8.94
9.36
9.7
9.69
9.18
8.24
7.17
6.4
6.26
6.79
7.76
8.77
9.44
9.59
9.22
8.53
7.75
7.1
6.71
6.61
6.76
7.02
7.1
6.65
5.35
3.1
0.06
-3.38
-6.75
-9.72
-12.22
-14.45
-16.72
-19.19
-21.77
-24.1
-25.69
-26.18
-25.53
-24.06
-22.31
-20.83
-19.94
-19.7
-19.94
-20.43
-21.06
-21.8
-22.67
-23.59
-24.36
-24.75
-24.58
-23.88
-22.9
-22
-21.5
-21.51
-21.84
-22.03
-21.46
-19.63
-16.33
-11.8
-6.68
-1.83
1.95
4.09
4.35
2.75
-0.53
-5.19
-10.85
-16.89
-22.47
-26.59
-28.24
-26.62
-21.3
-12.35
-0.28
14.05
29.57
45.18
59.93
73.11
84.25
93.12
99.66
103.93
106.08
106.3
104.87
102.08
98.24
93.54
88.01
81.5
73.87
65.17
55.78
46.42
37.82
30.48
24.39
19.13
14.05
8.75
3.24
-2.14
-6.98
-11.05
-14.42
-17.28
-19.7
-21.53
-22.48
-22.3
-21.07
-19.31
-17.77
-17.26
-18.18
-20.43
-23.4
-26.08
-27.41
-26.53
-22.95
-16.74
-8.57
0.15
7.43
11.02
9.12
1.09
-12.11
-27.95
-43.05
-54.16
-59.05
-57.07
-49.18
-37.72
-25.8
-16.61
-12.54
-14.6
-21.96
-32.2
-41.97
-47.89
-47.56
-40.03
-25.98
-7.39
12.95
32.16
47.9
58.96
65.39
68.17
68.6
67.63
65.47
61.77
56.08
48.29
38.86
28.83
19.66
13.04
10.55
13.39
21.84
34.91
50.21
64.46
74.49
78.37
76.1
69.44
61.02
53.22
47.46
43.97
42.09
40.86
39.35
37.01
33.67
29.6
25.6
22.9
22.64
25.33
30.31
35.87
39.97
41.33
40.08
37.88
37.07
39.53
45.71
54.44
63.4
70.17
73.16
71.94
66.93
58.87
48.32
35.66
21.44
6.58
-7.56
-19.52
-28.37
-34.05
-37.42
-39.77
-42.22
-45.3
-48.97
-52.74
-56.01
-58.48
-60.17
-61.53
-63.15
-65.57
-69.1
-74.01
-80.2
-87.28
-94.69
-101.82
-108.15
-113.34
-117.32
-120.28
-123.18
-126.87
-131.77
-137.75
-144.35
-151.07
-157.74
-164.46
-171.51
-179.76
-189.64
-200.87
-212.61
-223.91
-233.97
-242.25
-248.41
-252.1
-253.94
-254.06
-251.74
-245.31
-232.85
-213.18
-186.85
-156.46
-118.33
-73.17
-24.44
23.06
65.13
99.58
126.56
147.83
165.8
180.62
192.7
201.55
205.89
204.34
196.31
182.59
165.28
147.19
131.39
119.14
110.26
103.74
98.51
93.91
89.74
86.04
82.76
79.68
76.03
71.14
64.85
57.64
50.31
43.6
37.8
32.68
27.65
21.95
15.18
7.52
-0.21
-6.99
-12.03
-15.05
-16.31
-16.4
-16.04
-15.74
-15.66
-15.54
-14.9
-13.27
-10.41
-6.44
-1.76
3.08
7.57
11.35
14.31
16.45
17.84
18.52
18.61
18.28
17.79
17.39
17.22
17.21
17.13
16.77
16.06
15.15
14.37
14.03
14.19
14.63
14.86
14.37
12.83
10.19
6.66
2.63
-1.52
-5.48
-9.09
-12.35
-15.41
-18.53
-21.92
-25.68
-29.65
-33.54
-37.02
-39.92
-42.36
-44.71
-47.43
-50.84
-54.88
-59.08
-62.67
-64.83
-64.9
-62.68
-58.52
-53.34
-48.31
-44.58
-42.79
-42.96
-44.5
-46.56
-48.33
-49.31
-49.39
-48.73
-47.63
-46.39
-45.11
-43.57
-41.18
-37.06
-30.34
-20.58
-8.01
6.47
21.75
37.07
52.32
67.84
83.94
100.29
115.89
129.36
139.61
146.29
149.85
151.18
151.08
150
148.04
145.15
141.27
136.45
130.78
124.33
117.15
109.23
100.56
91.02
80.5
68.99
56.77
44.47
32.97
23.02
14.8
7.84
1.16
-6.22
-14.75
-24.14
-33.46
-41.56
-47.51
-50.84
-51.58
-50.06
-46.67
-41.78
-35.6
-28.28
-19.97
-10.81
-1.1
8.71
18.02
26.12
32.34
36.18
37.41
36.17
32.89
28.21
22.75
17.02
11.34
5.87
0.78
-3.78
-7.62
-10.64
-12.96
-14.9
-16.92
-19.39
-22.43
-25.81
-29.1
-31.85
-33.82
-35.1
-36.08
-37.29
-39.25
-42.3
-46.47
-51.49
-56.8
-61.66
-65.38
-67.51
-67.98
-67.18
-65.71
-64.23
-63.19
-62.68
-62.6
-62.73
-62.95
-63.27
-63.92
-65.13
-67.08
-69.6
-72.05
-73.18
-71.26
-64.45
-51.56
-32.76
-9.85
13.96
35.05
50.45
58.77
60.54
57.93
53.87
51.18
51.82
56.45
64.5
74.5
84.57
92.95
98.28
99.74
97.03
90.24
79.82
66.71
52.34
38.54
27.17
19.55
16.11
16.12
18.06
20.18
21.17
20.62
18.89
16.76
14.83
13.23
11.63
9.7
7.45
5.39
4.34
4.87
6.92
9.68
11.93
12.63
11.39
8.68
5.53
3.07
2.12
2.95
5.23
8.36
11.64
14.54
16.76
18.22
19.01
19.26
19.07
18.48
17.49
16.09
14.28
12.12
9.67
7.02
4.29
1.62
-0.78
-2.7
-4.01
-4.81
-5.38
-6.1
-7.23
-8.7
-10.19
-11.22
-11.54
-11.25
-10.8
-10.71
-11.31
-12.48
-13.75
-14.56
-14.56
-13.78
-12.58
-11.47
-10.82
-10.84
-11.52
-12.74
-14.35
-16.05
-17.4
-17.87
-16.88
-14.06
-9.44
-3.48
2.92
8.69
12.88
14.88
14.6
12.38
8.85
4.75
0.76
-2.53
-4.71
-5.49
-4.79
-2.79
0.1
3.29
6.26
8.68
10.46
11.71
12.56
13.01
12.91
12.06
10.3
7.72
4.64
1.52
-1.17
-3.13
-4.29
-4.79
-4.91
-4.89
-4.89
-4.98
-5.15
-5.35
-5.59
-5.92
-6.42
-7.16
-8.18
-9.53
-11.22
-13.23
-15.39
-17.44
-18.99
-19.66
-19.22
-17.63
-15.17
-12.24
-9.31
-6.66
-4.4
-2.47
-0.73
0.85
2.22
3.29
3.97
4.31
4.43
4.53
4.76
5.25
5.96
6.84
7.74
8.51
9.04
9.26
9.2
8.92
8.53
8.07
7.59
7.06
6.45
5.77
5.06
4.37
3.76
3.24
2.79
2.34
1.83
1.25
0.6
-0.08
-0.73
-1.37
-2.03
-2.75
-3.53
-4.34
-5.13
-5.95
-6.93
-8.2
-9.77
-11.36
-12.45
-12.38
-10.66
-7.2
-2.37
3.16
8.68
13.66
17.88
21.34
24.16
26.48
28.42
30.04
31.39
32.54
33.43
33.98
34
33.26
31.56
28.85
25.26
21.12
16.9
13.05
9.88
7.49
5.79
4.63
3.83
3.25
2.8
2.42
2.02
1.52
0.88
-0.03
-1.34
-3.25
-5.88
-9.19
-12.85
-16.4
-19.33
-21.4
-22.74
-23.79
-25.04
-26.83
-29.13
-31.59
-33.8
-35.47
-36.53
-37.13
-37.52
-37.92
-38.48
-39.25
-40.18
-41.12
-41.78
-41.76
-40.72
-38.42
-34.92
-30.57
-25.89
-21.45
-17.63
-14.58
-12.21
-10.23
-8.29
-6.08
-3.44
-0.37
2.92
6.16
9.07
11.51
13.47
15
16.16
17.02
17.65
18.21
18.92
20.07
21.81
24.1
26.59
28.72
29.82
29.42
27.34
23.79
19.3
14.52
10.03
6.13
2.78
-0.3
-3.42
-6.78
-10.27
-13.61
-16.5
-18.79
-20.56
-22.09
-23.66
-25.47
-27.58
-29.9
-32.31
-34.69
-36.85
-38.49
-39.21
-38.67
-36.88
-34.26
-31.61
-29.7
-28.91
-28.95
-28.95
-27.83
-24.91
-20.15
-14.19
-7.98
-2.39
2.18
5.8
8.88
11.81
14.81
17.89
20.88
23.67
26.21
28.59
30.93
33.19
35.22
36.76
37.58
37.64
37.12
36.4
35.78
35.35
34.84
33.71
31.43
27.77
22.96
17.65
12.59
8.37
5.13
2.66
0.53
-1.55
-3.68
-5.68
-7.34
-8.5
-9.24
-9.75
-10.29
-11.01
-11.91
-12.87
-13.68
-14.16
-14.21
-13.84
-13.13
-12.26
-11.4
-10.71
-10.32
-10.41
-11.05
-12.24
-13.68
-14.88
-15.13
-13.83
-10.68
-5.94
-0.4
4.84
8.69
10.42
9.87
7.4
3.78
-0.1
-3.45
-5.73
-6.7
-6.43
-5.16
-3.27
-1.06
1.18
3.29
5.19
6.85
8.26
9.47
10.5
11.42
12.23
12.9
13.35
13.45
13.08
12.22
10.91
9.39
7.88
6.64
5.77
5.25
4.94
4.62
4.14
3.37
2.3
1.02
-0.38
-1.8
-3.2
-4.59
-6.04
-7.66
-9.56
-11.87
-14.6
-17.68
-20.8
-23.51
-25.29
-25.68
-24.49
-21.87
-18.31
-14.49
-11.03
-8.34
-6.46
-5.19
-4.15
-3.01
-1.61
0.04
1.79
3.49
5.05
6.48
7.84
9.2
10.48
11.58
12.33
12.71
12.78
12.73
12.73
12.89
13.16
13.37
13.29
12.76
11.74
10.32
8.72
7.17
5.9
4.99
4.41
4.04
3.69
3.19
2.5
1.59
0.49
-0.74
-2.08
-3.49
-4.91
-6.29
-7.57
-8.77
-9.97
-11.32
-12.97
-15.02
-17.44
-20.01
-22.41
-24.2
-24.92
-24.27
-22.17
-18.87
-14.86
-10.78
-7.12
-4.2
-1.99
-0.31
1.11
2.49
3.89
5.37
6.9
8.47
10
11.36
12.45
13.21
13.74
14.19
14.68
15.28
15.88
16.36
16.68
16.86
17
17.17
17.33
17.32
17.01
16.39
15.56
14.65
13.79
12.96
12.11
11.15
10.04
8.83
7.53
6.18
4.78
3.31
1.79
0.26
-1.19
-2.5
-3.59
-4.47
-5.21
-5.93
-6.8
-7.9
-9.22
-10.59
-11.78
-12.62
-13.12
-13.53
-14.21
-15.49
-17.48
-20
-22.63
-24.79
-25.93
-25.68
-23.94
-20.92
-17.02
-12.79
-8.68
-5.04
-2.03
0.39
2.31
3.87
5.14
6.16
6.98
7.65
8.27
8.89
9.57
10.32
11.11
11.92
12.74
13.52
14.22
14.78
15.14
15.28
15.24
15.07
14.8
14.43
13.87
13.04
11.93
10.67
9.47
8.57
8.09
8.03
8.19
8.32
8.15
7.56
6.58
5.39
4.27
3.4
2.89
2.62
2.43
2.15
1.71
1.22
0.84
0.76
1.02
1.55
2.15
2.62
2.83
2.82
2.66
2.56
2.71
3.35
4.72
6.99
10.22
14.24
18.69
22.97
26.49
28.76
29.56
29.03
27.58
25.69
23.8
22.09
20.56
18.97
17.02
14.46
11.14
7.14
2.67
-1.9
-6.13
-9.67
-12.31
-14.04
-15.08
-15.77
-16.43
-17.26
-18.25
-19.28
-20.16
-20.78
-21.16
-21.37
-21.47
-21.44
-21.23
-20.76
-20.09
-19.37
-18.83
-18.66
-18.9
-19.42
-19.96
-20.24
-20.06
-19.36
-18.24
-16.91
-15.65
-14.72
-14.34
-14.66
-15.71
-17.39
-19.39
-21.24
-22.36
-22.28
-20.77
-17.94
-14.23
-10.23
-6.54
-3.56
-1.45
-0.12
0.66
1.17
1.67
2.31
3.1
3.96
4.75
5.35
5.77
6.11
6.47
6.95
7.57
8.28
9.03
9.84
10.68
11.51
12.22
12.64
12.63
12.16
11.35
10.42
9.57
8.9
8.36
7.79
7.05
6.1
5.03
3.99
3.15
2.56
2.16
1.81
1.31
0.54
-0.56
-1.93
-3.42
-4.87
-6.14
-7.19
-8.11
-9.06
-10.3
-12.04
-14.41
-17.35
-20.56
-23.5
-25.58
-26.27
-25.37
-23.04
-19.78
-16.29
-13.2
-10.91
-9.47
-8.63
-7.93
-6.86
-5.09
-2.5
0.72
4.2
7.45
10.07
11.8
12.57
12.42
11.5
10.01
8.23
6.47
5.07
4.26
4.07
4.32
4.7
4.92
4.79
4.31
3.58
2.75
1.93
1.19
0.55
0.04
-0.3
-0.47
-0.55
-0.67
-0.95
-1.45
-2.09
-2.73
-3.21
-3.5
-3.7
-3.98
-4.59
-5.65
-7.18
-9.08
-11.23
-13.53
-15.99
-18.68
-21.68
-25.01
-28.6
-32.25
-35.68
-38.52
-40.36
-40.75
-39.37
-36.04
-30.9
-24.42
-17.31
-10.33
-4.06
1.23
5.59
9.26
12.5
15.4
17.88
19.7
20.7
20.89
20.54
20.06
19.8
19.84
19.96
19.83
19.29
18.49
17.92
18.1
19.24
21.11
23.12
24.62
25.19
24.81
23.78
22.47
21.18
20.06
19.18
18.59
18.32
18.35
18.64
19.09
19.65
20.39
21.43
22.84
24.48
26.02
26.97
26.9
25.62
23.31
20.48
17.76
15.7
14.59
14.33
14.45
14.28
13.06
10.27
5.89
0.39
-5.21
-9.76
-12.26
-12.25
-9.88
-5.93
-1.46
2.47
5.11
6.14
5.69
4.14
1.98
-0.45
-3.02
-5.73
-8.64
-11.71
-14.83
-17.83
-20.64
-23.3
-25.83
-28.13
-29.92
-30.82
-30.58
-29.24
-27.11
-24.65
-22.2
-19.84
-17.41
-14.72
-11.72
-8.59
-5.61
-3
-0.73
1.46
3.91
6.76
9.8
12.46
14.13
14.38
13.22
11.06
8.53
6.2
4.29
2.65
0.82
-1.77
-5.6
-10.77
-16.99
-23.57
-29.56
-34
-36.19
-35.91
-33.41
-29.35
-24.48
-19.43
-14.54
-9.8
-4.99
0.14
5.64
11.27
16.53
20.81
23.55
24.46
23.59
21.28
18.08
14.59
11.34
8.7
6.87
5.86
5.57
5.87
6.59
7.55
8.55
9.34
9.63
9.26
8.16
6.47
4.42
2.24
0.12
-1.88
-3.78
-5.62
-7.54
-9.72
-12.35
-15.59
-19.42
-23.61
-27.77
-31.47
-34.35
-36.24
-37.04
-36.72
-35.15
-32.15
-27.61
-21.56
-14.37
-6.66
0.79
7.22
12.1
15.23
16.77
17.17
17.05
17.01
17.54
18.9
21.14
24.06
27.31
30.46
33.07
34.8
35.41
34.94
33.55
31.61
29.51
27.57
25.98
24.72
23.6
22.37
20.83
18.85
16.47
13.81
10.99
8.06
4.99
1.74
-1.67
-5.08
-8.22
-10.82
-12.69
-13.88
-14.66
-15.43
-16.57
-18.28
-20.53
-23.05
-25.44
-27.24
-28.08
-27.79
-26.48
-24.55
-22.57
-21.1
-20.49
-20.72
-21.43
-22.05
-22.03
-21.07
-19.18
-16.66
-13.97
-11.54
-9.69
-8.52
-7.96
-7.8
-7.73
-7.45
-6.63
-5.08
-2.74
0.22
3.42
6.38
8.67
9.98
10.26
9.69
8.59
7.34
6.27
5.62
5.49
5.9
6.79
8.03
9.42
10.78
11.9
12.63
12.93
12.82
12.43
11.87
11.11
10.01
8.33
5.86
2.52
-1.51
-5.82
-9.86
-13.01
-14.78
-14.87
-13.32
-10.46
-6.86
-3.13
0.28
3.13
5.46
7.44
9.25
10.95
12.48
13.69
14.49
14.86
14.92
14.95
15.18
15.8
16.77
17.88
18.8
19.22
19.02
18.34
17.42
16.41
15.25
13.65
11.28
7.99
3.96
-0.38
-4.53
-8.13
-11.15
-13.83
-16.53
-19.54
-23
-26.84
-30.85
-34.7
-38
-40.38
-41.51
-41.23
-39.7
-37.37
-35.01
-33.45
-33.31
-34.78
-37.47
-40.59
-43.23
-44.67
-44.62
-43.11
-40.43
-36.86
-32.7
-28.29
-24.14
-20.77
-18.57
-17.5
-16.99
-16.2
-14.44
-11.64
-8.46
-5.97
-5.15
-6.37
-9.2
-12.7
-15.92
-18.26
-19.59
-20.01
-19.62
-18.36
-16.13
-13.11
-9.75
-6.78
-4.77
-3.83
-3.49
-2.82
-0.88
2.94
8.66
15.77
23.48
31.03
38.02
44.49
50.97
58.2
66.82
77.01
88.25
99.29
108.54
114.56
116.61
114.95
110.75
105.63
101.18
98.56
98.3
100.38
104.29
109.11
113.7
116.8
117.4
114.94
109.5
101.69
92.46
82.84
73.81
66.2
60.65
57.42
56.16
55.94
55.38
53.16
48.41
41.04
31.73
21.71
12.36
4.91
0.27
-1.16
0.39
4.02
8.17
10.82
9.99
4.34
-6.21
-20.17
-34.72
-46.55
-52.89
-52.59
-46.42
-36.71
-26.4
-17.98
-12.93
-11.64
-13.72
-18.43
-24.84
-31.91
-38.44
-43.23
-45.34
-44.41
-40.83
-35.57
-29.9
-25.03
-21.78
-20.42
-20.63
-21.69
-22.63
-22.68
-21.51
-19.41
-17.24
-16.09
-16.81
-19.65
-24.02
-28.63
-31.9
-32.55
-30.09
-25.02
-18.64
-12.58
-8.31
-6.71
-7.99
-11.8
-17.34
-23.58
-29.39
-33.68
-35.66
-35.13
-32.55
-28.97
-25.64
-23.54
-23.1
-24.16
-26.13
-28.37
-30.38
-31.84
-32.59
-32.49
-31.45
-29.43
-26.54
-23.1
-19.55
-16.38
-13.97
-12.55
-12.11
-12.49
-13.42
-14.6
-15.75
-16.6
-16.89
-16.39
-14.95
-12.64
-9.73
-6.64
-3.78
-1.35
0.68
2.49
4.22
5.85
7.15
7.8
7.6
6.49
4.63
2.32
-0.12
-2.38
-4.23
-5.62
-6.64
-7.52
-8.47
-9.57
-10.61
-11.26
-11.18
-10.29
-8.74
-6.81
-4.65
-2.16
0.89
4.6
8.7
12.59
15.64
17.45
18.1
17.94
17.42
16.71
15.72
14.24
12.17
9.67
7.01
4.54
2.48
0.99
0.18
0.17
1.05
2.7
4.82
6.92
8.54
9.34
9.21
8.2
6.43
4.05
1.29
-1.46
-3.58
-4.32
-3.06
0.44
5.79
12.02
17.83
21.99
23.72
22.86
19.8
15.24
9.93
4.46
-0.75
-5.45
-9.47
-12.69
-15.04
-16.51
-17.11
-16.98
-16.32
-15.44
-14.68
-14.22
-14.06
-13.98
-13.75
-13.27
-12.72
-12.4
-12.61
-13.39
-14.56
-15.75
-16.63
-17.06
-17.14
-17.1
-17.2
-17.57
-18.23
-19.04
-19.77
-20.19
-20.11
-19.43
-18.22
-16.64
-14.87
-13.06
-11.2
-9.21
-6.99
-4.5
-1.83
0.74
2.88
4.34
5.09
5.37
5.56
6
6.83
7.98
9.17
10.13
10.71
10.88
10.64
9.96
8.66
6.59
3.7
0.22
-3.51
-7.1
-10.34
-13.24
-15.91
-18.45
-20.79
-22.71
-23.94
-24.4
-24.22
-23.72
-23.25
-23.01
-22.96
-22.83
-22.33
-21.25
-19.62
-17.65
-15.64
-13.82
-12.35
-11.25
-10.48
-9.94
-9.44
-8.65
-7.18
-4.64
-0.92
3.67
8.34
12.06
13.9
13.46
11.05
7.47
3.67
0.27
-2.58
-5.06
-7.44
-9.67
-11.37
-12.04
-11.32
-9.31
-6.5
-3.65
-1.34
0.12
0.8
0.93
0.73
0.29
-0.42
-1.44
-2.7
-4.05
-5.3
-6.38
-7.31
-8.15
-8.89
-9.41
-9.49
-8.99
-8.04
-6.97
-6.18
-5.91
-6.12
-6.51
-6.71
-6.58
-6.27
-6.1
-6.39
-7.19
-8.32
-9.51
-10.63
-11.81
-13.23
-14.87
-16.28
-16.62
-15.05
-11.19
-5.36
1.46
8.07
13.53
17.61
20.84
24.2
28.78
35.34
44.12
54.64
65.73
75.55
81.73
81.73
73.32
55.41
28.68
-3.99
-37.83
-67.1
-86.56
-93.06
-86.56
-70.21
-49.32
-29.72
-16.08
-10.88
-14.33
-25.01
-40.89
-59.99
-80.58
-101.06
-119.69
-134.58
-144.21
-147.96
-146.51
-141.59
-135.26
-129.05
-123.43
-117.78
-111.1
-102.61
-92.28
-80.81
-69.19
-58.2
-48.15
-38.96
-30.37
-22.38
-15.1
-8.73
-3.19
1.99
7.48
13.84
21.11
28.74
35.81
41.6
46.01
49.67
53.56
58.41
64.18
69.97
74.49
76.64
75.94
72.51
66.76
59.08
49.79
39.44
29.03
19.99
13.74
11.12
11.95
15.12
19.12
22.6
24.83
25.68
25.33
24.04
21.95
19.33
16.68
14.87
14.92
17.64
23.19
30.81
38.93
45.65
49.42
49.67
47.08
43.2
39.78
37.94
37.65
37.88
37.18
34.53
29.82
23.86
17.81
12.49
8.03
3.96
-0.25
-4.77
-9.2
-12.98
-15.85
-18.2
-20.87
-24.53
-29.09
-33.46
-36.03
-35.42
-31.15
-23.85
-14.92
-5.87
2.16
8.57
13.14
15.86
16.75
16.02
14.16
11.87
9.88
8.7
8.53
9.39
11.35
14.65
19.55
26.03
33.58
41.19
47.74
52.45
55.11
56.09
55.9
54.94
53.28
50.78
47.34
43.1
38.4
33.66
29.13
24.88
20.88
17.04
13.37
9.91
6.68
3.66
0.78
-2.01
-4.74
-7.37
-9.9
-12.3
-14.55
-16.65
-18.52
-20.03
-20.93
-20.93
-19.78
-17.4
-14.02
-10.14
-6.45
-3.57
-1.86
-1.26
-1.42
-1.79
-1.89
-1.47
-0.46
1.01
2.8
4.74
6.68
8.5
10.1
11.46
12.68
13.95
15.5
17.5
19.93
22.67
25.45
27.94
29.89
31.05
31.29
30.51
28.81
26.49
24.1
22.25
21.42
21.75
22.9
24.24
25.01
24.69
23.12
20.52
17.28
13.75
10.02
5.98
1.52
-3.38
-8.48
-13.43
-17.87
-21.64
-24.77
-27.47
-30.02
-32.66
-35.58
-38.91
-42.64
-46.58
-50.15
-52.47
-52.51
-49.37
-42.65
-32.58
-20.11
-6.62
6.41
17.79
26.87
33.61
38.42
41.9
44.56
46.65
48.18
48.96
48.84
47.76
45.86
43.45
40.93
38.74
37.23
36.61
36.86
37.71
38.66
39.17
38.78
37.19
34.39
30.6
26.22
21.66
17.28
13.28
9.67
6.38
3.27
0.31
-2.42
-4.8
-6.69
-8.01
-8.82
-9.25
-9.45
-9.54
-9.55
-9.42
-9.13
-8.72
-8.35
-8.25
-8.68
-9.85
-11.86
-14.55
-17.57
-20.34
-22.19
-22.53
-21.05
-17.86
-13.48
-8.73
-4.53
-1.62
-0.42
-0.87
-2.61
-5.11
-7.94
-10.93
-14.21
-18.1
-22.91
-28.76
-35.47
-42.6
-49.52
-55.58
-60.17
-62.84
-63.39
-61.87
-58.53
-53.71
-47.7
-40.7
-32.85
-24.41
-15.83
-7.73
-0.69
4.93
9.14
12.2
14.39
15.84
16.39
15.73
13.6
9.98
5.17
-0.35
-6.05
-11.51
-16.5
-20.91
-24.71
-27.84
-30.19
-31.57
-31.75
-30.54
-27.85
-23.75
-18.48
-12.36
-5.69
1.34
8.65
16.27
24.18
32.32
40.63
49.08
57.72
66.66
75.96
85.57
95.24
104.61
113.34
121.11
127.59
132.4
135.05
135.13
132.43
127.15
119.86
111.4
102.57
93.93
85.77
78.14
70.99
64.27
57.86
51.68
45.54
39.3
32.9
26.4
19.92
13.42
6.67
-0.8
-9.39
-19.2
-29.77
-40.19
-49.32
-56.26
-60.56
-62.33
-62.06
-60.33
-57.66
-54.4
-50.8
-47.06
-43.4
-39.98
-36.9
-34.15
-31.7
-29.46
-27.37
-25.33
-23.28
-21.19
-19.15
-17.32
-15.89
-14.94
-14.4
-14.1
-13.9
-13.81
-13.96
-14.61
-15.91
-17.88
-20.33
-22.97
-25.53
-27.86
-29.93
-31.77
-33.37
-34.66
-35.56
-36.06
-36.29
-36.51
-36.91
-37.49
-37.97
-37.92
-37
-35.2
-32.85
-30.38
-27.93
-25.05
-20.85
-14.34
-5.08
6.51
19.23
31.54
42.14
50.38
56.22
60.02
62.09
62.57
61.49
58.96
55.25
50.82
46.04
41.09
35.87
30.26
24.21
17.91
11.71
5.89
0.64
-4.03
-8.15
-11.73
-14.72
-17.07
-18.84
-20.18
-21.3
-22.32
-23.24
-24.04
-24.68
-25.23
-25.73
-26.28
-26.85
-27.42
-27.95
-28.37
-28.63
-28.61
-28.23
-27.47
-26.46
-25.47
-24.78
-24.6
-25.07
-26.23
-28
-30.08
-31.68
-31.58
-28.41
-21.26
-10.23
3.4
17.48
29.86
39.08
44.74
47.32
47.59
46.14
43.28
39.36
34.98
31.1
28.58
27.76
28.26
29.15
29.53
28.99
27.75
26.36
25.17
24.05
22.38
19.5
15.15
9.74
4.15
-0.6
-3.79
-5.24
-5.22
-4.28
-3
-1.74
-0.68
0.18
0.85
1.31
1.44
1.16
0.52
-0.22
-0.68
-0.48
0.49
1.98
3.46
4.33
4.2
2.92
0.6
-2.5
-6.08
-9.84
-13.47
-16.71
-19.34
-21.25
-22.48
-23.08
-23.14
-22.72
-21.97
-21.14
-20.59
-20.7
-21.7
-23.52
-25.79
-28.02
-29.76
-30.81
-31.25
-31.3
-31.17
-30.91
-30.37
-29.33
-27.6
-25.18
-22.23
-19.04
-15.87
-12.97
-10.51
-8.62
-7.46
-7.09
-7.42
-8.15
-8.85
-9.07
-8.56
-7.35
-5.76
-4.31
-3.44
-3.4
-4.13
-5.26
-6.31
-6.79
-6.39
-5.05
-2.97
-0.51
1.86
3.68
4.58
4.35
3.03
1.01
-1.04
-2.4
-2.57
-1.53
0.25
2
3.01
2.94
1.89
0.33
-1.25
-2.52
-3.41
-4.03
-4.51
-4.89
-5.09
-5.01
-4.64
-4.06
-3.44
-2.95
-2.71
-2.72
-2.9
-3.1
-3.16
-2.99
-2.67
-2.48
-2.78
-3.89
-5.82
-8.29
-10.79
-12.76
-13.83
-13.91
-13.2
-12.05
-10.82
-9.78
-9.02
-8.57
-8.39
-8.48
-8.88
-9.67
-10.9
-12.48
-14.19
-15.7
-16.68
-16.98
-16.73
-16.23
-15.82
-15.72
-15.9
-16.14
-16.18
-15.81
-15
-13.82
-12.39
-10.81
-9.14
-7.46
-5.93
-4.73
-3.97
-3.64
-3.53
-3.34
-2.79
-1.76
-0.35
1.24
2.78
4.17
5.4
6.54
7.62
8.54
9.12
9.16
8.52
7.2
5.3
3.01
0.49
-2.04
-4.44
-6.55
-8.22
-9.43
-10.26
-10.92
-11.67
-12.72
-14.18
-15.98
-17.99
-20.05
-22.08
-24.09
-26.15
-28.35
-30.78
-33.48
-36.49
-39.81
-43.38
-47.04
-50.47
-53.27
-55.02
-55.4
-54.27
-51.67
-47.8
-42.91
-37.23
-30.85
-23.85
-16.33
-8.63
-1.28
5.03
9.76
12.72
14.23
15.01
15.84
17.22
19.1
21.05
22.55
23.32
23.63
24.02
25.08
27.11
29.96
33.24
36.56
39.73
42.71
45.48
47.75
48.98
48.54
46.02
41.45
35.28
28.19
20.8
13.48
6.39
-0.37
-6.53
-11.53
-14.66
-15.28
-13.13
-8.49
-2.21
4.6
10.82
15.72
19.02
20.89
21.72
21.94
21.92
21.88
22.01
22.35
22.88
23.37
23.49
22.83
21.14
18.46
15.15
11.78
8.97
7.15
6.45
6.67
7.36
7.96
7.98
7.04
5.06
2.16
-1.29
-4.9
-8.37
-11.56
-14.55
-17.5
-20.56
-23.75
-26.94
-29.91
-32.45
-34.4
-35.75
-36.64
-37.31
-38.12
-39.39
-41.31
-43.77
-46.35
-48.34
-49.02
-47.81
-44.46
-39.07
-32.01
-23.87
-15.34
-7.11
0.24
6.4
11.36
15.36
18.75
21.81
24.63
27.15
29.28
30.96
32.26
33.35
34.39
35.56
37
38.82
40.96
43.19
45.03
45.87
45.24
43
39.49
35.38
31.41
28.08
25.46
23.27
21.1
18.69
16.02
13.33
10.88
8.85
7.18
5.74
4.4
3.17
2.24
1.78
1.85
2.27
2.62
2.36
1.06
-1.53
-5.24
-9.57
-13.73
-16.85
-18.23
-17.51
-14.8
-10.59
-5.62
-0.6
3.99
7.98
11.54
14.96
18.56
22.55
26.91
31.42
35.66
39.15
41.56
42.78
43.04
42.73
42.24
41.71
41.06
40.06
38.53
36.59
34.61
33.09
32.33
32.27
32.45
32.22
31.01
28.64
25.34
21.67
18.29
15.63
13.79
12.54
11.46
10.14
8.32
5.92
3.05
-0.17
-3.63
-7.29
-11.22
-15.42
-19.87
-24.35
-28.5
-31.79
-33.72
-33.91
-32.26
-29.06
-24.86
-20.37
-16.22
-12.77
-10.11
-7.99
-6.02
-3.88
-1.41
1.26
3.77
5.75
6.97
7.46
7.52
7.51
7.74
8.34
9.22
10.17
11.03
11.72
12.26
12.68
12.94
12.95
12.6
11.78
10.5
8.86
7
5.05
3.01
0.84
-1.62
-4.44
-7.51
-10.56
-13.18
-15.03
-15.99
-16.18
-15.92
-15.52
-15.15
-14.82
-14.45
-14.04
-13.65
-13.39
-13.23
-12.96
-12.26
-10.9
-8.91
-6.64
-4.6
-3.21
-2.56
-2.35
-2.07
-1.3
0.06
1.69
3.01
3.52
3.03
1.77
0.28
-0.89
-1.43
-1.41
-1.22
-1.36
-2.21
-3.9
-6.29
-9.07
-11.8
-14.02
-15.19
-14.86
-12.79
-9.11
-4.39
0.59
5.08
8.74
11.73
14.63
17.99
21.99
26.25
29.9
32.02
32.01
29.83
26.1
21.71
17.55
14.17
11.61
9.48
7.15
4.04
-0.21
-5.56
-11.61
-17.69
-23.06
-27.1
-29.43
-30
-29.07
-27.17
-24.89
-22.79
-21.22
-20.27
-19.81
-19.55
-19.16
-18.39
-17.09
-15.2
-12.74
-9.79
-6.5
-3.14
0.06
2.9
5.39
7.73
10.29
13.41
17.14
21.17
24.81
27.25
27.8
26.26
22.98
18.77
14.59
11.24
9.11
8.17
8.11
8.56
9.2
9.8
10.13
9.89
8.78
6.6
3.4
-0.47
-4.57
-8.43
-11.78
-14.52
-16.69
-18.37
-19.64
-20.6
-21.45
-22.42
-23.78
-25.64
-27.89
-30.11
-31.74
-32.23
-31.2
-28.61
-24.75
-20.13
-15.38
-10.99
-7.35
-4.62
-2.88
-2.04
-1.96
-2.36
-2.92
-3.26
-3.09
-2.26
-0.84
0.91
2.65
4.13
5.23
6.05
6.78
7.59
8.57
9.63
10.58
11.19
11.33
10.96
10.19
9.15
7.97
6.78
5.66
4.69
3.9
3.29
2.81
2.38
1.91
1.26
0.35
-0.9
-2.45
-4.18
-5.93
-7.52
-8.89
-10.07
-11.16
-12.28
-13.45
-14.65
-15.79
-16.87
-18
-19.34
-20.88
-22.38
-23.37
-23.22
-21.53
-18.21
-13.69
-8.7
-3.98
-0.09
2.82
4.89
6.44
7.74
8.95
10.09
11.16
12.13
12.99
13.71
14.25
14.53
14.55
14.38
14.16
14.07
14.24
14.68
15.27
15.87
16.33
16.56
16.58
16.43
16.19
15.94
15.7
15.43
15.07
14.41
13.24
11.31
8.54
5.03
1.13
-2.65
-5.79
-7.95
-9.15
-9.66
-9.92
-10.27
-10.85
-11.58
-12.28
-12.84
-13.3
-13.84
-14.7
-16.11
-18.16
-20.82
-23.91
-27.12
-29.98
-31.92
-32.43
-31.23
-28.38
-24.31
-19.64
-14.98
-10.72
-6.93
-3.43
0.14
4.17
8.92
14.36
20.15
25.68
30.31
33.55
35.33
35.94
35.87
35.59
35.3
34.93
34.19
32.85
30.91
28.66
26.56
25.1
24.6
25.15
26.58
28.6
30.78
32.72
34.08
34.55
33.94
32.2
29.44
25.98
22.24
18.6
15.24
12.01
8.49
4.13
-1.46
-8.33
-16.12
-24.14
-31.58
-37.79
-42.44
-45.55
-47.38
-48.27
-48.5
-48.23
-47.49
-46.28
-44.63
-42.68
-40.65
-38.84
-37.44
-36.52
-35.87
-35.13
-33.93
-32.1
-29.86
-27.75
-26.48
-26.55
-28
-30.27
-32.36
-33.09
-31.6
-27.58
-21.37
-13.71
-5.39
3.04
11.45
19.91
28.43
36.63
43.76
48.85
51.22
50.7
47.8
43.46
38.59
33.83
29.39
25.2
21.18
17.39
13.99
11.12
8.64
6.12
2.97
-1.24
-6.55
-12.48
-18.21
-22.83
-25.64
-26.3
-24.8
-21.38
-16.39
-10.22
-3.34
3.74
10.5
16.57
21.82
26.33
30.33
33.92
37.08
39.58
41.18
41.78
41.52
40.73
39.83
39.08
38.54
38.03
37.32
36.22
34.7
32.88
30.93
28.94
26.81
24.27
20.97
16.64
11.23
4.98
-1.69
-8.33
-14.55
-20.19
-25.31
-30.07
-34.68
-39.19
-43.52
-47.41
-50.58
-52.82
-54.14
-54.76
-55.08
-55.53
-56.33
-57.33
-57.9
-57.14
-54.14
-48.42
-40.13
-30.06
-19.35
-9.19
-0.44
6.39
11.08
13.56
13.82
11.97
8.33
3.52
-1.65
-6.38
-10.07
-12.46
-13.57
-13.57
-12.67
-11.02
-8.69
-5.7
-2.05
2.17
6.79
11.49
15.86
19.53
22.31
24.3
25.76
27.02
28.18
29.05
29.24
28.35
26.24
23.14
19.54
16.03
13.02
10.63
8.68
6.86
4.87
2.56
0.01
-2.48
-4.5
-5.61
-5.49
-4.06
-1.47
1.82
5.21
8.09
9.93
10.47
9.71
7.89
5.3
2.21
-1.19
-4.7
-8.04
-10.78
-12.42
-12.55
-10.92
-7.55
-2.72
3.01
8.92
14.19
18.05
19.93
19.62
17.36
13.67
9.29
4.84
0.75
-2.85
-6.05
-9.08
-12.24
-15.79
-19.79
-24.05
-28.12
-31.4
-33.36
-33.78
-32.83
-31.05
-29.09
-27.48
-26.37
-25.43
-23.89
-20.82
-15.5
-7.7
2.06
12.65
22.58
30.5
35.57
37.72
37.53
36
34.14
32.66
31.85
31.65
31.77
31.82
31.44
30.34
28.38
25.67
22.52
19.39
16.71
14.67
13.08
11.46
9.23
6.07
2.07
-2.3
-6.45
-9.92
-12.63
-14.8
-16.77
-18.74
-20.72
-22.48
-23.83
-24.67
-25.02
-24.99
-24.57
-23.72
-22.43
-20.8
-19.16
-17.93
-17.51
-18.12
-19.78
-22.39
-25.83
-29.95
-34.43
-38.7
-41.91
-43.17
-41.84
-37.9
-31.99
-25.24
-18.83
-13.57
-9.71
-6.85
-4.29
-1.24
2.82
7.99
14.04
20.41
26.48
31.67
35.68
38.42
40.1
41.09
41.72
42.29
42.92
43.62
44.33
45.03
45.7
46.37
46.98
47.33
47.13
46.03
43.85
40.67
36.87
33.03
29.68
27.03
24.96
23.05
20.81
17.88
14.15
9.69
4.71
-0.51
-5.63
-10.25
-14.04
-16.94
-19.25
-21.62
-24.76
-29.06
-34.36
-39.96
-44.88
-48.33
-50.05
-50.33
-49.84
-49.32
-49.24
-49.74
-50.54
-51.14
-50.9
-49.22
-45.72
-40.3
-33.2
-25.02
-16.54
-8.55
-1.74
3.58
7.42
10.19
12.41
14.52
16.72
18.87
20.63
21.69
21.96
21.65
21.18
20.95
21.15
21.69
22.24
22.4
21.85
20.5
18.49
16.05
13.46
10.99
8.87
7.29
6.45
6.45
7.23
8.46
9.6
10.01
9.15
6.84
3.31
-0.86
-4.93
-8.34
-10.84
-12.61
-14.11
-15.83
-18.18
-21.24
-24.85
-28.62
-32.08
-34.79
-36.43
-36.8
-35.86
-33.64
-30.23
-25.83
-20.76
-15.57
-10.86
-7.26
-5.16
-4.63
-5.36
-6.84
-8.5
-9.93
-10.97
-11.67
-12.19
-12.68
-13.18
-13.65
-13.95
-13.92
-13.4
-12.23
-10.31
-7.52
-3.8
0.87
6.36
12.37
18.43
23.96
28.49
31.69
33.51
34.07
33.57
32.15
29.87
26.83
23.2
19.34
15.67
12.58
10.21
8.48
7.09
5.69
4.1
2.3
0.49
-1.14
-2.49
-3.68
-4.99
-6.71
-8.93
-11.34
-13.35
-14.19
-13.29
-10.49
-6.2
-1.21
3.53
7.27
9.68
10.78
10.92
10.54
10.03
9.63
9.45
9.51
9.77
10.23
10.77
11.22
11.33
10.86
9.78
8.33
6.95
6.14
6.19
7.03
8.34
9.65
10.59
11.06
11.14
11.06
11
11.03
11.09
10.98
10.42
9.1
6.82
3.56
-0.33
-4.26
-7.54
-9.66
-10.42
-10.07
-9.14
-8.24
-7.86
-8.23
-9.31
-10.83
-12.43
-13.76
-14.59
-14.89
-14.8
-14.56
-14.34
-14.14
-13.8
-13.02
-11.55
-9.28
-6.29
-2.81
0.82
4.32
7.5
10.21
12.38
13.97
15.02
15.63
16.03
16.44
17.02
17.84
18.78
19.69
20.4
20.88
21.23
21.62
22.16
22.86
23.61
24.25
24.62
24.54
23.87
22.46
20.28
17.47
14.37
11.43
9.04
7.36
6.24
5.35
4.27
2.75
0.77
-1.44
-3.46
-4.86
-5.29
-4.63
-3.1
-1.08
0.97
2.77
4.25
5.55
6.76
7.82
8.43
8.24
7.09
5.09
2.66
0.37
-1.24
-1.78
-1.01
1.14
4.59
9.14
14.42
19.99
25.36
30.16
34.18
37.34
39.7
41.36
42.46
43.05
43.1
42.49
41.01
38.5
34.88
30.29
24.99
19.36
13.74
8.38
3.37
-1.25
-5.45
-9.18
-12.4
-15.1
-17.39
-19.49
-21.58
-23.7
-25.69
-27.24
-28.04
-27.98
-27.14
-25.82
-24.35
-22.99
-21.91
-21.27
-21.21
-21.86
-23.24
-25.17
-27.32
-29.21
-30.43
-30.74
-30.21
-29.12
-27.95
-27.18
-27.17
-27.97
-29.31
-30.61
-31.19
-30.51
-28.37
-24.97
-20.83
-16.56
-12.65
-9.38
-6.76
-4.64
-2.79
-1.02
0.75
2.47
4.06
5.4
6.39
7
7.3
7.4
7.42
7.5
7.76
8.37
9.42
10.92
12.68
14.36
15.56
16.02
15.73
14.93
13.97
13.15
12.6
12.29
12.08
11.86
11.58
11.22
10.69
9.94
8.86
7.5
5.98
4.49
3.2
2.12
1.11
-0.12
-1.82
-4.11
-6.88
-9.8
-12.49
-14.65
-16.21
-17.4
-18.67
-20.38
-22.66
-25.25
-27.6
-29.07
-29.24
-28.05
-25.76
-22.81
-19.65
-16.59
-13.81
-11.37
-9.31
-7.63
-6.28
-5.16
-4.19
-3.28
-2.4
-1.54
-0.67
0.21
1.16
2.17
3.2
4.24
5.32
6.51
7.92
9.59
11.38
13.04
14.23
14.72
14.45
13.6
12.51
11.53
10.95
10.83
11.04
11.29
11.3
10.88
10.06
8.96
7.81
6.76
5.88
5.06
4.17
3.03
1.5
-0.44
-2.72
-5.22
-7.79
-10.32
-12.77
-15.18
-17.69
-20.39
-23.33
-26.43
-29.43
-31.99
-33.72
-34.33
-33.67
-31.88
-29.31
-26.47
-23.85
-21.81
-20.42
-19.53
-18.82
-17.99
-16.86
-15.41
-13.78
-12.15
-10.66
-9.38
-8.29
-7.34
-6.5
-5.71
-4.94
-4.12
-3.21
-2.2
-1.16
-0.22
0.51
0.99
1.31
1.65
2.16
2.94
3.9
4.85
5.54
5.8
5.59
5
4.21
3.39
2.62
1.9
1.15
0.34
-0.5
-1.28
-1.86
-2.16
-2.19
-1.99
-1.66
-1.39
-1.39
-1.93
-3.27
-5.58
-8.8
-12.64
-16.58
-20.03
-22.49
-23.67
-23.59
-22.55
-21.08
-19.75
-19.1
-19.4
-20.63
-22.41
-24.2
-25.44
-25.72
-24.81
-22.68
-19.36
-14.9
-9.53
-3.61
2.25
7.38
11.32
13.97
15.6
16.72
17.79
19.08
20.64
22.4
24.27
26.12
27.81
29.12
29.88
30.01
29.64
29.03
28.42
27.83
27.13
26.07
24.49
22.48
20.27
18.15
16.24
14.46
12.54
10.22
7.34
3.96
0.32
-3.25
-6.45
-9.18
-11.45
-13.39
-15.06
-16.37
-17.11
-17.1
-16.36
-15.26
-14.44
-14.5
-15.67
-17.49
-18.9
-18.66
-15.85
-10.36
-2.85
5.57
13.8
21.15
27.38
32.56
36.81
40.08
42.24
43.13
42.7
41.05
38.39
34.91
30.83
26.3
21.48
16.57
11.78
7.34
3.42
0.07
-2.84
-5.6
-8.56
-11.96
-15.75
-19.55
-22.83
-25.07
-26.04
-25.88
-25.06
-24.12
-23.54
-23.51
-24.08
-25.18
-26.73
-28.66
-30.77
-32.66
-33.73
-33.36
-31.14
-27.1
-21.72
-15.83
-10.3
-5.78
-2.54
-0.53
0.47
0.71
0.41
-0.27
-1.09
-1.8
-2.13
-1.91
-1.14
0.03
1.41
2.85
4.29
5.77
7.34
8.99
10.61
12
12.96
13.33
13.13
12.53
11.89
11.61
11.95
13.01
14.57
16.23
17.6
18.35
18.38
17.71
16.44
14.63
12.36
9.76
6.98
4.21
1.6
-0.76
-2.8
-4.52
-5.92
-7
-7.81
-8.51
-9.23
-10.09
-11.03
-11.83
-12.22
-12.01
-11.2
-9.93
-8.41
-6.79
-5.11
-3.34
-1.5
0.27
1.8
2.96
3.79
4.47
5.21
6.07
6.93
7.55
7.73
7.48
6.96
6.42
6.04
5.84
5.73
5.61
5.45
5.26
5.05
4.78
4.35
3.71
2.94
2.22
1.75
1.61
1.72
1.85
1.78
1.42
0.85
0.3
-0
0.02
0.28
0.49
0.32
-0.47
-1.96
-3.97
-6.15
-8.11
-9.58
-10.52
-11.11
-11.62
-12.28
-13.14
-13.97
-14.4
-14
-12.52
-9.98
-6.69
-3.15
0.21
3.18
5.81
8.3
10.88
13.63
16.51
19.32
21.96
24.37
26.56
28.54
30.25
31.58
32.43
32.77
32.66
32.18
31.49
30.66
29.69
28.49
26.88
24.7
21.79
18.16
14.01
9.65
5.4
1.52
-1.89
-4.79
-7.19
-9.17
-10.78
-12.14
-13.38
-14.58
-15.75
-16.87
-17.91
-18.84
-19.66
-20.32
-20.71
-20.7
-20.22
-19.36
-18.33
-17.45
-17.02
-17.19
-17.91
-18.92
-19.74
-19.83
-18.78
-16.44
-13.11
-9.44
-6.24
-4.18
-3.48
-3.8
-4.49
-4.77
-4.01
-1.98
1.24
5.24
9.41
13.08
15.72
17.06
17.17
16.41
15.15
13.63
11.84
9.58
6.61
2.85
-1.57
-6.36
-11.12
-15.45
-18.96
-21.22
-21.9
-20.76
-17.95
-13.99
-9.72
-6.07
-3.69
-2.66
-2.55
-2.55
-1.91
-0.32
2
4.35
5.94
6.26
5.23
3.28
1.05
-0.81
-1.83
-1.8
-0.78
0.94
2.92
4.67
5.75
5.93
5.17
3.65
1.68
-0.43
-2.41
-3.99
-4.96
-5.15
-4.54
-3.27
-1.72
-0.34
0.46
0.49
-0.15
-1.2
-2.3
-3.27
-4.08
-4.84
-5.67
-6.58
-7.39
-7.77
-7.37
-5.87
-3.24
0.27
4.15
7.76
10.56
12.24
12.83
12.57
11.84
10.93
10.03
9.2
8.42
7.69
6.98
6.27
5.49
4.54
3.33
1.85
0.17
-1.5
-2.87
-3.71
-3.93
-3.65
-3.21
-3.07
-3.67
-5.3
-7.98
-11.5
-15.46
-19.42
-23.02
-25.95
-27.95
-28.83
-28.46
-26.9
-24.38
-21.37
-18.38
-15.84
-13.86
-12.26
-10.66
-8.71
-6.24
-3.36
-0.34
2.5
4.91
6.74
7.94
8.53
8.65
8.52
8.42
8.61
9.2
10.14
11.27
12.46
13.72
15.14
16.84
18.76
20.66
22.25
23.32
23.97
24.55
25.46
26.93
28.89
30.9
32.46
33.17
33
32.25
31.41
30.89
30.91
31.43
32.27
33.24
34.24
35.13
35.79
35.93
35.3
33.73
31.32
28.44
25.64
23.43
22.05
21.38
21
20.39
19.13
17.03
14.17
10.77
7.09
3.34
-0.37
-3.95
-7.31
-10.32
-12.85
-14.82
-16.29
-17.44
-18.51
-19.76
-21.27
-22.92
-24.39
-25.17
-24.81
-23.09
-20.16
-16.55
-12.98
-10.13
-8.37
-7.63
-7.57
-7.72
-7.74
-7.51
-7.12
-6.76
-6.56
-6.56
-6.75
-7.13
-7.75
-8.66
-9.92
-11.43
-13.04
-14.55
-15.82
-16.82
-17.64
-18.39
-19.17
-19.99
-20.8
-21.52
-22.15
-22.75
-23.48
-24.52
-25.92
-27.54
-28.94
-29.5
-28.64
-26.09
-22.06
-17.22
-12.45
-8.5
-5.76
-4.14
-3.28
-2.76
-2.22
-1.47
-0.33
1.33
3.59
6.32
9.11
11.38
12.59
12.54
11.45
9.91
8.54
7.74
7.6
7.92
8.48
9.13
9.89
10.79
11.74
12.5
12.74
12.24
11.02
9.39
7.81
6.67
6.08
5.88
5.71
5.24
4.34
3.1
1.75
0.52
-0.54
-1.54
-2.67
-4.02
-5.56
-7.09
-8.43
-9.52
-10.44
-11.36
-12.46
-13.83
-15.51
-17.51
-19.81
-22.27
-24.53
-26.01
-26
-23.96
-19.78
-13.84
-6.91
0.16
6.67
12.19
16.47
19.38
20.79
20.72
19.4
17.28
14.97
12.95
11.4
10.16
8.79
6.93
4.43
1.46
-1.52
-4.03
-5.66
-6.17
-5.52
-3.76
-1.05
2.33
6.04
9.64
12.67
14.7
15.41
14.6
12.27
8.63
4.02
-1.11
-6.29
-11.18
-15.62
-19.56
-23.06
-26.2
-29.04
-31.72
-34.38
-37.19
-40.26
-43.55
-46.82
-49.78
-52.18
-53.93
-55.15
-55.9
-56.04
-55.09
-52.49
-47.96
-41.87
-35.22
-29.18
-24.32
-20.08
-14.85
-6.58
6.1
23.18
43.09
63.32
81.45
95.93
106.49
113.95
119.65
124.78
129.79
134.07
136.1
133.85
125.6
110.61
89.61
64.67
38.68
14.46
-5.86
-21.22
-31.59
-37.58
-40.16
-40.33
-39.1
-37.39
-35.9
-35.03
-34.77
-34.69
-34.17
-32.65
-29.94
-26.3
-22.32
-18.65
-15.75
-13.71
-12.36
-11.43
-10.74
-10.27
-10.18
-10.65
-11.91
-14.11
-17.3
-21.34
-25.81
-30.04
-33.21
-34.59
-33.86
-31.24
-27.47
-23.52
-20.28
-18.21
-17.31
-17.28
-17.68
-18.12
-18.28
-17.86
-16.54
-14.17
-10.77
-6.69
-2.45
1.45
4.77
7.61
10.26
13.02
15.92
18.74
21.03
22.34
22.39
21.05
18.41
14.74
10.56
6.58
3.67
2.58
3.7
6.88
11.42
16.28
20.47
23.31
24.59
24.5
23.43
21.72
19.58
17.09
14.37
11.74
9.66
8.61
8.71
9.54
10.14
9.42
6.62
1.74
-4.41
-10.6
-15.69
-19.06
-20.67
-20.9
-20.17
-18.74
-16.77
-14.44
-12.05
-10.01
-8.66
-8.06
-7.99
-8.05
-7.76
-6.78
-5
-2.53
0.32
3.13
5.48
7.09
7.83
7.76
7.09
6.05
4.79
3.33
1.63
-0.33
-2.42
-4.38
-5.88
-6.75
-7.14
-7.52
-8.55
-10.71
-14.05
-18.07
-21.96
-24.92
-26.62
-27.3
-27.66
-28.49
-30.27
-32.98
-36.09
-38.81
-40.38
-40.34
-38.76
-36.22
-33.61
-31.93
-31.88
-33.73
-37.11
-41.02
-43.91
-43.99
-39.58
-29.65
-14.26
5.26
26.48
46.6
63.27
75.28
82.73
86.74
88.71
89.73
90.3
90.35
89.57
87.7
84.66
80.46
75.24
69.11
62.33
55.3
48.54
42.62
37.95
34.67
32.52
30.99
29.45
27.38
24.52
20.96
17.15
13.73
11.38
10.55
11.26
13.1
15.34
17.21
18.23
18.31
17.77
17.08
16.61
16.47
16.43
16
14.69
12.1
8.04
2.59
-3.96
-11.2
-18.61
-25.77
-32.31
-38.03
-42.88
-46.84
-49.87
-51.79
-52.34
-51.23
-48.4
-44.11
-38.98
-33.95
-29.9
-27.39
-26.35
-26.16
-25.82
-24.42
-21.52
-17.32
-12.58
-8.31
-5.36
-4.14
-4.55
-6.14
-8.29
-10.55
-12.68
-14.62
-16.39
-17.96
-19.17
-19.8
-19.68
-18.79
-17.3
-15.6
-14.12
-13.2
-12.92
-13.06
-13.27
-13.2
-12.68
-11.76
-10.65
-9.61
-8.84
-8.47
-8.53
-8.99
-9.75
-10.53
-10.98
-10.74
-9.6
-7.67
-5.3
-3.01
-1.2
-0.05
0.56
0.93
1.4
2.18
3.31
4.64
5.84
6.56
6.41
5.23
3.08
0.34
-2.35
-4.34
-5.14
-4.65
-3.22
-1.55
-0.38
-0.32
-1.52
-3.67
-6.11
-8.11
-9.14
-9.02
-7.98
-6.42
-4.73
-3.15
-1.69
-0.25
1.25
2.73
4
4.84
5.14
5.03
4.85
5
5.71
6.92
8.23
9.06
8.88
7.41
4.73
1.22
-2.61
-6.35
-9.81
-12.94
-15.7
-18
-19.61
-20.3
-19.99
-18.83
-17.15
-15.41
-13.98
-13.13
-12.88
-13.1
-13.48
-13.61
-13.11
-11.7
-9.33
-6.18
-2.6
1
4.27
7.02
9.18
10.83
12.21
13.64
15.47
17.85
20.65
23.49
25.86
27.42
28.12
28.19
28.02
27.93
28.1
28.55
29.23
30.12
31.13
32.11
32.82
32.95
32.3
30.83
28.73
26.36
24.09
22.12
20.45
18.83
16.89
14.34
11.12
7.47
3.89
0.95
-0.97
-1.86
-2.05
-2.1
-2.53
-3.77
-6.05
-9.45
-13.89
-19.06
-24.25
-28.5
-30.79
-30.46
-27.52
-22.77
-17.56
-13.28
-10.89
-10.57
-11.72
-13.3
-14.22
-13.75
-11.66
-8.29
-4.3
-0.46
2.67
4.82
6.07
6.71
7.12
7.66
8.63
10.25
12.55
15.39
18.36
20.84
22.13
21.73
19.49
15.74
11.22
6.81
3.3
1.12
0.27
0.36
0.81
1.13
1
0.36
-0.72
-2.13
-3.89
-6.11
-8.96
-12.48
-16.48
-20.5
-23.95
-26.24
-27.02
-26.21
-23.99
-20.77
-16.98
-13.02
-9.23
-5.85
-3.04
-0.84
0.8
2.06
3.15
4.26
5.43
6.54
7.4
7.86
7.92
7.71
7.47
7.37
7.46
7.67
7.9
8.12
8.43
8.93
9.7
10.71
11.81
12.81
13.56
13.93
13.84
13.22
12.03
10.25
8.01
5.54
3.16
1.16
-0.32
-1.34
-2.12
-2.86
-3.63
-4.32
-4.73
-4.65
-4.09
-3.25
-2.51
-2.27
-2.85
-4.45
-7.05
-10.45
-14.19
-17.61
-19.95
-20.59
-19.29
-16.33
-12.48
-8.68
-5.82
-4.32
-4.08
-4.6
-5.22
-5.4
-4.9
-3.77
-2.3
-0.85
0.21
0.61
0.24
-0.82
-2.23
-3.47
-4.03
-3.63
-2.38
-0.75
0.68
1.61
2.2
3.07
4.95
8.24
12.78
17.83
22.37
25.49
26.68
25.89
23.47
19.92
15.74
11.34
6.99
2.92
-0.74
-3.9
-6.53
-8.63
-10.19
-11.2
-11.62
-11.42
-10.65
-9.48
-8.21
-7.22
-6.79
-6.94
-7.37
-7.51
-6.72
-4.55
-0.98
3.53
8.19
12.14
14.74
15.71
15.2
13.66
11.69
9.82
8.52
8.05
8.45
9.62
11.32
13.27
15.27
17.21
19.07
20.89
22.65
24.29
25.72
26.89
27.85
28.7
29.46
30
30
29.01
26.61
22.58
17
10.29
3.02
-4.19
-10.84
-16.6
-21.34
-25.03
-27.75
-29.67
-31.02
-32.11
-33.27
-34.75
-36.67
-38.95
-41.31
-43.26
-44.23
-43.71
-41.39
-37.32
-31.91
-25.89
-20.08
-15.12
-11.3
-8.55
-6.51
-4.71
-2.78
-0.54
1.94
4.47
6.75
8.58
9.86
