2023-01-27 10:59:40.052017,-0.047143500298261566
2023-01-27 10:59:40.057017,-0.048748296264574074
2023-01-27 10:59:40.062017,-0.04433075711131088
2023-01-27 10:59:40.067017,-0.04000584480747864
2023-01-27 10:59:40.072017,-0.03735899925231928
2023-01-27 10:59:40.077017,-0.033062043808824715
2023-01-27 10:59:40.082017,-0.02579550072550771
2023-01-27 10:59:40.087017,-0.018039213662035508
2023-01-27 10:59:40.092017,-0.011154810898005924
2023-01-27 10:59:40.097017,-0.0033794516308144106
2023-01-27 10:59:40.102017,0.006514986511319833
2023-01-27 10:59:40.107017,0.017250032302176175
2023-01-27 10:59:40.112017,0.027718743309378596
2023-01-27 10:59:40.117017,0.0385704980114622
2023-01-27 10:59:40.122017,0.049956243485212284
2023-01-27 10:59:40.127017,0.0601759685664723
2023-01-27 10:59:40.132017,0.06774624437093732
2023-01-27 10:59:40.137017,0.0728198287961081
2023-01-27 10:59:40.142017,0.07558345794677726
2023-01-27 10:59:40.147017,0.07512696604455572
2023-01-27 10:59:40.152017,0.07096767425537095
2023-01-27 10:59:40.157017,0.06414416984431569
2023-01-27 10:59:40.162017,0.05582213401794428
2023-01-27 10:59:40.167017,0.046132203539005996
2023-01-27 10:59:40.172017,0.035171311348676605
2023-01-27 10:59:40.177017,0.023800231472920708
2023-01-27 10:59:40.182017,0.01254916191101069
2023-01-27 10:59:40.187017,0.0008787386727965771
2023-01-27 10:59:40.192017,-0.011587540619075194
2023-01-27 10:59:40.197017,-0.02399304725222741
2023-01-27 10:59:40.202017,-0.03505110740661619
2023-01-27 10:59:40.207017,-0.04398007876283317
2023-01-27 10:59:40.212017,-0.05007644742727269
2023-01-27 10:59:40.217017,-0.05245545116642798
2023-01-27 10:59:40.222017,-0.05111018940806377
2023-01-27 10:59:40.227017,-0.04754380157329828
2023-01-27 10:59:40.232017,-0.04365762323141088
2023-01-27 10:59:40.237017,-0.04054302397915799
2023-01-27 10:59:40.242017,-0.038705270737409495
2023-01-27 10:59:40.247017,-0.03855894464203425
2023-01-27 10:59:40.252017,-0.04000345990061748
2023-01-27 10:59:40.257017,-0.04217245985563509
2023-01-27 10:59:40.262017,-0.04428267478942873
2023-01-27 10:59:40.267017,-0.04628041390988877
2023-01-27 10:59:40.272017,-0.048225324600934885
2023-01-27 10:59:40.277017,-0.04964883734242185
2023-01-27 10:59:40.282017,-0.05005240440368648
2023-01-27 10:59:40.287017,-0.04952546884346507
2023-01-27 10:59:40.292017,-0.0483936071395874
2023-01-27 10:59:40.297017,-0.046763302101983505
2023-01-27 10:59:40.302017,-0.044883690774440696
2023-01-27 10:59:40.307017,-0.04345004590045494
2023-01-27 10:59:40.312017,-0.04300852864980691
2023-01-27 10:59:40.317017,-0.043401009172385006
2023-01-27 10:59:40.322017,-0.04416247457265852
2023-01-27 10:59:40.327017,-0.045022693378035224
2023-01-27 10:59:40.332017,-0.045628946274518925
2023-01-27 10:59:40.337017,-0.045289048045343616
2023-01-27 10:59:40.342017,-0.043561458587646415
2023-01-27 10:59:40.347017,-0.04082754825408608
2023-01-27 10:59:40.352017,-0.037887893617153126
2023-01-27 10:59:40.357017,-0.0353243035797203
2023-01-27 10:59:40.362017,-0.03360867500305169
2023-01-27 10:59:40.367017,-0.03334834138493333
2023-01-27 10:59:40.372017,-0.03478666394948945
2023-01-27 10:59:40.377017,-0.03727018544206058
2023-01-27 10:59:40.382017,-0.03976305574178688
2023-01-27 10:59:40.387017,-0.041813838444852536
2023-01-27 10:59:40.392017,-0.043633580207824686
2023-01-27 10:59:40.397017,-0.045394174266133215
2023-01-27 10:59:40.402017,-0.0469271354377269
2023-01-27 10:59:40.407017,-0.048067093855125274
2023-01-27 10:59:40.412017,-0.04885037988424299
2023-01-27 10:59:40.417017,-0.04929261490451599
2023-01-27 10:59:40.422017,-0.04925906658172598
2023-01-27 10:59:40.427017,-0.048629976772018475
2023-01-27 10:59:40.432017,-0.04740794748067846
2023-01-27 10:59:40.437017,-0.04564589781052127
2023-01-27 10:59:40.442017,-0.0434412583708763
2023-01-27 10:59:40.447017,-0.04102109950700987
2023-01-27 10:59:40.452017,-0.0387052707374095
2023-01-27 10:59:40.457017,-0.03677485809218518
2023-01-27 10:59:40.462017,-0.035435758531093514
2023-01-27 10:59:40.467017,-0.03481528436019284
2023-01-27 10:59:40.472017,-0.03483474254608151
2023-01-27 10:59:40.477017,-0.03510608831473538
2023-01-27 10:59:40.482017,-0.03509918972849842
2023-01-27 10:59:40.487017,-0.0344775793121687
2023-01-27 10:59:40.492017,-0.03329614922404279
2023-01-27 10:59:40.497017,-0.031979103377711204
2023-01-27 10:59:40.502017,-0.031180581077933284
2023-01-27 10:59:40.507017,-0.031534452703317596
2023-01-27 10:59:40.512017,-0.033296149224042795
2023-01-27 10:59:40.517017,-0.036097319319778234
2023-01-27 10:59:40.522017,-0.039065878838300705
2023-01-27 10:59:40.527017,-0.04125722562874111
2023-01-27 10:59:40.532017,-0.04209498688578599
2023-01-27 10:59:40.537017,-0.04159122516463595
2023-01-27 10:59:40.542017,-0.04029194638133041
2023-01-27 10:59:40.547017,-0.03897415350444485
2023-01-27 10:59:40.552017,-0.038200419396162005
2023-01-27 10:59:40.557017,-0.03797033893109002
2023-01-27 10:59:40.562017,-0.03771960735321038
2023-01-27 10:59:40.567017,-0.03669248320105827
2023-01-27 10:59:40.572017,-0.034426055848598404
2023-01-27 10:59:40.577017,-0.031011590721753985
2023-01-27 10:59:40.582017,-0.0269975271075963
2023-01-27 10:59:40.587017,-0.02304968767967865
2023-01-27 10:59:40.592017,-0.019569000229239412
2023-01-27 10:59:40.597017,-0.016436516655586045
2023-01-27 10:59:40.602017,-0.013054013252258327
2023-01-27 10:59:40.607017,-0.00877375316542099
2023-01-27 10:59:40.612017,-0.003509918926283696
2023-01-27 10:59:40.617017,0.0019383026281318673
2023-01-27 10:59:40.622017,0.00613033771514884
2023-01-27 10:59:40.627017,0.007600840862115215
2023-01-27 10:59:40.632017,0.005481243133544884
2023-01-27 10:59:40.637017,-7.746592141452879e-05
2023-01-27 10:59:40.642017,-0.007837216369807682
2023-01-27 10:59:40.647017,-0.015958267019605378
2023-01-27 10:59:40.652017,-0.022910635918378795
2023-01-27 10:59:40.657017,-0.028206662529596666
2023-01-27 10:59:40.662017,-0.0324547290802001
2023-01-27 10:59:40.667017,-0.036824873490611885
2023-01-27 10:59:40.672017,-0.04223923012614253
2023-01-27 10:59:40.677017,-0.04840173147203427
2023-01-27 10:59:40.682017,-0.05293726921081541
2023-01-27 10:59:40.687017,-0.05134945140538905
2023-01-27 10:59:40.692017,-0.0382725410163402
2023-01-27 10:59:40.697017,-0.009601904429807018
2023-01-27 10:59:40.702017,0.03536363691091527
2023-01-27 10:59:40.707017,0.09243608280144007
2023-01-27 10:59:40.712017,0.15236894786357869
2023-01-27 10:59:40.717017,0.2027277751509417
2023-01-27 10:59:40.722017,0.23163060843944533
2023-01-27 10:59:40.727017,0.23173647252605345
2023-01-27 10:59:40.732017,0.20258963108062733
2023-01-27 10:59:40.737017,0.15058890056578772
2023-01-27 10:59:40.742017,0.08688251674175253
2023-01-27 10:59:40.747017,0.023831706699906096
2023-01-27 10:59:40.752017,-0.028752487152814837
2023-01-27 10:59:40.757017,-0.06585265052322489
2023-01-27 10:59:40.762017,-0.0870988816022872
2023-01-27 10:59:40.767017,-0.09516636841877638
2023-01-27 10:59:40.772017,-0.09414275735616678
2023-01-27 10:59:40.777017,-0.08824675703189966
2023-01-27 10:59:40.782017,-0.0807762145996093
2023-01-27 10:59:40.787017,-0.07367422034066974
2023-01-27 10:59:40.792017,-0.06791453063487995
2023-01-27 10:59:40.797017,-0.06394170525956208
2023-01-27 10:59:40.802017,-0.06159186363220212
2023-01-27 10:59:40.807017,-0.060153314169393166
2023-01-27 10:59:40.812017,-0.059139728546142474
2023-01-27 10:59:40.817017,-0.05893480250918816
2023-01-27 10:59:40.822017,-0.06038983911275854
2023-01-27 10:59:40.827017,-0.06397213770166352
2023-01-27 10:59:40.832017,-0.06942908465862266
2023-01-27 10:59:40.837017,-0.07572308827924436
2023-01-27 10:59:40.842017,-0.08084833621978743
2023-01-27 10:59:40.847017,-0.08229752864199606
2023-01-27 10:59:40.852017,-0.07858853042125698
2023-01-27 10:59:40.857017,-0.07041753973784043
2023-01-27 10:59:40.862017,-0.060101352632045704
2023-01-27 10:59:40.867017,-0.05020672300324066
2023-01-27 10:59:40.872017,-0.042816203087568165
2023-01-27 10:59:40.877017,-0.03911534048308466
2023-01-27 10:59:40.882017,-0.03865718841552726
2023-01-27 10:59:40.887017,-0.03935033663654035
2023-01-27 10:59:40.892017,-0.03901779651641838
2023-01-27 10:59:40.897017,-0.03692591051363442
2023-01-27 10:59:40.902017,-0.033536553382873494
2023-01-27 10:59:40.907017,-0.029502160972585897
2023-01-27 10:59:40.912017,-0.02557913586497303
2023-01-27 10:59:40.917017,-0.022670827614157417
2023-01-27 10:59:40.922017,-0.0207950677722692
2023-01-27 10:59:40.927017,-0.01844138129999382
2023-01-27 10:59:40.932017,-0.01394351385533802
2023-01-27 10:59:40.937017,-0.00709172304737361
2023-01-27 10:59:40.942017,0.0013703107833861737
2023-01-27 10:59:40.947017,0.010992693451896835
2023-01-27 10:59:40.952017,0.021227797493338498
2023-01-27 10:59:40.957017,0.030733411391957115
2023-01-27 10:59:40.962017,0.0386331491172313
2023-01-27 10:59:40.967017,0.04581279295733854
2023-01-27 10:59:40.972017,0.05339404195547096
2023-01-27 10:59:40.977017,0.06063111148881575
2023-01-27 10:59:40.982017,0.06601532548665998
2023-01-27 10:59:40.987017,0.06951193834019227
2023-01-27 10:59:40.992017,0.07147252559661854
2023-01-27 10:59:40.997017,0.07027675851306997
2023-01-27 10:59:41.002017,0.06406804174184784
2023-01-27 10:59:41.007017,0.05448695317475329
2023-01-27 10:59:41.012017,0.0453164204955101
2023-01-27 10:59:41.017017,0.037197837929609776
2023-01-27 10:59:41.022017,0.027334094047546328
2023-01-27 10:59:41.027017,0.015262848584767383
2023-01-27 10:59:41.032017,0.004880229942500478
2023-01-27 10:59:41.037017,-0.0012939839337024494
2023-01-27 10:59:41.042017,-0.006178419105708513
2023-01-27 10:59:41.047017,-0.013537609437237369
2023-01-27 10:59:41.052017,-0.022333662956952983
2023-01-27 10:59:41.057017,-0.029158083776308866
2023-01-27 10:59:41.062017,-0.033993326127529096
2023-01-27 10:59:41.067017,-0.03952455285850981
2023-01-27 10:59:41.072017,-0.04598955437540996
2023-01-27 10:59:41.077017,-0.05082765502385545
2023-01-27 10:59:41.082017,-0.05324979871511452
2023-01-27 10:59:41.087017,-0.05551557391801293
2023-01-27 10:59:41.092017,-0.05923589318990702
2023-01-27 10:59:41.097017,-0.06346766347537652
2023-01-27 10:59:41.102017,-0.0671452283859252
2023-01-27 10:59:41.107017,-0.07066845815544903
2023-01-27 10:59:41.112017,-0.0740929469466209
2023-01-27 10:59:41.117017,-0.07602081288158617
2023-01-27 10:59:41.122017,-0.07546325773000709
2023-01-27 10:59:41.127017,-0.07314297152483638
2023-01-27 10:59:41.132017,-0.07007817924022669
2023-01-27 10:59:41.137017,-0.06645584912227198
2023-01-27 10:59:41.142017,-0.0627458095550537
2023-01-27 10:59:41.147017,-0.060384526196560165
2023-01-27 10:59:41.152017,-0.06026963517069809
2023-01-27 10:59:41.157017,-0.061625491927368325
2023-01-27 10:59:41.162017,-0.06313046067953097
2023-01-27 10:59:41.167017,-0.06416949333073022
2023-01-27 10:59:41.172017,-0.06440460681915279
2023-01-27 10:59:41.177017,-0.06333303690001431
2023-01-27 10:59:41.182017,-0.0611591339111328
2023-01-27 10:59:41.187017,-0.05919987230441928
2023-01-27 10:59:41.192017,-0.058586798608302994
2023-01-27 10:59:41.197017,-0.059188678041931515
2023-01-27 10:59:41.202017,-0.060317717492580414
2023-01-27 10:59:41.207017,-0.061699051342986345
2023-01-27 10:59:41.212017,-0.06320258229970926
2023-01-27 10:59:41.217017,-0.064467327847738
2023-01-27 10:59:41.222017,-0.06548643112182609
2023-01-27 10:59:41.227017,-0.06689644100359463
2023-01-27 10:59:41.232017,-0.069020390510559
2023-01-27 10:59:41.237017,-0.07113845877760093
2023-01-27 10:59:41.242017,-0.07224182784557336
2023-01-27 10:59:41.247017,-0.07204802527679366
2023-01-27 10:59:41.252017,-0.07091959565877906
2023-01-27 10:59:41.257017,-0.06943058275937299
2023-01-27 10:59:41.262017,-0.06849150359630579
2023-01-27 10:59:41.267017,-0.06922427770721364
2023-01-27 10:59:41.272017,-0.07195334136486049
2023-01-27 10:59:41.277017,-0.07552995754912642
2023-01-27 10:59:41.282017,-0.07803559303283691
2023-01-27 10:59:41.287017,-0.07790082614475696
2023-01-27 10:59:41.292017,-0.07426123321056363
2023-01-27 10:59:41.297017,-0.06700359794539651
2023-01-27 10:59:41.302017,-0.05714436620473863
2023-01-27 10:59:41.307017,-0.04684656836335031
2023-01-27 10:59:41.312017,-0.03848890587687491
2023-01-27 10:59:41.317017,-0.033691283333217414
2023-01-27 10:59:41.322017,-0.03319998830556864
2023-01-27 10:59:41.327017,-0.03709382924968328
2023-01-27 10:59:41.332017,-0.04464328289031977
2023-01-27 10:59:41.337017,-0.054349728671262386
2023-01-27 10:59:41.342017,-0.06466905772685995
2023-01-27 10:59:41.347017,-0.07470490868650231
2023-01-27 10:59:41.352017,-0.08414189517498008
2023-01-27 10:59:41.357017,-0.0928525664351093
2023-01-27 10:59:41.362017,-0.10070582479238512
2023-01-27 10:59:41.367017,-0.10717918058101092
2023-01-27 10:59:41.372017,-0.11053840816020961
2023-01-27 10:59:41.377017,-0.10746851637085603
2023-01-27 10:59:41.382017,-0.09399851411581028
2023-01-27 10:59:41.387017,-0.06732462972909777
2023-01-27 10:59:41.392017,-0.02762258052825923
2023-01-27 10:59:41.397017,0.020671623407118988
2023-01-27 10:59:41.402017,0.06873190402984605
2023-01-27 10:59:41.407017,0.10526074129478068
2023-01-27 10:59:41.412017,0.12032290548086158
2023-01-27 10:59:41.417017,0.10924818326978349
2023-01-27 10:59:41.422017,0.074501633644104
2023-01-27 10:59:41.427017,0.02479594241936762
2023-01-27 10:59:41.432017,-0.02798318862915028
2023-01-27 10:59:41.437017,-0.07287668007243636
2023-01-27 10:59:41.442017,-0.10335028171539298
2023-01-27 10:59:41.447017,-0.11857232869410246
2023-01-27 10:59:41.452017,-0.1221019029617309
2023-01-27 10:59:41.457017,-0.1192387470127499
2023-01-27 10:59:41.462017,-0.11464934051036826
2023-01-27 10:59:41.467017,-0.11105758720672579
2023-01-27 10:59:41.472017,-0.1090719327330589
2023-01-27 10:59:41.477017,-0.10794129380313672
2023-01-27 10:59:41.482017,-0.10669191926717748
2023-01-27 10:59:41.487017,-0.1048985164643365
2023-01-27 10:59:41.492017,-0.10277330875396715
2023-01-27 10:59:41.497017,-0.10086140980768145
2023-01-27 10:59:41.502017,-0.09969612210988989
2023-01-27 10:59:41.507017,-0.09951813962322566
2023-01-27 10:59:41.512017,-0.10012885183095928
2023-01-27 10:59:41.517017,-0.10098173806276763
2023-01-27 10:59:41.522017,-0.10145108401775361
2023-01-27 10:59:41.527017,-0.10109897993860346
2023-01-27 10:59:41.532017,-0.09984036535024639
2023-01-27 10:59:41.537017,-0.09794151555271897
2023-01-27 10:59:41.542017,-0.09580155462026593
2023-01-27 10:59:41.547017,-0.09367691608164602
2023-01-27 10:59:41.552017,-0.09161850064992899
2023-01-27 10:59:41.557017,-0.08958477152167166
2023-01-27 10:59:41.562017,-0.08748352527618397
2023-01-27 10:59:41.567017,-0.08520386625179499
2023-01-27 10:59:41.572017,-0.08284370601177209
2023-01-27 10:59:41.577017,-0.08086175579929611
2023-01-27 10:59:41.582017,-0.07974247634410851
2023-01-27 10:59:41.587017,-0.07949676025964031
2023-01-27 10:59:41.592017,-0.079646311700344
2023-01-27 10:59:41.597017,-0.07952130578799682
2023-01-27 10:59:41.602017,-0.07827600091695777
2023-01-27 10:59:41.607017,-0.07488961886047885
2023-01-27 10:59:41.612017,-0.06875594705343242
2023-01-27 10:59:41.617017,-0.0602767335914452
2023-01-27 10:59:41.622017,-0.05043705552816391
2023-01-27 10:59:41.627017,-0.03991779031297882
2023-01-27 10:59:41.632017,-0.029089054092764816
2023-01-27 10:59:41.637017,-0.018497703908199957
2023-01-27 10:59:41.642017,-0.008462270721793112
2023-01-27 10:59:41.647017,0.0016261160763692691
2023-01-27 10:59:41.652017,0.012501081451773586
2023-01-27 10:59:41.657017,0.02347093632974799
2023-01-27 10:59:41.662017,0.03276725858449928
2023-01-27 10:59:41.667017,0.039517337639067986
2023-01-27 10:59:41.672017,0.044090352952480226
2023-01-27 10:59:41.677017,0.04628893578556031
2023-01-27 10:59:41.682017,0.04478752613067615
2023-01-27 10:59:41.687017,0.03903609623361537
2023-01-27 10:59:41.692017,0.03024300001561635
2023-01-27 10:59:41.697017,0.019619347957571684
2023-01-27 10:59:41.702017,0.007164081092923794
2023-01-27 10:59:41.707017,-0.006728768724403134
2023-01-27 10:59:41.712017,-0.020145973190665196
2023-01-27 10:59:41.717017,-0.031882089052310957
2023-01-27 10:59:41.722017,-0.04353741928935053
2023-01-27 10:59:41.727017,-0.05738182436523067
2023-01-27 10:59:41.732017,-0.07291495800018308
2023-01-27 10:59:41.737017,-0.08754637263403887
2023-01-27 10:59:41.742017,-0.10008077323436727
2023-01-27 10:59:41.747017,-0.11130044123133095
2023-01-27 10:59:41.752017,-0.12126048654317845
2023-01-27 10:59:41.757017,-0.12831152758932943
2023-01-27 10:59:41.762017,-0.13128539919853205
2023-01-27 10:59:41.767017,-0.13083859274002288
2023-01-27 10:59:41.772017,-0.12808799743652335
2023-01-27 10:59:41.777017,-0.12354077528359478
2023-01-27 10:59:41.782017,-0.11801501363515848
2023-01-27 10:59:41.787017,-0.1131022946609996
2023-01-27 10:59:41.792017,-0.10979314893484106
2023-01-27 10:59:41.797017,-0.10765767812202627
2023-01-27 10:59:41.802017,-0.10604282468557347
2023-01-27 10:59:41.807017,-0.10509581957784316
2023-01-27 10:59:41.812017,-0.10500907897949208
2023-01-27 10:59:41.817017,-0.10525777761306826
2023-01-27 10:59:41.822017,-0.105297565460205
2023-01-27 10:59:41.827017,-0.10521763592479332
2023-01-27 10:59:41.832017,-0.10510524362325657
2023-01-27 10:59:41.837017,-0.10455827867187645
2023-01-27 10:59:41.842017,-0.1034464463591575
2023-01-27 10:59:41.847017,-0.1024378742074294
2023-01-27 10:59:41.852017,-0.1021482571959495
2023-01-27 10:59:41.857017,-0.10235111271089105
2023-01-27 10:59:41.862017,-0.10250886529684058
2023-01-27 10:59:41.867017,-0.10243003919766336
2023-01-27 10:59:41.872017,-0.10188381373882288
2023-01-27 10:59:41.877017,-0.1002132282964192
2023-01-27 10:59:41.882017,-0.09695550054311748
2023-01-27 10:59:41.887017,-0.09242971031877349
2023-01-27 10:59:41.892017,-0.08731524646282186
2023-01-27 10:59:41.897017,-0.08217244335222632
2023-01-27 10:59:41.902017,-0.07774710655212401
2023-01-27 10:59:41.907017,-0.07506480617117883
2023-01-27 10:59:41.912017,-0.0745497196912765
2023-01-27 10:59:41.917017,-0.07535565491593009
2023-01-27 10:59:41.922017,-0.07599215209484105
2023-01-27 10:59:41.927017,-0.07535485182043658
2023-01-27 10:59:41.932017,-0.07305920124053955
2023-01-27 10:59:41.937017,-0.06951462143915943
2023-01-27 10:59:41.942017,-0.06620764732360832
2023-01-27 10:59:41.947017,-0.06535989037205384
2023-01-27 10:59:41.952017,-0.06856362521648403
2023-01-27 10:59:41.957017,-0.07572751538052984
2023-01-27 10:59:41.962017,-0.08541604131460181
2023-01-27 10:59:41.967017,-0.09577135175762878
2023-01-27 10:59:41.972017,-0.10498504340648647
2023-01-27 10:59:41.977017,-0.11168097162724995
2023-01-27 10:59:41.982017,-0.11556287854909891
2023-01-27 10:59:41.987017,-0.11740332806539275
2023-01-27 10:59:41.992017,-0.11779864877462379
2023-01-27 10:59:41.997017,-0.11584972189446292
2023-01-27 10:59:42.002017,-0.10904788970947261
2023-01-27 10:59:42.007017,-0.09414412107850735
2023-01-27 10:59:42.012017,-0.06839533895254127
2023-01-27 10:59:42.017017,-0.03132703880311466
2023-01-27 10:59:42.022017,0.01336654089391231
2023-01-27 10:59:42.027017,0.05749046306195773
2023-01-27 10:59:42.032017,0.09065687656402574
2023-01-27 10:59:42.037017,0.10402524990573535
2023-01-27 10:59:42.042017,0.09342154115438459
2023-01-27 10:59:42.047017,0.06083627523716554
2023-01-27 10:59:42.052017,0.013991594314575119
2023-01-27 10:59:42.057017,-0.0362774853823431
2023-01-27 10:59:42.062017,-0.08000691980123509
2023-01-27 10:59:42.067017,-0.11122930551208078
2023-01-27 10:59:42.072017,-0.12866497039794914
2023-01-27 10:59:42.077017,-0.13454717700283092
2023-01-27 10:59:42.082017,-0.13294419646263117
2023-01-27 10:59:42.087017,-0.12810039435255988
2023-01-27 10:59:42.092017,-0.12301544845104212
2023-01-27 10:59:42.097017,-0.11893045464862474
2023-01-27 10:59:42.102017,-0.11589944362640381
2023-01-27 10:59:42.107017,-0.1135228000436785
2023-01-27 10:59:42.112017,-0.11113941669464107
2023-01-27 10:59:42.117017,-0.10794319748600219
2023-01-27 10:59:42.122017,-0.10349452495574951
2023-01-27 10:59:42.127017,-0.09810671790801276
2023-01-27 10:59:42.132017,-0.09260416030883775
2023-01-27 10:59:42.137017,-0.08789232195660104
2023-01-27 10:59:42.142017,-0.08481502532958976
2023-01-27 10:59:42.147017,-0.08399036712322314
2023-01-27 10:59:42.152017,-0.08539199829101554
2023-01-27 10:59:42.157017,-0.08819617978665246
2023-01-27 10:59:42.162017,-0.09123384952545158
2023-01-27 10:59:42.167017,-0.09351948822728735
2023-01-27 10:59:42.172017,-0.09438316524028764
2023-01-27 10:59:42.177017,-0.09349836613911483
2023-01-27 10:59:42.182017,-0.09106557071208951
2023-01-27 10:59:42.187017,-0.08778448121594536
2023-01-27 10:59:42.192017,-0.08440633863210666
2023-01-27 10:59:42.197017,-0.08134088525830543
2023-01-27 10:59:42.202017,-0.07868468761444089
2023-01-27 10:59:42.207017,-0.07638598286200732
2023-01-27 10:59:42.212017,-0.07426123321056358
2023-01-27 10:59:42.217017,-0.07201735884725444
2023-01-27 10:59:42.222017,-0.06935696303844449
2023-01-27 10:59:42.227017,-0.06596216717550171
2023-01-27 10:59:42.232017,-0.06139954179525373
2023-01-27 10:59:42.237017,-0.05525269972133147
2023-01-27 10:59:42.242017,-0.04743198677897449
2023-01-27 10:59:42.247017,-0.03828918868679764
2023-01-27 10:59:42.252017,-0.0284640006721019
2023-01-27 10:59:42.257017,-0.01863888480680535
2023-01-27 10:59:42.262017,-0.009207527153193916
2023-01-27 10:59:42.267017,2.645810192673181e-05
2023-01-27 10:59:42.272017,0.009664297103881789
2023-01-27 10:59:42.277017,0.020033267179894634
2023-01-27 10:59:42.282017,0.03079593181610097
2023-01-27 10:59:42.287017,0.041183817635580426
2023-01-27 10:59:42.292017,0.05014856904745099
2023-01-27 10:59:42.297017,0.05621318159152948
2023-01-27 10:59:42.302017,0.058009825646877164
2023-01-27 10:59:42.307017,0.05558191146728285
2023-01-27 10:59:42.312017,0.050557255744933964
2023-01-27 10:59:42.317017,0.04431568168325583
2023-01-27 10:59:42.322017,0.03651758283376686
2023-01-27 10:59:42.327017,0.026252190996780916
2023-01-27 10:59:42.332017,0.014039675705134784
2023-01-27 10:59:42.337017,0.0015204473385482089
2023-01-27 10:59:42.342017,-0.01052975654602055
2023-01-27 10:59:42.347017,-0.022572949874519917
2023-01-27 10:59:42.352017,-0.03471454232931133
2023-01-27 10:59:42.357017,-0.04602921737958536
2023-01-27 10:59:42.362017,-0.05575001239776611
2023-01-27 10:59:42.367017,-0.06399143057423572
2023-01-27 10:59:42.372017,-0.07087151706218711
2023-01-27 10:59:42.377017,-0.07590888212328561
2023-01-27 10:59:42.382017,-0.07880489528179156
2023-01-27 10:59:42.387017,-0.08000121867808645
2023-01-27 10:59:42.392017,-0.07995884120464317
2023-01-27 10:59:42.397017,-0.07861459632124325
2023-01-27 10:59:42.402017,-0.07604023069143287
2023-01-27 10:59:42.407017,-0.07296036335690327
2023-01-27 10:59:42.412017,-0.07010221481323234
2023-01-27 10:59:42.417017,-0.06759050042250493
2023-01-27 10:59:42.422017,-0.06539027392864222
2023-01-27 10:59:42.427017,-0.06372129587347244
2023-01-27 10:59:42.432017,-0.06255348771810529
2023-01-27 10:59:42.437017,-0.06125546963247217
2023-01-27 10:59:42.442017,-0.05925993248820297
2023-01-27 10:59:42.447017,-0.05666673119785592
2023-01-27 10:59:42.452017,-0.05385081097483631
2023-01-27 10:59:42.457017,-0.05101318435018819
2023-01-27 10:59:42.462017,-0.0485138110816478
2023-01-27 10:59:42.467017,-0.04707262702728859
2023-01-27 10:59:42.472017,-0.04709541797637926
2023-01-27 10:59:42.477017,-0.04815734840632685
2023-01-27 10:59:42.482017,-0.049523513764142914
2023-01-27 10:59:42.487017,-0.050770084991388804
2023-01-27 10:59:42.492017,-0.051591001451015424
2023-01-27 10:59:42.497017,-0.05156997432540157
2023-01-27 10:59:42.502017,-0.05067745968699448
2023-01-27 10:59:42.507017,-0.04963502355666306
2023-01-27 10:59:42.512017,-0.04935523122549045
2023-01-27 10:59:42.517017,-0.05029847073260663
2023-01-27 10:59:42.522017,-0.052576661109924275
2023-01-27 10:59:42.527017,-0.056084830152781116
2023-01-27 10:59:42.532017,-0.06000518798828118
2023-01-27 10:59:42.537017,-0.06258102261303433
2023-01-27 10:59:42.542017,-0.06195247173309319
2023-01-27 10:59:42.547017,-0.05716736805196848
2023-01-27 10:59:42.552017,-0.04836956784129135
2023-01-27 10:59:42.557017,-0.03665991879629727
2023-01-27 10:59:42.562017,-0.024232864379882812
2023-01-27 10:59:42.567017,-0.014100227893204262
2023-01-27 10:59:42.572017,-0.008895000442862505
2023-01-27 10:59:42.577017,-0.009785395501682984
2023-01-27 10:59:42.582017,-0.016467770561575827
2023-01-27 10:59:42.587017,-0.02761816735373608
2023-01-27 10:59:42.592017,-0.0410372018814086
2023-01-27 10:59:42.597017,-0.054044213233557604
2023-01-27 10:59:42.602017,-0.06459693610668182
2023-01-27 10:59:42.607017,-0.07214924980088327
2023-01-27 10:59:42.612017,-0.077290341258049
2023-01-27 10:59:42.617017,-0.08077323573988368
2023-01-27 10:59:42.622017,-0.0828196629881858
2023-01-27 10:59:42.627017,-0.08248769812182659
2023-01-27 10:59:42.632017,-0.07702589035034173
2023-01-27 10:59:42.637017,-0.062347240963346845
2023-01-27 10:59:42.642017,-0.03524343296885489
2023-01-27 10:59:42.647017,0.004069488274642661
2023-01-27 10:59:42.652017,0.050893824547529165
2023-01-27 10:59:42.657017,0.09676240976564186
2023-01-27 10:59:42.662017,0.13142964243888844
2023-01-27 10:59:42.667017,0.14601465463451824
2023-01-27 10:59:42.672017,0.13650219142436976
2023-01-27 10:59:42.677017,0.1055076304589682
2023-01-27 10:59:42.682017,0.060990851372480274
2023-01-27 10:59:42.687017,0.01305277659137689
2023-01-27 10:59:42.692017,-0.02920925617218011
2023-01-27 10:59:42.697017,-0.059993495981432325
2023-01-27 10:59:42.702017,-0.0779875144362449
2023-01-27 10:59:42.707017,-0.08578671202273801
2023-01-27 10:59:42.712017,-0.08762776851654049
2023-01-27 10:59:42.717017,-0.0871226033595991
2023-01-27 10:59:42.722017,-0.0864017009735107
2023-01-27 10:59:42.727017,-0.08622111139745027
2023-01-27 10:59:42.732017,-0.08616130053997029
2023-01-27 10:59:42.737017,-0.08516897131160951
2023-01-27 10:59:42.742017,-0.0826513767242431
2023-01-27 10:59:42.747017,-0.07911408028600649
2023-01-27 10:59:42.752017,-0.07560750097036362
2023-01-27 10:59:42.757017,-0.07287052816162047
2023-01-27 10:59:42.762017,-0.07116000354289996
2023-01-27 10:59:42.767017,-0.07033426628212455
2023-01-27 10:59:42.772017,-0.06964544951915737
2023-01-27 10:59:42.777017,-0.06790433600425931
2023-01-27 10:59:42.782017,-0.0644526928663253
2023-01-27 10:59:42.787017,-0.05985927865946959
2023-01-27 10:59:42.792017,-0.05541344732046113
2023-01-27 10:59:42.797017,-0.052239068318948374
2023-01-27 10:59:42.802017,-0.051062107086181543
2023-01-27 10:59:42.807017,-0.05218917291182214
2023-01-27 10:59:42.812017,-0.05510091781616206
2023-01-27 10:59:42.817017,-0.05838625347368728
2023-01-27 10:59:42.822017,-0.060606203973293304
2023-01-27 10:59:42.827017,-0.06108229569469046
2023-01-27 10:59:42.832017,-0.05966862291097639
2023-01-27 10:59:42.837017,-0.05630855773256821
2023-01-27 10:59:42.842017,-0.05130251497030251
2023-01-27 10:59:42.847017,-0.04555400765430574
2023-01-27 10:59:42.852017,-0.03995537757873527
2023-01-27 10:59:42.857017,-0.03476578835476681
2023-01-27 10:59:42.862017,-0.029930472373962402
2023-01-27 10:59:42.867017,-0.02551320075655521
2023-01-27 10:59:42.872017,-0.021275877952575552
2023-01-27 10:59:42.877017,-0.01628589305636175
2023-01-27 10:59:42.882017,-0.009592175483703594
2023-01-27 10:59:42.887017,-0.001024059800011192
2023-01-27 10:59:42.892017,0.0091113653033971
2023-01-27 10:59:42.897017,0.020587381367011413
2023-01-27 10:59:42.902017,0.03283938020467748
2023-01-27 10:59:42.907017,0.04448659776733722
2023-01-27 10:59:42.912017,0.054139297455549164
2023-01-27 10:59:42.917017,0.06142317879545853
2023-01-27 10:59:42.922017,0.06647209823131556
2023-01-27 10:59:42.927017,0.0688294080519276
2023-01-27 10:59:42.932017,0.06789048761129361
2023-01-27 10:59:42.937017,0.0642399064441706
2023-01-27 10:59:42.942017,0.05938013643026343
2023-01-27 10:59:42.947017,0.05397224785688807
2023-01-27 10:59:42.952017,0.047359865158796234
2023-01-27 10:59:42.957017,0.03913837068900292
2023-01-27 10:59:42.962017,0.030243000015616372
2023-01-27 10:59:42.967017,0.021932964519001903
2023-01-27 10:59:42.972017,0.01437624357640739
2023-01-27 10:59:42.977017,0.00682765544159362
2023-01-27 10:59:42.982017,-0.001250108121894248
2023-01-27 10:59:42.987017,-0.009772292272535475
2023-01-27 10:59:42.992017,-0.018366973847150803
2023-01-27 10:59:42.997017,-0.026540237530664236
2023-01-27 10:59:43.002017,-0.03363271802663799
2023-01-27 10:59:43.007017,-0.03908823285250028
2023-01-27 10:59:43.012017,-0.04286428540945049
2023-01-27 10:59:43.017017,-0.04542888626492298
2023-01-27 10:59:43.022017,-0.04738390445709217
2023-01-27 10:59:43.027017,-0.049156593490963664
2023-01-27 10:59:43.032017,-0.0508938245475292
2023-01-27 10:59:43.037017,-0.052472116202268125
2023-01-27 10:59:43.042017,-0.0536584854125976
2023-01-27 10:59:43.047017,-0.05438546441070654
2023-01-27 10:59:43.052017,-0.05488455295562739
2023-01-27 10:59:43.057017,-0.05554449555965672
2023-01-27 10:59:43.062017,-0.05663951486349096
2023-01-27 10:59:43.067017,-0.05807202055272688
2023-01-27 10:59:43.072017,-0.059211850166320815
2023-01-27 10:59:43.077017,-0.05903160990425106
2023-01-27 10:59:43.082017,-0.056639514863491
2023-01-27 10:59:43.087017,-0.051869688066009806
2023-01-27 10:59:43.092017,-0.04546066373586648
2023-01-27 10:59:43.097017,-0.03878203052654991
2023-01-27 10:59:43.102017,-0.033368270844221073
2023-01-27 10:59:43.107017,-0.030378953099128997
2023-01-27 10:59:43.112017,-0.030098756775259895
2023-01-27 10:59:43.117017,-0.03183632052930362
2023-01-27 10:59:43.122017,-0.03440201282501218
2023-01-27 10:59:43.127017,-0.03675493210611596
2023-01-27 10:59:43.132017,-0.03832062333822246
2023-01-27 10:59:43.137017,-0.039002696628484275
2023-01-27 10:59:43.142017,-0.0391139611601829
2023-01-27 10:59:43.147017,-0.03916023921881081
2023-01-27 10:59:43.152017,-0.03945052623748775
2023-01-27 10:59:43.157017,-0.03991097439833253
2023-01-27 10:59:43.162017,-0.040340028703212696
2023-01-27 10:59:43.167017,-0.040717665694660565
2023-01-27 10:59:43.172017,-0.04115740582346909
2023-01-27 10:59:43.177017,-0.041700788987697496
2023-01-27 10:59:43.182017,-0.04228731244802465
2023-01-27 10:59:43.187017,-0.04277300043690779
2023-01-27 10:59:43.192017,-0.042840242385864154
2023-01-27 10:59:43.197017,-0.042073057812180854
2023-01-27 10:59:43.202017,-0.04034002870321269
2023-01-27 10:59:43.207017,-0.03802024318135815
2023-01-27 10:59:43.212017,-0.03570020198822017
2023-01-27 10:59:43.217017,-0.033706501067924374
2023-01-27 10:59:43.222017,-0.03194987773895261
2023-01-27 10:59:43.227017,-0.02997217907265487
2023-01-27 10:59:43.232017,-0.026997527107596297
2023-01-27 10:59:43.237017,-0.02223533348528512
2023-01-27 10:59:43.242017,-0.015530189499258926
2023-01-27 10:59:43.247017,-0.007792978177958284
2023-01-27 10:59:43.252017,-0.0007452567806466988
2023-01-27 10:59:43.257017,0.0036987769917741554
2023-01-27 10:59:43.262017,0.003942648880183572
2023-01-27 10:59:43.267017,-0.0008199717754933999
2023-01-27 10:59:43.272017,-0.01012106798589222
2023-01-27 10:59:43.277017,-0.022209157064575748
2023-01-27 10:59:43.282017,-0.034786663949489545
2023-01-27 10:59:43.287017,-0.045917688498266634
2023-01-27 10:59:43.292017,-0.05445182323455806
2023-01-27 10:59:43.297017,-0.05999576217595883
2023-01-27 10:59:43.302017,-0.06260156631469718
2023-01-27 10:59:43.307017,-0.06198867923699031
2023-01-27 10:59:43.312017,-0.0565193109214305
2023-01-27 10:59:43.317017,-0.042976344642571954
2023-01-27 10:59:43.322017,-0.01786212250590321
2023-01-27 10:59:43.327017,0.0203990273621636
2023-01-27 10:59:43.332017,0.06957332789897908
2023-01-27 10:59:43.337017,0.12285013172413341
2023-01-27 10:59:43.342017,0.1697502583265303
2023-01-27 10:59:43.347017,0.19906819206066848
2023-01-27 10:59:43.352017,0.20299832522869093
2023-01-27 10:59:43.357017,0.18022781361646775
2023-01-27 10:59:43.362017,0.1362617909908293
2023-01-27 10:59:43.367017,0.0812140204741612
2023-01-27 10:59:43.372017,0.02642055414617062
2023-01-27 10:59:43.377017,-0.018978172070864805
2023-01-27 10:59:43.382017,-0.05043705552816388
2023-01-27 10:59:43.387017,-0.06828696198902334
2023-01-27 10:59:43.392017,-0.07589598745107647
2023-01-27 10:59:43.397017,-0.07728727634332587
2023-01-27 10:59:43.402017,-0.07570366561412806
2023-01-27 10:59:43.407017,-0.07311980007960038
2023-01-27 10:59:43.412017,-0.07015030086040488
2023-01-27 10:59:43.417017,-0.06645277593700119
2023-01-27 10:59:43.422017,-0.06166398525238028
2023-01-27 10:59:43.427017,-0.05605389066237673
2023-01-27 10:59:43.432017,-0.050316851586103384
2023-01-27 10:59:43.437017,-0.04512423256959939
2023-01-27 10:59:43.442017,-0.04110932350158687
2023-01-27 10:59:43.447017,-0.038862497167388196
2023-01-27 10:59:43.452017,-0.038488905876874924
2023-01-27 10:59:43.457017,-0.03936365667677907
2023-01-27 10:59:43.462017,-0.04065255448222161
2023-01-27 10:59:43.467017,-0.04190765815296035
2023-01-27 10:59:43.472017,-0.0429844856262207
2023-01-27 10:59:43.477017,-0.043785615800669954
2023-01-27 10:59:43.482017,-0.04445096105337139
2023-01-27 10:59:43.487017,-0.045415981239986164
2023-01-27 10:59:43.492017,-0.04678289219737046
2023-01-27 10:59:43.497017,-0.047843600637261695
2023-01-27 10:59:43.502017,-0.04760026931762686
2023-01-27 10:59:43.507017,-0.04551630329500246
2023-01-27 10:59:43.512017,-0.041493974626064245
2023-01-27 10:59:43.517017,-0.03564963990507583
2023-01-27 10:59:43.522017,-0.028704404830932572
2023-01-27 10:59:43.527017,-0.022166558091865414
2023-01-27 10:59:43.532017,-0.01733323000371449
2023-01-27 10:59:43.537017,-0.014200266950047764
2023-01-27 10:59:43.542017,-0.011827945709228497
2023-01-27 10:59:43.547017,-0.009385734819501735
2023-01-27 10:59:43.552017,-0.006154378410428705
2023-01-27 10:59:43.557017,-0.001057812185973295
2023-01-27 10:59:43.562017,0.006514986511319799
2023-01-27 10:59:43.567017,0.015390326108576149
2023-01-27 10:59:43.572017,0.023343365639448086
2023-01-27 10:59:43.577017,0.029569720589331643
2023-01-27 10:59:43.582017,0.03545979782938944
2023-01-27 10:59:43.587017,0.04241920040805752
2023-01-27 10:59:43.592017,0.04986008256673805
2023-01-27 10:59:43.597017,0.05612045750465155
2023-01-27 10:59:43.602017,0.06063024327158916
2023-01-27 10:59:43.607017,0.06412629495654032
2023-01-27 10:59:43.612017,0.06700098514556876
2023-01-27 10:59:43.617017,0.06842222416995239
2023-01-27 10:59:43.622017,0.06721735000610346
2023-01-27 10:59:43.627017,0.06299140181318842
2023-01-27 10:59:43.632017,0.05623082444071755
2023-01-27 10:59:43.637017,0.047848835224153265
2023-01-27 10:59:43.642017,0.03889759629964816
2023-01-27 10:59:43.647017,0.03034221596889938
2023-01-27 10:59:43.652017,0.022694271057844096
2023-01-27 10:59:43.657017,0.01582633061345094
2023-01-27 10:59:43.662017,0.009231567382812476
2023-01-27 10:59:43.667017,0.0024652803643763024
2023-01-27 10:59:43.672017,-0.00459174346178772
2023-01-27 10:59:43.677017,-0.011694650529689222
2023-01-27 10:59:43.682017,-0.0183429326862096
2023-01-27 10:59:43.687017,-0.02402272847893622
2023-01-27 10:59:43.692017,-0.02848803997039792
2023-01-27 10:59:43.697017,-0.03186662141785392
2023-01-27 10:59:43.702017,-0.03449817746877671
2023-01-27 10:59:43.707017,-0.036655027682362826
2023-01-27 10:59:43.712017,-0.038368701934814425
2023-01-27 10:59:43.717017,-0.03946617855793939
2023-01-27 10:59:43.722017,-0.039763055741786915
2023-01-27 10:59:43.727017,-0.03927194615786609
2023-01-27 10:59:43.732017,-0.038296580314636224
2023-01-27 10:59:43.737017,-0.03736410938123558
2023-01-27 10:59:43.742017,-0.037022434175014426
2023-01-27 10:59:43.747017,-0.03758796027222165
2023-01-27 10:59:43.752017,-0.03899375721812237
2023-01-27 10:59:43.757017,-0.040852389339614895
2023-01-27 10:59:43.762017,-0.04264792054891582
2023-01-27 10:59:43.767017,-0.04385233129966451
2023-01-27 10:59:43.772017,-0.043946109712123774
2023-01-27 10:59:43.777017,-0.042533272113866295
2023-01-27 10:59:43.782017,-0.03959476947784417
2023-01-27 10:59:43.787017,-0.03564420118648824
2023-01-27 10:59:43.792017,-0.031613312661647665
2023-01-27 10:59:43.797017,-0.028573683558280737
2023-01-27 10:59:43.802017,-0.027430256828665657
2023-01-27 10:59:43.807017,-0.028594923736077426
2023-01-27 10:59:43.812017,-0.03175755590200421
2023-01-27 10:59:43.817017,-0.03601429953410669
2023-01-27 10:59:43.822017,-0.04034002870321267
2023-01-27 10:59:43.827017,-0.044005028210779534
2023-01-27 10:59:43.832017,-0.04666268825531001
2023-01-27 10:59:43.837017,-0.04826094020841006
2023-01-27 10:59:43.842017,-0.048970580101013066
2023-01-27 10:59:43.847017,-0.049076514491083786
2023-01-27 10:59:43.852017,-0.0488263368606567
2023-01-27 10:59:43.857017,-0.048421326788912866
2023-01-27 10:59:43.862017,-0.04812916368246071
2023-01-27 10:59:43.867017,-0.048197788285495466
2023-01-27 10:59:43.872017,-0.04851381108164777
2023-01-27 10:59:43.877017,-0.04841962682995041
2023-01-27 10:59:43.882017,-0.04695117473602287
2023-01-27 10:59:43.887017,-0.043241503549657785
2023-01-27 10:59:43.892017,-0.03683010861277579
2023-01-27 10:59:43.897017,-0.027963379714128458
2023-01-27 10:59:43.902017,-0.01786212250590318
2023-01-27 10:59:43.907017,-0.008583960237987241
2023-01-27 10:59:43.912017,-0.002355973003432119
2023-01-27 10:59:43.917017,-0.0008294308529139087
2023-01-27 10:59:43.922017,-0.0046638650819659086
2023-01-27 10:59:43.927017,-0.013362602831726704
2023-01-27 10:59:43.932017,-0.0252906493842601
2023-01-27 10:59:43.937017,-0.03813827962934383
2023-01-27 10:59:43.942017,-0.0498360395431518
2023-01-27 10:59:43.947017,-0.05932169459206128
2023-01-27 10:59:43.952017,-0.06664037704467768
2023-01-27 10:59:43.957017,-0.07247618171694034
2023-01-27 10:59:43.962017,-0.07736246287822718
2023-01-27 10:59:43.967017,-0.08062962465254592
2023-01-27 10:59:43.972017,-0.07952611148357386
2023-01-27 10:59:43.977017,-0.06950650704870512
2023-01-27 10:59:43.982017,-0.046181879937648655
2023-01-27 10:59:43.987017,-0.008098542477050262
2023-01-27 10:59:43.992017,0.04115740582346908
2023-01-27 10:59:43.997017,0.09264604685316119
2023-01-27 10:59:44.002017,0.13405005633831016
2023-01-27 10:59:44.007017,0.1537135833983865
2023-01-27 10:59:44.012017,0.14525294303894035
2023-01-27 10:59:44.017017,0.1103164950867468
2023-01-27 10:59:44.022017,0.057913661003112675
2023-01-27 10:59:44.027017,0.0008554137997090455
2023-01-27 10:59:44.032017,-0.04877825826406469
2023-01-27 10:59:44.037017,-0.08331523413814815
2023-01-27 10:59:44.042017,-0.10109047591686235
2023-01-27 10:59:44.047017,-0.10549237965389845
2023-01-27 10:59:44.052017,-0.1022203788161276
2023-01-27 10:59:44.057017,-0.09653058698576812
2023-01-27 10:59:44.062017,-0.09178678691387168
2023-01-27 10:59:44.067017,-0.0892516009287277
2023-01-27 10:59:44.072017,-0.08849322795867909
2023-01-27 10:59:44.077017,-0.08818282711052237
2023-01-27 10:59:44.082017,-0.08709888160228713
2023-01-27 10:59:44.087017,-0.08475632003451442
2023-01-27 10:59:44.092017,-0.08135318756103507
2023-01-27 10:59:44.097017,-0.07747670502219171
2023-01-27 10:59:44.102017,-0.07394870370626437
2023-01-27 10:59:44.107017,-0.0715411416585359
2023-01-27 10:59:44.112017,-0.07043878734111783
2023-01-27 10:59:44.117017,-0.07003013471027207
2023-01-27 10:59:44.122017,-0.06938099861145008
2023-01-27 10:59:44.127017,-0.06782517781090146
2023-01-27 10:59:44.132017,-0.06512582302093496
2023-01-27 10:59:44.137017,-0.061493661582630935
2023-01-27 10:59:44.142017,-0.057745378464460276
2023-01-27 10:59:44.147017,-0.05514574680965621
2023-01-27 10:59:44.152017,-0.05466818809509267
2023-01-27 10:59:44.157017,-0.05637649008508983
2023-01-27 10:59:44.162017,-0.059548418968915884
2023-01-27 10:59:44.167017,-0.06310500317693786
2023-01-27 10:59:44.172017,-0.06579896062612528
2023-01-27 10:59:44.177017,-0.06648306387923936
2023-01-27 10:59:44.182017,-0.06471713632345186
2023-01-27 10:59:44.187017,-0.061010067530222575
2023-01-27 10:59:44.192017,-0.0561827421188354
2023-01-27 10:59:44.197017,-0.05063507746788718
2023-01-27 10:59:44.202017,-0.044378839433193186
2023-01-27 10:59:44.207017,-0.037387695549780206
2023-01-27 10:59:44.212017,-0.029545824974775294
2023-01-27 10:59:44.217017,-0.020605360999263276
2023-01-27 10:59:44.222017,-0.010673999786376882
2023-01-27 10:59:44.227017,-0.0005029513785372816
2023-01-27 10:59:44.232017,0.009159445762634177
2023-01-27 10:59:44.237017,0.0182677669741902
2023-01-27 10:59:44.242017,0.02711772918701166
2023-01-27 10:59:44.247017,0.0356322604082423
2023-01-27 10:59:44.252017,0.043561458587646366
2023-01-27 10:59:44.257017,0.05099824179358219
2023-01-27 10:59:44.262017,0.057865582406520746
2023-01-27 10:59:44.267017,0.06308527780158564
2023-01-27 10:59:44.272017,0.06522198766469947
2023-01-27 10:59:44.277017,0.06404565864043087
2023-01-27 10:59:44.282017,0.06055812165141098
2023-01-27 10:59:44.287017,0.05525217044671311
2023-01-27 10:59:44.292017,0.04728774353861796
2023-01-27 10:59:44.297017,0.03591074898827283
2023-01-27 10:59:44.302017,0.021924972534179576
2023-01-27 10:59:44.307017,0.007068135108776808
2023-01-27 10:59:44.312017,-0.007548729889094805
2023-01-27 10:59:44.317017,-0.021668061681199786
2023-01-27 10:59:44.322017,-0.034954946488142
2023-01-27 10:59:44.327017,-0.04670032196301248
2023-01-27 10:59:44.332017,-0.05644718930125232
2023-01-27 10:59:44.337017,-0.06427736278162696
2023-01-27 10:59:44.342017,-0.07036666572093957
2023-01-27 10:59:44.347017,-0.07471739663233677
2023-01-27 10:59:44.352017,-0.0774586200714111
2023-01-27 10:59:44.357017,-0.07904057930623061
2023-01-27 10:59:44.362017,-0.07995884120464318
2023-01-27 10:59:44.367017,-0.08050882821240159
2023-01-27 10:59:44.372017,-0.08089642226696012
2023-01-27 10:59:44.377017,-0.0813452463470691
2023-01-27 10:59:44.382017,-0.08195420354604718
2023-01-27 10:59:44.387017,-0.08260926227295781
2023-01-27 10:59:44.392017,-0.0831562280654907
2023-01-27 10:59:44.397017,-0.08355122987050996
2023-01-27 10:59:44.402017,-0.0837572440505027
2023-01-27 10:59:44.407017,-0.08360155965182466
2023-01-27 10:59:44.412017,-0.08284370601177207
2023-01-27 10:59:44.417017,-0.08134901580310376
2023-01-27 10:59:44.422017,-0.07916550338268277
2023-01-27 10:59:44.427017,-0.07651916626056852
2023-01-27 10:59:44.432017,-0.07380446046590797
2023-01-27 10:59:44.437017,-0.07149783038901815
2023-01-27 10:59:44.442017,-0.06993393599987024
2023-01-27 10:59:44.447017,-0.0690992130389401
2023-01-27 10:59:44.452017,-0.06865978240966789
2023-01-27 10:59:44.457017,-0.0682214364149689
2023-01-27 10:59:44.462017,-0.0676020011305809
2023-01-27 10:59:44.467017,-0.06692015212172972
2023-01-27 10:59:44.472017,-0.06647209823131559
2023-01-27 10:59:44.477017,-0.06647480248970643
2023-01-27 10:59:44.482017,-0.06678462028503405
2023-01-27 10:59:44.487017,-0.06675075785543985
2023-01-27 10:59:44.492017,-0.06539027392864222
2023-01-27 10:59:44.497017,-0.06191366285471838
2023-01-27 10:59:44.502017,-0.056326985359191825
2023-01-27 10:59:44.507017,-0.04970254347934108
2023-01-27 10:59:44.512017,-0.04392206668853752
2023-01-27 10:59:44.517017,-0.04101798799206741
2023-01-27 10:59:44.522017,-0.042383473366498906
2023-01-27 10:59:44.527017,-0.04814578515583381
2023-01-27 10:59:44.532017,-0.057024162262678056
2023-01-27 10:59:44.537017,-0.06685575595842037
2023-01-27 10:59:44.542017,-0.07555942237377156
2023-01-27 10:59:44.547017,-0.08197468608403982
2023-01-27 10:59:44.552017,-0.08613725751638408
2023-01-27 10:59:44.557017,-0.08892154518689778
2023-01-27 10:59:44.562017,-0.09118577092885968
2023-01-27 10:59:44.567017,-0.09267922650457236
2023-01-27 10:59:44.572017,-0.09125789254903788
2023-01-27 10:59:44.577017,-0.08310999034943935
2023-01-27 10:59:44.582017,-0.06426036357879632
2023-01-27 10:59:44.587017,-0.03282593648370043
2023-01-27 10:59:44.592017,0.009015202522277792
2023-01-27 10:59:44.597017,0.054382919935093435
2023-01-27 10:59:44.602017,0.09306093305349339
2023-01-27 10:59:44.607017,0.11475403083440698
2023-01-27 10:59:44.612017,0.11299054324626912
2023-01-27 10:59:44.617017,0.0877643238994049
2023-01-27 10:59:44.622017,0.04558086395263667
2023-01-27 10:59:44.627017,-0.0030281740813822323
2023-01-27 10:59:44.632017,-0.047311782836913986
2023-01-27 10:59:44.637017,-0.07980804766643586
2023-01-27 10:59:44.642017,-0.09813348948955528
2023-01-27 10:59:44.647017,-0.10444688467671015
2023-01-27 10:59:44.652017,-0.10325412452220907
2023-01-27 10:59:44.657017,-0.09904892817894552
2023-01-27 10:59:44.662017,-0.09491205215454096
2023-01-27 10:59:44.667017,-0.09218936114631242
2023-01-27 10:59:44.672017,-0.09084920585155476
2023-01-27 10:59:44.677017,-0.09017195192057911
2023-01-27 10:59:44.682017,-0.08943080902099601
2023-01-27 10:59:44.687017,-0.08820548351196991
2023-01-27 10:59:44.692017,-0.08632957935333246
2023-01-27 10:59:44.697017,-0.08384368275581999
2023-01-27 10:59:44.702017,-0.08108874410390846
2023-01-27 10:59:44.707017,-0.07863651527325306
2023-01-27 10:59:44.712017,-0.07692973315715779
2023-01-27 10:59:44.717017,-0.0759928117155689
2023-01-27 10:59:44.722017,-0.07548730075359342
2023-01-27 10:59:44.727017,-0.07490809592826515
2023-01-27 10:59:44.732017,-0.07370829582214353
2023-01-27 10:59:44.737017,-0.0714808273327889
2023-01-27 10:59:44.742017,-0.06822705268859859
2023-01-27 10:59:44.747017,-0.06439026038785275
2023-01-27 10:59:44.752017,-0.060534082353114985
2023-01-27 10:59:44.757017,-0.05705562235782917
2023-01-27 10:59:44.762017,-0.054211419075727435
2023-01-27 10:59:44.767017,-0.05219096771812658
2023-01-27 10:59:44.772017,-0.05098998546600337
2023-01-27 10:59:44.777017,-0.05031914131768362
2023-01-27 10:59:44.782017,-0.04976391792297364
2023-01-27 10:59:44.787017,-0.048947286729910076
2023-01-27 10:59:44.792017,-0.04748006910085666
2023-01-27 10:59:44.797017,-0.0449431338658752
2023-01-27 10:59:44.802017,-0.0410852842032909
2023-01-27 10:59:44.807017,-0.035934240333422164
2023-01-27 10:59:44.812017,-0.029593905434012364
2023-01-27 10:59:44.817017,-0.022048462779739954
2023-01-27 10:59:44.822017,-0.013270378112792849
2023-01-27 10:59:44.827017,-0.0033836767567828733
2023-01-27 10:59:44.832017,0.0073804459534585086
2023-01-27 10:59:44.837017,0.018710236061681772
2023-01-27 10:59:44.842017,0.030050676316022828
2023-01-27 10:59:44.847017,0.040600495773302714
2023-01-27 10:59:44.852017,0.04969179630279539
2023-01-27 10:59:44.857017,0.05710544926762684
2023-01-27 10:59:44.862017,0.0629140958189964
2023-01-27 10:59:44.867017,0.06717198840730629
2023-01-27 10:59:44.872017,0.06986181437969194
2023-01-27 10:59:44.877017,0.07088029127602656
2023-01-27 10:59:44.882017,0.0698137283325195
2023-01-27 10:59:44.887017,0.0659034625619471
2023-01-27 10:59:44.892017,0.0585387162864208
2023-01-27 10:59:44.897017,0.0477604915539224
2023-01-27 10:59:44.902017,0.034185647964477484
2023-01-27 10:59:44.907017,0.018685260945944568
2023-01-27 10:59:44.912017,0.0023800134658812956
2023-01-27 10:59:44.917017,-0.013356884959977212
2023-01-27 10:59:44.922017,-0.027406215667724595
2023-01-27 10:59:44.927017,-0.03941912770038032
2023-01-27 10:59:44.932017,-0.04952351376414287
2023-01-27 10:59:44.937017,-0.057630629440688246
2023-01-27 10:59:44.942017,-0.06346702575683585
2023-01-27 10:59:44.947017,-0.06726453319789207
2023-01-27 10:59:44.952017,-0.06988584995269768
2023-01-27 10:59:44.957017,-0.072041477630532
2023-01-27 10:59:44.962017,-0.07370829582214347
2023-01-27 10:59:44.967017,-0.07449220503551143
2023-01-27 10:59:44.972017,-0.07421314716339109
2023-01-27 10:59:44.977017,-0.07286071082836194
2023-01-27 10:59:44.982017,-0.07027050107717506
2023-01-27 10:59:44.987017,-0.06628147770021191
2023-01-27 10:59:44.992017,-0.06123125553131098
2023-01-27 10:59:44.997017,-0.056071901433698085
2023-01-27 10:59:45.002017,-0.05195160955190653
2023-01-27 10:59:45.007017,-0.0497218342541336
2023-01-27 10:59:45.012017,-0.04966775700449938
2023-01-27 10:59:45.017017,-0.05141195490008215
2023-01-27 10:59:45.022017,-0.05399505421519269
2023-01-27 10:59:45.027017,-0.05622860965416191
2023-01-27 10:59:45.032017,-0.05719244480133051
2023-01-27 10:59:45.037017,-0.056560234287152615
2023-01-27 10:59:45.042017,-0.054596066474914495
2023-01-27 10:59:45.047017,-0.05191742116182641
2023-01-27 10:59:45.052017,-0.049186944961547796
2023-01-27 10:59:45.057017,-0.04686417925692988
2023-01-27 10:59:45.062017,-0.045124094933271394
2023-01-27 10:59:45.067017,-0.04395914507791601
2023-01-27 10:59:45.072017,-0.04334509372711179
2023-01-27 10:59:45.077017,-0.043320329403105026
2023-01-27 10:59:45.082017,-0.04392206668853752
2023-01-27 10:59:45.087017,-0.04502631747280829
2023-01-27 10:59:45.092017,-0.046205919235944706
2023-01-27 10:59:45.097017,-0.04674005869669895
2023-01-27 10:59:45.102017,-0.04582127183675759
2023-01-27 10:59:45.107017,-0.042856972073980225
2023-01-27 10:59:45.112017,-0.03771960735321035
2023-01-27 10:59:45.117017,-0.030879267119480067
2023-01-27 10:59:45.122017,-0.023391446098685174
2023-01-27 10:59:45.127017,-0.016693469124867525
2023-01-27 10:59:45.132017,-0.012236635200679299
2023-01-27 10:59:45.137017,-0.011110871003031856
2023-01-27 10:59:45.142017,-0.013799270614981622
2023-01-27 10:59:45.147017,-0.020068366725750127
2023-01-27 10:59:45.152017,-0.028992891311645487
2023-01-27 10:59:45.157017,-0.03919699323310559
2023-01-27 10:59:45.162017,-0.04930714890360827
2023-01-27 10:59:45.167017,-0.05838679880539591
2023-01-27 10:59:45.172017,-0.06606340408325186
2023-01-27 10:59:45.177017,-0.0722240286885171
2023-01-27 10:59:45.182017,-0.07635276019573208
2023-01-27 10:59:45.187017,-0.07679355006232852
2023-01-27 10:59:45.192017,-0.07048686593770978
2023-01-27 10:59:45.197017,-0.053740746084610026
2023-01-27 10:59:45.202017,-0.024040540680289203
2023-01-27 10:59:45.207017,0.017887675393455628
2023-01-27 10:59:45.212017,0.06688078492879859
2023-01-27 10:59:45.217017,0.11382778756941915
2023-01-27 10:59:45.222017,0.14801761507987965
2023-01-27 10:59:45.227017,0.16069804785559014
2023-01-27 10:59:45.232017,0.14837822318077076
2023-01-27 10:59:45.237017,0.11421937942922844
2023-01-27 10:59:45.242017,0.06678462028503407
2023-01-27 10:59:45.247017,0.01686430247580735
2023-01-27 10:59:45.252017,-0.026083987206220616
2023-01-27 10:59:45.257017,-0.05648771038254535
2023-01-27 10:59:45.262017,-0.07341980934143055
2023-01-27 10:59:45.267017,-0.07952266412697766
2023-01-27 10:59:45.272017,-0.0788770169019699
2023-01-27 10:59:45.277017,-0.07507340463661968
2023-01-27 10:59:45.282017,-0.07034262269735331
2023-01-27 10:59:45.287017,-0.06568096338504505
2023-01-27 10:59:45.292017,-0.06139954179525368
2023-01-27 10:59:45.297017,-0.05766132932196716
2023-01-27 10:59:45.302017,-0.0547883920371532
2023-01-27 10:59:45.307017,-0.053198804009414694
2023-01-27 10:59:45.312017,-0.053057473152875886
2023-01-27 10:59:45.317017,-0.054021876338116344
2023-01-27 10:59:45.322017,-0.05536536499857901
2023-01-27 10:59:45.327017,-0.056333186364283465
2023-01-27 10:59:45.332017,-0.05642315000295627
2023-01-27 10:59:45.337017,-0.0555017824372602
2023-01-27 10:59:45.342017,-0.05380272865295408
2023-01-27 10:59:45.347017,-0.051779233153785124
2023-01-27 10:59:45.352017,-0.04983603954315176
2023-01-27 10:59:45.357017,-0.04814624854712379
2023-01-27 10:59:45.362017,-0.046686731278896276
2023-01-27 10:59:45.367017,-0.045352984172102026
2023-01-27 10:59:45.372017,-0.04399418830871578
2023-01-27 10:59:45.377017,-0.042435881958652555
2023-01-27 10:59:45.382017,-0.04058043286204331
2023-01-27 10:59:45.387017,-0.03847420001173849
2023-01-27 10:59:45.392017,-0.036229096353054005
2023-01-27 10:59:45.397017,-0.03390292159556344
2023-01-27 10:59:45.402017,-0.031469069421291324
2023-01-27 10:59:45.407017,-0.028826494359471298
2023-01-27 10:59:45.412017,-0.025795500725507688
2023-01-27 10:59:45.417017,-0.02219597648084143
2023-01-27 10:59:45.422017,-0.018030405044555612
2023-01-27 10:59:45.427017,-0.01355667887385951
2023-01-27 10:59:45.432017,-0.009087324142456029
2023-01-27 10:59:45.437017,-0.0046771945966136074
2023-01-27 10:59:45.442017,2.404054066570893e-05
2023-01-27 10:59:45.447017,0.005679602267434006
2023-01-27 10:59:45.452017,0.013005932793021221
2023-01-27 10:59:45.457017,0.022404246862053088
2023-01-27 10:59:45.462017,0.0336086750030517
2023-01-27 10:59:45.467017,0.04559324483257114
2023-01-27 10:59:45.472017,0.05685587972402566
2023-01-27 10:59:45.477017,0.06590234754267049
2023-01-27 10:59:45.482017,0.07166485488414756
2023-01-27 10:59:45.487017,0.07374663435509171
2023-01-27 10:59:45.492017,0.07248222827911366
2023-01-27 10:59:45.497017,0.06877885273028109
2023-01-27 10:59:45.502017,0.06375551223754873
2023-01-27 10:59:45.507017,0.05832245201031865
2023-01-27 10:59:45.512017,0.05286514759063719
2023-01-27 10:59:45.517017,0.04712631217217169
2023-01-27 10:59:45.522017,0.04034002870321268
2023-01-27 10:59:45.527017,0.03161841219390046
2023-01-27 10:59:45.532017,0.020458500832319242
2023-01-27 10:59:45.537017,0.00714509477055865
2023-01-27 10:59:45.542017,-0.007140040397643972
2023-01-27 10:59:45.547017,-0.020605935513726283
2023-01-27 10:59:45.552017,-0.03149310871958724
2023-01-27 10:59:45.557017,-0.03876513100541637
2023-01-27 10:59:45.562017,-0.04243155568838104
2023-01-27 10:59:45.567017,-0.04337062755924125
2023-01-27 10:59:45.572017,-0.042888324707746464
2023-01-27 10:59:45.577017,-0.042217522918824135
2023-01-27 10:59:45.582017,-0.04199882596731178
2023-01-27 10:59:45.587017,-0.042001329991663026
2023-01-27 10:59:45.592017,-0.04149397462606427
2023-01-27 10:59:45.597017,-0.040062553683817566
2023-01-27 10:59:45.602017,-0.037984054535627254
2023-01-27 10:59:45.607017,-0.03579894881799811
2023-01-27 10:59:45.612017,-0.03387312218546862
2023-01-27 10:59:45.617017,-0.03262384378933517
2023-01-27 10:59:45.622017,-0.032791297882795306
2023-01-27 10:59:45.627017,-0.03490395094421941
2023-01-27 10:59:45.632017,-0.03846486657857888
2023-01-27 10:59:45.637017,-0.04206949086860075
2023-01-27 10:59:45.642017,-0.04440287873148914
2023-01-27 10:59:45.647017,-0.04490086181682317
2023-01-27 10:59:45.652017,-0.04360954090952871
2023-01-27 10:59:45.657017,-0.04096208154054182
2023-01-27 10:59:45.662017,-0.03783981129527089
2023-01-27 10:59:45.667017,-0.035370291135033975
2023-01-27 10:59:45.672017,-0.03428181260824202
2023-01-27 10:59:45.677017,-0.03453559964323271
2023-01-27 10:59:45.682017,-0.03562808036804191
2023-01-27 10:59:45.687017,-0.03698900977134511
2023-01-27 10:59:45.692017,-0.03803213685750961
2023-01-27 10:59:45.697017,-0.0382322295473264
2023-01-27 10:59:45.702017,-0.03747920319437984
2023-01-27 10:59:45.707017,-0.03621939260517388
2023-01-27 10:59:45.712017,-0.03507515043020243
2023-01-27 10:59:45.717017,-0.03444688988909483
2023-01-27 10:59:45.722017,-0.03452221676707262
2023-01-27 10:59:45.727017,-0.03535077499639008
2023-01-27 10:59:45.732017,-0.036661826074123306
2023-01-27 10:59:45.737017,-0.037768691561255355
2023-01-27 10:59:45.742017,-0.03783981129527092
2023-01-27 10:59:45.747017,-0.036161946765397676
2023-01-27 10:59:45.752017,-0.03211816400289529
2023-01-27 10:59:45.757017,-0.025282570758622065
2023-01-27 10:59:45.762017,-0.01591483876109121
2023-01-27 10:59:45.767017,-0.0053490763876578975
2023-01-27 10:59:45.772017,0.004255175590515113
2023-01-27 10:59:45.777017,0.01057433135752943
2023-01-27 10:59:45.782017,0.011755824089050218
2023-01-27 10:59:45.787017,0.007019275736178532
2023-01-27 10:59:45.792017,-0.0028367838822304634
2023-01-27 10:59:45.797017,-0.01555050081936542
2023-01-27 10:59:45.802017,-0.02836783789098255
2023-01-27 10:59:45.807017,-0.03920074651789137
2023-01-27 10:59:45.812017,-0.047167539596557596
2023-01-27 10:59:45.817017,-0.05242179142391706
2023-01-27 10:59:45.822017,-0.05550960823893535
2023-01-27 10:59:45.827017,-0.05632550072524097
2023-01-27 10:59:45.832017,-0.0530574731528759
2023-01-27 10:59:45.837017,-0.04211605285609396
2023-01-27 10:59:45.842017,-0.019641121849417582
2023-01-27 10:59:45.847017,0.01610839005657001
2023-01-27 10:59:45.852017,0.06281793117523192
2023-01-27 10:59:45.857017,0.11354767534731475
2023-01-27 10:59:45.862017,0.1579463481903076
2023-01-27 10:59:45.867017,0.18528263921576396
2023-01-27 10:59:45.872017,0.18835763633251185
2023-01-27 10:59:45.877017,0.1663274683735806
2023-01-27 10:59:45.882017,0.12486656755208958
2023-01-27 10:59:45.887017,0.073819337037767
2023-01-27 10:59:45.892017,0.023728013038635195
2023-01-27 10:59:45.897017,-0.01736547193420733
2023-01-27 10:59:45.902017,-0.04579722881317129
2023-01-27 10:59:45.907017,-0.062167653748766545
2023-01-27 10:59:45.912017,-0.06952524185180659
2023-01-27 10:59:45.917017,-0.07122977730580797
2023-01-27 10:59:45.922017,-0.0697656497359275
2023-01-27 10:59:45.927017,-0.0665905643110052
2023-01-27 10:59:45.932017,-0.06243328377604479
2023-01-27 10:59:45.937017,-0.05774590362330835
2023-01-27 10:59:45.942017,-0.053177677094936315
2023-01-27 10:59:45.947017,-0.04966641470822433
2023-01-27 10:59:45.952017,-0.047960877418518
2023-01-27 10:59:45.957017,-0.04809829767821368
2023-01-27 10:59:45.962017,-0.049403309822082526
2023-01-27 10:59:45.967017,-0.05085082927715999
2023-01-27 10:59:45.972017,-0.051374636590480756
2023-01-27 10:59:45.977017,-0.050162605430385455
2023-01-27 10:59:45.982017,-0.047071378678083364
2023-01-27 10:59:45.987017,-0.042813633770180916
2023-01-27 10:59:45.992017,-0.038585066795349066
2023-01-27 10:59:45.997017,-0.0354579189946801
2023-01-27 10:59:46.002017,-0.03404140472412102
2023-01-27 10:59:46.007017,-0.03436883819383281
2023-01-27 10:59:46.012017,-0.035796366631984704
2023-01-27 10:59:46.017017,-0.037123111680178934
2023-01-27 10:59:46.022017,-0.03714263439178462
2023-01-27 10:59:46.027017,-0.03524288333973476
2023-01-27 10:59:46.032017,-0.031565230339765514
2023-01-27 10:59:46.037017,-0.02682001220856844
2023-01-27 10:59:46.042017,-0.022069215774536122
2023-01-27 10:59:46.047017,-0.018387880024069072
2023-01-27 10:59:46.052017,-0.016299486160278334
2023-01-27 10:59:46.057017,-0.015400910795429865
2023-01-27 10:59:46.062017,-0.014592608436942139
2023-01-27 10:59:46.067017,-0.012649563096144026
2023-01-27 10:59:46.072017,-0.00863055419176814
2023-01-27 10:59:46.077017,-0.002103072175410356
2023-01-27 10:59:46.082017,0.0066592297516762785
2023-01-27 10:59:46.087017,0.016717743170983713
2023-01-27 10:59:46.092017,0.026925405487418085
2023-01-27 10:59:46.097017,0.03641195348845607
2023-01-27 10:59:46.102017,0.044667325913906
2023-01-27 10:59:46.107017,0.05140934624665977
2023-01-27 10:59:46.112017,0.05659143254160876
2023-01-27 10:59:46.117017,0.060408676660697304
2023-01-27 10:59:46.122017,0.06305833905935278
2023-01-27 10:59:46.127017,0.06451535489936232
2023-01-27 10:59:46.132017,0.06464501470327366
2023-01-27 10:59:46.137017,0.06340771441955195
2023-01-27 10:59:46.142017,0.06079852581024155
2023-01-27 10:59:46.147017,0.05671620204293558
2023-01-27 10:59:46.152017,0.05108615010976786
2023-01-27 10:59:46.157017,0.044042554328509016
2023-01-27 10:59:46.162017,0.035868488252162885
2023-01-27 10:59:46.167017,0.026901674121531494
2023-01-27 10:59:46.172017,0.017669796943664523
2023-01-27 10:59:46.177017,0.008963096665513972
2023-01-27 10:59:46.182017,0.0015145540237425999
2023-01-27 10:59:46.187017,-0.004393418220013075
2023-01-27 10:59:46.192017,-0.008943080902099571
2023-01-27 10:59:46.197017,-0.01258067120918614
2023-01-27 10:59:46.202017,-0.015938878059387207
2023-01-27 10:59:46.207017,-0.019694967580779408
2023-01-27 10:59:46.212017,-0.024136703461408594
2023-01-27 10:59:46.217017,-0.028856051338670495
2023-01-27 10:59:46.222017,-0.03303170204162586
2023-01-27 10:59:46.227017,-0.03595192095370681
2023-01-27 10:59:46.232017,-0.03719071671366686
2023-01-27 10:59:46.237017,-0.03658388641686986
2023-01-27 10:59:46.242017,-0.03442605584859838
2023-01-27 10:59:46.247017,-0.03161154487378416
2023-01-27 10:59:46.252017,-0.02920925617218008
2023-01-27 10:59:46.257017,-0.02781383228883222
2023-01-27 10:59:46.262017,-0.02745429798960676
2023-01-27 10:59:46.267017,-0.02800482873640078
2023-01-27 10:59:46.272017,-0.029353499412536583
2023-01-27 10:59:46.277017,-0.031181455192666258
2023-01-27 10:59:46.282017,-0.032935541123151724
2023-01-27 10:59:46.287017,-0.03418232348616043
2023-01-27 10:59:46.292017,-0.034834742546081474
2023-01-27 10:59:46.297017,-0.03496884876342025
2023-01-27 10:59:46.302017,-0.03457029908895491
2023-01-27 10:59:46.307017,-0.03350613285810547
2023-01-27 10:59:46.312017,-0.03161331266164771
2023-01-27 10:59:46.317017,-0.028814386520202916
2023-01-27 10:59:46.322017,-0.025338729843497217
2023-01-27 10:59:46.327017,-0.021912208710660967
2023-01-27 10:59:46.332017,-0.019593041390180505
2023-01-27 10:59:46.337017,-0.01926872089518773
2023-01-27 10:59:46.342017,-0.02120375633239738
2023-01-27 10:59:46.347017,-0.024894102700400357
2023-01-27 10:59:46.352017,-0.029209256172180113
2023-01-27 10:59:46.357017,-0.032807742989569406
2023-01-27 10:59:46.362017,-0.03476262092590331
2023-01-27 10:59:46.367017,-0.035023191541124765
2023-01-27 10:59:46.372017,-0.03430585190653802
2023-01-27 10:59:46.377017,-0.03350040193640633
2023-01-27 10:59:46.382017,-0.03305574506521224
2023-01-27 10:59:46.387017,-0.032651267301541456
2023-01-27 10:59:46.392017,-0.031228661537170382
2023-01-27 10:59:46.397017,-0.02746393954263078
2023-01-27 10:59:46.402017,-0.020602744072675712
2023-01-27 10:59:46.407017,-0.011174050620424661
2023-01-27 10:59:46.412017,-0.0010577838402241208
2023-01-27 10:59:46.417017,0.007111599150787131
2023-01-27 10:59:46.422017,0.010842284187674479
2023-01-27 10:59:46.427017,0.008683671031832221
2023-01-27 10:59:46.432017,0.0008654594421385913
2023-01-27 10:59:46.437017,-0.010703699538694303
2023-01-27 10:59:46.442017,-0.02322316169738759
2023-01-27 10:59:46.447017,-0.03414003301107354
2023-01-27 10:59:46.452017,-0.042022865265607785
2023-01-27 10:59:46.457017,-0.04689003248743817
2023-01-27 10:59:46.462017,-0.04990816116333001
2023-01-27 10:59:46.467017,-0.05233550029562135
2023-01-27 10:59:46.472017,-0.05397101491689679
2023-01-27 10:59:46.477017,-0.052094826728264876
2023-01-27 10:59:46.482017,-0.04192670434713358
2023-01-27 10:59:46.487017,-0.018710558537137784
2023-01-27 10:59:46.492017,0.01942475698888297
2023-01-27 10:59:46.497017,0.06907610823803928
2023-01-27 10:59:46.502017,0.12097200006246547
2023-01-27 10:59:46.507017,0.1621306868535487
2023-01-27 10:59:46.512017,0.18040022253990165
2023-01-27 10:59:46.517017,0.16932340293404807
2023-01-27 10:59:46.522017,0.13082861900329573
2023-01-27 10:59:46.527017,0.07451858387584116
2023-01-27 10:59:46.532017,0.014063715934753399
2023-01-27 10:59:46.537017,-0.03769264825991574
2023-01-27 10:59:46.542017,-0.07286687940359104
2023-01-27 10:59:46.547017,-0.09013699212782492
2023-01-27 10:59:46.552017,-0.09339749813079824
2023-01-27 10:59:46.557017,-0.0887760022805579
2023-01-27 10:59:46.562017,-0.08188208192586892
2023-01-27 10:59:46.567017,-0.07627678677455818
2023-01-27 10:59:46.572017,-0.07315536588430398
2023-01-27 10:59:46.577017,-0.07194553951008832
2023-01-27 10:59:46.582017,-0.07140040397644035
2023-01-27 10:59:46.587017,-0.07051675900758045
2023-01-27 10:59:46.592017,-0.06882806867361055
2023-01-27 10:59:46.597017,-0.0663054614091846
2023-01-27 10:59:46.602017,-0.06329874694347376
2023-01-27 10:59:46.607017,-0.06046751587004982
2023-01-27 10:59:46.612017,-0.058466594666242475
2023-01-27 10:59:46.617017,-0.05758734720775747
2023-01-27 10:59:46.622017,-0.057721339166164266
2023-01-27 10:59:46.627017,-0.05855741749895189
2023-01-27 10:59:46.632017,-0.059692662209272315
2023-01-27 10:59:46.637017,-0.060688550754724825
2023-01-27 10:59:46.642017,-0.06125529855489731
2023-01-27 10:59:46.647017,-0.061395417115514155
2023-01-27 10:59:46.652017,-0.06125529855489729
2023-01-27 10:59:46.657017,-0.06087304055949347
2023-01-27 10:59:46.662017,-0.06014943122863762
2023-01-27 10:59:46.667017,-0.058941672563634445
2023-01-27 10:59:46.672017,-0.057024162262678056
2023-01-27 10:59:46.677017,-0.05405715451318601
2023-01-27 10:59:46.682017,-0.049812000244855804
2023-01-27 10:59:46.687017,-0.04444300858507453
2023-01-27 10:59:46.692017,-0.038440823554992606
2023-01-27 10:59:46.697017,-0.03236876208398698
2023-01-27 10:59:46.702017,-0.026709040626883486
2023-01-27 10:59:46.707017,-0.021775618430763696
2023-01-27 10:59:46.712017,-0.017501514405012096
2023-01-27 10:59:46.717017,-0.01330706303452975
2023-01-27 10:59:46.722017,-0.008366107940673816
2023-01-27 10:59:46.727017,-0.002076058309261086
2023-01-27 10:59:46.732017,0.0057216486893593745
2023-01-27 10:59:46.737017,0.01480658353275695
2023-01-27 10:59:46.742017,0.02466559410095205
2023-01-27 10:59:46.747017,0.03459504028127795
2023-01-27 10:59:46.752017,0.04394610971212375
2023-01-27 10:59:46.757017,0.052314060256086724
2023-01-27 10:59:46.762017,0.0594041757285594
2023-01-27 10:59:46.767017,0.06477645953487496
2023-01-27 10:59:46.772017,0.0678664445877075
2023-01-27 10:59:46.777017,0.06823730774610212
2023-01-27 10:59:46.782017,0.06572683900594711
2023-01-27 10:59:46.787017,0.06044333442513056
2023-01-27 10:59:46.792017,0.05276898667216301
2023-01-27 10:59:46.797017,0.043290600094885015
2023-01-27 10:59:46.802017,0.032526850700378404
2023-01-27 10:59:46.807017,0.020701006701309872
2023-01-27 10:59:46.812017,0.007885297760367269
2023-01-27 10:59:46.817017,-0.005644456452514783
2023-01-27 10:59:46.822017,-0.01925647258758541
2023-01-27 10:59:46.827017,-0.032062429031838174
2023-01-27 10:59:46.832017,-0.043056607246398884
2023-01-27 10:59:46.837017,-0.05130973015176953
2023-01-27 10:59:46.842017,-0.05632698535919177
2023-01-27 10:59:46.847017,-0.05834681771411084
2023-01-27 10:59:46.852017,-0.05825022980570789
2023-01-27 10:59:46.857017,-0.057163710593009474
2023-01-27 10:59:46.862017,-0.05611062049865723
2023-01-27 10:59:46.867017,-0.05583315438412027
2023-01-27 10:59:46.872017,-0.056687593460082994
2023-01-27 10:59:46.877017,-0.05860161318840179
2023-01-27 10:59:46.882017,-0.061111055314540766
2023-01-27 10:59:46.887017,-0.06341265696285676
2023-01-27 10:59:46.892017,-0.06452481448650356
2023-01-27 10:59:46.897017,-0.0637711884851563
2023-01-27 10:59:46.902017,-0.06135145947337146
2023-01-27 10:59:46.907017,-0.058302615002425034
2023-01-27 10:59:46.912017,-0.05570193380117409
2023-01-27 10:59:46.917017,-0.05396447689386553
2023-01-27 10:59:46.922017,-0.05296131223440172
2023-01-27 10:59:46.927017,-0.052527909973631756
2023-01-27 10:59:46.932017,-0.0525526218116283
2023-01-27 10:59:46.937017,-0.05273214779801056
2023-01-27 10:59:46.942017,-0.0526487827301025
2023-01-27 10:59:46.947017,-0.05218595755574986
2023-01-27 10:59:46.952017,-0.05168716236948957
2023-01-27 10:59:46.957017,-0.051675988662282624
2023-01-27 10:59:46.962017,-0.05252858251333229
2023-01-27 10:59:46.967017,-0.0543096416579159
2023-01-27 10:59:46.972017,-0.056639514863491
2023-01-27 10:59:46.977017,-0.058640132345649056
2023-01-27 10:59:46.982017,-0.059187810868024784
2023-01-27 10:59:46.987017,-0.05737646412104205
2023-01-27 10:59:46.992017,-0.05284110829234116
2023-01-27 10:59:46.997017,-0.04586349671950167
2023-01-27 10:59:47.002017,-0.0374070815742015
2023-01-27 10:59:47.007017,-0.02901108279095255
2023-01-27 10:59:47.012017,-0.022381743416190085
2023-01-27 10:59:47.017017,-0.01886701723277458
2023-01-27 10:59:47.022017,-0.0191603116691112
2023-01-27 10:59:47.027017,-0.02324273439525974
2023-01-27 10:59:47.032017,-0.030387243255972803
2023-01-27 10:59:47.037017,-0.03930866492086305
2023-01-27 10:59:47.042017,-0.04860997200012197
2023-01-27 10:59:47.047017,-0.057298274513294375
2023-01-27 10:59:47.052017,-0.0650056228041648
2023-01-27 10:59:47.057017,-0.07189465669682077
2023-01-27 10:59:47.062017,-0.0783721655607223
2023-01-27 10:59:47.067017,-0.08448809779041738
2023-01-27 10:59:47.072017,-0.08902212232351295
2023-01-27 10:59:47.077017,-0.08889866452067478
2023-01-27 10:59:47.082017,-0.07974247634410846
2023-01-27 10:59:47.087017,-0.05764963070607384
2023-01-27 10:59:47.092017,-0.02144416235387323
2023-01-27 10:59:47.097017,0.0255414912197274
2023-01-27 10:59:47.102017,0.07510264962911595
2023-01-27 10:59:47.107017,0.11594729405849971
2023-01-27 10:59:47.112017,0.13741573691368095
2023-01-27 10:59:47.117017,0.13352844588055168
2023-01-27 10:59:47.122017,0.105297565460205
2023-01-27 10:59:47.127017,0.060261330095705716
2023-01-27 10:59:47.132017,0.009640256874263184
2023-01-27 10:59:47.137017,-0.0356279813489557
2023-01-27 10:59:47.142017,-0.06837129592895501
2023-01-27 10:59:47.147017,-0.08670592954744775
2023-01-27 10:59:47.152017,-0.09313305467367164
2023-01-27 10:59:47.157017,-0.09220683123927693
2023-01-27 10:59:47.162017,-0.08832494914531698
2023-01-27 10:59:47.167017,-0.08446394558931207
2023-01-27 10:59:47.172017,-0.08183400332927698
2023-01-27 10:59:47.177017,-0.0802396999803519
2023-01-27 10:59:47.182017,-0.07887701690196983
2023-01-27 10:59:47.187017,-0.0770392474250547
2023-01-27 10:59:47.192017,-0.07433335483074177
2023-01-27 10:59:47.197017,-0.07061760154108239
2023-01-27 10:59:47.202017,-0.06606340408325187
2023-01-27 10:59:47.207017,-0.06125484855637138
2023-01-27 10:59:47.212017,-0.057000122964382116
2023-01-27 10:59:47.217017,-0.05395337802242273
2023-01-27 10:59:47.222017,-0.05240837857127178
2023-01-27 10:59:47.227017,-0.05229237590830625
2023-01-27 10:59:47.232017,-0.053177677094936295
2023-01-27 10:59:47.237017,-0.05439549346131281
2023-01-27 10:59:47.242017,-0.05538940429687498
2023-01-27 10:59:47.247017,-0.05603267963898035
2023-01-27 10:59:47.252017,-0.056543350219726486
2023-01-27 10:59:47.257017,-0.05713481657881913
2023-01-27 10:59:47.262017,-0.0577934607863426
2023-01-27 10:59:47.267017,-0.05822124977209452
2023-01-27 10:59:47.272017,-0.05779346078634259
2023-01-27 10:59:47.277017,-0.05567988154530822
2023-01-27 10:59:47.282017,-0.051302514970302485
2023-01-27 10:59:47.287017,-0.04480416611964339
2023-01-27 10:59:47.292017,-0.037046473473310415
2023-01-27 10:59:47.297017,-0.02917885300473716
2023-01-27 10:59:47.302017,-0.022165378555655393
2023-01-27 10:59:47.307017,-0.016407169711329505
2023-01-27 10:59:47.312017,-0.011467337608337411
2023-01-27 10:59:47.317017,-0.006175903901138663
2023-01-27 10:59:47.322017,0.0006971756811252945
2023-01-27 10:59:47.327017,0.009646670898887974
2023-01-27 10:59:47.332017,0.02017001435160625
2023-01-27 10:59:47.337017,0.03110110418971483
2023-01-27 10:59:47.342017,0.04113336652517311
2023-01-27 10:59:47.347017,0.04930916667829485
2023-01-27 10:59:47.352017,0.0554134473204612
2023-01-27 10:59:47.357017,0.06000515446492243
2023-01-27 10:59:47.362017,0.06392379850149149
2023-01-27 10:59:47.367017,0.06767589729596839
2023-01-27 10:59:47.372017,0.07123212516307828
2023-01-27 10:59:47.377017,0.07418259520828487
2023-01-27 10:59:47.382017,0.07587194442749016
2023-01-27 10:59:47.387017,0.07549428410382528
2023-01-27 10:59:47.392017,0.07233798503875727
2023-01-27 10:59:47.397017,0.06604348311098361
2023-01-27 10:59:47.402017,0.05663951486349098
2023-01-27 10:59:47.407017,0.04452030783079619
2023-01-27 10:59:47.412017,0.030579566955566413
2023-01-27 10:59:47.417017,0.01622165707664401
2023-01-27 10:59:47.422017,0.0029089055024087143
2023-01-27 10:59:47.427017,-0.008454680851182037
2023-01-27 10:59:47.432017,-0.01774191856384272
2023-01-27 10:59:47.437017,-0.025411064143607456
2023-01-27 10:59:47.442017,-0.032238364219665486
2023-01-27 10:59:47.447017,-0.038973930591090444
2023-01-27 10:59:47.452017,-0.04582127183675757
2023-01-27 10:59:47.457017,-0.05213478756899629
2023-01-27 10:59:47.462017,-0.05678375810384743
2023-01-27 10:59:47.467017,-0.058875029895956166
2023-01-27 10:59:47.472017,-0.05815406888723364
2023-01-27 10:59:47.477017,-0.05500000051393249
2023-01-27 10:59:47.482017,-0.05036493390798561
2023-01-27 10:59:47.487017,-0.04560085061306743
2023-01-27 10:59:47.492017,-0.0419026613235473
2023-01-27 10:59:47.497017,-0.03970833409202049
2023-01-27 10:59:47.502017,-0.038705270737409474
2023-01-27 10:59:47.507017,-0.038341673203204404
2023-01-27 10:59:47.512017,-0.03812829777598375
2023-01-27 10:59:47.517017,-0.03756734849163787
2023-01-27 10:59:47.522017,-0.036229096353053984
2023-01-27 10:59:47.527017,-0.03411551121890168
2023-01-27 10:59:47.532017,-0.03178159520030019
2023-01-27 10:59:47.537017,-0.02996368647109966
2023-01-27 10:59:47.542017,-0.029161175712943
2023-01-27 10:59:47.547017,-0.02954825711455741
2023-01-27 10:59:47.552017,-0.031036337837576793
2023-01-27 10:59:47.557017,-0.03327199263202316
2023-01-27 10:59:47.562017,-0.03570020198822022
2023-01-27 10:59:47.567017,-0.03777754387226955
2023-01-27 10:59:47.572017,-0.039138000458478886
2023-01-27 10:59:47.577017,-0.03960938464398651
2023-01-27 10:59:47.582017,-0.03923416137695308
2023-01-27 10:59:47.587017,-0.038325690136854614
2023-01-27 10:59:47.592017,-0.037358999252319294
2023-01-27 10:59:47.597017,-0.03666482926225543
2023-01-27 10:59:47.602017,-0.036181014031171715
2023-01-27 10:59:47.607017,-0.035420285352003644
2023-01-27 10:59:47.612017,-0.033584635704755714
2023-01-27 10:59:47.617017,-0.029802837497307492
2023-01-27 10:59:47.622017,-0.023535689339041696
2023-01-27 10:59:47.627017,-0.014982722588116412
2023-01-27 10:59:47.632017,-0.005192756652831979
2023-01-27 10:59:47.637017,0.004165357091601005
2023-01-27 10:59:47.642017,0.011178851127624507
2023-01-27 10:59:47.647017,0.014132615299043996
2023-01-27 10:59:47.652017,0.012020270340144601
2023-01-27 10:59:47.657017,0.004921217466821839
2023-01-27 10:59:47.662017,-0.006034175865352087
2023-01-27 10:59:47.667017,-0.019075271197688492
2023-01-27 10:59:47.672017,-0.03231048583984368
2023-01-27 10:59:47.677017,-0.044220125023570936
2023-01-27 10:59:47.682017,-0.05404313653707497
2023-01-27 10:59:47.687017,-0.06176049617864487
2023-01-27 10:59:47.692017,-0.0674337148666381
2023-01-27 10:59:47.697017,-0.07021453420339677
2023-01-27 10:59:47.702017,-0.06774624437093732
2023-01-27 10:59:47.707017,-0.05646901553573767
2023-01-27 10:59:47.712017,-0.03291150182485584
2023-01-27 10:59:47.717017,0.004287950619638933
2023-01-27 10:59:47.722017,0.052384339272975866
2023-01-27 10:59:47.727017,0.10381000199660367
2023-01-27 10:59:47.732017,0.14768104255199424
2023-01-27 10:59:47.737017,0.17319118177914686
2023-01-27 10:59:47.742017,0.17340442538261405
2023-01-27 10:59:47.747017,0.14781381051419248
2023-01-27 10:59:47.752017,0.10262906551361076
2023-01-27 10:59:47.757017,0.04859211455320594
2023-01-27 10:59:47.762017,-0.002836783882230501
2023-01-27 10:59:47.767017,-0.04317233736487905
2023-01-27 10:59:47.772017,-0.06882806867361059
2023-01-27 10:59:47.777017,-0.08083145695165159
2023-01-27 10:59:47.782017,-0.0830841064453125
2023-01-27 10:59:47.787017,-0.08022941780106174
2023-01-27 10:59:47.792017,-0.0759440660476684
2023-01-27 10:59:47.797017,-0.07217472569157395
2023-01-27 10:59:47.802017,-0.06938099861145008
2023-01-27 10:59:47.807017,-0.06725773446664594
2023-01-27 10:59:47.812017,-0.06529410928487767
2023-01-27 10:59:47.817017,-0.06301613018639812
2023-01-27 10:59:47.822017,-0.06012539193034168
2023-01-27 10:59:47.827017,-0.05659487405372083
2023-01-27 10:59:47.832017,-0.05262474343180649
2023-01-27 10:59:47.837017,-0.04853100797824081
2023-01-27 10:59:47.842017,-0.044715404510498
2023-01-27 10:59:47.847017,-0.041642303462051895
2023-01-27 10:59:47.852017,-0.03969093412160867
2023-01-27 10:59:47.857017,-0.03900385649495738
2023-01-27 10:59:47.862017,-0.039498608559369985
2023-01-27 10:59:47.867017,-0.04092876765820806
2023-01-27 10:59:47.872017,-0.04284024238586419
2023-01-27 10:59:47.877017,-0.044578152352757784
2023-01-27 10:59:47.882017,-0.04553278535604468
2023-01-27 10:59:47.887017,-0.04543589985491956
2023-01-27 10:59:47.892017,-0.044402878731489105
2023-01-27 10:59:47.897017,-0.042763212413999004
2023-01-27 10:59:47.902017,-0.04089295864105215
2023-01-27 10:59:47.907017,-0.03904010673572181
2023-01-27 10:59:47.912017,-0.03709455579519266
2023-01-27 10:59:47.917017,-0.03453208092886567
2023-01-27 10:59:47.922017,-0.030723810195922793
2023-01-27 10:59:47.927017,-0.025347777452034106
2023-01-27 10:59:47.932017,-0.01851121708750719
2023-01-27 10:59:47.937017,-0.010604072347602212
2023-01-27 10:59:47.942017,-0.0021396081428973683
2023-01-27 10:59:47.947017,0.00638757966309239
2023-01-27 10:59:47.952017,0.014688770286738817
2023-01-27 10:59:47.957017,0.022744038978698745
2023-01-27 10:59:47.962017,0.030603608116507502
2023-01-27 10:59:47.967017,0.038176920648384294
2023-01-27 10:59:47.972017,0.04529237747192375
2023-01-27 10:59:47.977017,0.05186783021318198
2023-01-27 10:59:47.982017,0.05788962170481676
2023-01-27 10:59:47.987017,0.06327647725786233
2023-01-27 10:59:47.992017,0.06786644458770745
2023-01-27 10:59:47.997017,0.0714576507032563
2023-01-27 10:59:48.002017,0.07373233884572974
2023-01-27 10:59:48.007017,0.07420756845821426
2023-01-27 10:59:48.012017,0.07241010665893544
2023-01-27 10:59:48.017017,0.06809911968767664
2023-01-27 10:59:48.022017,0.06127933785319313
2023-01-27 10:59:48.027017,0.05213661471628825
2023-01-27 10:59:48.032017,0.04113336652517303
2023-01-27 10:59:48.037017,0.02911312369595681
2023-01-27 10:59:48.042017,0.01714090630412098
2023-01-27 10:59:48.047017,0.006195368009692751
2023-01-27 10:59:48.052017,-0.003005067585036107
2023-01-27 10:59:48.057017,-0.010077206742928316
2023-01-27 10:59:48.062017,-0.015097459778189616
2023-01-27 10:59:48.067017,-0.018616596101283443
2023-01-27 10:59:48.072017,-0.021372040733694957
2023-01-27 10:59:48.077017,-0.02391936666557848
2023-01-27 10:59:48.082017,-0.026516716927289897
2023-01-27 10:59:48.087017,-0.029197344328431768
2023-01-27 10:59:48.092017,-0.031805634498596094
2023-01-27 10:59:48.097017,-0.034074374174099614
2023-01-27 10:59:48.102017,-0.035868488252162885
2023-01-27 10:59:48.107017,-0.03734748332146217
2023-01-27 10:59:48.112017,-0.038777392357587814
2023-01-27 10:59:48.117017,-0.04021269105983777
2023-01-27 10:59:48.122017,-0.04142185300588603
2023-01-27 10:59:48.127017,-0.04200739457836266
2023-01-27 10:59:48.132017,-0.04149397462606427
2023-01-27 10:59:48.137017,-0.0394812385346402
2023-01-27 10:59:48.142017,-0.03598868846893307
2023-01-27 10:59:48.147017,-0.031665974659070485
2023-01-27 10:59:48.152017,-0.027502378448843897
2023-01-27 10:59:48.157017,-0.02429293905643373
2023-01-27 10:59:48.162017,-0.02240578457713114
2023-01-27 10:59:48.167017,-0.021890974792608413
2023-01-27 10:59:48.172017,-0.02257406711578359
2023-01-27 10:59:48.177017,-0.02406260879763635
2023-01-27 10:59:48.182017,-0.025867622345685883
2023-01-27 10:59:48.187017,-0.02759643500752917
2023-01-27 10:59:48.192017,-0.02899289131164543
2023-01-27 10:59:48.197017,-0.029877760571263897
2023-01-27 10:59:48.202017,-0.030194919556379297
2023-01-27 10:59:48.207017,-0.03007917881172036
2023-01-27 10:59:48.212017,-0.029738148674368782
2023-01-27 10:59:48.217017,-0.02926748679434786
2023-01-27 10:59:48.222017,-0.028656324371695505
2023-01-27 10:59:48.227017,-0.027905347886037317
2023-01-27 10:59:48.232017,-0.02702156826853751
2023-01-27 10:59:48.237017,-0.02595247742297044
2023-01-27 10:59:48.242017,-0.024641554802656097
2023-01-27 10:59:48.247017,-0.023077402083572247
2023-01-27 10:59:48.252017,-0.02113163471221919
2023-01-27 10:59:48.257017,-0.018374319865570813
2023-01-27 10:59:48.262017,-0.014207959175109806
2023-01-27 10:59:48.267017,-0.008265301474298988
2023-01-27 10:59:48.272017,-0.0007452567806466845
2023-01-27 10:59:48.277017,0.007435593976938454
2023-01-27 10:59:48.282017,0.014664730057120285
2023-01-27 10:59:48.287017,0.018977588367054512
2023-01-27 10:59:48.292017,0.018775662407278994
2023-01-27 10:59:48.297017,0.013522812324587428
2023-01-27 10:59:48.302017,0.003942648880183576
2023-01-27 10:59:48.307017,-0.008287780131953925
2023-01-27 10:59:48.312017,-0.02105951309204098
2023-01-27 10:59:48.317017,-0.03244301823850089
2023-01-27 10:59:48.322017,-0.041277609765529626
2023-01-27 10:59:48.327017,-0.04733850484454792
2023-01-27 10:59:48.332017,-0.050773620605468694
2023-01-27 10:59:48.337017,-0.05112659299615187
2023-01-27 10:59:48.342017,-0.04663864895701403
2023-01-27 10:59:48.347017,-0.03430242273639498
2023-01-27 10:59:48.352017,-0.010842284187674536
2023-01-27 10:59:48.357017,0.025427820178259824
2023-01-27 10:59:48.362017,0.07250627130269999
2023-01-27 10:59:48.367017,0.12368338380448043
2023-01-27 10:59:48.372017,0.16866843402385703
2023-01-27 10:59:48.377017,0.1966685662595152
2023-01-27 10:59:48.382017,0.200113460421562
2023-01-27 10:59:48.387017,0.17750147421692683
2023-01-27 10:59:48.392017,0.13417026400566096
2023-01-27 10:59:48.397017,0.08045578295825485
2023-01-27 10:59:48.402017,0.027911067008972102
2023-01-27 10:59:48.407017,-0.014561995914338656
2023-01-27 10:59:48.412017,-0.04286428540945049
2023-01-27 10:59:48.417017,-0.05762890312610759
2023-01-27 10:59:48.422017,-0.06260156631469718
2023-01-27 10:59:48.427017,-0.06242891553339314
2023-01-27 10:59:48.432017,-0.06072640419006336
2023-01-27 10:59:48.437017,-0.05917796446628444
2023-01-27 10:59:48.442017,-0.057865582406520774
2023-01-27 10:59:48.447017,-0.05620367672257451
2023-01-27 10:59:48.452017,-0.05368252843618389
2023-01-27 10:59:48.457017,-0.0502091487665419
2023-01-27 10:59:48.462017,-0.04620591923594467
2023-01-27 10:59:48.467017,-0.042451209617731196
2023-01-27 10:59:48.472017,-0.039642851799726334
2023-01-27 10:59:48.477017,-0.03802775940444031
2023-01-27 10:59:48.482017,-0.037431120872497475
2023-01-27 10:59:48.487017,-0.0375106443445318
2023-01-27 10:59:48.492017,-0.03788789361715311
2023-01-27 10:59:48.497017,-0.03818082370669459
2023-01-27 10:59:48.502017,-0.03810425847768778
2023-01-27 10:59:48.507017,-0.037515665573222834
2023-01-27 10:59:48.512017,-0.03627717494964588
2023-01-27 10:59:48.517017,-0.0341806152196556
2023-01-27 10:59:48.522017,-0.031156539916992052
2023-01-27 10:59:48.527017,-0.027491697156447375
2023-01-27 10:59:48.532017,-0.023703973740339154
2023-01-27 10:59:48.537017,-0.020231038478192586
2023-01-27 10:59:48.542017,-0.01728514954447737
2023-01-27 10:59:48.547017,-0.01485639409743014
2023-01-27 10:59:48.552017,-0.012693405151367111
2023-01-27 10:59:48.557017,-0.010373036566316395
2023-01-27 10:59:48.562017,-0.007572770118713312
2023-01-27 10:59:48.567017,-0.004276118686544452
2023-01-27 10:59:48.572017,-0.0006490945816040193
2023-01-27 10:59:48.577017,0.003198695108169749
2023-01-27 10:59:48.582017,0.007260243408381872
2023-01-27 10:59:48.587017,0.011590028875151849
2023-01-27 10:59:48.592017,0.016371607780456477
2023-01-27 10:59:48.597017,0.02192932097811169
2023-01-27 10:59:48.602017,0.028512081131338986
2023-01-27 10:59:48.607017,0.03609811359340445
2023-01-27 10:59:48.612017,0.04447500035166741
2023-01-27 10:59:48.617017,0.05337987411521993
2023-01-27 10:59:48.622017,0.06243328377604477
2023-01-27 10:59:48.627017,0.07105305830502844
2023-01-27 10:59:48.632017,0.07858853042125694
2023-01-27 10:59:48.637017,0.08447289937757756
2023-01-27 10:59:48.642017,0.08815666288137422
2023-01-27 10:59:48.647017,0.0890497975958522
2023-01-27 10:59:48.652017,0.08673827350139608
2023-01-27 10:59:48.657017,0.08124461558982714
2023-01-27 10:59:48.662017,0.07301112264394757
2023-01-27 10:59:48.667017,0.06273985571937869
2023-01-27 10:59:48.672017,0.05132655426859849
2023-01-27 10:59:48.677017,0.03974937005190053
2023-01-27 10:59:48.682017,0.0287765264511108
2023-01-27 10:59:48.687017,0.01878497135126871
2023-01-27 10:59:48.692017,0.009928743354976092
2023-01-27 10:59:48.697017,0.0023594752015393514
2023-01-27 10:59:48.702017,-0.003822445869445827
2023-01-27 10:59:48.707017,-0.008675669182951836
2023-01-27 10:59:48.712017,-0.012308756820857488
2023-01-27 10:59:48.717017,-0.014763090538447746
2023-01-27 10:59:48.722017,-0.01613120362162593
2023-01-27 10:59:48.727017,-0.016669283426411243
2023-01-27 10:59:48.732017,-0.016660094261169416
2023-01-27 10:59:48.737017,-0.016291775529915998
2023-01-27 10:59:48.742017,-0.01579463481903067
2023-01-27 10:59:48.747017,-0.0155196729269112
2023-01-27 10:59:48.752017,-0.015674432739615413
2023-01-27 10:59:48.757017,-0.016078079171998595
2023-01-27 10:59:48.762017,-0.016347568482160523
2023-01-27 10:59:48.767017,-0.01626028738918137
2023-01-27 10:59:48.772017,-0.01586675643920892
2023-01-27 10:59:48.777017,-0.015452724571044915
2023-01-27 10:59:48.782017,-0.015554229728877492
2023-01-27 10:59:48.787017,-0.016774169078587923
2023-01-27 10:59:48.792017,-0.019256472587585362
2023-01-27 10:59:48.797017,-0.022363473350756488
2023-01-27 10:59:48.802017,-0.0250502433627843
2023-01-27 10:59:48.807017,-0.026525996712527172
2023-01-27 10:59:48.812017,-0.026516716927289914
2023-01-27 10:59:48.817017,-0.025170828593518935
2023-01-27 10:59:48.822017,-0.02300679683685298
2023-01-27 10:59:48.827017,-0.02079704560507515
2023-01-27 10:59:48.832017,-0.01913627050817009
2023-01-27 10:59:48.837017,-0.018076123876922735
2023-01-27 10:59:48.842017,-0.017357271164655533
2023-01-27 10:59:48.847017,-0.01695801666896373
2023-01-27 10:59:48.852017,-0.017237067222595156
2023-01-27 10:59:48.857017,-0.018591142636266367
2023-01-27 10:59:48.862017,-0.02113163471221914
2023-01-27 10:59:48.867017,-0.02457616872121963
2023-01-27 10:59:48.872017,-0.02817551419138898
2023-01-27 10:59:48.877017,-0.03072740804038531
2023-01-27 10:59:48.882017,-0.030892094597220383
2023-01-27 10:59:48.887017,-0.0276667324853744
2023-01-27 10:59:48.892017,-0.020698904991149878
2023-01-27 10:59:48.897017,-0.0104601056844472
2023-01-27 10:59:48.902017,0.0015866756439207846
2023-01-27 10:59:48.907017,0.013063094875765624
2023-01-27 10:59:48.912017,0.021275877952575618
2023-01-27 10:59:48.917017,0.02409248504985145
2023-01-27 10:59:48.922017,0.020602744072675705
2023-01-27 10:59:48.927017,0.011419736294337872
2023-01-27 10:59:48.932017,-0.0013703107833862068
2023-01-27 10:59:48.937017,-0.014810378932385513
2023-01-27 10:59:48.942017,-0.026228230446576985
2023-01-27 10:59:48.947017,-0.03430497226463226
2023-01-27 10:59:48.952017,-0.03933032602071758
2023-01-27 10:59:48.957017,-0.04256901111224498
2023-01-27 10:59:48.962017,-0.045100055634975406
2023-01-27 10:59:48.967017,-0.04646786743380728
2023-01-27 10:59:48.972017,-0.04372974485158918
2023-01-27 10:59:48.977017,-0.031877652011236504
2023-01-27 10:59:48.982017,-0.006082256790250541
2023-01-27 10:59:48.987017,0.03517424484713092
2023-01-27 10:59:48.992017,0.08779605478048315
2023-01-27 10:59:48.997017,0.141895593999628
2023-01-27 10:59:49.002017,0.1841745823621748
2023-01-27 10:59:49.007017,0.2024043767645694
2023-01-27 10:59:49.012017,0.19032895565032942
2023-01-27 10:59:49.017017,0.15046607786445632
2023-01-27 10:59:49.022017,0.09315709769725784
2023-01-27 10:59:49.027017,0.03246688623409554
2023-01-27 10:59:49.032017,-0.01887182518839829
2023-01-27 10:59:49.037017,-0.053327179118576956
2023-01-27 10:59:49.042017,-0.0699579715728759
2023-01-27 10:59:49.047017,-0.07302719347392561
2023-01-27 10:59:49.052017,-0.06882806867361058
2023-01-27 10:59:49.057017,-0.06268561179753483
2023-01-27 10:59:49.062017,-0.057601135224103886
2023-01-27 10:59:49.067017,-0.05445524278186954
2023-01-27 10:59:49.072017,-0.05284110829234116
2023-01-27 10:59:49.077017,-0.051937339623119305
2023-01-27 10:59:49.082017,-0.05118231102824209
2023-01-27 10:59:49.087017,-0.05044992353628451
2023-01-27 10:59:49.092017,-0.049715839326381565
2023-01-27 10:59:49.097017,-0.04877531689734286
2023-01-27 10:59:49.102017,-0.04740794748067846
2023-01-27 10:59:49.107017,-0.04563543745096083
2023-01-27 10:59:49.112017,-0.04365762323141086
2023-01-27 10:59:49.117017,-0.041695079453484905
2023-01-27 10:59:49.122017,-0.040051542222499806
2023-01-27 10:59:49.127017,-0.0391471454684632
2023-01-27 10:59:49.132017,-0.03925820440053933
2023-01-27 10:59:49.137017,-0.04028369039607933
2023-01-27 10:59:49.142017,-0.0418545827269554
2023-01-27 10:59:49.147017,-0.04349758910381823
2023-01-27 10:59:49.152017,-0.04457116127014158
2023-01-27 10:59:49.157017,-0.044292328606352176
2023-01-27 10:59:49.162017,-0.042119026184081955
2023-01-27 10:59:49.167017,-0.03808142197922886
2023-01-27 10:59:49.172017,-0.032671093940734794
2023-01-27 10:59:49.177017,-0.02658373018733809
2023-01-27 10:59:49.182017,-0.020650824531912762
2023-01-27 10:59:49.187017,-0.01569368784813873
2023-01-27 10:59:49.192017,-0.012092391960322794
2023-01-27 10:59:49.197017,-0.009524339716198725
2023-01-27 10:59:49.202017,-0.007236202713102116
2023-01-27 10:59:49.207017,-0.004446331424587583
2023-01-27 10:59:49.212017,-0.0004567702708299824
2023-01-27 10:59:49.217017,0.0052549430250880295
2023-01-27 10:59:49.222017,0.01271744631230832
2023-01-27 10:59:49.227017,0.021352872511572654
2023-01-27 10:59:49.232017,0.030387243255972786
2023-01-27 10:59:49.237017,0.03928707871936168
2023-01-27 10:59:49.242017,0.047744512557983294
2023-01-27 10:59:49.247017,0.055536901885534146
2023-01-27 10:59:49.252017,0.06262560933828346
2023-01-27 10:59:49.257017,0.06915414680810447
2023-01-27 10:59:49.262017,0.07507860660552965
2023-01-27 10:59:49.267017,0.07992886050243017
2023-01-27 10:59:49.272017,0.08308410644531246
2023-01-27 10:59:49.277017,0.0840740860296662
2023-01-27 10:59:49.282017,0.08245905488729457
2023-01-27 10:59:49.287017,0.07771321711077017
2023-01-27 10:59:49.292017,0.06952524185180656
2023-01-27 10:59:49.297017,0.05808416558037227
2023-01-27 10:59:49.302017,0.04394610971212374
2023-01-27 10:59:49.307017,0.027903162006680787
2023-01-27 10:59:49.312017,0.011178851127624456
2023-01-27 10:59:49.317017,-0.004597138287797193
2023-01-27 10:59:49.322017,-0.01800636574625959
2023-01-27 10:59:49.327017,-0.02837943662749884
2023-01-27 10:59:49.332017,-0.035652123391628196
2023-01-27 10:59:49.337017,-0.04002750218589879
2023-01-27 10:59:49.342017,-0.04199882596731178
2023-01-27 10:59:49.347017,-0.04233264958088553
2023-01-27 10:59:49.352017,-0.041638217866420656
2023-01-27 10:59:49.357017,-0.04011306120367157
2023-01-27 10:59:49.362017,-0.03791193291544909
2023-01-27 10:59:49.367017,-0.03545993804716505
2023-01-27 10:59:49.372017,-0.0331278666853904
2023-01-27 10:59:49.377017,-0.030914465705517542
2023-01-27 10:59:49.382017,-0.028776526451110812
2023-01-27 10:59:49.387017,-0.026999562917288694
2023-01-27 10:59:49.392017,-0.025939743965864116
2023-01-27 10:59:49.397017,-0.025692149658462483
2023-01-27 10:59:49.402017,-0.026300352066755232
2023-01-27 10:59:49.407017,-0.02791123507188335
2023-01-27 10:59:49.412017,-0.03031512163579458
2023-01-27 10:59:49.417017,-0.03265890150563345
2023-01-27 10:59:49.422017,-0.034065447747707235
2023-01-27 10:59:49.427017,-0.03432096860502327
2023-01-27 10:59:49.432017,-0.03365675732493395
2023-01-27 10:59:49.437017,-0.03226617923990477
2023-01-27 10:59:49.442017,-0.03048340603709218
2023-01-27 10:59:49.447017,-0.029009406590516162
2023-01-27 10:59:49.452017,-0.028343796730041493
2023-01-27 10:59:49.457017,-0.02824159987827977
2023-01-27 10:59:49.462017,-0.028223594650626134
2023-01-27 10:59:49.467017,-0.028231332013523656
2023-01-27 10:59:49.472017,-0.028127431869506784
2023-01-27 10:59:49.477017,-0.0269576462709005
2023-01-27 10:59:49.482017,-0.023655891418456986
2023-01-27 10:59:49.487017,-0.018446607472117155
2023-01-27 10:59:49.492017,-0.012789567932486505
2023-01-27 10:59:49.497017,-0.008006153262367439
2023-01-27 10:59:49.502017,-0.004808108322322284
2023-01-27 10:59:49.507017,-0.0041844628565255275
2023-01-27 10:59:49.512017,-0.0076208515092730045
2023-01-27 10:59:49.517017,-0.015738728901100292
2023-01-27 10:59:49.522017,-0.02716581150889392
2023-01-27 10:59:49.527017,-0.039247786116492975
2023-01-27 10:59:49.532017,-0.04969179630279541
2023-01-27 10:59:49.537017,-0.057435778465220334
2023-01-27 10:59:49.542017,-0.06250540912151331
2023-01-27 10:59:49.547017,-0.06549306138148168
2023-01-27 10:59:49.552017,-0.06676058471202852
2023-01-27 10:59:49.557017,-0.06535010759992331
2023-01-27 10:59:49.562017,-0.05834639072418205
2023-01-27 10:59:49.567017,-0.04159420454353548
2023-01-27 10:59:49.572017,-0.011779865249991398
2023-01-27 10:59:49.577017,0.03101476356404843
2023-01-27 10:59:49.582017,0.08154551684856402
2023-01-27 10:59:49.587017,0.12966182169440799
2023-01-27 10:59:49.592017,0.16311506927013386
2023-01-27 10:59:49.597017,0.17199409490815235
2023-01-27 10:59:49.602017,0.15272955596446983
2023-01-27 10:59:49.607017,0.1097662171973587
2023-01-27 10:59:49.612017,0.05409121513366683
2023-01-27 10:59:49.617017,-0.0008774149930023422
2023-01-27 10:59:49.622017,-0.04423459619283672
2023-01-27 10:59:49.627017,-0.07092847038294324
2023-01-27 10:59:49.632017,-0.08205036818981172
2023-01-27 10:59:49.637017,-0.08264198595775249
2023-01-27 10:59:49.642017,-0.07870873063802711
2023-01-27 10:59:49.647017,-0.07477051509905554
2023-01-27 10:59:49.652017,-0.07265051454305642
2023-01-27 10:59:49.657017,-0.07182935135866308
2023-01-27 10:59:49.662017,-0.07091959565877909
2023-01-27 10:59:49.667017,-0.06899105808373614
2023-01-27 10:59:49.672017,-0.0658951252698898
2023-01-27 10:59:49.677017,-0.06199915390273037
2023-01-27 10:59:49.682017,-0.05800982564687721
2023-01-27 10:59:49.687017,-0.054770341182117425
2023-01-27 10:59:49.692017,-0.05279302597045893
2023-01-27 10:59:49.697017,-0.05199038022435697
2023-01-27 10:59:49.702017,-0.051975648850202484
2023-01-27 10:59:49.707017,-0.05240773764600533
2023-01-27 10:59:49.712017,-0.05288919061422339
2023-01-27 10:59:49.717017,-0.052866992972715854
2023-01-27 10:59:49.722017,-0.05197564885020247
2023-01-27 10:59:49.727017,-0.05030173948371281
2023-01-27 10:59:49.732017,-0.04808108136057849
2023-01-27 10:59:49.737017,-0.045373157243114755
2023-01-27 10:59:49.742017,-0.04226326942443839
2023-01-27 10:59:49.747017,-0.039083002729117584
2023-01-27 10:59:49.752017,-0.03610889241099351
2023-01-27 10:59:49.757017,-0.03326289687650808
2023-01-27 10:59:49.762017,-0.03036320209503168
2023-01-27 10:59:49.767017,-0.027397165635101996
2023-01-27 10:59:49.772017,-0.024280946701765
2023-01-27 10:59:49.777017,-0.020661715131973755
2023-01-27 10:59:49.782017,-0.016275446861982283
2023-01-27 10:59:49.787017,-0.011219597700951801
2023-01-27 10:59:49.792017,-0.0055774054490029265
2023-01-27 10:59:49.797017,0.0009121006880797016
2023-01-27 10:59:49.802017,0.008486310951411693
2023-01-27 10:59:49.807017,0.016960882776414707
2023-01-27 10:59:49.812017,0.025987824425101183
2023-01-27 10:59:49.817017,0.03535788274958098
2023-01-27 10:59:49.822017,0.04473944753408428
2023-01-27 10:59:49.827017,0.05353848766497128
2023-01-27 10:59:49.832017,0.06144762039184566
2023-01-27 10:59:49.837017,0.06881808272176164
2023-01-27 10:59:49.842017,0.07611235231161109
2023-01-27 10:59:49.847017,0.08329235586151945
2023-01-27 10:59:49.852017,0.09000778198242182
2023-01-27 10:59:49.857017,0.09586767917417172
2023-01-27 10:59:49.862017,0.10005673021078099
2023-01-27 10:59:49.867017,0.10113466899134757
2023-01-27 10:59:49.872017,0.09779691696166988
2023-01-27 10:59:49.877017,0.08964560510500558
2023-01-27 10:59:49.882017,0.07700185477733609
2023-01-27 10:59:49.887017,0.06055101003166906
2023-01-27 10:59:49.892017,0.04166225716471668
2023-01-27 10:59:49.897017,0.022484257369089534
2023-01-27 10:59:49.902017,0.0050004324875771
2023-01-27 10:59:49.907017,-0.009823461232847145
2023-01-27 10:59:49.912017,-0.021684568375349045
2023-01-27 10:59:49.917017,-0.030362151924750443
2023-01-27 10:59:49.922017,-0.03603677079081531
2023-01-27 10:59:49.927017,-0.03958995420329149
2023-01-27 10:59:49.932017,-0.04185458272695537
2023-01-27 10:59:49.937017,-0.0428994513956956
2023-01-27 10:59:49.942017,-0.04252771660685526
2023-01-27 10:59:49.947017,-0.040941774582058596
2023-01-27 10:59:49.952017,-0.038368701934814384
2023-01-27 10:59:49.957017,-0.03467716259750111
2023-01-27 10:59:49.962017,-0.030098756775259895
2023-01-27 10:59:49.967017,-0.0257924696357555
2023-01-27 10:59:49.972017,-0.022958716377615918
2023-01-27 10:59:49.977017,-0.02184534852451667
2023-01-27 10:59:49.982017,-0.022189419716596614
2023-01-27 10:59:49.987017,-0.02393472199428776
2023-01-27 10:59:49.992017,-0.026757121086120585
2023-01-27 10:59:49.997017,-0.02959207251515147
2023-01-27 10:59:50.002017,-0.031541191041469505
2023-01-27 10:59:50.007017,-0.03270012957083717
2023-01-27 10:59:50.012017,-0.03334423154592506
2023-01-27 10:59:50.017017,-0.033045296039304804
2023-01-27 10:59:50.022017,-0.0314931087195873
2023-01-27 10:59:50.027017,-0.029431368842765
2023-01-27 10:59:50.032017,-0.027790864929556795
2023-01-27 10:59:50.037017,-0.026621895527811034
2023-01-27 10:59:50.042017,-0.02581954002380374
2023-01-27 10:59:50.047017,-0.02595247137061176
2023-01-27 10:59:50.052017,-0.027141770347952805
2023-01-27 10:59:50.057017,-0.027943264965047687
2023-01-27 10:59:50.062017,-0.026612877845764098
2023-01-27 10:59:50.067017,-0.02273137764704568
2023-01-27 10:59:50.072017,-0.016515851020812912
2023-01-27 10:59:50.077017,-0.007788993954432821
2023-01-27 10:59:50.082017,0.0027165811043231825
2023-01-27 10:59:50.087017,0.01209548187915081
2023-01-27 10:59:50.092017,0.017188986763358075
2023-01-27 10:59:50.097017,0.017073005361894426
2023-01-27 10:59:50.102017,0.0122606754302978
2023-01-27 10:59:50.107017,0.0029354066872419554
2023-01-27 10:59:50.112017,-0.00988066196441653
2023-01-27 10:59:50.117017,-0.022903748951264825
2023-01-27 10:59:50.122017,-0.0331999883055686
2023-01-27 10:59:50.127017,-0.04135257947705947
2023-01-27 10:59:50.132017,-0.049403309822082464
2023-01-27 10:59:50.137017,-0.05683637327068589
2023-01-27 10:59:50.142017,-0.061567824333906056
2023-01-27 10:59:50.147017,-0.06307473160667379
2023-01-27 10:59:50.152017,-0.0599811486899852
2023-01-27 10:59:50.157017,-0.04582110284374087
2023-01-27 10:59:50.162017,-0.013582905754446893
2023-01-27 10:59:50.167017,0.03420365405052906
2023-01-27 10:59:50.172017,0.0853198766708374
2023-01-27 10:59:50.177017,0.1295253281152782
2023-01-27 10:59:50.182017,0.16472578048706044
2023-01-27 10:59:50.187017,0.18897211914323603
2023-01-27 10:59:50.192017,0.19330999255180342
2023-01-27 10:59:50.197017,0.16942479402833796
2023-01-27 10:59:50.202017,0.12150089442729939
2023-01-27 10:59:50.207017,0.06446195712897801
2023-01-27 10:59:50.212017,0.011707743629813102
2023-01-27 10:59:50.217017,-0.030795574764685425
2023-01-27 10:59:50.222017,-0.060606203973293284
2023-01-27 10:59:50.227017,-0.07617923368742438
2023-01-27 10:59:50.232017,-0.07950206845998756
2023-01-27 10:59:50.237017,-0.07630958618291857
2023-01-27 10:59:50.242017,-0.07125616073608389
2023-01-27 10:59:50.247017,-0.06537167709820407
2023-01-27 10:59:50.252017,-0.05899548530578609
2023-01-27 10:59:50.257017,-0.05397819005073755
2023-01-27 10:59:50.262017,-0.051591001451015424
2023-01-27 10:59:50.267017,-0.050907769984521546
2023-01-27 10:59:50.272017,-0.05077362060546872
2023-01-27 10:59:50.277017,-0.05136847952163068
2023-01-27 10:59:50.282017,-0.05267282575368885
2023-01-27 10:59:50.287017,-0.05339215278296537
2023-01-27 10:59:50.292017,-0.05272090435028074
2023-01-27 10:59:50.297017,-0.0515825410803882
2023-01-27 10:59:50.302017,-0.05098998546600342
2023-01-27 10:59:50.307017,-0.05058153163866911
2023-01-27 10:59:50.312017,-0.04971583932638161
2023-01-27 10:59:50.317017,-0.04858203204825011
2023-01-27 10:59:50.322017,-0.04723966121673586
2023-01-27 10:59:50.327017,-0.044893308819551586
2023-01-27 10:59:50.332017,-0.04118144512176514
2023-01-27 10:59:50.337017,-0.03711782156386269
2023-01-27 10:59:50.342017,-0.0338490828871726
2023-01-27 10:59:50.347017,-0.03144166014276372
2023-01-27 10:59:50.352017,-0.02961794659495351
2023-01-27 10:59:50.357017,-0.02860017792640279
2023-01-27 10:59:50.362017,-0.028367837890982628
2023-01-27 10:59:50.367017,-0.028022964973875842
2023-01-27 10:59:50.372017,-0.026733081787824586
2023-01-27 10:59:50.377017,-0.02451329348634825
2023-01-27 10:59:50.382017,-0.021396081894636088
2023-01-27 10:59:50.387017,-0.016700904056680253
2023-01-27 10:59:50.392017,-0.009904703125357623
2023-01-27 10:59:50.397017,-0.0015250774641849556
2023-01-27 10:59:50.402017,0.007524689193814893
2023-01-27 10:59:50.407017,0.01677056312598042
2023-01-27 10:59:50.412017,0.025819540023803714
2023-01-27 10:59:50.417017,0.034001713235364744
2023-01-27 10:59:50.422017,0.04110932350158692
2023-01-27 10:59:50.427017,0.047846210828869515
2023-01-27 10:59:50.432017,0.054836474359035416
2023-01-27 10:59:50.437017,0.061663725664553165
2023-01-27 10:59:50.442017,0.06736159324645988
2023-01-27 10:59:50.447017,0.07122554179643517
2023-01-27 10:59:50.452017,0.0726505145430564
2023-01-27 10:59:50.457017,0.07091253797052852
2023-01-27 10:59:50.462017,0.06584703922271717
2023-01-27 10:59:50.467017,0.05828305404589481
2023-01-27 10:59:50.472017,0.04923502728342997
2023-01-27 10:59:50.477017,0.039092562138010434
2023-01-27 10:59:50.482017,0.0280312709510326
2023-01-27 10:59:50.487017,0.016641132479458743
2023-01-27 10:59:50.492017,0.005601446144282799
2023-01-27 10:59:50.497017,-0.00476459789652192
2023-01-27 10:59:50.502017,-0.014087757095694512
2023-01-27 10:59:50.507017,-0.02160408097020554
2023-01-27 10:59:50.512017,-0.02678116224706173
2023-01-27 10:59:50.517017,-0.029924805726671812
2023-01-27 10:59:50.522017,-0.03170947358012191
2023-01-27 10:59:50.527017,-0.032501926457429955
2023-01-27 10:59:50.532017,-0.03255089372396461
2023-01-27 10:59:50.537017,-0.032351541145562816
2023-01-27 10:59:50.542017,-0.03228644654154767
2023-01-27 10:59:50.547017,-0.03226285783930306
2023-01-27 10:59:50.552017,-0.03216624259948729
2023-01-27 10:59:50.557017,-0.03232329159534075
2023-01-27 10:59:50.562017,-0.03307978436350818
2023-01-27 10:59:50.567017,-0.03425389715540121
2023-01-27 10:59:50.572017,-0.03541171550750727
2023-01-27 10:59:50.577017,-0.036354286840382236
2023-01-27 10:59:50.582017,-0.03697435185313219
2023-01-27 10:59:50.587017,-0.037034182685518384
2023-01-27 10:59:50.592017,-0.036541622132062905
2023-01-27 10:59:50.597017,-0.03604197987606287
2023-01-27 10:59:50.602017,-0.03610889241099349
2023-01-27 10:59:50.607017,-0.0367578390528215
2023-01-27 10:59:50.612017,-0.0376234464347362
2023-01-27 10:59:50.617017,-0.03835516561071129
2023-01-27 10:59:50.622017,-0.03851294517517081
2023-01-27 10:59:50.627017,-0.03748405284007742
2023-01-27 10:59:50.632017,-0.035003028810024164
2023-01-27 10:59:50.637017,-0.03160102051840058
2023-01-27 10:59:50.642017,-0.028271675109863205
2023-01-27 10:59:50.647017,-0.025921906436509098
2023-01-27 10:59:50.652017,-0.025290649384260098
2023-01-27 10:59:50.657017,-0.026868536267727387
2023-01-27 10:59:50.662017,-0.0303391627967357
2023-01-27 10:59:50.667017,-0.03423808491681179
2023-01-27 10:59:50.672017,-0.03651758283376686
2023-01-27 10:59:50.677017,-0.03545448874325182
2023-01-27 10:59:50.682017,-0.030146837234497043
2023-01-27 10:59:50.687017,-0.020817545074704673
2023-01-27 10:59:50.692017,-0.009183486923575427
2023-01-27 10:59:50.697017,0.0017207772743236495
2023-01-27 10:59:50.702017,0.008654594421386667
2023-01-27 10:59:50.707017,0.009452196551618795
2023-01-27 10:59:50.712017,0.003630121704190889
2023-01-27 10:59:50.717017,-0.00758859825329319
2023-01-27 10:59:50.722017,-0.021564364433288526
2023-01-27 10:59:50.727017,-0.03503979697884518
2023-01-27 10:59:50.732017,-0.04536449909210202
2023-01-27 10:59:50.737017,-0.051445888540345215
2023-01-27 10:59:50.742017,-0.0539229325950145
2023-01-27 10:59:50.747017,-0.054527456831946784
2023-01-27 10:59:50.752017,-0.05474030971527088
2023-01-27 10:59:50.757017,-0.05448294125867161
2023-01-27 10:59:50.762017,-0.05209585279226299
2023-01-27 10:59:50.767017,-0.04518564202824557
2023-01-27 10:59:50.772017,-0.030098756775259874
2023-01-27 10:59:50.777017,-0.0006566071167067567
2023-01-27 10:59:50.782017,0.048609972000122015
2023-01-27 10:59:50.787017,0.11335825817864506
2023-01-27 10:59:50.792017,0.17436604201793662
2023-01-27 10:59:50.797017,0.20741263756308967
2023-01-27 10:59:50.802017,0.20189246535301197
2023-01-27 10:59:50.807017,0.1678735936399234
2023-01-27 10:59:50.812017,0.12327989190816864
2023-01-27 10:59:50.817017,0.07753802994500886
2023-01-27 10:59:50.822017,0.030892094597220386
2023-01-27 10:59:50.827017,-0.014394155635232535
2023-01-27 10:59:50.832017,-0.04978796094655986
2023-01-27 10:59:50.837017,-0.06874108526490003
2023-01-27 10:59:50.842017,-0.07392466068267817
2023-01-27 10:59:50.847017,-0.07327235083088719
2023-01-27 10:59:50.852017,-0.07183313369750967
2023-01-27 10:59:50.857017,-0.07020700045344337
2023-01-27 10:59:50.862017,-0.06839533895254128
2023-01-27 10:59:50.867017,-0.06734672851838555
2023-01-27 10:59:50.872017,-0.06714522838592521
2023-01-27 10:59:50.877017,-0.06659193551331871
2023-01-27 10:59:50.882017,-0.0651017874479293
2023-01-27 10:59:50.887017,-0.06338579929285869
2023-01-27 10:59:50.892017,-0.06204863637685769
2023-01-27 10:59:50.897017,-0.06088411844791075
2023-01-27 10:59:50.902017,-0.059764783829450566
2023-01-27 10:59:50.907017,-0.059017490336485665
2023-01-27 10:59:50.912017,-0.05858679860830298
2023-01-27 10:59:50.917017,-0.05777040378156763
2023-01-27 10:59:50.922017,-0.05613466352224342
2023-01-27 10:59:50.927017,-0.0540089489013712
2023-01-27 10:59:50.932017,-0.05185544490814199
2023-01-27 10:59:50.937017,-0.04976955735815361
2023-01-27 10:59:50.942017,-0.047768555581569595
2023-01-27 10:59:50.947017,-0.04594972708261802
2023-01-27 10:59:50.952017,-0.04411439225077617
2023-01-27 10:59:50.957017,-0.04173288674008251
2023-01-27 10:59:50.962017,-0.038536988198757116
2023-01-27 10:59:50.967017,-0.03480237391972782
2023-01-27 10:59:50.972017,-0.03091613575816148
2023-01-27 10:59:50.977017,-0.027020923385362546
2023-01-27 10:59:50.982017,-0.023175081238150486
2023-01-27 10:59:50.987017,-0.019456011729201902
2023-01-27 10:59:50.992017,-0.01572251319885249
2023-01-27 10:59:50.997017,-0.011575482403548474
2023-01-27 10:59:51.002017,-0.006707310676574737
2023-01-27 10:59:51.007017,-0.0010586059451299476
2023-01-27 10:59:51.012017,0.005433162208646484
2023-01-27 10:59:51.017017,0.01293788179594714
2023-01-27 10:59:51.022017,0.021444162353873142
2023-01-27 10:59:51.027017,0.030567241229113633
2023-01-27 10:59:51.032017,0.03971497341990469
2023-01-27 10:59:51.037017,0.04824323660741889
2023-01-27 10:59:51.042017,0.0554374866187572
2023-01-27 10:59:51.047017,0.06066105292601884
2023-01-27 10:59:51.052017,0.06370743364095674
2023-01-27 10:59:51.057017,0.06486914601807263
2023-01-27 10:59:51.062017,0.06457289308309547
2023-01-27 10:59:51.067017,0.06305255482378187
2023-01-27 10:59:51.072017,0.06034175679087629
2023-01-27 10:59:51.077017,0.05633570167368606
2023-01-27 10:59:51.082017,0.05079766362905497
2023-01-27 10:59:51.087017,0.04354881466802747
2023-01-27 10:59:51.092017,0.03481070324778553
2023-01-27 10:59:51.097017,0.02525943173223151
2023-01-27 10:59:51.102017,0.015674432739615402
2023-01-27 10:59:51.107017,0.006616974023684643
2023-01-27 10:59:51.112017,-0.001586675643920799
2023-01-27 10:59:51.117017,-0.00877475236422445
2023-01-27 10:59:51.122017,-0.01495321653783322
2023-01-27 10:59:51.127017,-0.020212472617364904
2023-01-27 10:59:51.132017,-0.024545392021536792
2023-01-27 10:59:51.137017,-0.027848071886844454
2023-01-27 10:59:51.142017,-0.030146837234497022
2023-01-27 10:59:51.147017,-0.031704752568492194
2023-01-27 10:59:51.152017,-0.03283938020467753
2023-01-27 10:59:51.157017,-0.033709152969860594
2023-01-27 10:59:51.162017,-0.034281812608241966
2023-01-27 10:59:51.167017,-0.034395344906538054
2023-01-27 10:59:51.172017,-0.03384908288717258
2023-01-27 10:59:51.177017,-0.03261631836885757
2023-01-27 10:59:51.182017,-0.03108441829681388
2023-01-27 10:59:51.187017,-0.030010381015533258
2023-01-27 10:59:51.192017,-0.030122797936201037
2023-01-27 10:59:51.197017,-0.03169039455488646
2023-01-27 10:59:51.202017,-0.03435393422842024
2023-01-27 10:59:51.207017,-0.03724335272847622
2023-01-27 10:59:51.212017,-0.039306282997131306
2023-01-27 10:59:51.217017,-0.03976303209338606
2023-01-27 10:59:51.222017,-0.03846486657857889
2023-01-27 10:59:51.227017,-0.03590642498193689
2023-01-27 10:59:51.232017,-0.03291150182485578
2023-01-27 10:59:51.237017,-0.030244608231934637
2023-01-27 10:59:51.242017,-0.028343796730041466
2023-01-27 10:59:51.247017,-0.027248339519703894
2023-01-27 10:59:51.252017,-0.026757121086120567
2023-01-27 10:59:51.257017,-0.02672456182863627
2023-01-27 10:59:51.262017,-0.02723793312907208
2023-01-27 10:59:51.267017,-0.02853250645938846
2023-01-27 10:59:51.272017,-0.030771892517804995
2023-01-27 10:59:51.277017,-0.03384315335647428
2023-01-27 10:59:51.282017,-0.0371907167136669
2023-01-27 10:59:51.287017,-0.039797128699565
2023-01-27 10:59:51.292017,-0.040484271943569114
2023-01-27 10:59:51.297017,-0.03840096045896242
2023-01-27 10:59:51.302017,-0.03332018852233877
2023-01-27 10:59:51.307017,-0.02568309321697782
2023-01-27 10:59:51.312017,-0.016636054962873438
2023-01-27 10:59:51.317017,-0.007997741641409121
2023-01-27 10:59:51.322017,-0.001827081083320029
2023-01-27 10:59:51.327017,0.0002615799026089457
2023-01-27 10:59:51.332017,-0.002500216243788531
2023-01-27 10:59:51.337017,-0.009944524440929808
2023-01-27 10:59:51.342017,-0.020819108933210345
2023-01-27 10:59:51.347017,-0.032851605078415454
2023-01-27 10:59:51.352017,-0.043633580207824665
2023-01-27 10:59:51.357017,-0.05182032710107186
2023-01-27 10:59:51.362017,-0.05733668804168701
2023-01-27 10:59:51.367017,-0.06047536118916875
2023-01-27 10:59:51.372017,-0.06103893369436255
2023-01-27 10:59:51.377017,-0.05783449259285859
2023-01-27 10:59:51.382017,-0.04796087741851796
2023-01-27 10:59:51.387017,-0.02686207314185237
2023-01-27 10:59:51.392017,0.008895000442862474
2023-01-27 10:59:51.397017,0.05731347714524907
2023-01-27 10:59:51.402017,0.10974507033824922
2023-01-27 10:59:51.407017,0.15467361272633298
2023-01-27 10:59:51.412017,0.18246769905090324
2023-01-27 10:59:51.417017,0.18690242741944332
2023-01-27 10:59:51.422017,0.16503831744194022
2023-01-27 10:59:51.427017,0.11900537426998689
2023-01-27 10:59:51.432017,0.05810598656535136
2023-01-27 10:59:51.437017,-0.003443222139839946
2023-01-27 10:59:51.442017,-0.052913229912519434
2023-01-27 10:59:51.447017,-0.0840009993785521
2023-01-27 10:59:51.452017,-0.0969795435667037
2023-01-27 10:59:51.457017,-0.0962918411255742
2023-01-27 10:59:51.462017,-0.08834898471832271
2023-01-27 10:59:51.467017,-0.07933988267591234
2023-01-27 10:59:51.472017,-0.07286687940359104
2023-01-27 10:59:51.477017,-0.06923625537443613
2023-01-27 10:59:51.482017,-0.06709714978933326
2023-01-27 10:59:51.487017,-0.06523256156451153
2023-01-27 10:59:51.492017,-0.06284197419881818
2023-01-27 10:59:51.497017,-0.05944638391722858
2023-01-27 10:59:51.502017,-0.05546152591705322
2023-01-27 10:59:51.507017,-0.05226661030822643
2023-01-27 10:59:51.512017,-0.050989985466003376
2023-01-27 10:59:51.517017,-0.05155413524304661
2023-01-27 10:59:51.522017,-0.05317767709493627
2023-01-27 10:59:51.527017,-0.055126803691439207
2023-01-27 10:59:51.532017,-0.05656739324331281
2023-01-27 10:59:51.537017,-0.05647473332553935
2023-01-27 10:59:51.542017,-0.054403744637966114
2023-01-27 10:59:51.547017,-0.050918495660069486
2023-01-27 10:59:51.552017,-0.04680693149566651
2023-01-27 10:59:51.557017,-0.04237832833631928
2023-01-27 10:59:51.562017,-0.0379119329154491
2023-01-27 10:59:51.567017,-0.03411495540741067
2023-01-27 10:59:51.572017,-0.031541191041469505
2023-01-27 10:59:51.577017,-0.030037538672093442
2023-01-27 10:59:51.582017,-0.02920925617218007
2023-01-27 10:59:51.587017,-0.02885211546427022
2023-01-27 10:59:51.592017,-0.028439959511160812
2023-01-27 10:59:51.597017,-0.02682129887269111
2023-01-27 10:59:51.602017,-0.023078918457031226
2023-01-27 10:59:51.607017,-0.017298449169993114
2023-01-27 10:59:51.612017,-0.010072986595332617
2023-01-27 10:59:51.617017,-0.00180430579963231
2023-01-27 10:59:51.622017,0.007067918777465775
2023-01-27 10:59:51.627017,0.015845039227465194
2023-01-27 10:59:51.632017,0.02425690554082387
2023-01-27 10:59:51.637017,0.032878958027440966
2023-01-27 10:59:51.642017,0.042263269424438345
2023-01-27 10:59:51.647017,0.05208199787631547
2023-01-27 10:59:51.652017,0.06159186363220209
2023-01-27 10:59:51.657017,0.07037668500719997
2023-01-27 10:59:51.662017,0.07810771465301504
2023-01-27 10:59:51.667017,0.08419881702939036
2023-01-27 10:59:51.672017,0.08834898471832267
2023-01-27 10:59:51.677017,0.090887061812696
2023-01-27 10:59:51.682017,0.09193103015422817
2023-01-27 10:59:51.687017,0.0906910012138309
2023-01-27 10:59:51.692017,0.08620937913656235
2023-01-27 10:59:51.697017,0.07833534432634057
2023-01-27 10:59:51.702017,0.06750583648681642
2023-01-27 10:59:51.707017,0.05424771997892241
2023-01-27 10:59:51.712017,0.03954669088125221
2023-01-27 10:59:51.717017,0.02503720325489059
2023-01-27 10:59:51.722017,0.01199623011052602
2023-01-27 10:59:51.727017,0.0005301885820019629
2023-01-27 10:59:51.732017,-0.00971237849444147
2023-01-27 10:59:51.737017,-0.018629976979749486
2023-01-27 10:59:51.742017,-0.026059946045279458
2023-01-27 10:59:51.747017,-0.03236338288539857
2023-01-27 10:59:51.752017,-0.03786385059356679
2023-01-27 10:59:51.757017,-0.04231655880204515
2023-01-27 10:59:51.762017,-0.045652985572814886
2023-01-27 10:59:51.767017,-0.048587782817285735
2023-01-27 10:59:51.772017,-0.05168716236948955
2023-01-27 10:59:51.777017,-0.054430466982975566
2023-01-27 10:59:51.782017,-0.05594233796000481
2023-01-27 10:59:51.787017,-0.05602666560339935
2023-01-27 10:59:51.792017,-0.0547883920371532
2023-01-27 10:59:51.797017,-0.05205877071150943
2023-01-27 10:59:51.802017,-0.04810512065887447
2023-01-27 10:59:51.807017,-0.04415794636484019
2023-01-27 10:59:51.812017,-0.04122952744364731
2023-01-27 10:59:51.817017,-0.038991301027629564
2023-01-27 10:59:51.822017,-0.036637783050537095
2023-01-27 10:59:51.827017,-0.03411094315625611
2023-01-27 10:59:51.832017,-0.031613312661647686
2023-01-27 10:59:51.837017,-0.02882523220952252
2023-01-27 10:59:51.842017,-0.02569933794438829
2023-01-27 10:59:51.847017,-0.023231162900688586
2023-01-27 10:59:51.852017,-0.022333662956952997
2023-01-27 10:59:51.857017,-0.02270662557491181
2023-01-27 10:59:51.862017,-0.023848216980695714
2023-01-27 10:59:51.867017,-0.026238525716008477
2023-01-27 10:59:51.872017,-0.030291080474853505
2023-01-27 10:59:51.877017,-0.03500969684686723
2023-01-27 10:59:51.882017,-0.03892163559794419
2023-01-27 10:59:51.887017,-0.04143486056515837
2023-01-27 10:59:51.892017,-0.04209498688578606
2023-01-27 10:59:51.897017,-0.03975419056935671
2023-01-27 10:59:51.902017,-0.03416160866618151
2023-01-27 10:59:51.907017,-0.027461868632648826
2023-01-27 10:59:51.912017,-0.022525986656546516
2023-01-27 10:59:51.917017,-0.020656512358077254
2023-01-27 10:59:51.922017,-0.02221345901489254
2023-01-27 10:59:51.927017,-0.027911689829619703
2023-01-27 10:59:51.932017,-0.03740708157420151
2023-01-27 10:59:51.937017,-0.047876364166450996
2023-01-27 10:59:51.942017,-0.05632698535919177
2023-01-27 10:59:51.947017,-0.062429681802411124
2023-01-27 10:59:51.952017,-0.06716927140951151
2023-01-27 10:59:51.957017,-0.07017806292011396
2023-01-27 10:59:51.962017,-0.07067918777465822
2023-01-27 10:59:51.967017,-0.06909311826094132
2023-01-27 10:59:51.972017,-0.06440460681915279
2023-01-27 10:59:51.977017,-0.05155443974490687
2023-01-27 10:59:51.982017,-0.025507014244794773
2023-01-27 10:59:51.987017,0.012570083089359438
2023-01-27 10:59:51.992017,0.0560865812003612
2023-01-27 10:59:51.997017,0.09788769316553328
2023-01-27 10:59:52.002017,0.12998721003532399
2023-01-27 10:59:52.007017,0.1414297702182001
2023-01-27 10:59:52.012017,0.12477040290832508
2023-01-27 10:59:52.017017,0.08611676281472637
2023-01-27 10:59:52.022017,0.04192670434713361
2023-01-27 10:59:52.027017,0.0034050656394795167
2023-01-27 10:59:52.032017,-0.030050676316022783
2023-01-27 10:59:52.037017,-0.0601387943939833
2023-01-27 10:59:52.042017,-0.08084833621978746
2023-01-27 10:59:52.047017,-0.08636658627319578
2023-01-27 10:59:52.052017,-0.08168976008892048
2023-01-27 10:59:52.057017,-0.0775510157660415
2023-01-27 10:59:52.062017,-0.0776509493589401
2023-01-27 10:59:52.067017,-0.07774944459589994
2023-01-27 10:59:52.072017,-0.07531901448965068
2023-01-27 10:59:52.077017,-0.07281080664281588
2023-01-27 10:59:52.082017,-0.071616768836975
2023-01-27 10:59:52.087017,-0.0695363667215529
2023-01-27 10:59:52.092017,-0.06563067436218258
2023-01-27 10:59:52.097017,-0.06242649312044513
2023-01-27 10:59:52.102017,-0.0615678243339061
2023-01-27 10:59:52.107017,-0.06131566383418584
2023-01-27 10:59:52.112017,-0.05995710939168927
2023-01-27 10:59:52.117017,-0.058237671507743685
2023-01-27 10:59:52.122017,-0.056903958320617606
2023-01-27 10:59:52.127017,-0.05496648238663195
2023-01-27 10:59:52.132017,-0.05204777047038071
2023-01-27 10:59:52.137017,-0.04982459605020647
2023-01-27 10:59:52.142017,-0.04952351376414287
2023-01-27 10:59:52.147017,-0.05010948401806829
2023-01-27 10:59:52.152017,-0.050244729965925175
2023-01-27 10:59:52.157017,-0.04999757090440831
2023-01-27 10:59:52.162017,-0.04940330982208252
2023-01-27 10:59:52.167017,-0.04735354025319295
2023-01-27 10:59:52.172017,-0.0433210544288158
2023-01-27 10:59:52.177017,-0.03858791713923388
2023-01-27 10:59:52.182017,-0.03454625606536863
2023-01-27 10:59:52.187017,-0.031163080746077557
2023-01-27 10:59:52.192017,-0.028031270951032593
2023-01-27 10:59:52.197017,-0.025357860160969702
2023-01-27 10:59:52.202017,-0.022814473137259435
2023-01-27 10:59:52.207017,-0.01881828664248415
2023-01-27 10:59:52.212017,-0.012140473350882532
2023-01-27 10:59:52.217017,-0.0032165905311517993
2023-01-27 10:59:52.222017,0.006923675537109318
2023-01-27 10:59:52.227017,0.017841262156969632
2023-01-27 10:59:52.232017,0.02901693247258656
2023-01-27 10:59:52.237017,0.03927026924518308
2023-01-27 10:59:52.242017,0.04786471650004378
2023-01-27 10:59:52.247017,0.05525491131786185
2023-01-27 10:59:52.252017,0.061928432434797155
2023-01-27 10:59:52.257017,0.06741639276653219
2023-01-27 10:59:52.262017,0.07113596051931377
2023-01-27 10:59:52.267017,0.07321511024578432
2023-01-27 10:59:52.272017,0.07373233884572973
2023-01-27 10:59:52.277017,0.07207784318895834
2023-01-27 10:59:52.282017,0.06784240901470176
2023-01-27 10:59:52.287017,0.06152358020465734
2023-01-27 10:59:52.292017,0.05368252843618389
2023-01-27 10:59:52.297017,0.04423321509850525
2023-01-27 10:59:52.302017,0.03322402760386459
2023-01-27 10:59:52.307017,0.021499564897396822
2023-01-27 10:59:52.312017,0.009904703125357564
2023-01-27 10:59:52.317017,-0.00142925995139912
2023-01-27 10:59:52.322017,-0.012404918670654188
2023-01-27 10:59:52.327017,-0.022343899634822025
2023-01-27 10:59:52.332017,-0.030699770897626794
2023-01-27 10:59:52.337017,-0.03770140924404592
2023-01-27 10:59:52.342017,-0.04370570182800288
2023-01-27 10:59:52.347017,-0.04859025685745471
2023-01-27 10:59:52.352017,-0.05233625695109363
2023-01-27 10:59:52.357017,-0.0554865663153792
2023-01-27 10:59:52.362017,-0.05837043374776839
2023-01-27 10:59:52.367017,-0.060439178718447624
2023-01-27 10:59:52.372017,-0.06091872975230207
2023-01-27 10:59:52.377017,-0.059592611203675365
2023-01-27 10:59:52.382017,-0.056543350219726465
2023-01-27 10:59:52.387017,-0.05183982385441752
2023-01-27 10:59:52.392017,-0.04606167599558828
2023-01-27 10:59:52.397017,-0.04052729518182347
2023-01-27 10:59:52.402017,-0.036373339593410395
2023-01-27 10:59:52.407017,-0.0337806624580153
2023-01-27 10:59:52.412017,-0.0324306897819042
2023-01-27 10:59:52.417017,-0.03211543611440897
2023-01-27 10:59:52.422017,-0.03247877210378637
2023-01-27 10:59:52.427017,-0.03282347912432995
2023-01-27 10:59:52.432017,-0.03279129788279528
2023-01-27 10:59:52.437017,-0.03284070016830727
2023-01-27 10:59:52.442017,-0.033656757324933964
2023-01-27 10:59:52.447017,-0.03553787954679923
2023-01-27 10:59:52.452017,-0.03863314911723129
2023-01-27 10:59:52.457017,-0.043074628209310614
2023-01-27 10:59:52.462017,-0.04829744622111322
2023-01-27 10:59:52.467017,-0.05271354552484025
2023-01-27 10:59:52.472017,-0.05464414879679668
2023-01-27 10:59:52.477017,-0.053398747612198406
2023-01-27 10:59:52.482017,-0.049355231225490515
2023-01-27 10:59:52.487017,-0.043651450062770054
2023-01-27 10:59:52.492017,-0.038152337074279716
2023-01-27 10:59:52.497017,-0.03494133251764426
2023-01-27 10:59:52.502017,-0.03497898578643787
2023-01-27 10:59:52.507017,-0.03729297959276153
2023-01-27 10:59:52.512017,-0.03969093412160871
2023-01-27 10:59:52.517017,-0.03997435024512261
2023-01-27 10:59:52.522017,-0.036517582833766896
2023-01-27 10:59:52.527017,-0.028671327486917274
2023-01-27 10:59:52.532017,-0.017453432083129796
2023-01-27 10:59:52.537017,-0.005595032003964997
