2023-01-27 15:23:10.061659,0.0211316347122192
2023-01-27 15:23:10.066659,0.0386393624425862
2023-01-27 15:23:10.071659,0.036589704453945104
2023-01-27 15:23:10.076659,0.039633982782924515
2023-01-27 15:23:10.081659,0.05562981218099592
2023-01-27 15:23:10.086659,0.07062839708573469
2023-01-27 15:23:10.091659,0.07791539281606669
2023-01-27 15:23:10.096659,0.08687057874901837
2023-01-27 15:23:10.101659,0.10277330875396717
2023-01-27 15:23:10.106659,0.11815465318288701
2023-01-27 15:23:10.111659,0.12791971862316126
2023-01-27 15:23:10.116659,0.137173509338023
2023-01-27 15:23:10.121659,0.14936387538909904
2023-01-27 15:23:10.126659,0.15946712625104228
2023-01-27 15:23:10.131659,0.16383628547191606
2023-01-27 15:23:10.136659,0.16628371973045047
2023-01-27 15:23:10.141659,0.1696541011333465
2023-01-27 15:23:10.146659,0.17020507615547717
2023-01-27 15:23:10.151659,0.16474983096122736
2023-01-27 15:23:10.156659,0.1557167431865641
2023-01-27 15:23:10.161659,0.14503657817840565
2023-01-27 15:23:10.166659,0.12983878538631888
2023-01-27 15:23:10.171659,0.10823051631450653
2023-01-27 15:23:10.176659,0.08351455379684974
2023-01-27 15:23:10.181659,0.05909164994955059
2023-01-27 15:23:10.186659,0.034429019956578086
2023-01-27 15:23:10.191659,0.00930368900299075
2023-01-27 15:23:10.196659,-0.012962683317762942
2023-01-27 15:23:10.201659,-0.029834311455488212
2023-01-27 15:23:10.206659,-0.04287688961130306
2023-01-27 15:23:10.211659,-0.0538748502731323
2023-01-27 15:23:10.216659,-0.06161612561465905
2023-01-27 15:23:10.221659,-0.06519794464111317
2023-01-27 15:23:10.226659,-0.06672321903690479
2023-01-27 15:23:10.231659,-0.06801068782806385
2023-01-27 15:23:10.236659,-0.06797048318907432
2023-01-27 15:23:10.241659,-0.06567876040935507
2023-01-27 15:23:10.246659,-0.06290267299884328
2023-01-27 15:23:10.251659,-0.06125529855489732
2023-01-27 15:23:10.256659,-0.05975609590907319
2023-01-27 15:23:10.261659,-0.05736073106527315
2023-01-27 15:23:10.266659,-0.055146846208623514
2023-01-27 15:23:10.271659,-0.05394697189331052
2023-01-27 15:23:10.276659,-0.052444983387732
2023-01-27 15:23:10.281659,-0.049643717706203384
2023-01-27 15:23:10.286659,-0.046847175763541166
2023-01-27 15:23:10.291659,-0.04534045979380602
2023-01-27 15:23:10.296659,-0.04433256415115858
2023-01-27 15:23:10.301659,-0.042888324707746485
2023-01-27 15:23:10.306659,-0.041700677953646424
2023-01-27 15:23:10.311659,-0.04127760976552963
2023-01-27 15:23:10.316659,-0.04045749704568595
2023-01-27 15:23:10.321659,-0.038392744958400685
2023-01-27 15:23:10.326659,-0.03615977323585567
2023-01-27 15:23:10.331659,-0.03493090718984596
2023-01-27 15:23:10.336659,-0.03434409617531848
2023-01-27 15:23:10.341659,-0.03401736542582512
2023-01-27 15:23:10.346659,-0.03480050860618292
2023-01-27 15:23:10.351659,-0.0370224341750144
2023-01-27 15:23:10.356659,-0.03907309844710079
2023-01-27 15:23:10.361659,-0.03906587883830067
2023-01-27 15:23:10.366659,-0.036525158505188775
2023-01-27 15:23:10.371659,-0.03149310871958727
2023-01-27 15:23:10.376659,-0.023773216368676575
2023-01-27 15:23:10.381659,-0.014424324035644512
2023-01-27 15:23:10.386659,-0.006543769738754576
2023-01-27 15:23:10.391659,-0.0031733512878416924
2023-01-27 15:23:10.396659,-0.005332263075738732
2023-01-27 15:23:10.401659,-0.012693405151367054
2023-01-27 15:23:10.406659,-0.02457023233155339
2023-01-27 15:23:10.411659,-0.03918608278036112
2023-01-27 15:23:10.416659,-0.053466201844917766
2023-01-27 15:23:10.421659,-0.06493350118398658
2023-01-27 15:23:10.426659,-0.0730688675102086
2023-01-27 15:23:10.431659,-0.07825195789337143
2023-01-27 15:23:10.436659,-0.08065733232358567
2023-01-27 15:23:10.441659,-0.08094450086355195
2023-01-27 15:23:10.446659,-0.08066529953009641
2023-01-27 15:23:10.451659,-0.08094450086355194
2023-01-27 15:23:10.456659,-0.08167777306713193
2023-01-27 15:23:10.461659,-0.08260329812765117
2023-01-27 15:23:10.466659,-0.08380979422076502
2023-01-27 15:23:10.471659,-0.08416593074798577
2023-01-27 15:23:10.476659,-0.08019325584202674
2023-01-27 15:23:10.481659,-0.06740967929363245
2023-01-27 15:23:10.486659,-0.04233563617217305
2023-01-27 15:23:10.491659,-0.003437797306105409
2023-01-27 15:23:10.496659,0.047705392258184716
2023-01-27 15:23:10.501659,0.10450422763824459
2023-01-27 15:23:10.506659,0.1554712722293768
2023-01-27 15:23:10.511659,0.18802106380462635
2023-01-27 15:23:10.516659,0.1933354699095806
2023-01-27 15:23:10.521659,0.16914924979209883
2023-01-27 15:23:10.526659,0.12038536034366336
2023-01-27 15:23:10.531659,0.05827426910400389
2023-01-27 15:23:10.536659,-0.002912715075315579
2023-01-27 15:23:10.541659,-0.05111018940806377
2023-01-27 15:23:10.546659,-0.08036275299571222
2023-01-27 15:23:10.551659,-0.0909934490919112
2023-01-27 15:23:10.556659,-0.08744171368864204
2023-01-27 15:23:10.561659,-0.0760402306914329
2023-01-27 15:23:10.566659,-0.06291519122968979
2023-01-27 15:23:10.571659,-0.05192756652832027
2023-01-27 15:23:10.576659,-0.04402801989114976
2023-01-27 15:23:10.581659,-0.03856102749705307
2023-01-27 15:23:10.586659,-0.03471336132339527
2023-01-27 15:23:10.591659,-0.03168543428182599
2023-01-27 15:23:10.596659,-0.028525978100214015
2023-01-27 15:23:10.601659,-0.024641554802656073
2023-01-27 15:23:10.606659,-0.0201563607773235
2023-01-27 15:23:10.611659,-0.015385946258902492
2023-01-27 15:23:10.616659,-0.010352090881264549
2023-01-27 15:23:10.621659,-0.005072554107755384
2023-01-27 15:23:10.626659,0.0002184532988971834
2023-01-27 15:23:10.631659,0.005529324524104519
2023-01-27 15:23:10.636659,0.011373943817674653
2023-01-27 15:23:10.641659,0.018246769905090388
2023-01-27 15:23:10.646659,0.026180058792224903
2023-01-27 15:23:10.651659,0.035027068108320215
2023-01-27 15:23:10.656659,0.04476049330291664
2023-01-27 15:23:10.661659,0.05524516105651854
2023-01-27 15:23:10.666659,0.06610816601940994
2023-01-27 15:23:10.671659,0.07709801197051999
2023-01-27 15:23:10.676659,0.0882694504309914
2023-01-27 15:23:10.681659,0.0996240004897117
2023-01-27 15:23:10.686659,0.1108510893218059
2023-01-27 15:23:10.691659,0.12154897302389137
2023-01-27 15:23:10.696659,0.1313898649730485
2023-01-27 15:23:10.701659,0.13993999361991877
2023-01-27 15:23:10.706659,0.14661766013763142
2023-01-27 15:23:10.711659,0.15097460150718672
2023-01-27 15:23:10.716659,0.15279227618800695
2023-01-27 15:23:10.721659,0.15181601047515855
2023-01-27 15:23:10.726659,0.14761097834795742
2023-01-27 15:23:10.731659,0.1397476643323898
2023-01-27 15:23:10.736659,0.12797203428445458
2023-01-27 15:23:10.741659,0.11224528402090073
2023-01-27 15:23:10.746659,0.0929057960877446
2023-01-27 15:23:10.751659,0.07089555263519284
2023-01-27 15:23:10.756659,0.047694183104544735
2023-01-27 15:23:10.761659,0.024954080581665025
2023-01-27 15:23:10.766659,0.004134759113771788
2023-01-27 15:23:10.771659,-0.01377522945404051
2023-01-27 15:23:10.776659,-0.02846031144190264
2023-01-27 15:23:10.781659,-0.04021982476115218
2023-01-27 15:23:10.786659,-0.04961024546212545
2023-01-27 15:23:10.791659,-0.05712032318115232
2023-01-27 15:23:10.796659,-0.0630672696955318
2023-01-27 15:23:10.801659,-0.06752987951040255
2023-01-27 15:23:10.806659,-0.07030925238900222
2023-01-27 15:23:10.811659,-0.07116000354289999
2023-01-27 15:23:10.816659,-0.0701311114551679
2023-01-27 15:23:10.821659,-0.06755392253398891
2023-01-27 15:23:10.826659,-0.06378488474711423
2023-01-27 15:23:10.831659,-0.05921185016632079
2023-01-27 15:23:10.836659,-0.05440877032772897
2023-01-27 15:23:10.841659,-0.049932204186916296
2023-01-27 15:23:10.846659,-0.045988774684115184
2023-01-27 15:23:10.851659,-0.042575798928737696
2023-01-27 15:23:10.856659,-0.03980395190318969
2023-01-27 15:23:10.861659,-0.03771960735321037
2023-01-27 15:23:10.866659,-0.0359858147836869
2023-01-27 15:23:10.871659,-0.03418564796447752
2023-01-27 15:23:10.876659,-0.03230661768027732
2023-01-27 15:23:10.881659,-0.030531486496329297
2023-01-27 15:23:10.886659,-0.028820943890827642
2023-01-27 15:23:10.891659,-0.027213891968130934
2023-01-27 15:23:10.896659,-0.026222091067100124
2023-01-27 15:23:10.901659,-0.02625226974487296
2023-01-27 15:23:10.906659,-0.026810498477941275
2023-01-27 15:23:10.911659,-0.02682924270629877
2023-01-27 15:23:10.916659,-0.02548336929291027
2023-01-27 15:23:10.921659,-0.022165378555655337
2023-01-27 15:23:10.926659,-0.016303987541495965
2023-01-27 15:23:10.931659,-0.00824590586125843
2023-01-27 15:23:10.936659,-4.08662976133769e-05
2023-01-27 15:23:10.941659,0.005577405449002924
2023-01-27 15:23:10.946659,0.006840999919045809
2023-01-27 15:23:10.951659,0.0031012296676634983
2023-01-27 15:23:10.956659,-0.005723268354663067
2023-01-27 15:23:10.961659,-0.01858333870768534
2023-01-27 15:23:10.966659,-0.03279424262342697
2023-01-27 15:23:10.971659,-0.045532785356044665
2023-01-27 15:23:10.976659,-0.05564273035774266
2023-01-27 15:23:10.981659,-0.06308238208293909
2023-01-27 15:23:10.986659,-0.0675343829311613
2023-01-27 15:23:10.991659,-0.0690684765577316
2023-01-27 15:23:10.996659,-0.0692953970770511
2023-01-27 15:23:11.001659,-0.06998201459646218
2023-01-27 15:23:11.006659,-0.07110314918246999
2023-01-27 15:23:11.011659,-0.07192929834127418
2023-01-27 15:23:11.016659,-0.07290196795399805
2023-01-27 15:23:11.021659,-0.07397274672985069
2023-01-27 15:23:11.026659,-0.07190472628860942
2023-01-27 15:23:11.031659,-0.061952471733093206
2023-01-27 15:23:11.036659,-0.04164223910838523
2023-01-27 15:23:11.041659,-0.010433594696223717
2023-01-27 15:23:11.046659,0.03240516829090481
2023-01-27 15:23:11.051659,0.08455058187246323
2023-01-27 15:23:11.056659,0.13545896306360258
2023-01-27 15:23:11.061659,0.17027914524078364
2023-01-27 15:23:11.066659,0.18118001383671867
2023-01-27 15:23:11.071659,0.17090420424938194
2023-01-27 15:23:11.076659,0.1441383102899136
2023-01-27 15:23:11.081659,0.10154724121093751
2023-01-27 15:23:11.086659,0.04623266028240343
2023-01-27 15:23:11.091659,-0.009399851784110038
2023-01-27 15:23:11.096659,-0.05005920929531321
2023-01-27 15:23:11.101659,-0.06966948509216297
2023-01-27 15:23:11.106659,-0.07289222197404867
2023-01-27 15:23:11.111659,-0.06666442006826398
2023-01-27 15:23:11.116659,-0.05529379252812473
2023-01-27 15:23:11.121659,-0.04267195984721182
2023-01-27 15:23:11.126659,-0.033096598306461285
2023-01-27 15:23:11.131659,-0.02791106700897211
2023-01-27 15:23:11.136659,-0.02468441817610207
2023-01-27 15:23:11.141659,-0.021107595413923166
2023-01-27 15:23:11.146659,-0.01730984677206376
2023-01-27 15:23:11.151659,-0.013775229454040498
2023-01-27 15:23:11.156659,-0.00977497393234738
2023-01-27 15:23:11.161659,-0.004976391792297259
2023-01-27 15:23:11.166659,-0.000380858386816044
2023-01-27 15:23:11.171659,0.003485878463834543
2023-01-27 15:23:11.176659,0.007629854769661525
2023-01-27 15:23:11.181659,0.012981891632079964
2023-01-27 15:23:11.186659,0.019257541718233843
2023-01-27 15:23:11.191659,0.026132067665457667
2023-01-27 15:23:11.196659,0.03409892644773755
2023-01-27 15:23:11.201659,0.04341721534729
2023-01-27 15:23:11.206659,0.05345365131958391
2023-01-27 15:23:11.211659,0.06375551223754877
2023-01-27 15:23:11.216659,0.07471380322493992
2023-01-27 15:23:11.221659,0.08659403026103968
2023-01-27 15:23:11.226659,0.09887336650679833
2023-01-27 15:23:11.231659,0.11101921647787083
2023-01-27 15:23:11.236659,0.12302078371762974
2023-01-27 15:23:11.241659,0.13469915091991416
2023-01-27 15:23:11.246659,0.14530106944424878
2023-01-27 15:23:11.251659,0.15419602394103998
2023-01-27 15:23:11.256659,0.16130052623175872
2023-01-27 15:23:11.261659,0.16650478541851038
2023-01-27 15:23:11.266659,0.16930612039514628
2023-01-27 15:23:11.271659,0.1692454069852827
2023-01-27 15:23:11.276659,0.16611045560732293
2023-01-27 15:23:11.281659,0.15950898826122276
2023-01-27 15:23:11.286659,0.14881014876539367
2023-01-27 15:23:11.291659,0.1337615698575973
2023-01-27 15:23:11.296659,0.1148273354250205
2023-01-27 15:23:11.301659,0.09291668981313697
2023-01-27 15:23:11.306659,0.06921590791319027
2023-01-27 15:23:11.311659,0.045268338173627826
2023-01-27 15:23:11.316659,0.022710568287654685
2023-01-27 15:23:11.321659,0.002740621566772404
2023-01-27 15:23:11.326659,-0.014025526900770765
2023-01-27 15:23:11.331659,-0.027358135208487448
2023-01-27 15:23:11.336659,-0.03739058996416633
2023-01-27 15:23:11.341659,-0.04464328289031978
2023-01-27 15:23:11.346659,-0.04974107492383651
2023-01-27 15:23:11.351659,-0.053129594773054074
2023-01-27 15:23:11.356659,-0.05512942193388257
2023-01-27 15:23:11.361659,-0.055990420281886936
2023-01-27 15:23:11.366659,-0.05574329812134322
2023-01-27 15:23:11.371659,-0.05428354069590553
2023-01-27 15:23:11.376659,-0.05173527713473125
2023-01-27 15:23:11.381659,-0.04846572875976551
2023-01-27 15:23:11.386659,-0.044728609969889
2023-01-27 15:23:11.391659,-0.04065255448222161
2023-01-27 15:23:11.396659,-0.03652893151151065
2023-01-27 15:23:11.401659,-0.032647054642438805
2023-01-27 15:23:11.406659,-0.028912355582117195
2023-01-27 15:23:11.411659,-0.025146406143903705
2023-01-27 15:23:11.416659,-0.021654075663426562
2023-01-27 15:23:11.421659,-0.01891990564763538
2023-01-27 15:23:11.426659,-0.016917341243822312
2023-01-27 15:23:11.431659,-0.015361905097961388
2023-01-27 15:23:11.436659,-0.01439366241858924
2023-01-27 15:23:11.441659,-0.014256040565669497
2023-01-27 15:23:11.446659,-0.01459836844449407
2023-01-27 15:23:11.451659,-0.014929175376891994
2023-01-27 15:23:11.456659,-0.015362288844731438
2023-01-27 15:23:11.461659,-0.015914838761091205
2023-01-27 15:23:11.466659,-0.015479842663428882
2023-01-27 15:23:11.471659,-0.012645324692130023
2023-01-27 15:23:11.476659,-0.007235210970013649
2023-01-27 15:23:11.481659,-9.616216266294941e-05
2023-01-27 15:23:11.486659,0.007877997677100202
2023-01-27 15:23:11.491659,0.015145540237426747
2023-01-27 15:23:11.496659,0.018814439107065577
2023-01-27 15:23:11.501659,0.016467770561575813
2023-01-27 15:23:11.506659,0.008431257711436586
2023-01-27 15:23:11.511659,-0.0031252703629434204
2023-01-27 15:23:11.516659,-0.016426556096391674
2023-01-27 15:23:11.521659,-0.029738148674368723
2023-01-27 15:23:11.526659,-0.040210969011165054
2023-01-27 15:23:11.531659,-0.04584531113505359
2023-01-27 15:23:11.536659,-0.04793406246495097
2023-01-27 15:23:11.541659,-0.0490667447447776
2023-01-27 15:23:11.546659,-0.049700376725838526
2023-01-27 15:23:11.551659,-0.04942735284566861
2023-01-27 15:23:11.556659,-0.05002472909663313
2023-01-27 15:23:11.561659,-0.053321920335292775
2023-01-27 15:23:11.566659,-0.05721179303158587
2023-01-27 15:23:11.571659,-0.058154068887233644
2023-01-27 15:23:11.576659,-0.056311625717438744
2023-01-27 15:23:11.581659,-0.0526487827301025
2023-01-27 15:23:11.586659,-0.04204817027316031
2023-01-27 15:23:11.591659,-0.016852419823408113
2023-01-27 15:23:11.596659,0.021783594808357114
2023-01-27 15:23:11.601659,0.06377955526113512
2023-01-27 15:23:11.606659,0.10325314881617004
2023-01-27 15:23:11.611659,0.14272868633270255
2023-01-27 15:23:11.616659,0.17962523526054025
2023-01-27 15:23:11.621659,0.19785365462303156
2023-01-27 15:23:11.626659,0.18211359908844496
2023-01-27 15:23:11.631659,0.1360934972763061
2023-01-27 15:23:11.636659,0.07857016215285148
2023-01-27 15:23:11.641659,0.025122364982962615
2023-01-27 15:23:11.646659,-0.01846443158784401
2023-01-27 15:23:11.651659,-0.04873017594218254
2023-01-27 15:23:11.656659,-0.061848707510595735
2023-01-27 15:23:11.661659,-0.05978882312774645
2023-01-27 15:23:11.666659,-0.050892266582829734
2023-01-27 15:23:11.671659,-0.041542053222656146
2023-01-27 15:23:11.676659,-0.03237898620686433
2023-01-27 15:23:11.681659,-0.02358376979827878
2023-01-27 15:23:11.686659,-0.017763996307854184
2023-01-27 15:23:11.691659,-0.015578269958495952
2023-01-27 15:23:11.696659,-0.01376661654738618
2023-01-27 15:23:11.701659,-0.010048946365713997
2023-01-27 15:23:11.706659,-0.005961467670697365
2023-01-27 15:23:11.711659,-0.002932945964857879
2023-01-27 15:23:11.716659,0.0004852663714196031
2023-01-27 15:23:11.721659,0.0054572029039262684
2023-01-27 15:23:11.726659,0.0105712635944494
2023-01-27 15:23:11.731659,0.014833013527095288
2023-01-27 15:23:11.736659,0.019805286791181466
2023-01-27 15:23:11.741659,0.02678116224706173
2023-01-27 15:23:11.746659,0.034658171796909394
2023-01-27 15:23:11.751659,0.04245559498667713
2023-01-27 15:23:11.756659,0.05127532995356491
2023-01-27 15:23:11.761659,0.061976514756679514
2023-01-27 15:23:11.766659,0.07337651582965499
2023-01-27 15:23:11.771659,0.084478460252285
2023-01-27 15:23:11.776659,0.09618279074264666
2023-01-27 15:23:11.781659,0.1091440543532371
2023-01-27 15:23:11.786659,0.1220793832452138
2023-01-27 15:23:11.791659,0.13376156985759724
2023-01-27 15:23:11.796659,0.1446590176990384
2023-01-27 15:23:11.801659,0.15513360500335677
2023-01-27 15:23:11.806659,0.16398889671786082
2023-01-27 15:23:11.811659,0.17025510966777793
2023-01-27 15:23:11.816659,0.17454156144376762
2023-01-27 15:23:11.821659,0.17720282077789298
2023-01-27 15:23:11.826659,0.17691616017394637
2023-01-27 15:23:11.831659,0.17241875827312458
2023-01-27 15:23:11.836659,0.16400098860746729
2023-01-27 15:23:11.841659,0.15208046138286585
2023-01-27 15:23:11.846659,0.13604603124323064
2023-01-27 15:23:11.851659,0.11585136502981175
2023-01-27 15:23:11.856659,0.09321012954466944
2023-01-27 15:23:11.861659,0.06998201459646221
2023-01-27 15:23:11.866659,0.04682582680784781
2023-01-27 15:23:11.871659,0.02449731156229967
2023-01-27 15:23:11.876659,0.0048421636820869625
2023-01-27 15:23:11.881659,-0.010794202797114764
2023-01-27 15:23:11.886659,-0.02282732611296407
2023-01-27 15:23:11.891659,-0.03207008168101305
2023-01-27 15:23:11.896659,-0.03849276423501765
2023-01-27 15:23:11.901659,-0.0423113517463207
2023-01-27 15:23:11.906659,-0.04479971605828744
2023-01-27 15:23:11.911659,-0.04683097451925266
2023-01-27 15:23:11.916659,-0.04784449835997544
2023-01-27 15:23:11.921659,-0.04726370424032207
2023-01-27 15:23:11.926659,-0.04569550548202674
2023-01-27 15:23:11.931659,-0.04380186647176738
2023-01-27 15:23:11.936659,-0.04129548910403658
2023-01-27 15:23:11.941659,-0.038032136857509606
2023-01-27 15:23:11.946659,-0.034833731765154974
2023-01-27 15:23:11.951659,-0.03223836421966551
2023-01-27 15:23:11.956659,-0.02961539916551022
2023-01-27 15:23:11.961659,-0.026444595307111705
2023-01-27 15:23:11.966659,-0.023308809634415714
2023-01-27 15:23:11.971659,-0.0207469873130321
2023-01-27 15:23:11.976659,-0.018317966510083838
2023-01-27 15:23:11.981659,-0.01569847390055647
2023-01-27 15:23:11.986659,-0.013549902497713758
2023-01-27 15:23:11.991659,-0.01240491867065422
2023-01-27 15:23:11.996659,-0.011810474957112972
2023-01-27 15:23:12.001659,-0.011419257149100312
2023-01-27 15:23:12.006659,-0.011785625851020293
2023-01-27 15:23:12.011659,-0.013174216262996101
2023-01-27 15:23:12.016659,-0.014611432576082772
2023-01-27 15:23:12.021659,-0.014929175376891994
2023-01-27 15:23:12.026659,-0.013726776260125357
2023-01-27 15:23:12.031659,-0.010625919327139789
2023-01-27 15:23:12.036659,-0.0048582297431935895
2023-01-27 15:23:12.041659,0.003365675685927196
2023-01-27 15:23:12.046659,0.011990600029298084
2023-01-27 15:23:12.051659,0.018463134765625024
2023-01-27 15:23:12.056659,0.02116667937802263
2023-01-27 15:23:12.061659,0.0191362705081701
2023-01-27 15:23:12.066659,0.01178889840146447
2023-01-27 15:23:12.071659,-7.342274936187702e-17
2023-01-27 15:23:12.076659,-0.013532374364903788
2023-01-27 15:23:12.081659,-0.026011865586042383
2023-01-27 15:23:12.086659,-0.03605983405113251
2023-01-27 15:23:12.091659,-0.04320085048675533
2023-01-27 15:23:12.096659,-0.04714865538614501
2023-01-27 15:23:12.101659,-0.048465728759765604
2023-01-27 15:23:12.106659,-0.0488360816740953
2023-01-27 15:23:12.111659,-0.04966775700449942
2023-01-27 15:23:12.116659,-0.05110385665080417
2023-01-27 15:23:12.121659,-0.052913229912519434
2023-01-27 15:23:12.126659,-0.05516100748354878
2023-01-27 15:23:12.131659,-0.057024162262678105
2023-01-27 15:23:12.136659,-0.0557634007282209
2023-01-27 15:23:12.141659,-0.04767239093780506
2023-01-27 15:23:12.146659,-0.02943139614856912
2023-01-27 15:23:12.151659,0.0015145540237425739
2023-01-27 15:23:12.156659,0.045883710421814494
2023-01-27 15:23:12.161659,0.09998460859060276
2023-01-27 15:23:12.166659,0.1546195999772759
2023-01-27 15:23:12.171659,0.197805568575859
2023-01-27 15:23:12.176659,0.2191074733125545
2023-01-27 15:23:12.181659,0.21254241466522208
2023-01-27 15:23:12.186659,0.17827508039279247
2023-01-27 15:23:12.191659,0.12376070022583004
2023-01-27 15:23:12.196659,0.06226509123006794
2023-01-27 15:23:12.201659,0.007596810813993206
2023-01-27 15:23:12.206659,-0.03144634055180452
2023-01-27 15:23:12.211659,-0.05264878273010246
2023-01-27 15:23:12.216659,-0.05837497271301025
2023-01-27 15:23:12.221659,-0.05324979871511444
2023-01-27 15:23:12.226659,-0.0426512952373792
2023-01-27 15:23:12.231659,-0.031204622238874363
2023-01-27 15:23:12.236659,-0.021588585028567035
2023-01-27 15:23:12.241659,-0.014592608436942033
2023-01-27 15:23:12.246659,-0.009864914978077025
2023-01-27 15:23:12.251659,-0.006346702575683413
2023-01-27 15:23:12.256659,-0.0027397711614633048
2023-01-27 15:23:12.261659,0.0016107162227854133
2023-01-27 15:23:12.266659,0.006404389039865682
2023-01-27 15:23:12.271659,0.011178851127624512
2023-01-27 15:23:12.276659,0.01593401535495724
2023-01-27 15:23:12.281659,0.02072294615209095
2023-01-27 15:23:12.286659,0.025320932877684905
2023-01-27 15:23:12.291659,0.029786229133605877
2023-01-27 15:23:12.296659,0.034790505375043815
2023-01-27 15:23:12.301659,0.040941040962934404
2023-01-27 15:23:12.306659,0.0482825620127773
2023-01-27 15:23:12.311659,0.05680779740214336
2023-01-27 15:23:12.316659,0.06681703210259698
2023-01-27 15:23:12.321659,0.07832407951354975
2023-01-27 15:23:12.326659,0.09069192863541199
2023-01-27 15:23:12.331659,0.10330220311880114
2023-01-27 15:23:12.336659,0.11604698702290854
2023-01-27 15:23:12.341659,0.1287851780652999
2023-01-27 15:23:12.346659,0.14091634589147933
2023-01-27 15:23:12.351659,0.15191218256950367
2023-01-27 15:23:12.356659,0.16170354936282982
2023-01-27 15:23:12.361659,0.17015895247459403
2023-01-27 15:23:12.366659,0.17677619066432923
2023-01-27 15:23:12.371659,0.18128971755504597
2023-01-27 15:23:12.376659,0.18398164358435803
2023-01-27 15:23:12.381659,0.18494388461112968
2023-01-27 15:23:12.386659,0.1835354954710259
2023-01-27 15:23:12.391659,0.17890970408916468
2023-01-27 15:23:12.396659,0.17053257672725491
2023-01-27 15:23:12.401659,0.15792231261730183
2023-01-27 15:23:12.406659,0.14063529968193567
2023-01-27 15:23:12.411659,0.11907279491424555
2023-01-27 15:23:12.416659,0.09484289402855438
2023-01-27 15:23:12.421659,0.06993393599987031
2023-01-27 15:23:12.426659,0.045935232500687206
2023-01-27 15:23:12.431659,0.0241847839206457
2023-01-27 15:23:12.436659,0.005862134773692673
2023-01-27 15:23:12.441659,-0.008606513962149575
2023-01-27 15:23:12.446659,-0.01973541969161335
2023-01-27 15:23:12.451659,-0.028175514191388973
2023-01-27 15:23:12.456659,-0.034165068294609066
2023-01-27 15:23:12.461659,-0.03798405453562728
2023-01-27 15:23:12.466659,-0.040283792578278264
2023-01-27 15:23:12.471659,-0.04156609624624252
2023-01-27 15:23:12.476659,-0.041873468597897784
2023-01-27 15:23:12.481659,-0.04132568836212148
2023-01-27 15:23:12.486659,-0.0404017104527816
2023-01-27 15:23:12.491659,-0.039354365319013526
2023-01-27 15:23:12.496659,-0.03790277239443551
2023-01-27 15:23:12.501659,-0.03584444522857658
2023-01-27 15:23:12.506659,-0.033443250828421436
2023-01-27 15:23:12.511659,-0.03091613575816148
2023-01-27 15:23:12.516659,-0.0281049159625913
2023-01-27 15:23:12.521659,-0.024978121742606142
2023-01-27 15:23:12.526659,-0.021904459488859277
2023-01-27 15:23:12.531659,-0.01911222934722903
2023-01-27 15:23:12.536659,-0.016425428123775853
2023-01-27 15:23:12.541659,-0.01384735107421866
2023-01-27 15:23:12.546659,-0.011861877672735431
2023-01-27 15:23:12.551659,-0.010842284187674531
2023-01-27 15:23:12.556659,-0.010673012375068486
2023-01-27 15:23:12.561659,-0.011202892288565606
2023-01-27 15:23:12.566659,-0.012467444516791222
2023-01-27 15:23:12.571659,-0.014111797325312977
2023-01-27 15:23:12.576659,-0.015114304625709129
2023-01-27 15:23:12.581659,-0.014424324035644476
2023-01-27 15:23:12.586659,-0.011478145098028598
2023-01-27 15:23:12.591659,-0.0060101351700722954
2023-01-27 15:23:12.596659,0.0018874487647894918
2023-01-27 15:23:12.601659,0.011082689277827669
2023-01-27 15:23:12.606659,0.01930948358297369
2023-01-27 15:23:12.611659,0.024208825081586838
2023-01-27 15:23:12.616659,0.024280146659697455
2023-01-27 15:23:12.621659,0.018943946808576473
2023-01-27 15:23:12.626659,0.008536423832078881
2023-01-27 15:23:12.631659,-0.005336999893188396
2023-01-27 15:23:12.636659,-0.02006559318382212
2023-01-27 15:23:12.641659,-0.0332240276038646
2023-01-27 15:23:12.646659,-0.04340286606220121
2023-01-27 15:23:12.651659,-0.0500043258070945
2023-01-27 15:23:12.656659,-0.05300267793962959
2023-01-27 15:23:12.661659,-0.05322575569152825
2023-01-27 15:23:12.666659,-0.0522268987970448
2023-01-27 15:23:12.671659,-0.051374636590480756
2023-01-27 15:23:12.676659,-0.05127725306287728
2023-01-27 15:23:12.681659,-0.05202373117208478
2023-01-27 15:23:12.686659,-0.0531472054266354
2023-01-27 15:23:12.691659,-0.052841108292341184
2023-01-27 15:23:12.696659,-0.047651294443925296
2023-01-27 15:23:12.701659,-0.03344039246439928
2023-01-27 15:23:12.706659,-0.0068135104249907735
2023-01-27 15:23:12.711659,0.03360867500305171
2023-01-27 15:23:12.716659,0.08564612062963867
2023-01-27 15:23:12.721659,0.1421997994184494
2023-01-27 15:23:12.726659,0.1919605041598024
2023-01-27 15:23:12.731659,0.22287985682487468
2023-01-27 15:23:12.736659,0.2265051973890312
2023-01-27 15:23:12.741659,0.20090679824352256
2023-01-27 15:23:12.746659,0.15151526563961845
2023-01-27 15:23:12.751659,0.08986353874206539
2023-01-27 15:23:12.756659,0.03008069174705478
2023-01-27 15:23:12.761659,-0.015962919220328265
2023-01-27 15:23:12.766659,-0.04249421834002348
2023-01-27 15:23:12.771659,-0.0507255420088767
2023-01-27 15:23:12.776659,-0.046745100556630156
2023-01-27 15:23:12.781659,-0.037743650376796674
2023-01-27 15:23:12.786659,-0.028586813901261728
2023-01-27 15:23:12.791659,-0.02079506777226917
2023-01-27 15:23:12.796659,-0.014220725210730834
2023-01-27 15:23:12.801659,-0.008991162292659179
2023-01-27 15:23:12.806659,-0.005394877820779962
2023-01-27 15:23:12.811659,-0.0027406215667723707
2023-01-27 15:23:12.816659,0.0002940011273453725
2023-01-27 15:23:12.821659,0.004134973045438538
2023-01-27 15:23:12.826659,0.008126331668396203
2023-01-27 15:23:12.831659,0.011924108490347777
2023-01-27 15:23:12.836659,0.016070897389720718
2023-01-27 15:23:12.841659,0.021011432632803917
2023-01-27 15:23:12.846659,0.026538470056650183
2023-01-27 15:23:12.851659,0.03255089372396458
2023-01-27 15:23:12.856659,0.039469343860468076
2023-01-27 15:23:12.861659,0.04748006910085666
2023-01-27 15:23:12.866659,0.056114903852796105
2023-01-27 15:23:12.871659,0.06498157978057859
2023-01-27 15:23:12.876659,0.07425458286074113
2023-01-27 15:23:12.881659,0.08411785215139374
2023-01-27 15:23:12.886659,0.09439771794113198
2023-01-27 15:23:12.891659,0.10508120059967041
2023-01-27 15:23:12.896659,0.11651232841105885
2023-01-27 15:23:12.901659,0.12866497039794916
2023-01-27 15:23:12.906659,0.14078103386090102
2023-01-27 15:23:12.911659,0.15205642580986015
2023-01-27 15:23:12.916659,0.1621403301837391
2023-01-27 15:23:12.921659,0.17071187496185294
2023-01-27 15:23:12.926659,0.1772151749243794
2023-01-27 15:23:12.931659,0.18136183917522425
2023-01-27 15:23:12.936659,0.18330871070173835
2023-01-27 15:23:12.941659,0.1829725503921508
2023-01-27 15:23:12.946659,0.17966490946921987
2023-01-27 15:23:12.951659,0.17268320918083183
2023-01-27 15:23:12.956659,0.1617620468782937
2023-01-27 15:23:12.961659,0.14676749706268308
2023-01-27 15:23:12.966659,0.12764719935933724
2023-01-27 15:23:12.971659,0.1051052436232566
2023-01-27 15:23:12.976659,0.08083603968016086
2023-01-27 15:23:12.981659,0.05673567578196518
2023-01-27 15:23:12.986659,0.034237346871043746
2023-01-27 15:23:12.991659,0.014472405426204185
2023-01-27 15:23:12.996659,-0.0016647131170462897
2023-01-27 15:23:13.001659,-0.014039675705134765
2023-01-27 15:23:13.006659,-0.023374612976669634
2023-01-27 15:23:13.011659,-0.030459364876151
2023-01-27 15:23:13.016659,-0.035615036930059664
2023-01-27 15:23:13.021659,-0.03904183954000469
2023-01-27 15:23:13.026659,-0.04108034838996788
2023-01-27 15:23:13.031659,-0.04183053970336915
2023-01-27 15:23:13.036659,-0.04104872056460168
2023-01-27 15:23:13.041659,-0.03875335305929174
2023-01-27 15:23:13.046659,-0.035503789585383
2023-01-27 15:23:13.051659,-0.031853716820478425
2023-01-27 15:23:13.056659,-0.02800231546156949
2023-01-27 15:23:13.061659,-0.024184783920645703
2023-01-27 15:23:13.066659,-0.020860289249948327
2023-01-27 15:23:13.071659,-0.018222730606794316
2023-01-27 15:23:13.076659,-0.015992335376460717
2023-01-27 15:23:13.081659,-0.013943513855338012
2023-01-27 15:23:13.086659,-0.012189088115930308
2023-01-27 15:23:13.091659,-0.01074612140655511
2023-01-27 15:23:13.096659,-0.009340594121804935
2023-01-27 15:23:13.101659,-0.007909337989985877
2023-01-27 15:23:13.106659,-0.006835505513972327
2023-01-27 15:23:13.111659,-0.006442864891141629
2023-01-27 15:23:13.116659,-0.006679805040944378
2023-01-27 15:23:13.121659,-0.007452567573636699
2023-01-27 15:23:13.126659,-0.008716188407912962
2023-01-27 15:23:13.131659,-0.009952783584594616
2023-01-27 15:23:13.136659,-0.010034888008192282
2023-01-27 15:23:13.141659,-0.007933378219604359
2023-01-27 15:23:13.146659,-0.003299115550803942
2023-01-27 15:23:13.151659,0.0036301217041908745
2023-01-27 15:23:13.156659,0.012038553719181257
2023-01-27 15:23:13.161659,0.020170014351606303
2023-01-27 15:23:13.166659,0.025549259847051642
2023-01-27 15:23:13.171659,0.02610802650451663
2023-01-27 15:23:13.176659,0.021076745821991975
2023-01-27 15:23:13.181659,0.010938446037471218
2023-01-27 15:23:13.186659,-0.0028533618061065812
2023-01-27 15:23:13.191659,-0.017958283424377375
2023-01-27 15:23:13.196659,-0.031691691188169335
2023-01-27 15:23:13.201659,-0.042143069207668256
2023-01-27 15:23:13.206659,-0.048781209776577315
2023-01-27 15:23:13.211659,-0.05204777047038065
2023-01-27 15:23:13.216659,-0.052825190834364995
2023-01-27 15:23:13.221659,-0.052336256951093646
2023-01-27 15:23:13.226659,-0.05187238381162529
2023-01-27 15:23:13.231659,-0.05211989209055893
2023-01-27 15:23:13.236659,-0.05286781210351634
2023-01-27 15:23:13.241659,-0.05332192033529277
2023-01-27 15:23:13.246659,-0.05215281154252657
2023-01-27 15:23:13.251659,-0.047023296356201075
2023-01-27 15:23:13.256659,-0.03461171783585532
2023-01-27 15:23:13.261659,-0.01173178385943168
2023-01-27 15:23:13.266659,0.023112927792721782
2023-01-27 15:23:13.271659,0.06839533895254124
2023-01-27 15:23:13.276659,0.11858340304101564
2023-01-27 15:23:13.281659,0.16422092914581282
2023-01-27 15:23:13.286659,0.19418131307395917
2023-01-27 15:23:13.291659,0.19968073070049275
2023-01-27 15:23:13.296659,0.17784680256431928
2023-01-27 15:23:13.301659,0.1330163180828094
2023-01-27 15:23:13.306659,0.07553851063103026
2023-01-27 15:23:13.311659,0.018583338707685425
2023-01-27 15:23:13.316659,-0.026211077068415425
2023-01-27 15:23:13.321659,-0.052456460893154054
2023-01-27 15:23:13.326659,-0.060149074280054435
2023-01-27 15:23:13.331659,-0.05406717583537091
2023-01-27 15:23:13.336659,-0.04101011224909984
2023-01-27 15:23:13.341659,-0.027237933129072047
2023-01-27 15:23:13.346659,-0.016642830959957118
2023-01-27 15:23:13.351659,-0.010193189606070414
2023-01-27 15:23:13.356659,-0.006853734119627579
2023-01-27 15:23:13.361659,-0.004952351562678714
2023-01-27 15:23:13.366659,-0.0028686724512642075
2023-01-27 15:23:13.371659,0.0006010135402903055
2023-01-27 15:23:13.376659,0.005564115151289049
2023-01-27 15:23:13.381659,0.010914405807852696
2023-01-27 15:23:13.386659,0.01562062076594365
2023-01-27 15:23:13.391659,0.019953649491071715
2023-01-27 15:23:13.396659,0.024819263722469884
2023-01-27 15:23:13.401659,0.030315121635794653
2023-01-27 15:23:13.406659,0.03593973455734173
2023-01-27 15:23:13.411659,0.0419747829437255
2023-01-27 15:23:13.416659,0.04946941974286682
2023-01-27 15:23:13.421659,0.05875508114695536
2023-01-27 15:23:13.426659,0.06901755026802552
2023-01-27 15:23:13.431659,0.07952611148357389
2023-01-27 15:23:13.436659,0.0903154122044671
2023-01-27 15:23:13.441659,0.10142704099416724
2023-01-27 15:23:13.446659,0.11246793180550337
2023-01-27 15:23:13.451659,0.12330393493175501
2023-01-27 15:23:13.456659,0.13432751575766785
2023-01-27 15:23:13.461659,0.14558951556682578
2023-01-27 15:23:13.466659,0.15635890744852465
2023-01-27 15:23:13.471659,0.1659037768840788
2023-01-27 15:23:13.476659,0.17404316478779525
2023-01-27 15:23:13.481659,0.1806165874004363
2023-01-27 15:23:13.486659,0.18511208929410172
2023-01-27 15:23:13.491659,0.18717965483665458
2023-01-27 15:23:13.496659,0.18684385676176718
2023-01-27 15:23:13.501659,0.1838139742612838
2023-01-27 15:23:13.506659,0.17718365874161987
2023-01-27 15:23:13.511659,0.1662162989377975
2023-01-27 15:23:13.516659,0.15096632858209685
2023-01-27 15:23:13.521659,0.1319344937801361
2023-01-27 15:23:13.526659,0.10977858248800934
2023-01-27 15:23:13.531659,0.0857045277953147
2023-01-27 15:23:13.536659,0.061510673717943005
2023-01-27 15:23:13.541659,0.038777392357587814
2023-01-27 15:23:13.546659,0.01836511452101606
2023-01-27 15:23:13.551659,0.000841418921481818
2023-01-27 15:23:13.556659,-0.013245928133730999
2023-01-27 15:23:13.561659,-0.023848216980695686
2023-01-27 15:23:13.566659,-0.03160064285449458
2023-01-27 15:23:13.571659,-0.03716667741537092
2023-01-27 15:23:13.576659,-0.04082597839041839
2023-01-27 15:23:13.581659,-0.04288832470774653
2023-01-27 15:23:13.586659,-0.04389808678297426
2023-01-27 15:23:13.591659,-0.044090352952480316
2023-01-27 15:23:13.596659,-0.043157402599367796
2023-01-27 15:23:13.601659,-0.04086891934275613
2023-01-27 15:23:13.606659,-0.037465800614388076
2023-01-27 15:23:13.611659,-0.03322402760386461
2023-01-27 15:23:13.616659,-0.028190666002929778
2023-01-27 15:23:13.621659,-0.02264618873596193
2023-01-27 15:23:13.626659,-0.017289471167723607
2023-01-27 15:23:13.631659,-0.012621283531188935
2023-01-27 15:23:13.636659,-0.0085827173962553
2023-01-27 15:23:13.641659,-0.005048513412475557
2023-01-27 15:23:13.646659,-0.0021849766621028313
2023-01-27 15:23:13.651659,-7.212162017821791e-05
2023-01-27 15:23:13.656659,0.0015025713313043761
2023-01-27 15:23:13.661659,0.0025963783264159727
2023-01-27 15:23:13.666659,0.0030000661163868186
2023-01-27 15:23:13.671659,0.0029329459648578505
2023-01-27 15:23:13.676659,0.0034075870629044023
2023-01-27 15:23:13.681659,0.005553364753723064
2023-01-27 15:23:13.686659,0.009855400618000833
2023-01-27 15:23:13.691659,0.016083121299743625
2023-01-27 15:23:13.696659,0.02329253111818889
2023-01-27 15:23:13.701659,0.029569864273071223
2023-01-27 15:23:13.706659,0.03241561966510087
2023-01-27 15:23:13.711659,0.03005067631602276
2023-01-27 15:23:13.716659,0.022353484127819664
2023-01-27 15:23:13.721659,0.010577837936580181
2023-01-27 15:23:13.726659,-0.003322406212839155
2023-01-27 15:23:13.731659,-0.017020702362060443
2023-01-27 15:23:13.736659,-0.028327980923559842
2023-01-27 15:23:13.741659,-0.03610889241099347
2023-01-27 15:23:13.746659,-0.04060553181895442
2023-01-27 15:23:13.751659,-0.04272004216909404
2023-01-27 15:23:13.756659,-0.043321069170236086
2023-01-27 15:23:13.761659,-0.04329701513051979
2023-01-27 15:23:13.766659,-0.043598466362361456
2023-01-27 15:23:13.771659,-0.044715404510498
2023-01-27 15:23:13.776659,-0.04632345486190583
2023-01-27 15:23:13.781659,-0.04752814769744871
2023-01-27 15:23:13.786659,-0.046892472607221854
2023-01-27 15:23:13.791659,-0.041902661323547315
2023-01-27 15:23:13.796659,-0.02898838797543977
2023-01-27 15:23:13.801659,-0.0048802299425005245
2023-01-27 15:23:13.806659,0.0315282747804607
2023-01-27 15:23:13.811659,0.07786731421947463
2023-01-27 15:23:13.816659,0.12770247495992076
2023-01-27 15:23:13.821659,0.17104844748973835
2023-01-27 15:23:13.826659,0.19690263662387103
2023-01-27 15:23:13.831659,0.1973968744277953
2023-01-27 15:23:13.836659,0.17120299581337373
2023-01-27 15:23:13.841659,0.12419342994689941
2023-01-27 15:23:13.846659,0.06747727973466253
2023-01-27 15:23:13.851659,0.013919472694396934
2023-01-27 15:23:13.856659,-0.025949240877402198
2023-01-27 15:23:13.861659,-0.04723966121673574
2023-01-27 15:23:13.866659,-0.05139563415129227
2023-01-27 15:23:13.871659,-0.043994188308715765
2023-01-27 15:23:13.876659,-0.03158952981561728
2023-01-27 15:23:13.881659,-0.019496878609061116
2023-01-27 15:23:13.886659,-0.010730666619415833
2023-01-27 15:23:13.891659,-0.005769729614257739
2023-01-27 15:23:13.896659,-0.0033285071489497255
2023-01-27 15:23:13.901659,-0.0018270810833200043
2023-01-27 15:23:13.906659,-0.0003260254200215987
2023-01-27 15:23:13.911659,0.0016347568016499398
2023-01-27 15:23:13.916659,0.004418599790872984
2023-01-27 15:23:13.921659,0.008197824470698853
2023-01-27 15:23:13.926659,0.012876590809113025
2023-01-27 15:23:13.931659,0.01841505430638792
2023-01-27 15:23:13.936659,0.02496883824325042
2023-01-27 15:23:13.941659,0.032526850700378404
2023-01-27 15:23:13.946659,0.04072472971515964
2023-01-27 15:23:13.951659,0.049210987985134104
2023-01-27 15:23:13.956659,0.05792017686911704
2023-01-27 15:23:13.961659,0.06685674190521242
2023-01-27 15:23:13.966659,0.07595313553118722
2023-01-27 15:23:13.971659,0.08531987667083736
2023-01-27 15:23:13.976659,0.09532230674099693
2023-01-27 15:23:13.981659,0.10621111094951621
2023-01-27 15:23:13.986659,0.11788760477668342
2023-01-27 15:23:13.991659,0.13008336722850788
2023-01-27 15:23:13.996659,0.14244688635778593
2023-01-27 15:23:14.001659,0.1543643176555632
2023-01-27 15:23:14.006659,0.1650331949342904
2023-01-27 15:23:14.011659,0.17386119067668906
2023-01-27 15:23:14.016659,0.1805919222801235
2023-01-27 15:23:14.021659,0.18508812785148615
2023-01-27 15:23:14.026659,0.18732998538999984
2023-01-27 15:23:14.031659,0.1875402629375456
2023-01-27 15:23:14.036659,0.1857873259190854
2023-01-27 15:23:14.041659,0.18136183917522425
2023-01-27 15:23:14.046659,0.1729871449709051
2023-01-27 15:23:14.051659,0.15979747474193567
2023-01-27 15:23:14.056659,0.14184727135003675
2023-01-27 15:23:14.061659,0.11981805413961406
2023-01-27 15:23:14.066659,0.0948675422129198
2023-01-27 15:23:14.071659,0.06887614727020258
2023-01-27 15:23:14.076659,0.04417409822990737
2023-01-27 15:23:14.081659,0.022574067115783605
2023-01-27 15:23:14.086659,0.004823742371429086
2023-01-27 15:23:14.091659,-0.00903924368321889
2023-01-27 15:23:14.096659,-0.019304928788380773
2023-01-27 15:23:14.101659,-0.026660960167646422
2023-01-27 15:23:14.106659,-0.032046797200090536
2023-01-27 15:23:14.111659,-0.03606081008911136
2023-01-27 15:23:14.116659,-0.03875358076552796
2023-01-27 15:23:14.121659,-0.04009962081909173
2023-01-27 15:23:14.126659,-0.04028584119059167
2023-01-27 15:23:14.131659,-0.039426486939191846
2023-01-27 15:23:14.136659,-0.03744948226761825
2023-01-27 15:23:14.141659,-0.034474134445190374
2023-01-27 15:23:14.146659,-0.030929074525875015
2023-01-27 15:23:14.151659,-0.027117729187011733
2023-01-27 15:23:14.156659,-0.023021155248397568
2023-01-27 15:23:14.161659,-0.018679499626159588
2023-01-27 15:23:14.166659,-0.014399123625990795
2023-01-27 15:23:14.171659,-0.01043359469622367
2023-01-27 15:23:14.176659,-0.006838169959051636
2023-01-27 15:23:14.181659,-0.003798405406996591
2023-01-27 15:23:14.186659,-0.0017089957560584943
2023-01-27 15:23:14.191659,-0.0006971756811253679
2023-01-27 15:23:14.196659,-0.0003385708963693285
2023-01-27 15:23:14.201659,4.808108133143207e-05
2023-01-27 15:23:14.206659,0.0011562483945830877
2023-01-27 15:23:14.211659,0.0037984054069966646
2023-01-27 15:23:14.216659,0.00873543756714515
2023-01-27 15:23:14.221659,0.01601099967956539
2023-01-27 15:23:14.226659,0.024581964933183986
2023-01-27 15:23:14.231659,0.03269513696432106
2023-01-27 15:23:14.236659,0.03843661519003936
2023-01-27 15:23:14.241659,0.04005154222249974
2023-01-27 15:23:14.246659,0.03640530067189087
2023-01-27 15:23:14.251659,0.0276225805282592
2023-01-27 15:23:14.256659,0.01517865966486931
2023-01-27 15:23:14.261659,0.001202027080580507
2023-01-27 15:23:14.266659,-0.01226563917913675
2023-01-27 15:23:14.271659,-0.023559730499982737
2023-01-27 15:23:14.276659,-0.03160381149765702
2023-01-27 15:23:14.281659,-0.036229096353053956
2023-01-27 15:23:14.286659,-0.03812763582778013
2023-01-27 15:23:14.291659,-0.03832062333822245
2023-01-27 15:23:14.296659,-0.03775974027541643
2023-01-27 15:23:14.301659,-0.03733495995402324
2023-01-27 15:23:14.306659,-0.03778427276269364
2023-01-27 15:23:14.311659,-0.03923416137695308
2023-01-27 15:23:14.316659,-0.04078590676983191
2023-01-27 15:23:14.321659,-0.0404121503233909
2023-01-27 15:23:14.326659,-0.03499548902168266
2023-01-27 15:23:14.331659,-0.02069890499114992
2023-01-27 15:23:14.336659,0.005766967679791098
2023-01-27 15:23:14.341659,0.04514813423156729
2023-01-27 15:23:14.346659,0.09406784895029631
2023-01-27 15:23:14.351659,0.14486829936504356
2023-01-27 15:23:14.356659,0.18708547911044768
2023-01-27 15:23:14.361659,0.21033069491386405
2023-01-27 15:23:14.366659,0.20790169981010864
2023-01-27 15:23:14.371659,0.17960688471794112
2023-01-27 15:23:14.376659,0.13216197032058696
2023-01-27 15:23:14.381659,0.07685761153697963
2023-01-27 15:23:14.386659,0.025737509381429578
2023-01-27 15:23:14.391659,-0.012092391960322761
2023-01-27 15:23:14.396659,-0.032790598647963784
2023-01-27 15:23:14.401659,-0.03796001523733134
2023-01-27 15:23:14.406659,-0.032736686371096745
2023-01-27 15:23:14.411659,-0.02300679683685294
2023-01-27 15:23:14.416659,-0.01327970404018077
2023-01-27 15:23:14.421659,-0.005841851234435972
2023-01-27 15:23:14.426659,-0.0009353567871227236
2023-01-27 15:23:14.431659,0.002428094623610292
2023-01-27 15:23:14.436659,0.005440926033696167
2023-01-27 15:23:14.441659,0.00884691905230279
2023-01-27 15:23:14.446659,0.01290351832949177
2023-01-27 15:23:14.451659,0.017573636025190312
2023-01-27 15:23:14.456659,0.022621193098408265
2023-01-27 15:23:14.461659,0.027766823768615754
2023-01-27 15:23:14.466659,0.03293421191500509
2023-01-27 15:23:14.471659,0.038248501718044184
2023-01-27 15:23:14.476659,0.04380865092691086
2023-01-27 15:23:14.481659,0.049691796302795445
2023-01-27 15:23:14.486659,0.056143958511437754
2023-01-27 15:23:14.491659,0.06344299018383028
2023-01-27 15:23:14.496659,0.07159443689653015
2023-01-27 15:23:14.501659,0.0805117711424827
2023-01-27 15:23:14.506659,0.09041159296168105
2023-01-27 15:23:14.511659,0.10157128423452373
2023-01-27 15:23:14.516659,0.11377508990813172
2023-01-27 15:23:14.521659,0.12650132179260248
2023-01-27 15:23:14.526659,0.1394872187448254
2023-01-27 15:23:14.531659,0.1524651050567626
2023-01-27 15:23:14.536659,0.16459113276064752
2023-01-27 15:23:14.541659,0.17503917217254628
2023-01-27 15:23:14.546659,0.1839904498930732
2023-01-27 15:23:14.551659,0.19198775291442863
2023-01-27 15:23:14.556659,0.1984754757032692
2023-01-27 15:23:14.561659,0.20220498740673049
2023-01-27 15:23:14.566659,0.20279331503018772
2023-01-27 15:23:14.571659,0.20013749599456776
2023-01-27 15:23:14.576659,0.19246618438606442
2023-01-27 15:23:14.581659,0.17753939330577845
2023-01-27 15:23:14.586659,0.1565533730608324
2023-01-27 15:23:14.591659,0.13424238562583912
2023-01-27 15:23:14.596659,0.11355578505015095
2023-01-27 15:23:14.601659,0.09260416030883775
2023-01-27 15:23:14.606659,0.0689623547586
2023-01-27 15:23:14.611659,0.04476348683238022
2023-01-27 15:23:14.616659,0.024600865213068732
2023-01-27 15:23:14.621659,0.009832581505179414
2023-01-27 15:23:14.626659,-0.0018161253850263108
2023-01-27 15:23:14.631659,-0.011755824089050175
2023-01-27 15:23:14.636659,-0.019008842289559683
2023-01-27 15:23:14.641659,-0.02322316169738759
2023-01-27 15:23:14.646659,-0.026057822671759438
2023-01-27 15:23:14.651659,-0.02875248715281478
2023-01-27 15:23:14.656659,-0.03073760864574326
2023-01-27 15:23:14.661659,-0.03151714801788331
2023-01-27 15:23:14.666659,-0.03183141390600482
2023-01-27 15:23:14.671659,-0.032021999359130755
2023-01-27 15:23:14.676659,-0.03108658594289718
2023-01-27 15:23:14.681659,-0.02836783789098262
2023-01-27 15:23:14.686659,-0.024677405305712094
2023-01-27 15:23:14.691659,-0.02089123055338853
2023-01-27 15:23:14.696659,-0.016858449228270775
2023-01-27 15:23:14.701659,-0.01252512168139207
2023-01-27 15:23:14.706659,-0.008751937169987798
2023-01-27 15:23:14.711659,-0.0061062974855303
2023-01-27 15:23:14.716659,-0.004028432981355896
2023-01-27 15:23:14.721659,-0.002019405364990196
2023-01-27 15:23:14.726659,-0.0005432356072315656
2023-01-27 15:23:14.731659,2.404054066572788e-05
2023-01-27 15:23:14.736659,0.0002767423397969158
2023-01-27 15:23:14.741659,0.0008895000210031393
2023-01-27 15:23:14.746659,0.0019139756743322019
2023-01-27 15:23:14.751659,0.0037022433243690876
2023-01-27 15:23:14.756659,0.007451409707044845
2023-01-27 15:23:14.761659,0.013895432464778397
2023-01-27 15:23:14.766659,0.022149883816384133
2023-01-27 15:23:14.771659,0.03041128441691392
2023-01-27 15:23:14.776659,0.03692504294524614
2023-01-27 15:23:14.781659,0.03978709504008286
2023-01-27 15:23:14.786659,0.03704409822194136
2023-01-27 15:23:14.791659,0.02812743186950675
2023-01-27 15:23:14.796659,0.014696460968420628
2023-01-27 15:23:14.801659,-0.0005288919201119834
2023-01-27 15:23:14.806659,-0.015188291744098461
2023-01-27 15:23:14.811659,-0.02733409404754632
2023-01-27 15:23:14.816659,-0.03537161587144985
2023-01-27 15:23:14.821659,-0.03899375721812243
2023-01-27 15:23:14.826659,-0.03958033562934885
2023-01-27 15:23:14.831659,-0.03894567489624022
2023-01-27 15:23:14.836659,-0.038154196210316425
2023-01-27 15:23:14.841659,-0.0378398112952709
2023-01-27 15:23:14.846659,-0.03861462156348909
2023-01-27 15:23:14.851659,-0.04024386405944814
2023-01-27 15:23:14.856659,-0.040914183076138394
2023-01-27 15:23:14.861659,-0.037839811295270906
2023-01-27 15:23:14.866659,-0.028008476876517356
2023-01-27 15:23:14.871659,-0.008149743080139127
2023-01-27 15:23:14.876659,0.02454844280056594
2023-01-27 15:23:14.881659,0.07003009319305409
2023-01-27 15:23:14.886659,0.12336699928316223
2023-01-27 15:23:14.891659,0.17532765865325922
2023-01-27 15:23:14.896659,0.21482112673152354
2023-01-27 15:23:14.901659,0.23175081610679626
2023-01-27 15:23:14.906659,0.22028240752654596
2023-01-27 15:23:14.911659,0.18193881213665003
2023-01-27 15:23:14.916659,0.12596237473927938
2023-01-27 15:23:14.921659,0.06572683900594709
2023-01-27 15:23:14.926659,0.013708962344774665
2023-01-27 15:23:14.931659,-0.021900933235883702
2023-01-27 15:23:14.936659,-0.03856324226236101
2023-01-27 15:23:14.941659,-0.03933032602071761
2023-01-27 15:23:14.946659,-0.0308577420326428
2023-01-27 15:23:14.951659,-0.019809406250715218
2023-01-27 15:23:14.956659,-0.010208131134860233
2023-01-27 15:23:14.961659,-0.003437797306105392
2023-01-27 15:23:14.966659,0.0005671708235930666
2023-01-27 15:23:14.971659,0.0027887027245014078
2023-01-27 15:23:14.976659,0.0047387118571896964
2023-01-27 15:23:14.981659,0.007428526878356905
2023-01-27 15:23:14.986659,0.010822542243059844
2023-01-27 15:23:14.991659,0.01464068889617911
2023-01-27 15:23:14.996659,0.019108177159454304
2023-01-27 15:23:15.001659,0.024449229240417432
2023-01-27 15:23:15.006659,0.030327106961633394
2023-01-27 15:23:15.011659,0.036421418190002476
2023-01-27 15:23:15.016659,0.04301481241537279
2023-01-27 15:23:15.021659,0.05043705552816391
2023-01-27 15:23:15.026659,0.05848006663961186
2023-01-27 15:23:15.031659,0.06692886352539061
2023-01-27 15:23:15.036659,0.07611721824599041
2023-01-27 15:23:15.041659,0.08637766540050501
2023-01-27 15:23:15.046659,0.09746530281574181
2023-01-27 15:23:15.051659,0.10907193273305893
2023-01-27 15:23:15.056659,0.12135043439163916
2023-01-27 15:23:15.061659,0.13433854281902302
2023-01-27 15:23:15.066659,0.14738088566262297
2023-01-27 15:23:15.071659,0.15970131754875178
2023-01-27 15:23:15.076659,0.1710615358073939
2023-01-27 15:23:15.081659,0.18133780360221852
2023-01-27 15:23:15.086659,0.1900106948506847
2023-01-27 15:23:15.091659,0.19665162265300745
2023-01-27 15:23:15.096659,0.20135071921930497
2023-01-27 15:23:15.101659,0.20400802791118616
2023-01-27 15:23:15.106659,0.20365358761217922
2023-01-27 15:23:15.111659,0.19905567169189448
2023-01-27 15:23:15.116659,0.18958219918118463
2023-01-27 15:23:15.121659,0.17503917217254622
2023-01-27 15:23:15.126659,0.1553761258248947
2023-01-27 15:23:15.131659,0.13133347034454335
2023-01-27 15:23:15.136659,0.10493221938198216
2023-01-27 15:23:15.141659,0.078588530421257
2023-01-27 15:23:15.146659,0.053996200242360334
2023-01-27 15:23:15.151659,0.0322383642196655
2023-01-27 15:23:15.156659,0.014259293714780285
2023-01-27 15:23:15.161659,0.00038464865065172187
2023-01-27 15:23:15.166659,-0.010180456864820598
2023-01-27 15:23:15.171659,-0.018535256385803157
2023-01-27 15:23:15.176659,-0.024997099084988556
2023-01-27 15:23:15.181659,-0.029425621032714785
2023-01-27 15:23:15.186659,-0.03220330873738874
2023-01-27 15:23:15.191659,-0.034089487046003265
2023-01-27 15:23:15.196659,-0.03532169136773972
2023-01-27 15:23:15.201659,-0.035604041069745976
2023-01-27 15:23:15.206659,-0.03488424001251836
2023-01-27 15:23:15.211659,-0.03353655338287351
2023-01-27 15:23:15.216659,-0.031877616349294154
2023-01-27 15:23:15.221659,-0.030026635155081683
2023-01-27 15:23:15.226659,-0.028124491746922796
2023-01-27 15:23:15.231659,-0.02620418928563589
2023-01-27 15:23:15.236659,-0.023945156006861253
2023-01-27 15:23:15.241659,-0.020963352173566752
2023-01-27 15:23:15.246659,-0.01724136341145144
2023-01-27 15:23:15.251659,-0.01300593279302119
2023-01-27 15:23:15.256659,-0.008467117126235052
2023-01-27 15:23:15.261659,-0.004038810729980369
2023-01-27 15:23:15.266659,-0.0005124498481275334
2023-01-27 15:23:15.271659,0.0014424324035643772
2023-01-27 15:23:15.276659,0.0018146038194677913
2023-01-27 15:23:15.281659,0.00108182430267329
2023-01-27 15:23:15.286659,-0.00011373470401752191
2023-01-27 15:23:15.291659,-0.0007933378219603983
2023-01-27 15:23:15.296659,0.00039924979106370506
2023-01-27 15:23:15.301659,0.0044715404510498186
2023-01-27 15:23:15.306659,0.011358269851919772
2023-01-27 15:23:15.311659,0.02004981040954582
2023-01-27 15:23:15.316659,0.029021454640624743
2023-01-27 15:23:15.321659,0.036277174949645906
2023-01-27 15:23:15.326659,0.03959545330220153
2023-01-27 15:23:15.331659,0.03750324249267577
2023-01-27 15:23:15.336659,0.030056730455894076
2023-01-27 15:23:15.341659,0.018535256385803195
2023-01-27 15:23:15.346659,0.0047352575431524
2023-01-27 15:23:15.351659,-0.009255608543753577
2023-01-27 15:23:15.356659,-0.02129947610663507
2023-01-27 15:23:15.361659,-0.03002663515508172
2023-01-27 15:23:15.366659,-0.035397096060378525
2023-01-27 15:23:15.371659,-0.03820041939616197
2023-01-27 15:23:15.376659,-0.03927958088348347
2023-01-27 15:23:15.381659,-0.03945052623748766
2023-01-27 15:23:15.386659,-0.03961714062081685
2023-01-27 15:23:15.391659,-0.04034002870321262
2023-01-27 15:23:15.396659,-0.04139652287843518
2023-01-27 15:23:15.401659,-0.04192670434713357
2023-01-27 15:23:15.406659,-0.04046908037747715
2023-01-27 15:23:15.411659,-0.034353934228420174
2023-01-27 15:23:15.416659,-0.01955822735717327
2023-01-27 15:23:15.421659,0.00783721636980771
2023-01-27 15:23:15.426659,0.049310895870408926
2023-01-27 15:23:15.431659,0.1021723002195358
2023-01-27 15:23:15.436659,0.15897999858486303
2023-01-27 15:23:15.441659,0.2083593606948852
2023-01-27 15:23:15.446659,0.23794753358245593
2023-01-27 15:23:15.451659,0.23905913531780235
2023-01-27 15:23:15.456659,0.2105021211790766
2023-01-27 15:23:15.461659,0.15912434458732597
2023-01-27 15:23:15.466659,0.0972295805887467
2023-01-27 15:23:15.471659,0.03853698819875712
2023-01-27 15:23:15.476659,-0.006054411388055385
2023-01-27 15:23:15.481659,-0.03168543428182599
2023-01-27 15:23:15.486659,-0.04006842968651992
2023-01-27 15:23:15.491659,-0.03697435185313218
2023-01-27 15:23:15.496659,-0.028760766567228188
2023-01-27 15:23:15.501659,-0.020218094810843277
2023-01-27 15:23:15.506659,-0.013897329471343065
2023-01-27 15:23:15.511659,-0.010097026824951049
2023-01-27 15:23:15.516659,-0.0075440167599689165
2023-01-27 15:23:15.521659,-0.004808108322322288
2023-01-27 15:23:15.526659,-0.001319702450499752
2023-01-27 15:23:15.531659,0.0028608243446797106
2023-01-27 15:23:15.536659,0.0076536286565597935
2023-01-27 15:23:15.541659,0.012909770011901805
2023-01-27 15:23:15.546659,0.01821327621649555
2023-01-27 15:23:15.551659,0.023295283317566
2023-01-27 15:23:15.556659,0.02842603618542146
2023-01-27 15:23:15.561659,0.0340173654258251
2023-01-27 15:23:15.566659,0.040122735993686896
2023-01-27 15:23:15.571659,0.04668673127889635
2023-01-27 15:23:15.576659,0.053942009938123245
2023-01-27 15:23:15.581659,0.06214479729533191
2023-01-27 15:23:15.586659,0.07123089891766324
2023-01-27 15:23:15.591659,0.08113682270050042
2023-01-27 15:23:15.596659,0.09213271067075682
2023-01-27 15:23:15.601659,0.10438402742147436
2023-01-27 15:23:15.606659,0.11742645014249847
2023-01-27 15:23:15.611659,0.13044397532939905
2023-01-27 15:23:15.616659,0.14279244032576704
2023-01-27 15:23:15.621659,0.15393158793449396
2023-01-27 15:23:15.626659,0.1632494652762579
2023-01-27 15:23:15.631659,0.17044743895530695
2023-01-27 15:23:15.636659,0.17583260713778376
2023-01-27 15:23:15.641659,0.1797751635313034
2023-01-27 15:23:15.646659,0.18205321915795658
2023-01-27 15:23:15.651659,0.18201093375682825
2023-01-27 15:23:15.656659,0.1790079102544646
2023-01-27 15:23:15.661659,0.17234663665294636
2023-01-27 15:23:15.666659,0.16117746343579017
2023-01-27 15:23:15.671659,0.14506062865257247
2023-01-27 15:23:15.676659,0.12450796821466646
2023-01-27 15:23:15.681659,0.10068178176879874
2023-01-27 15:23:15.686659,0.07487606518037497
2023-01-27 15:23:15.691659,0.048634015023708246
2023-01-27 15:23:15.696659,0.023929840803718586
2023-01-27 15:23:15.701659,0.0025963783264159206
2023-01-27 15:23:15.706659,-0.014383394254326987
2023-01-27 15:23:15.711659,-0.026805203408002756
2023-01-27 15:23:15.716659,-0.03487979076718274
2023-01-27 15:23:15.721659,-0.039378404617309515
2023-01-27 15:23:15.726659,-0.04173697057811928
2023-01-27 15:23:15.731659,-0.04334509372711176
2023-01-27 15:23:15.736659,-0.04474941440527571
2023-01-27 15:23:15.741659,-0.04584531113505359
2023-01-27 15:23:15.746659,-0.04655222939560315
2023-01-27 15:23:15.751659,-0.046855013817548696
2023-01-27 15:23:15.756659,-0.04646549730553043
2023-01-27 15:23:15.761659,-0.045027934014797155
2023-01-27 15:23:15.766659,-0.0426086682761643
2023-01-27 15:23:15.771659,-0.03959476947784419
2023-01-27 15:23:15.776659,-0.036218208804335766
2023-01-27 15:23:15.781659,-0.03252685070037839
2023-01-27 15:23:15.786659,-0.028671484184748207
2023-01-27 15:23:15.791659,-0.024857919663190765
2023-01-27 15:23:15.796659,-0.021145922837581443
2023-01-27 15:23:15.801659,-0.017621716484427365
2023-01-27 15:23:15.806659,-0.014625492266754093
2023-01-27 15:23:15.811659,-0.012501081451773595
2023-01-27 15:23:15.816659,-0.011267358875367202
2023-01-27 15:23:15.821659,-0.010794202797114773
2023-01-27 15:23:15.826659,-0.011072641123412864
2023-01-27 15:23:15.831659,-0.011972188949584961
2023-01-27 15:23:15.836659,-0.012893539637518003
2023-01-27 15:23:15.841659,-0.012957851402461524
2023-01-27 15:23:15.846659,-0.011409003186982215
2023-01-27 15:23:15.851659,-0.007692973129451206
2023-01-27 15:23:15.856659,-0.0015633906390761065
2023-01-27 15:23:15.861659,0.006394783966243178
2023-01-27 15:23:15.866659,0.01445439815442099
2023-01-27 15:23:15.871659,0.0203142575919628
2023-01-27 15:23:15.876659,0.02202680199531691
2023-01-27 15:23:15.881659,0.018487175926566103
2023-01-27 15:23:15.886659,0.009647706067524823
2023-01-27 15:23:15.891659,-0.0031973919831215446
2023-01-27 15:23:15.896659,-0.017567952734321504
2023-01-27 15:23:15.901659,-0.030795931816101015
2023-01-27 15:23:15.906659,-0.04107970667781631
2023-01-27 15:23:15.911659,-0.0477204732596874
2023-01-27 15:23:15.916659,-0.050879453086689445
2023-01-27 15:23:15.921659,-0.05149483680725088
2023-01-27 15:23:15.926659,-0.05106700426294932
2023-01-27 15:23:15.931659,-0.050941906869411364
2023-01-27 15:23:15.936659,-0.051717724483118295
2023-01-27 15:23:15.941659,-0.053369998931884724
2023-01-27 15:23:15.946659,-0.05549496709083773
2023-01-27 15:23:15.951659,-0.05695204064249991
2023-01-27 15:23:15.956659,-0.05540401792548298
2023-01-27 15:23:15.961659,-0.04757623001933093
2023-01-27 15:23:15.966659,-0.03009104167644144
2023-01-27 15:23:15.971659,-0.0004808108205906857
2023-01-27 15:23:15.976659,0.04136445412802016
2023-01-27 15:23:15.981659,0.0914742574095726
2023-01-27 15:23:15.986659,0.1412945037064458
2023-01-27 15:23:15.991659,0.17965495586395258
2023-01-27 15:23:15.996659,0.19644669152285985
2023-01-27 15:23:16.001659,0.1861459016799925
2023-01-27 15:23:16.006659,0.14999147714139058
2023-01-27 15:23:16.011659,0.09618620574474329
2023-01-27 15:23:16.016659,0.03749702089247088
2023-01-27 15:23:16.021659,-0.013270378112792903
2023-01-27 15:23:16.026659,-0.047603651027630006
2023-01-27 15:23:16.031659,-0.0631304606795309
2023-01-27 15:23:16.036659,-0.06281435458872857
2023-01-27 15:23:16.041659,-0.052768986672162954
2023-01-27 15:23:16.046659,-0.03962855861442682
2023-01-27 15:23:16.051659,-0.02815147303044786
2023-01-27 15:23:16.056659,-0.020134084965053558
2023-01-27 15:23:16.061659,-0.015121500007808151
2023-01-27 15:23:16.066659,-0.01183993165338424
2023-01-27 15:23:16.071659,-0.00901520252227775
2023-01-27 15:23:16.076659,-0.005597737917602444
2023-01-27 15:23:16.081659,-0.0010337432613595373
2023-01-27 15:23:16.086659,0.004577569572969082
2023-01-27 15:23:16.091659,0.010842284187674528
2023-01-27 15:23:16.096659,0.017480414856213423
2023-01-27 15:23:16.101659,0.024208825081586893
2023-01-27 15:23:16.106659,0.03053903350254846
2023-01-27 15:23:16.111659,0.036108892410993534
2023-01-27 15:23:16.116659,0.04112153618735674
2023-01-27 15:23:16.121659,0.046205919235944706
2023-01-27 15:23:16.126659,0.05200964787640626
2023-01-27 15:23:16.131659,0.0591397285461425
2023-01-27 15:23:16.136659,0.06818653761899858
2023-01-27 15:23:16.141659,0.07935782521963108
2023-01-27 15:23:16.146659,0.09214874313197315
2023-01-27 15:23:16.151659,0.10563413798809046
2023-01-27 15:23:16.156659,0.11898474625191847
2023-01-27 15:23:16.161659,0.13154983520507807
2023-01-27 15:23:16.166659,0.14276143834095337
2023-01-27 15:23:16.171659,0.1523689478635787
2023-01-27 15:23:16.176659,0.1606492082986456
2023-01-27 15:23:16.181659,0.16804337501525868
2023-01-27 15:23:16.186659,0.17460093787600828
2023-01-27 15:23:16.191659,0.1798953711986541
2023-01-27 15:23:16.196659,0.18322304518458216
2023-01-27 15:23:16.201659,0.18359760940074912
2023-01-27 15:23:16.206659,0.17979273558100903
2023-01-27 15:23:16.211659,0.17085611820220936
2023-01-27 15:23:16.216659,0.15668401349969088
2023-01-27 15:23:16.221659,0.1380167454481124
2023-01-27 15:23:16.226659,0.11605401301680897
2023-01-27 15:23:16.231659,0.09224355220794668
2023-01-27 15:23:16.236659,0.06815898599962658
2023-01-27 15:23:16.241659,0.045148134231567286
2023-01-27 15:23:16.246659,0.024032978015359897
2023-01-27 15:23:16.251659,0.005264878273010192
2023-01-27 15:23:16.256659,-0.010757166828737372
2023-01-27 15:23:16.261659,-0.023703973740339192
2023-01-27 15:23:16.266659,-0.03352796092551432
2023-01-27 15:23:16.271659,-0.0404602289199829
2023-01-27 15:23:16.276659,-0.04486446700175227
2023-01-27 15:23:16.281659,-0.04721562191843971
2023-01-27 15:23:16.286659,-0.04809745057661856
2023-01-27 15:23:16.291659,-0.04803299903869619
2023-01-27 15:23:16.296659,-0.0473119784729575
2023-01-27 15:23:16.301659,-0.046013593673705985
2023-01-27 15:23:16.306659,-0.044135061270947545
2023-01-27 15:23:16.311659,-0.04171033948659887
2023-01-27 15:23:16.316659,-0.03889425525992648
2023-01-27 15:23:16.321659,-0.03586848825216289
2023-01-27 15:23:16.326659,-0.0325692827430036
2023-01-27 15:23:16.331659,-0.028704404830932558
2023-01-27 15:23:16.336659,-0.02426714285848204
2023-01-27 15:23:16.341659,-0.019785365089774083
2023-01-27 15:23:16.346659,-0.015692852914026643
2023-01-27 15:23:16.351659,-0.011731783859431695
2023-01-27 15:23:16.356659,-0.007554635410232246
2023-01-27 15:23:16.361659,-0.003726283786818205
2023-01-27 15:23:16.366659,-0.001340911600643532
2023-01-27 15:23:16.371659,-0.0005288919201120071
2023-01-27 15:23:16.376659,9.045634437162183e-08
2023-01-27 15:23:16.381659,0.001779000042006307
2023-01-27 15:23:16.386659,0.005538699262149576
2023-01-27 15:23:16.391659,0.01132309436798086
2023-01-27 15:23:16.396659,0.018635299586761078
2023-01-27 15:23:16.401659,0.025915702804923
2023-01-27 15:23:16.406659,0.03057955831836717
2023-01-27 15:23:16.411659,0.030363202095031717
2023-01-27 15:23:16.416659,0.024584971647032806
2023-01-27 15:23:16.421659,0.014039675705134855
2023-01-27 15:23:16.426659,0.000317096318846031
2023-01-27 15:23:16.431659,-0.01440028380602584
2023-01-27 15:23:16.436659,-0.027619378678201904
2023-01-27 15:23:16.441659,-0.037527285516261936
2023-01-27 15:23:16.446659,-0.04372986531541601
2023-01-27 15:23:16.451659,-0.04680693149566643
2023-01-27 15:23:16.456659,-0.047531161470742656
2023-01-27 15:23:16.461659,-0.04683097451925266
2023-01-27 15:23:16.466659,-0.045947774108317505
2023-01-27 15:23:16.471659,-0.04591743275523174
2023-01-27 15:23:16.476659,-0.04695020573618706
2023-01-27 15:23:16.481659,-0.04851381108164772
2023-01-27 15:23:16.486659,-0.049506731989832006
2023-01-27 15:23:16.491659,-0.047768555581569554
2023-01-27 15:23:16.496659,-0.039758541705078226
2023-01-27 15:23:16.501659,-0.021564364433288408
2023-01-27 15:23:16.506659,0.00920692324194133
2023-01-27 15:23:16.511659,0.051879487931728335
2023-01-27 15:23:16.516659,0.10183545102650329
2023-01-27 15:23:16.521659,0.1504216641187667
2023-01-27 15:23:16.526659,0.18657107351096253
2023-01-27 15:23:16.531659,0.20049810409545887
2023-01-27 15:23:16.536659,0.1876815244162386
2023-01-27 15:23:16.541659,0.15071015059947962
2023-01-27 15:23:16.546659,0.098355914227793
2023-01-27 15:23:16.551659,0.042768120765686084
2023-01-27 15:23:16.556659,-0.004331040978061925
2023-01-27 15:23:16.561659,-0.03538767620921123
2023-01-27 15:23:16.566659,-0.04888066144794745
2023-01-27 15:23:16.571659,-0.04824936389923085
2023-01-27 15:23:16.576659,-0.03909509944914113
2023-01-27 15:23:16.581659,-0.026757121086120546
2023-01-27 15:23:16.586659,-0.015015975708417704
2023-01-27 15:23:16.591659,-0.005601446144282728
2023-01-27 15:23:16.596659,0.001474258778616047
2023-01-27 15:23:16.601659,0.006779432296752908
2023-01-27 15:23:16.606659,0.010510689761629204
2023-01-27 15:23:16.611659,0.012621283531189006
2023-01-27 15:23:16.616659,0.013445469911279687
2023-01-27 15:23:16.621659,0.013751189224421926
2023-01-27 15:23:16.626659,0.014346458544242787
2023-01-27 15:23:16.631659,0.01596291922032829
2023-01-27 15:23:16.636659,0.019278487318192452
2023-01-27 15:23:16.641659,0.02459347248077397
2023-01-27 15:23:16.646659,0.03155713263931143
2023-01-27 15:23:16.651659,0.03954669088125221
2023-01-27 15:23:16.656659,0.04824606771420098
2023-01-27 15:23:16.661659,0.05764921754598606
2023-01-27 15:23:16.666659,0.06774714419987155
2023-01-27 15:23:16.671659,0.07856448739767072
2023-01-27 15:23:16.676659,0.0903098247760733
2023-01-27 15:23:16.681659,0.10308583825826637
2023-01-27 15:23:16.686659,0.11651735618659677
2023-01-27 15:23:16.691659,0.12993912398815147
2023-01-27 15:23:16.696659,0.14282298605371566
2023-01-27 15:23:16.701659,0.15477299690246576
2023-01-27 15:23:16.706659,0.16531832894789794
2023-01-27 15:23:16.711659,0.17407755553722373
2023-01-27 15:23:16.716659,0.1810124184085968
2023-01-27 15:23:16.721659,0.1861939877271651
2023-01-27 15:23:16.726659,0.18938762459013453
2023-01-27 15:23:16.731659,0.19008855521678916
2023-01-27 15:23:16.736659,0.18778980429984052
2023-01-27 15:23:16.741659,0.18193881213665
2023-01-27 15:23:16.746659,0.17184407208211414
2023-01-27 15:23:16.751659,0.1570568531751631
2023-01-27 15:23:16.756659,0.13788502127319816
2023-01-27 15:23:16.761659,0.11537055671215043
2023-01-27 15:23:16.766659,0.09091187055698105
2023-01-27 15:23:16.771659,0.0661114901304244
2023-01-27 15:23:16.776659,0.04271315925581806
2023-01-27 15:23:16.781659,0.022189419716596583
2023-01-27 15:23:16.786659,0.005277758048125454
2023-01-27 15:23:16.791659,-0.007957419380545583
2023-01-27 15:23:16.796659,-0.017753949267356045
2023-01-27 15:23:16.801659,-0.024569433182477913
2023-01-27 15:23:16.806659,-0.0291786998448772
2023-01-27 15:23:16.811659,-0.0324547290802001
2023-01-27 15:23:16.816659,-0.034969915471044596
2023-01-27 15:23:16.821659,-0.03692626953124997
2023-01-27 15:23:16.826659,-0.038345186802747
2023-01-27 15:23:16.831659,-0.03908991813659663
2023-01-27 15:23:16.836659,-0.03880126606393112
2023-01-27 15:23:16.841659,-0.03711859509348857
2023-01-27 15:23:16.846659,-0.03403628051950351
2023-01-27 15:23:16.851659,-0.029930472373962375
2023-01-27 15:23:16.856659,-0.0252823759911633
2023-01-27 15:23:16.861659,-0.020506581291556216
2023-01-27 15:23:16.866659,-0.01595765717510834
2023-01-27 15:23:16.871659,-0.011876027099788132
2023-01-27 15:23:16.876659,-0.008284894655097142
2023-01-27 15:23:16.881659,-0.0050725541077554035
2023-01-27 15:23:16.886659,-0.002236682047833104
2023-01-27 15:23:16.891659,-1.8947806286936004e-17
2023-01-27 15:23:16.896659,0.0013525827371275718
2023-01-27 15:23:16.901659,0.0017790000420063355
2023-01-27 15:23:16.906659,0.001690123941983084
2023-01-27 15:23:16.911659,0.0019232432823627903
2023-01-27 15:23:16.916659,0.00351826212578545
2023-01-27 15:23:16.921659,0.007404486648738261
2023-01-27 15:23:16.926659,0.013971797845999707
2023-01-27 15:23:16.931659,0.022550027817487682
2023-01-27 15:23:16.936659,0.03126607507932602
2023-01-27 15:23:16.941659,0.037767689675092586
2023-01-27 15:23:16.946659,0.040324008124538825
2023-01-27 15:23:16.951659,0.038200419396162005
2023-01-27 15:23:16.956659,0.031316300074107954
2023-01-27 15:23:16.961659,0.020362338051199892
2023-01-27 15:23:16.966659,0.007419010681671039
2023-01-27 15:23:16.971659,-0.004591743461787691
2023-01-27 15:23:16.976659,-0.013979716610663141
2023-01-27 15:23:16.981659,-0.02137204073369495
2023-01-27 15:23:16.986659,-0.028043157757698726
2023-01-27 15:23:16.991659,-0.03377696126699433
2023-01-27 15:23:16.996659,-0.037400935553867656
2023-01-27 15:23:17.001659,-0.03894567489624015
2023-01-27 15:23:17.006659,-0.039879166172545645
2023-01-27 15:23:17.011659,-0.041157405823469016
2023-01-27 15:23:17.016659,-0.04223274748900074
2023-01-27 15:23:17.021659,-0.04204690456390374
2023-01-27 15:23:17.026659,-0.03953884902927009
2023-01-27 15:23:17.031659,-0.03252685070037837
2023-01-27 15:23:17.036659,-0.017274538374539784
2023-01-27 15:23:17.041659,0.009640256874263295
2023-01-27 15:23:17.046659,0.04891370272357751
2023-01-27 15:23:17.051659,0.09753247350454333
2023-01-27 15:23:17.056659,0.14877028869237988
2023-01-27 15:23:17.061659,0.1926608979701995
2023-01-27 15:23:17.066659,0.2182409942426511
2023-01-27 15:23:17.071659,0.21785537898540488
2023-01-27 15:23:17.076659,0.19077130409040036
2023-01-27 15:23:17.081659,0.1434258669614791
2023-01-27 15:23:17.086659,0.08686323552651114
2023-01-27 15:23:17.091659,0.0333442315459251
2023-01-27 15:23:17.096659,-0.00714897605545237
2023-01-27 15:23:17.101659,-0.02995451353490344
2023-01-27 15:23:17.106659,-0.03652731572563088
2023-01-27 15:23:17.111659,-0.03216624259948726
2023-01-27 15:23:17.116659,-0.022714645738588765
2023-01-27 15:23:17.121659,-0.012669364921748581
2023-01-27 15:23:17.126659,-0.004674289771095085
2023-01-27 15:23:17.131659,0.0006731351604684666
2023-01-27 15:23:17.136659,0.004454293680246318
2023-01-27 15:23:17.141659,0.008077621459960913
2023-01-27 15:23:17.146659,0.012119321525990358
2023-01-27 15:23:17.151659,0.016515851020812895
2023-01-27 15:23:17.156659,0.02125059047304029
2023-01-27 15:23:17.161659,0.026276310905814056
2023-01-27 15:23:17.166659,0.031209659395150916
2023-01-27 15:23:17.171659,0.035772323608398396
2023-01-27 15:23:17.176659,0.040316388420139036
2023-01-27 15:23:17.181659,0.04543662071228023
2023-01-27 15:23:17.186659,0.05134483545913537
2023-01-27 15:23:17.191659,0.05805790424346922
2023-01-27 15:23:17.196659,0.06582274899187515
2023-01-27 15:23:17.201659,0.07481416314840317
2023-01-27 15:23:17.206659,0.08471228221846272
2023-01-27 15:23:17.211659,0.09510438144207005
2023-01-27 15:23:17.216659,0.10604939018641182
2023-01-27 15:23:17.221659,0.11777460575103751
2023-01-27 15:23:17.226659,0.13009329449369705
2023-01-27 15:23:17.231659,0.14258444309234614
2023-01-27 15:23:17.236659,0.15504241422582912
2023-01-27 15:23:17.241659,0.16725003719329823
2023-01-27 15:23:17.246659,0.1785854136054241
2023-01-27 15:23:17.251659,0.18835763633251182
2023-01-27 15:23:17.256659,0.1962877034472756
2023-01-27 15:23:17.261659,0.20218095183372486
2023-01-27 15:23:17.266659,0.2053685237184533
2023-01-27 15:23:17.271659,0.20494560897350303
2023-01-27 15:23:17.276659,0.20034626907819855
2023-01-27 15:23:17.281659,0.19129058718681327
2023-01-27 15:23:17.286659,0.17751465092719731
2023-01-27 15:23:17.291659,0.159124344587326
2023-01-27 15:23:17.296659,0.13704927712717194
2023-01-27 15:23:17.301659,0.11270205676555628
2023-01-27 15:23:17.306659,0.08737678120281046
2023-01-27 15:23:17.311659,0.06233712285757057
2023-01-27 15:23:17.316659,0.039123362142466124
2023-01-27 15:23:17.321659,0.019160311669111214
2023-01-27 15:23:17.326659,0.003141328176216028
2023-01-27 15:23:17.331659,-0.008870959281921324
2023-01-27 15:23:17.336659,-0.017033153650536634
2023-01-27 15:23:17.341659,-0.02185285091400139
2023-01-27 15:23:17.346659,-0.02441252994746362
2023-01-27 15:23:17.351659,-0.025867622345685886
2023-01-27 15:23:17.356659,-0.026787420175738662
2023-01-27 15:23:17.361659,-0.027310054749250412
2023-01-27 15:23:17.366659,-0.02764983978168745
2023-01-27 15:23:17.371659,-0.02798318862915031
2023-01-27 15:23:17.376659,-0.02808240978210994
2023-01-27 15:23:17.381659,-0.027574500069022113
2023-01-27 15:23:17.386659,-0.026415954447278577
2023-01-27 15:23:17.391659,-0.02471367642283432
2023-01-27 15:23:17.396659,-0.02231751963122889
2023-01-27 15:23:17.401659,-0.019064148887991943
2023-01-27 15:23:17.406659,-0.015244970328445968
2023-01-27 15:23:17.411659,-0.011395215988159142
2023-01-27 15:23:17.416659,-0.007794397086443401
2023-01-27 15:23:17.421659,-0.004567702766507788
2023-01-27 15:23:17.426659,-0.0020348112085631746
2023-01-27 15:23:17.431659,-0.0004808108205907141
2023-01-27 15:23:17.436659,0.00025242239273944733
2023-01-27 15:23:17.441659,0.0005288919201120166
2023-01-27 15:23:17.446659,0.0004724612599172057
2023-01-27 15:23:17.451659,0.00019232432532587988
2023-01-27 15:23:17.456659,0.00027085886068965693
2023-01-27 15:23:17.461659,0.0015866756439208225
2023-01-27 15:23:17.466659,0.004758802873025947
2023-01-27 15:23:17.471659,0.010024905204772939
2023-01-27 15:23:17.476659,0.017282669174154917
2023-01-27 15:23:17.481659,0.025675296783447203
2023-01-27 15:23:17.486659,0.033288232314587
2023-01-27 15:23:17.491659,0.037815771996974896
2023-01-27 15:23:17.496659,0.037662458774398146
2023-01-27 15:23:17.501659,0.0323826074600219
2023-01-27 15:23:17.506659,0.02255870443657588
2023-01-27 15:23:17.511659,0.00978450011461966
2023-01-27 15:23:17.516659,-0.0035466481310539658
2023-01-27 15:23:17.521659,-0.01516958139836774
2023-01-27 15:23:17.526659,-0.023889257054374717
2023-01-27 15:23:17.531659,-0.029569864273071164
2023-01-27 15:23:17.536659,-0.03258518707200279
2023-01-27 15:23:17.541659,-0.033656757324933985
2023-01-27 15:23:17.546659,-0.0338486088465019
2023-01-27 15:23:17.551659,-0.03408948704600323
2023-01-27 15:23:17.556659,-0.03470502825487527
2023-01-27 15:23:17.561659,-0.035652123391628154
2023-01-27 15:23:17.566659,-0.03682795909730124
2023-01-27 15:23:17.571659,-0.037551324814557946
2023-01-27 15:23:17.576659,-0.03578392547714236
2023-01-27 15:23:17.581659,-0.028223594650626106
2023-01-27 15:23:17.586659,-0.011186188758165619
2023-01-27 15:23:17.591659,0.018342932686209564
2023-01-27 15:23:17.596659,0.06123825373639994
2023-01-27 15:23:17.601659,0.11426468938589092
2023-01-27 15:23:17.606659,0.16915188521042454
2023-01-27 15:23:17.611659,0.21434545516967765
2023-01-27 15:23:17.616659,0.23881233418899458
2023-01-27 15:23:17.621659,0.23578962683677665
2023-01-27 15:23:17.626659,0.20516209826247253
2023-01-27 15:23:17.631659,0.1539796590805052
2023-01-27 15:23:17.636659,0.09444539723264996
2023-01-27 15:23:17.641659,0.03954669088125217
2023-01-27 15:23:17.646659,-0.001427348495315859
2023-01-27 15:23:17.651659,-0.02495408058166499
2023-01-27 15:23:17.656659,-0.032679253938250614
2023-01-27 15:23:17.661659,-0.02954582497477525
2023-01-27 15:23:17.666659,-0.021494141141949683
2023-01-27 15:23:17.671659,-0.013126134872436428
2023-01-27 15:23:17.676659,-0.006432372970861389
2023-01-27 15:23:17.681659,-0.0013703107833861641
2023-01-27 15:23:17.686659,0.0027326358734216095
2023-01-27 15:23:17.691659,0.006490945816039998
2023-01-27 15:23:17.696659,0.010431919280658768
2023-01-27 15:23:17.701659,0.014760891906917005
2023-01-27 15:23:17.706659,0.019159494789705106
2023-01-27 15:23:17.711659,0.023271244019269943
2023-01-27 15:23:17.716659,0.027274693728290188
2023-01-27 15:23:17.721659,0.03161331266164768
2023-01-27 15:23:17.726659,0.03640908398227461
2023-01-27 15:23:17.731659,0.04159013554453843
2023-01-27 15:23:17.736659,0.04735355350391283
2023-01-27 15:23:17.741659,0.0540190935134887
2023-01-27 15:23:17.746659,0.0616389049897633
2023-01-27 15:23:17.751659,0.07022242248058311
2023-01-27 15:23:17.756659,0.08011896432613415
2023-01-27 15:23:17.761659,0.09166657924652089
2023-01-27 15:23:17.766659,0.1046195187630512
2023-01-27 15:23:17.771659,0.1183515787124633
2023-01-27 15:23:17.776659,0.1324113896172527
2023-01-27 15:23:17.781659,0.14645497500896446
2023-01-27 15:23:17.786659,0.1599231962608526
2023-01-27 15:23:17.791659,0.1723226010799406
2023-01-27 15:23:17.796659,0.1836248295022578
2023-01-27 15:23:17.801659,0.19388696551322926
2023-01-27 15:23:17.806659,0.20264608448134291
2023-01-27 15:23:17.811659,0.20910462737083418
2023-01-27 15:23:17.816659,0.21264392253499315
2023-01-27 15:23:17.821659,0.2126866579055786
2023-01-27 15:23:17.826659,0.20836882274672308
2023-01-27 15:23:17.831659,0.19895951449871058
2023-01-27 15:23:17.836659,0.18449187994337937
2023-01-27 15:23:17.841659,0.16559123992919916
2023-01-27 15:23:17.846659,0.14299199227154297
2023-01-27 15:23:17.851659,0.11772652715444554
2023-01-27 15:23:17.856659,0.09146582158300341
2023-01-27 15:23:17.861659,0.0660393685102462
2023-01-27 15:23:17.866659,0.04273019387189563
2023-01-27 15:23:17.871659,0.022405784577131237
2023-01-27 15:23:17.876659,0.005931547351286608
2023-01-27 15:23:17.881659,-0.006178419105708487
2023-01-27 15:23:17.886659,-0.014288916595016776
2023-01-27 15:23:17.891659,-0.019280513748526504
2023-01-27 15:23:17.896659,-0.021896273859581202
2023-01-27 15:23:17.901659,-0.022886594757437692
2023-01-27 15:23:17.906659,-0.02334025706913974
2023-01-27 15:23:17.911659,-0.02413670346140857
2023-01-27 15:23:17.916659,-0.02525505624243707
2023-01-27 15:23:17.921659,-0.026156108826398763
2023-01-27 15:23:17.926659,-0.02655343925974835
2023-01-27 15:23:17.931659,-0.026300352066755118
2023-01-27 15:23:17.936659,-0.024983644517201583
2023-01-27 15:23:17.941659,-0.02238174341619005
2023-01-27 15:23:17.946659,-0.019052986372422993
2023-01-27 15:23:17.951659,-0.015818675979971834
2023-01-27 15:23:17.956659,-0.012949609157496107
2023-01-27 15:23:17.961659,-0.010433594696223725
2023-01-27 15:23:17.966659,-0.008583315341147557
2023-01-27 15:23:17.971659,-0.0076208515092730045
2023-01-27 15:23:17.976659,-0.007035975694833762
2023-01-27 15:23:17.981659,-0.0061303377151488685
2023-01-27 15:23:17.986659,-0.004877957966817898
2023-01-27 15:23:17.991659,-0.0035580000840127373
2023-01-27 15:23:17.996659,-0.0019785092406427226
2023-01-27 15:23:18.001659,0.0001682837901171581
2023-01-27 15:23:18.006659,0.002685930452479397
2023-01-27 15:23:18.011659,0.00550528382882472
2023-01-27 15:23:18.016659,0.009460662735334954
2023-01-27 15:23:18.021659,0.01543402671813963
2023-01-27 15:23:18.026659,0.02302255825595201
2023-01-27 15:23:18.031659,0.030819972977042108
2023-01-27 15:23:18.036659,0.037425299781110706
2023-01-27 15:23:18.041659,0.04125356674194333
2023-01-27 15:23:18.046659,0.040199772211798726
2023-01-27 15:23:18.051659,0.0330317020416259
2023-01-27 15:23:18.056659,0.020910851982085973
2023-01-27 15:23:18.061659,0.0064669055864213995
2023-01-27 15:23:18.066659,-0.00813367249397028
2023-01-27 15:23:18.071659,-0.021179717034101368
2023-01-27 15:23:18.076659,-0.03062162876915216
2023-01-27 15:23:18.081659,-0.03529151529073707
2023-01-27 15:23:18.086659,-0.03647697912840912
2023-01-27 15:23:18.091659,-0.03644546121358866
2023-01-27 15:23:18.096659,-0.0358727062517684
2023-01-27 15:23:18.101659,-0.03461837768554678
2023-01-27 15:23:18.106659,-0.03413105119993414
2023-01-27 15:23:18.111659,-0.03608485311269755
2023-01-27 15:23:18.116659,-0.0386861824473355
2023-01-27 15:23:18.121659,-0.037503242492675636
2023-01-27 15:23:18.126659,-0.030421238729919607
2023-01-27 15:23:18.131659,-0.018294852226972417
2023-01-27 15:23:18.136659,0.0004952618353106478
2023-01-27 15:23:18.141659,0.032070081681013066
2023-01-27 15:23:18.146659,0.08013949832562363
2023-01-27 15:23:18.151659,0.1386418044567107
2023-01-27 15:23:18.156659,0.1937548169856649
2023-01-27 15:23:18.161659,0.23196718096733082
2023-01-27 15:23:18.166659,0.244668856432191
2023-01-27 15:23:18.171659,0.22819280624389632
2023-01-27 15:23:18.176659,0.1847594164072447
2023-01-27 15:23:18.181659,0.12426555156707755
2023-01-27 15:23:18.186659,0.06169671494509742
2023-01-27 15:23:18.191659,0.01031339168548582
2023-01-27 15:23:18.196659,-0.023056133860478136
2023-01-27 15:23:18.201659,-0.037743650376796604
2023-01-27 15:23:18.206659,-0.03728004363001196
2023-01-27 15:23:18.211659,-0.02803127095103258
2023-01-27 15:23:18.216659,-0.016945636885782267
2023-01-27 15:23:18.221659,-0.008390149101614869
2023-01-27 15:23:18.226659,-0.003085164152671368
2023-01-27 15:23:18.231659,4.808108133141786e-05
2023-01-27 15:23:18.236659,0.0020980592413415307
2023-01-27 15:23:18.241659,0.004134973045438528
2023-01-27 15:23:18.246659,0.007257793678093624
2023-01-27 15:23:18.251659,0.011731783859431678
2023-01-27 15:23:18.256659,0.01681335581018096
2023-01-27 15:23:18.261659,0.021900933235883706
2023-01-27 15:23:18.266659,0.02718556689067976
2023-01-27 15:23:18.271659,0.03293554112315174
2023-01-27 15:23:18.276659,0.039000386915099536
2023-01-27 15:23:18.281659,0.0453885421156883
2023-01-27 15:23:18.286659,0.05256134711303398
2023-01-27 15:23:18.291659,0.06075044721364971
2023-01-27 15:23:18.296659,0.06962325985997918
2023-01-27 15:23:18.301659,0.07894913852214809
2023-01-27 15:23:18.306659,0.08898238161998778
2023-01-27 15:23:18.311659,0.0998884439468383
2023-01-27 15:23:18.316659,0.11137834516141068
2023-01-27 15:23:18.321659,0.12318372726440419
2023-01-27 15:23:18.326659,0.13531380010290353
2023-01-27 15:23:18.331659,0.14756083488464344
2023-01-27 15:23:18.336659,0.15929936279734364
2023-01-27 15:23:18.341659,0.17006278038024897
2023-01-27 15:23:18.346659,0.17982794412968253
2023-01-27 15:23:18.351659,0.18847784399986256
2023-01-27 15:23:18.356659,0.19544894648623237
2023-01-27 15:23:18.361659,0.2001134604215621
2023-01-27 15:23:18.366659,0.20200716533313676
2023-01-27 15:23:18.371659,0.20045003294944758
2023-01-27 15:23:18.376659,0.1944616892159622
2023-01-27 15:23:18.381659,0.18340528011322013
2023-01-27 15:23:18.386659,0.16743143705451555
2023-01-27 15:23:18.391659,0.14720022678375236
2023-01-27 15:23:18.396659,0.12365801721928683
2023-01-27 15:23:18.401659,0.09827773272991176
2023-01-27 15:23:18.406659,0.0729799313817291
2023-01-27 15:23:18.411659,0.049403309822082526
2023-01-27 15:23:18.416659,0.02843266761081791
2023-01-27 15:23:18.421659,0.010481676086783432
2023-01-27 15:23:18.426659,-0.0042266521350796185
2023-01-27 15:23:18.431659,-0.015842717140912985
2023-01-27 15:23:18.436659,-0.02488319239456464
2023-01-27 15:23:18.441659,-0.03173351287841779
2023-01-27 15:23:18.446659,-0.03643602192319857
2023-01-27 15:23:18.451659,-0.03911396116018285
2023-01-27 15:23:18.456659,-0.04022721605821213
2023-01-27 15:23:18.461659,-0.04021982476115212
2023-01-27 15:23:18.466659,-0.039274657046729104
2023-01-27 15:23:18.471659,-0.037599407136440145
2023-01-27 15:23:18.476659,-0.03558410239935818
2023-01-27 15:23:18.481659,-0.033464431762695264
2023-01-27 15:23:18.486659,-0.031163739253671986
2023-01-27 15:23:18.491659,-0.028656324371695525
2023-01-27 15:23:18.496659,-0.02614946260464011
2023-01-27 15:23:18.501659,-0.023728013038635188
2023-01-27 15:23:18.506659,-0.021180269636068453
2023-01-27 15:23:18.511659,-0.018391013145446673
2023-01-27 15:23:18.516659,-0.015583448484465976
2023-01-27 15:23:18.521659,-0.012981891632079955
2023-01-27 15:23:18.526659,-0.010574980601287592
2023-01-27 15:23:18.531659,-0.00841418933123352
2023-01-27 15:23:18.536659,-0.006797740454451144
2023-01-27 15:23:18.541659,-0.005913972854614172
2023-01-27 15:23:18.546659,-0.005578844955405836
2023-01-27 15:23:18.551659,-0.005481243133544874
2023-01-27 15:23:18.556659,-0.005315029376260659
2023-01-27 15:23:18.561659,-0.004447500221431175
2023-01-27 15:23:18.566659,-0.0018670852070247718
2023-01-27 15:23:18.571659,0.003125270362943411
2023-01-27 15:23:18.576659,0.010246137574547868
2023-01-27 15:23:18.581659,0.018270811066031435
2023-01-27 15:23:18.586659,0.025365582881194153
2023-01-27 15:23:18.591659,0.029305418953299512
2023-01-27 15:23:18.596659,0.028047645146418318
2023-01-27 15:23:18.601659,0.020795067772269207
2023-01-27 15:23:18.606659,0.008553527184191584
2023-01-27 15:23:18.611659,-0.0064669055864213475
2023-01-27 15:23:18.616659,-0.021821265564459052
2023-01-27 15:23:18.621659,-0.03531555458903302
2023-01-27 15:23:18.626659,-0.04533032032839605
2023-01-27 15:23:18.631659,-0.05135059356689446
2023-01-27 15:23:18.636659,-0.05406327797299334
2023-01-27 15:23:18.641659,-0.05462010949850073
2023-01-27 15:23:18.646659,-0.053953663882806695
2023-01-27 15:23:18.651659,-0.05288919061422336
2023-01-27 15:23:18.656659,-0.05234400024355854
2023-01-27 15:23:18.661659,-0.05281706899404521
2023-01-27 15:23:18.666659,-0.05373271973694786
2023-01-27 15:23:18.671659,-0.05336999893188469
2023-01-27 15:23:18.676659,-0.04893755633900475
2023-01-27 15:23:18.681659,-0.036469500511884606
2023-01-27 15:23:18.686659,-0.011602128382409337
2023-01-27 15:23:18.691659,0.02805531024932859
2023-01-27 15:23:18.696659,0.08042099916219018
2023-01-27 15:23:18.701659,0.13830523192882527
2023-01-27 15:23:18.706659,0.19076487436950892
2023-01-27 15:23:18.711659,0.2255964279174803
2023-01-27 15:23:18.716659,0.23293584755032892
2023-01-27 15:23:18.721659,0.20946523547172538
2023-01-27 15:23:18.726659,0.16060926800143205
2023-01-27 15:23:18.731659,0.0984700545668601
2023-01-27 15:23:18.736659,0.036994460801883525
2023-01-27 15:23:18.741659,-0.012164513580500946
2023-01-27 15:23:18.746659,-0.04202641929371152
2023-01-27 15:23:18.751659,-0.05187948793172826
2023-01-27 15:23:18.756659,-0.04733681924996142
2023-01-27 15:23:18.761659,-0.036974351853132206
2023-01-27 15:23:18.766659,-0.02713192843420992
2023-01-27 15:23:18.771659,-0.019617080688476514
2023-01-27 15:23:18.776659,-0.01389316204062409
2023-01-27 15:23:18.781659,-0.009832581505179398
2023-01-27 15:23:18.786659,-0.007516913761215022
2023-01-27 15:23:18.791659,-0.005793770309537573
2023-01-27 15:23:18.796659,-0.0028510649139831135
2023-01-27 15:23:18.801659,0.0018751621246336752
2023-01-27 15:23:18.806659,0.00745564784909169
2023-01-27 15:23:18.811659,0.013029973022639637
2023-01-27 15:23:18.816659,0.018629669931045402
2023-01-27 15:23:18.821659,0.024449229240417442
2023-01-27 15:23:18.826659,0.030309464011352
2023-01-27 15:23:18.831659,0.03618101403117176
2023-01-27 15:23:18.836659,0.042547625620361976
2023-01-27 15:23:18.841659,0.0498841218650341
2023-01-27 15:23:18.846659,0.05823784484551371
2023-01-27 15:23:18.851659,0.0675779581069946
2023-01-27 15:23:18.856659,0.07809905010684673
2023-01-27 15:23:18.861659,0.08986353874206537
2023-01-27 15:23:18.866659,0.1024697387200899
2023-01-27 15:23:18.871659,0.1153465136885643
2023-01-27 15:23:18.876659,0.128130651340417
2023-01-27 15:23:18.881659,0.14056503772735587
2023-01-27 15:23:18.886659,0.15230925936636394
2023-01-27 15:23:18.891659,0.16309103369712818
2023-01-27 15:23:18.896659,0.1728272575657789
2023-01-27 15:23:18.901659,0.18136183917522422
2023-01-27 15:23:18.906659,0.1882311888073765
2023-01-27 15:23:18.911659,0.19285321235656722
2023-01-27 15:23:18.916659,0.19478251949128061
2023-01-27 15:23:18.921659,0.193622514605522
2023-01-27 15:23:18.926659,0.18887257303996643
2023-01-27 15:23:18.931659,0.18008768558502178
2023-01-27 15:23:18.936659,0.16712928007673916
2023-01-27 15:23:18.941659,0.15018126368522636
2023-01-27 15:23:18.946659,0.12972177677308255
2023-01-27 15:23:18.951659,0.10669191926717747
2023-01-27 15:23:18.956659,0.08257667036709622
2023-01-27 15:23:18.961659,0.05906760692596426
2023-01-27 15:23:18.966659,0.03756287257477652
2023-01-27 15:23:18.971659,0.01894394680857653
2023-01-27 15:23:18.976659,0.003592924825651238
2023-01-27 15:23:18.981659,-0.008606513962149563
2023-01-27 15:23:18.986659,-0.018204446922956908
2023-01-27 15:23:18.991659,-0.025867622345685858
2023-01-27 15:23:18.996659,-0.032009496078892016
2023-01-27 15:23:19.001659,-0.036709904670715277
2023-01-27 15:23:19.006659,-0.03987730793227997
2023-01-27 15:23:19.011659,-0.04137377068400373
2023-01-27 15:23:19.016659,-0.041077146920401486
2023-01-27 15:23:19.021659,-0.03901779651641834
2023-01-27 15:23:19.026659,-0.035499564573759156
2023-01-27 15:23:19.031659,-0.03101229667663567
2023-01-27 15:23:19.036659,-0.026023435653741357
2023-01-27 15:23:19.041659,-0.020891230553388467
2023-01-27 15:23:19.046659,-0.0158977489009293
2023-01-27 15:23:19.051659,-0.011226932518184116
2023-01-27 15:23:19.056659,-0.006904414358398715
2023-01-27 15:23:19.061659,-0.0028608243446796326
2023-01-27 15:23:19.066659,0.0009089265190444848
2023-01-27 15:23:19.071659,0.004279216285794888
2023-01-27 15:23:19.076659,0.007060336585686561
2023-01-27 15:23:19.081659,0.009087324142456025
2023-01-27 15:23:19.086659,0.010319498140757161
2023-01-27 15:23:19.091659,0.011010567657649545
2023-01-27 15:23:19.096659,0.01183372950283183
2023-01-27 15:23:19.101659,0.013727148994803451
2023-01-27 15:23:19.106659,0.01743550485974775
2023-01-27 15:23:19.111659,0.023006796836853007
2023-01-27 15:23:19.116659,0.029526060098217035
2023-01-27 15:23:19.121659,0.035219393670558916
2023-01-27 15:23:19.126659,0.03795235148621115
2023-01-27 15:23:19.131659,0.03601273149251933
2023-01-27 15:23:19.136659,0.028845529497613612
2023-01-27 15:23:19.141659,0.017333230003714506
2023-01-27 15:23:19.146659,0.0034755822835912274
2023-01-27 15:23:19.151659,-0.010313391685485769
2023-01-27 15:23:19.156659,-0.021949095572527083
2023-01-27 15:23:19.161659,-0.03021895885467518
2023-01-27 15:23:19.166659,-0.03498327707801707
2023-01-27 15:23:19.171659,-0.03697435185313219
2023-01-27 15:23:19.176659,-0.03731063142707328
2023-01-27 15:23:19.181659,-0.03702243417501438
2023-01-27 15:23:19.186659,-0.03683059871595673
2023-01-27 15:23:19.191659,-0.03714263439178461
2023-01-27 15:23:19.196659,-0.038038275601899034
2023-01-27 15:23:19.201659,-0.03908991813659656
2023-01-27 15:23:19.206659,-0.03905441208813526
2023-01-27 15:23:19.211659,-0.03560404106974596
2023-01-27 15:23:19.216659,-0.025375961368327926
2023-01-27 15:23:19.221659,-0.004711946006864304
2023-01-27 15:23:19.226659,0.028738415129378223
2023-01-27 15:23:19.231659,0.0740208253264427
2023-01-27 15:23:19.236659,0.12559115645012217
2023-01-27 15:23:19.241659,0.17378906905651087
2023-01-27 15:23:19.246659,0.20729581684403706
2023-01-27 15:23:19.251659,0.216821640729904
2023-01-27 15:23:19.256659,0.19863766875312
2023-01-27 15:23:19.261659,0.15640775859355918
2023-01-27 15:23:19.266659,0.10025707479167083
2023-01-27 15:23:19.271659,0.04327297210693347
2023-01-27 15:23:19.276659,-0.0029499896509401014
2023-01-27 15:23:19.281659,-0.031685434281825964
2023-01-27 15:23:19.286659,-0.042202026396624515
2023-01-27 15:23:19.291659,-0.03868123143911359
2023-01-27 15:23:19.296659,-0.027689529858626206
2023-01-27 15:23:19.301659,-0.015337864868342786
2023-01-27 15:23:19.306659,-0.005389374512882596
2023-01-27 15:23:19.311659,0.001009702682495136
2023-01-27 15:23:19.316659,0.0044677735009740665
2023-01-27 15:23:19.321659,0.00637074327096339
2023-01-27 15:23:19.326659,0.008178901066280261
2023-01-27 15:23:19.331659,0.010818243026733317
2023-01-27 15:23:19.336659,0.014356214849658747
2023-01-27 15:23:19.341659,0.018391013145446666
2023-01-27 15:23:19.346659,0.022755184177176185
2023-01-27 15:23:19.351659,0.027550458908081034
2023-01-27 15:23:19.356659,0.03254883576540143
2023-01-27 15:23:19.361659,0.03714263439178459
2023-01-27 15:23:19.366659,0.04118631986169324
2023-01-27 15:23:19.371659,0.045436620712280176
2023-01-27 15:23:19.376659,0.05072669399935423
2023-01-27 15:23:19.381659,0.0570241622626781
2023-01-27 15:23:19.386659,0.06378564492833311
2023-01-27 15:23:19.391659,0.07099171727895728
2023-01-27 15:23:19.396659,0.07924314132325108
2023-01-27 15:23:19.401659,0.08890192210674286
2023-01-27 15:23:19.406659,0.09970702794369088
2023-01-27 15:23:19.411659,0.1113077029585838
2023-01-27 15:23:19.416659,0.12366158794275209
2023-01-27 15:23:19.421659,0.1367185562849043
2023-01-27 15:23:19.426659,0.15010064293063904
2023-01-27 15:23:19.431659,0.16328334808349595
2023-01-27 15:23:19.436659,0.17574383660502102
2023-01-27 15:23:19.441659,0.18669883906841261
2023-01-27 15:23:19.446659,0.19498193502810265
2023-01-27 15:23:19.451659,0.19946436583995808
2023-01-27 15:23:19.456659,0.19948622575766306
2023-01-27 15:23:19.461659,0.19477646052837363
2023-01-27 15:23:19.466659,0.18520956915919895
2023-01-27 15:23:19.471659,0.17088016867637626
2023-01-27 15:23:19.476659,0.15229014374240726
2023-01-27 15:23:19.481659,0.13029973208904255
2023-01-27 15:23:19.486659,0.10602344394775197
2023-01-27 15:23:19.491659,0.08089642226696012
2023-01-27 15:23:19.496659,0.056631416626900195
2023-01-27 15:23:19.501659,0.03481070324778551
2023-01-27 15:23:19.506659,0.016438714690609178
2023-01-27 15:23:19.511659,0.0018511216621844575
2023-01-27 15:23:19.516659,-0.0091463688278429
2023-01-27 15:23:19.521659,-0.017164945602416888
2023-01-27 15:23:19.526659,-0.023033156314226453
2023-01-27 15:23:19.531659,-0.027406215667724564
2023-01-27 15:23:19.536659,-0.03049239875577827
2023-01-27 15:23:19.541659,-0.03216624259948726
2023-01-27 15:23:19.546659,-0.032247660146558034
2023-01-27 15:23:19.551659,-0.030651688575744563
2023-01-27 15:23:19.556659,-0.027489796690758916
2023-01-27 15:23:19.561659,-0.023223161697387567
2023-01-27 15:23:19.566659,-0.018630857036420687
2023-01-27 15:23:19.571659,-0.014448365196585579
2023-01-27 15:23:19.576659,-0.011004850863384338
2023-01-27 15:23:19.581659,-0.008197824470698814
2023-01-27 15:23:19.586659,-0.005684104976921617
2023-01-27 15:23:19.591659,-0.0030531487427650364
2023-01-27 15:23:19.596659,-3.374757163956588e-05
2023-01-27 15:23:19.601659,0.003245472908020034
2023-01-27 15:23:19.606659,0.006227053437576249
2023-01-27 15:23:19.611659,0.00826994609087703
2023-01-27 15:23:19.616659,0.009036635317463619
2023-01-27 15:23:19.621659,0.00860651396214959
2023-01-27 15:23:19.626659,0.00744770207751993
2023-01-27 15:23:19.631659,0.006418824195861816
2023-01-27 15:23:19.636659,0.006614683594484735
2023-01-27 15:23:19.641659,0.00891904067248105
2023-01-27 15:23:19.646659,0.013560726854454922
2023-01-27 15:23:19.651659,0.019977688789367603
2023-01-27 15:23:19.656659,0.02688985832305943
2023-01-27 15:23:19.661659,0.032454729080200084
2023-01-27 15:23:19.666659,0.03469112692733388
2023-01-27 15:23:19.671659,0.032214324921369476
2023-01-27 15:23:19.676659,0.024824874540755083
2023-01-27 15:23:19.681659,0.01353482436388728
2023-01-27 15:23:19.686659,0.00018106672567569978
2023-01-27 15:23:19.691659,-0.013054013252258303
2023-01-27 15:23:19.696659,-0.024202438388711917
2023-01-27 15:23:19.701659,-0.03211816400289534
2023-01-27 15:23:19.706659,-0.03674747071188526
2023-01-27 15:23:19.711659,-0.038825474679470014
2023-01-27 15:23:19.716659,-0.03935503547002211
2023-01-27 15:23:19.721659,-0.03930628299713126
2023-01-27 15:23:19.726659,-0.039479602745682164
2023-01-27 15:23:19.731659,-0.040315985679626395
2023-01-27 15:23:19.736659,-0.04173804483590025
2023-01-27 15:23:19.741659,-0.04308065026998508
2023-01-27 15:23:19.746659,-0.04285562176582484
2023-01-27 15:23:19.751659,-0.03834466263651843
2023-01-27 15:23:19.756659,-0.025676709548475448
2023-01-27 15:23:19.761659,-0.0009856622200458804
2023-01-27 15:23:19.766659,0.03763724431991853
2023-01-27 15:23:19.771659,0.0882768630981445
2023-01-27 15:23:19.776659,0.1442347104351614
2023-01-27 15:23:19.781659,0.1947043389081954
2023-01-27 15:23:19.786659,0.22756235411540515
2023-01-27 15:23:19.791659,0.23362597823143
2023-01-27 15:23:19.796659,0.21035436496783672
2023-01-27 15:23:19.801659,0.16301891207695
2023-01-27 15:23:19.806659,0.10291651046965089
2023-01-27 15:23:19.811659,0.04358550161123269
2023-01-27 15:23:19.816659,-0.0035635657900980437
2023-01-27 15:23:19.821659,-0.03259897232055661
2023-01-27 15:23:19.826659,-0.04391067255061752
2023-01-27 15:23:19.831659,-0.04233539104461657
2023-01-27 15:23:19.836659,-0.034115339820679214
2023-01-27 15:23:19.841659,-0.02452135086059572
2023-01-27 15:23:19.846659,-0.01669669811337133
2023-01-27 15:23:19.851659,-0.011443297378718824
2023-01-27 15:23:19.856659,-0.007886980272447431
2023-01-27 15:23:19.861659,-0.0047840676270425085
2023-01-27 15:23:19.866659,-0.0014733497813356848
2023-01-27 15:23:19.871659,0.0022117297630757375
2023-01-27 15:23:19.876659,0.006390573537780139
2023-01-27 15:23:19.881659,0.011058649048209114
2023-01-27 15:23:19.886659,0.015881709082169695
2023-01-27 15:23:19.891659,0.02057870291173449
2023-01-27 15:23:19.896659,0.025354438777109696
2023-01-27 15:23:19.901659,0.030555527657270355
2023-01-27 15:23:19.906659,0.03617857897313651
2023-01-27 15:23:19.911659,0.04223923012614256
2023-01-27 15:23:19.916659,0.04931116927655136
2023-01-27 15:23:19.921659,0.05798578262329105
2023-01-27 15:23:19.926659,0.06801327474972035
2023-01-27 15:23:19.931659,0.07878085225820539
2023-01-27 15:23:19.936659,0.09042386954883769
2023-01-27 15:23:19.941659,0.10337432473897931
2023-01-27 15:23:19.946659,0.11678968439448903
2023-01-27 15:23:19.951659,0.12876114249229434
2023-01-27 15:23:19.956659,0.13861836950244913
2023-01-27 15:23:19.961659,0.14787337183952337
2023-01-27 15:23:19.966659,0.1580522676089564
2023-01-27 15:23:19.971659,0.16852419078350062
2023-01-27 15:23:19.976659,0.1774557226775696
2023-01-27 15:23:19.981659,0.18410246074199668
2023-01-27 15:23:19.986659,0.1888776086808466
2023-01-27 15:23:19.991659,0.19157907366752616
2023-01-27 15:23:19.996659,0.19091845575573888
2023-01-27 15:23:20.001659,0.18585741519927962
2023-01-27 15:23:20.006659,0.17632707954857335
2023-01-27 15:23:20.011659,0.16249001026153556
2023-01-27 15:23:20.016659,0.14432984878408167
2023-01-27 15:23:20.021659,0.12236635386943806
2023-01-27 15:23:20.026659,0.0980304207569095
2023-01-27 15:23:20.031659,0.07293900102376928
2023-01-27 15:23:20.036659,0.0483361570477128
2023-01-27 15:23:20.041659,0.02545893192291251
2023-01-27 15:23:20.046659,0.005750228171578248
2023-01-27 15:23:20.051659,-0.009784500114619713
2023-01-27 15:23:20.056659,-0.021077949494057203
2023-01-27 15:23:20.061659,-0.028608243912458385
2023-01-27 15:23:20.066659,-0.032932526259702534
2023-01-27 15:23:20.071659,-0.03483474254608147
2023-01-27 15:23:20.076659,-0.03539100520188499
2023-01-27 15:23:20.081659,-0.03541171550750733
2023-01-27 15:23:20.086659,-0.035047196143863715
2023-01-27 15:23:20.091659,-0.03418564796447743
2023-01-27 15:23:20.096659,-0.03291531076427198
2023-01-27 15:23:20.101659,-0.03134886547923072
2023-01-27 15:23:20.106659,-0.02937240197516759
2023-01-27 15:23:20.111659,-0.026925405487418057
2023-01-27 15:23:20.116659,-0.02427332415157848
2023-01-27 15:23:20.121659,-0.02170860767364503
2023-01-27 15:23:20.126659,-0.01922315023352251
2023-01-27 15:23:20.131659,-0.01673221588134758
2023-01-27 15:23:20.136659,-0.014353937462147982
2023-01-27 15:23:20.141659,-0.012188553810119629
2023-01-27 15:23:20.146659,-0.010074817875638974
2023-01-27 15:23:20.151659,-0.007861256599426231
2023-01-27 15:23:20.156659,-0.005712443713929341
2023-01-27 15:23:20.161659,-0.0038945674896239853
2023-01-27 15:23:20.166659,-0.0024843908130762976
2023-01-27 15:23:20.171659,-0.0015385946026070768
2023-01-27 15:23:20.176659,-0.001281883429681784
2023-01-27 15:23:20.181659,-0.0017790000420062882
2023-01-27 15:23:20.186659,-0.0025528214332115814
2023-01-27 15:23:20.191659,-0.002764662262052193
2023-01-27 15:23:20.196659,-0.0016188477777660448
2023-01-27 15:23:20.201659,0.0015385946026071338
2023-01-27 15:23:20.206659,0.0071073088911889305
2023-01-27 15:23:20.211659,0.014712810516357411
2023-01-27 15:23:20.216659,0.02283629188588595
2023-01-27 15:23:20.221659,0.02925733849406238
2023-01-27 15:23:20.226659,0.03191878578783051
2023-01-27 15:23:20.231659,0.029473703354596988
2023-01-27 15:23:20.236659,0.02156957649145385
2023-01-27 15:23:20.241659,0.009159445762634182
2023-01-27 15:23:20.246659,-0.005562990112233107
2023-01-27 15:23:20.251659,-0.019977688789367648
2023-01-27 15:23:20.256659,-0.03199319918340119
2023-01-27 15:23:20.261659,-0.040388107299804604
2023-01-27 15:23:20.266659,-0.04476841744684564
2023-01-27 15:23:20.271659,-0.0456529855728149
2023-01-27 15:23:20.276659,-0.04440562448515185
2023-01-27 15:23:20.281659,-0.04262387752532946
2023-01-27 15:23:20.286659,-0.04148363358483306
2023-01-27 15:23:20.291659,-0.041614174842834396
2023-01-27 15:23:20.296659,-0.043063746273573615
2023-01-27 15:23:20.301659,-0.0447634868323802
2023-01-27 15:23:20.306659,-0.04399443230915914
2023-01-27 15:23:20.311659,-0.03670990467071526
2023-01-27 15:23:20.316659,-0.0186168090577877
2023-01-27 15:23:20.321659,0.013486742973327604
2023-01-27 15:23:20.326659,0.06004215673861188
2023-01-27 15:23:20.331659,0.11690914630889884
2023-01-27 15:23:20.336659,0.1748120005869556
2023-01-27 15:23:20.341659,0.22136530280113212
2023-01-27 15:23:20.346659,0.24502569491132323
2023-01-27 15:23:20.351659,0.23901104927062972
2023-01-27 15:23:20.356659,0.2037918582355482
2023-01-27 15:23:20.361659,0.14746467769145957
2023-01-27 15:23:20.366659,0.08339832711485883
2023-01-27 15:23:20.371659,0.025555094704031906
2023-01-27 15:23:20.376659,-0.016207508488137227
2023-01-27 15:23:20.381659,-0.038368701934814405
2023-01-27 15:23:20.386659,-0.04316596194753159
2023-01-27 15:23:20.391659,-0.036493539810180546
2023-01-27 15:23:20.396659,-0.025238267932550594
2023-01-27 15:23:20.401659,-0.014664730057120285
2023-01-27 15:23:20.406659,-0.007028153237389612
2023-01-27 15:23:20.411659,-0.0021636486053466324
2023-01-27 15:23:20.416659,0.0010080273960827715
2023-01-27 15:23:20.421659,0.0036301217041908983
2023-01-27 15:23:20.426659,0.006704475403933969
2023-01-27 15:23:20.431659,0.010698040947318063
2023-01-27 15:23:20.436659,0.015263582250418819
2023-01-27 15:23:20.441659,0.019809406250715155
2023-01-27 15:23:20.446659,0.02424996191753036
2023-01-27 15:23:20.451659,0.028824608772992998
2023-01-27 15:23:20.456659,0.03352380238539659
2023-01-27 15:23:20.461659,0.03832062333822246
2023-01-27 15:23:20.466659,0.04371355672403577
2023-01-27 15:23:20.471659,0.05034089088439939
2023-01-27 15:23:20.476659,0.05822796805843995
2023-01-27 15:23:20.481659,0.067073106765747
2023-01-27 15:23:20.486659,0.07700437941541471
2023-01-27 15:23:20.491659,0.08822878450155244
2023-01-27 15:23:20.496659,0.1001809233752899
2023-01-27 15:23:20.501659,0.11202891916036598
2023-01-27 15:23:20.506659,0.12389487749013532
2023-01-27 15:23:20.511659,0.13640603423118583
2023-01-27 15:23:20.516659,0.14898993899375845
2023-01-27 15:23:20.521659,0.1599657535552978
2023-01-27 15:23:20.526659,0.16875924888869884
2023-01-27 15:23:20.531659,0.1767460554838179
2023-01-27 15:23:20.536659,0.18512764844790716
2023-01-27 15:23:20.541659,0.19299745559692366
2023-01-27 15:23:20.546659,0.1984036499882264
2023-01-27 15:23:20.551659,0.20045003294944747
2023-01-27 15:23:20.556659,0.19926433725626239
2023-01-27 15:23:20.561659,0.19451200962066645
2023-01-27 15:23:20.566659,0.1852026422968679
2023-01-27 15:23:20.571659,0.1708801686763763
2023-01-27 15:23:20.576659,0.1520978432737925
2023-01-27 15:23:20.581659,0.12977084517478937
2023-01-27 15:23:20.586659,0.1048871485021559
2023-01-27 15:23:20.591659,0.0789250954985618
2023-01-27 15:23:20.596659,0.05381811852863496
2023-01-27 15:23:20.601659,0.031204622238874453
2023-01-27 15:23:20.606659,0.01199304254471131
2023-01-27 15:23:20.611659,-0.003413756843656273
2023-01-27 15:23:20.616659,-0.014971884365848098
2023-01-27 15:23:20.621659,-0.023151040077209376
2023-01-27 15:23:20.626659,-0.028799590666637242
2023-01-27 15:23:20.631659,-0.03264705464243874
2023-01-27 15:23:20.636659,-0.03507444619567708
2023-01-27 15:23:20.641659,-0.036301217973232124
2023-01-27 15:23:20.646659,-0.036502989918970156
2023-01-27 15:23:20.651659,-0.03574828431010233
2023-01-27 15:23:20.656659,-0.03410493833552201
2023-01-27 15:23:20.661659,-0.031877756118774386
2023-01-27 15:23:20.666659,-0.02957166363393578
2023-01-27 15:23:20.671659,-0.02759854122996329
2023-01-27 15:23:20.676659,-0.026115936971445965
2023-01-27 15:23:20.681659,-0.0250502433627843
2023-01-27 15:23:20.686659,-0.024088874682506863
2023-01-27 15:23:20.691659,-0.0227183103561401
2023-01-27 15:23:20.696659,-0.02049700445763065
2023-01-27 15:23:20.701659,-0.0173572711646556
2023-01-27 15:23:20.706659,-0.013612317061692051
2023-01-27 15:23:20.711659,-0.009760459885001087
2023-01-27 15:23:20.716659,-0.006346556875099879
2023-01-27 15:23:20.721659,-0.0038464865647255993
2023-01-27 15:23:20.726659,-0.0024871793635575443
2023-01-27 15:23:20.731659,-0.002187689300626573
2023-01-27 15:23:20.736659,-0.0027294051162198986
2023-01-27 15:23:20.741659,-0.0038945674896240044
2023-01-27 15:23:20.746659,-0.005379986921774559
2023-01-27 15:23:20.751659,-0.006683270446956125
2023-01-27 15:23:20.756659,-0.007137737113670406
2023-01-27 15:23:20.761659,-0.005986094474792461
2023-01-27 15:23:20.766659,-0.002490777075961404
2023-01-27 15:23:20.771659,0.003702243324369069
2023-01-27 15:23:20.776659,0.012047808956781831
2023-01-27 15:23:20.781659,0.020939311012625545
2023-01-27 15:23:20.786659,0.02811850644469924
2023-01-27 15:23:20.791659,0.031348865479230756
2023-01-27 15:23:20.796659,0.029081421406760063
2023-01-27 15:23:20.801659,0.02105951309204095
2023-01-27 15:23:20.806659,0.008583665883688484
2023-01-27 15:23:20.811659,-0.005938013549894042
2023-01-27 15:23:20.816659,-0.01992660959104153
2023-01-27 15:23:20.821659,-0.0313729047775268
2023-01-27 15:23:20.826659,-0.0391487216625682
2023-01-27 15:23:20.831659,-0.0431527718901634
2023-01-27 15:23:20.836659,-0.04427098487564342
2023-01-27 15:23:20.841659,-0.043898027390241574
2023-01-27 15:23:20.846659,-0.0432982457304215
2023-01-27 15:23:20.851659,-0.043369136750697944
2023-01-27 15:23:20.856659,-0.044674199867502866
2023-01-27 15:23:20.861659,-0.04714350029826162
2023-01-27 15:23:20.866659,-0.04950290532609038
2023-01-27 15:23:20.871659,-0.04906674474477763
2023-01-27 15:23:20.876659,-0.0420468124333468
2023-01-27 15:23:20.881659,-0.024160742759704427
2023-01-27 15:23:20.886659,0.008149387456250863
2023-01-27 15:23:20.891659,0.055581729859113596
2023-01-27 15:23:20.896659,0.11392140244395262
2023-01-27 15:23:20.901659,0.17378906905651084
2023-01-27 15:23:20.906659,0.22272926739101437
2023-01-27 15:23:20.911659,0.24874746799468986
2023-01-27 15:23:20.916659,0.24422638568303787
2023-01-27 15:23:20.921659,0.2091046273708343
2023-01-27 15:23:20.926659,0.1516018858237244
2023-01-27 15:23:20.931659,0.0854160413146018
2023-01-27 15:23:20.936659,0.02475259085064409
2023-01-27 15:23:20.941659,-0.02002577111124987
2023-01-27 15:23:20.946659,-0.044594041767877665
2023-01-27 15:23:20.951659,-0.050773620605468694
2023-01-27 15:23:20.956659,-0.04470820148013615
2023-01-27 15:23:20.961659,-0.03353655338287354
2023-01-27 15:23:20.966659,-0.02241249287017417
2023-01-27 15:23:20.971659,-0.013727148994803432
2023-01-27 15:23:20.976659,-0.008004606804847937
2023-01-27 15:23:20.981659,-0.004639824386685987
2023-01-27 15:23:20.986659,-0.0022637510583451595
2023-01-27 15:23:20.991659,0.0003606081008910896
2023-01-27 15:23:20.996659,0.0035032226174120163
2023-01-27 15:23:21.001659,0.006971756927668972
2023-01-27 15:23:21.006659,0.011089486952998384
2023-01-27 15:23:21.011659,0.016323527321219396
2023-01-27 15:23:21.016659,0.022293854725008486
2023-01-27 15:23:21.021659,0.02824763581156723
2023-01-27 15:23:21.026659,0.03427058053483653
2023-01-27 15:23:21.031659,0.040820837020874
2023-01-27 15:23:21.036659,0.047380228279503
2023-01-27 15:23:21.041659,0.05317767709493634
2023-01-27 15:23:21.046659,0.05914374992559553
2023-01-27 15:23:21.051659,0.0671692714095115
2023-01-27 15:23:21.056659,0.07711161246733275
2023-01-27 15:23:21.061659,0.08676230907440181
2023-01-27 15:23:21.066659,0.09567075142836814
2023-01-27 15:23:21.071659,0.10664384067058563
2023-01-27 15:23:21.076659,0.12165319908314497
2023-01-27 15:23:21.081659,0.138064831495285
2023-01-27 15:23:21.086659,0.15124898854688384
2023-01-27 15:23:21.091659,0.15991768240928633
2023-01-27 15:23:21.096659,0.16660550053237397
2023-01-27 15:23:21.101659,0.1734524965286254
2023-01-27 15:23:21.106659,0.1798537119057225
2023-01-27 15:23:21.111659,0.18424670398235313
2023-01-27 15:23:21.116659,0.18595223047116602
2023-01-27 15:23:21.121659,0.18455922603607156
2023-01-27 15:23:21.126659,0.17913770667913115
2023-01-27 15:23:21.131659,0.16900500655174244
2023-01-27 15:23:21.136659,0.15438532775573652
2023-01-27 15:23:21.141659,0.1358050107955932
2023-01-27 15:23:21.146659,0.11369183425810578
2023-01-27 15:23:21.151659,0.08902212232351298
2023-01-27 15:23:21.156659,0.06359124422961084
2023-01-27 15:23:21.161659,0.039162039756774875
2023-01-27 15:23:21.166659,0.016836881527653804
2023-01-27 15:23:21.171659,-0.0025963783264159965
2023-01-27 15:23:21.176659,-0.018458505189100388
2023-01-27 15:23:21.181659,-0.03067572973668565
2023-01-27 15:23:21.186659,-0.039908381489989805
2023-01-27 15:23:21.191659,-0.04685501381754865
2023-01-27 15:23:21.196659,-0.05183290563375105
2023-01-27 15:23:21.201659,-0.055149000138044316
2023-01-27 15:23:21.206659,-0.05729772469258516
2023-01-27 15:23:21.211659,-0.05853871628642078
2023-01-27 15:23:21.216659,-0.05874442547652991
2023-01-27 15:23:21.221659,-0.05788962170481673
2023-01-27 15:23:21.226659,-0.0563009970659198
2023-01-27 15:23:21.231659,-0.054283540695905616
2023-01-27 15:23:21.236659,-0.051919470700046606
2023-01-27 15:23:21.241659,-0.04937927052378641
2023-01-27 15:23:21.246659,-0.04701907375763174
2023-01-27 15:23:21.251659,-0.04500389099121091
2023-01-27 15:23:21.256659,-0.04318115780314285
2023-01-27 15:23:21.261659,-0.041445892304182025
2023-01-27 15:23:21.266659,-0.03989548712897208
2023-01-27 15:23:21.271659,-0.03853698819875714
2023-01-27 15:23:21.276659,-0.037194437509940295
2023-01-27 15:23:21.281659,-0.035820405930280595
2023-01-27 15:23:21.286659,-0.03460694339762227
2023-01-27 15:23:21.291659,-0.033728878945112194
2023-01-27 15:23:21.296659,-0.03327616910833738
2023-01-27 15:23:21.301659,-0.03346443176269528
2023-01-27 15:23:21.306659,-0.03454933543722358
2023-01-27 15:23:21.311659,-0.036397378891706356
2023-01-27 15:23:21.316659,-0.03835517115907428
2023-01-27 15:23:21.321659,-0.03957073017954818
2023-01-27 15:23:21.326659,-0.039252315460670886
2023-01-27 15:23:21.331659,-0.03675798699259747
2023-01-27 15:23:21.336659,-0.03192121596557597
2023-01-27 15:23:21.341659,-0.025507014244794818
2023-01-27 15:23:21.346659,-0.01917745445037257
2023-01-27 15:23:21.351659,-0.014905135147273523
2023-01-27 15:23:21.356659,-0.01439364466129664
2023-01-27 15:23:21.361659,-0.018703540787100723
2023-01-27 15:23:21.366659,-0.027867610431769704
2023-01-27 15:23:21.371659,-0.040676593780517536
2023-01-27 15:23:21.376659,-0.05506251575881564
2023-01-27 15:23:21.381659,-0.06887614727020257
2023-01-27 15:23:21.386659,-0.0804314027110527
2023-01-27 15:23:21.391659,-0.08870959281921381
2023-01-27 15:23:21.396659,-0.09351913453051357
2023-01-27 15:23:21.401659,-0.09551306813955296
2023-01-27 15:23:21.406659,-0.09579335913949492
2023-01-27 15:23:21.411659,-0.09539286792278279
2023-01-27 15:23:21.416659,-0.0951099058183423
2023-01-27 15:23:21.421659,-0.09551306813955296
2023-01-27 15:23:21.426659,-0.09663533169896124
2023-01-27 15:23:21.431659,-0.09746035188436497
2023-01-27 15:23:21.436659,-0.09566414099448906
2023-01-27 15:23:21.441659,-0.08774797618389116
2023-01-27 15:23:21.446659,-0.06963018133944576
2023-01-27 15:23:21.451659,-0.03808021545410148
2023-01-27 15:23:21.456659,0.007057958454643672
2023-01-27 15:23:21.461659,0.06103893369436261
2023-01-27 15:23:21.466659,0.11422142538119379
2023-01-27 15:23:21.471659,0.15429219603538508
2023-01-27 15:23:21.476659,0.17002678903723753
2023-01-27 15:23:21.481659,0.15539805591106404
2023-01-27 15:23:21.486659,0.11237621236627911
2023-01-27 15:23:21.491659,0.05074958130717268
2023-01-27 15:23:21.496659,-0.015287776494454992
2023-01-27 15:23:21.501659,-0.07204949855804439
2023-01-27 15:23:21.506659,-0.11047518372949808
2023-01-27 15:23:21.511659,-0.1281120479106902
2023-01-27 15:23:21.516659,-0.12859896730191492
2023-01-27 15:23:21.521659,-0.1190006732940673
2023-01-27 15:23:21.526659,-0.10636189030905638
2023-01-27 15:23:21.531659,-0.09536882489919657
2023-01-27 15:23:21.536659,-0.0879092848734798
2023-01-27 15:23:21.541659,-0.08378128707408901
2023-01-27 15:23:21.546659,-0.08166287546774154
2023-01-27 15:23:21.551659,-0.08012712001800526
2023-01-27 15:23:21.556659,-0.07840386919543803
2023-01-27 15:23:21.561659,-0.07635276019573212
2023-01-27 15:23:21.566659,-0.07390205045060953
2023-01-27 15:23:21.571659,-0.07087151706218711
2023-01-27 15:23:21.576659,-0.06726779327942059
2023-01-27 15:23:21.581659,-0.06327470391988747
2023-01-27 15:23:21.586659,-0.058892159771702514
2023-01-27 15:23:21.591659,-0.0539710149168968
2023-01-27 15:23:21.596659,-0.04856049329189193
2023-01-27 15:23:21.601659,-0.042744081467389984
2023-01-27 15:23:21.606659,-0.03618334751540485
2023-01-27 15:23:21.611659,-0.02836783789098257
2023-01-27 15:23:21.616659,-0.01928154507007614
2023-01-27 15:23:21.621659,-0.00927964877337214
2023-01-27 15:23:21.626659,0.0015579909052085648
2023-01-27 15:23:21.631659,0.013270378112792903
2023-01-27 15:23:21.636659,0.02535539170368346
2023-01-27 15:23:21.641659,0.037046473473310415
2023-01-27 15:23:21.646659,0.048105940428151445
2023-01-27 15:23:21.651659,0.05849063396453853
2023-01-27 15:23:21.656659,0.06746573329535199
2023-01-27 15:23:21.661659,0.0741410255432128
2023-01-27 15:23:21.666659,0.07870867147351662
2023-01-27 15:23:21.671659,0.08190612494945526
2023-01-27 15:23:21.676659,0.08342691852871201
2023-01-27 15:23:21.681659,0.082290768623352
2023-01-27 15:23:21.686659,0.07848517782146816
2023-01-27 15:23:21.691659,0.07226586341857916
2023-01-27 15:23:21.696659,0.0619544713285838
2023-01-27 15:23:21.701659,0.045148134231567265
2023-01-27 15:23:21.706659,0.02288880093433468
2023-01-27 15:23:21.711659,-0.00014424324035637899
2023-01-27 15:23:21.716659,-0.021116002458512705
2023-01-27 15:23:21.721659,-0.04214306920766828
2023-01-27 15:23:21.726659,-0.06585672487400156
2023-01-27 15:23:21.731659,-0.090272232890129
2023-01-27 15:23:21.736659,-0.11097671047260216
2023-01-27 15:23:21.741659,-0.12676577270030964
2023-01-27 15:23:21.746659,-0.13984784919510063
2023-01-27 15:23:21.751659,-0.15133520960807795
2023-01-27 15:23:21.756659,-0.15991342581925788
2023-01-27 15:23:21.761659,-0.16496619582176192
2023-01-27 15:23:21.766659,-0.16794338964086192
2023-01-27 15:23:21.771659,-0.1699906587600708
2023-01-27 15:23:21.776659,-0.1706615417990593
2023-01-27 15:23:21.781659,-0.1697262227535246
2023-01-27 15:23:21.786659,-0.16816543104255638
2023-01-27 15:23:21.791659,-0.16652882099151606
2023-01-27 15:23:21.796659,-0.16407597230721943
2023-01-27 15:23:21.801659,-0.16039848327636708
2023-01-27 15:23:21.806659,-0.15641464299634578
2023-01-27 15:23:21.811659,-0.15301804244518283
2023-01-27 15:23:21.816659,-0.15010072041814662
2023-01-27 15:23:21.821659,-0.14758488535881034
2023-01-27 15:23:21.826659,-0.14608384032746502
2023-01-27 15:23:21.831659,-0.1457818448543548
2023-01-27 15:23:21.836659,-0.1458183734055804
2023-01-27 15:23:21.841659,-0.14551739394664762
2023-01-27 15:23:21.846659,-0.14524678285427048
2023-01-27 15:23:21.851659,-0.1454933583736419
2023-01-27 15:23:21.856659,-0.14610058221510933
2023-01-27 15:23:21.861659,-0.14695982635021201
2023-01-27 15:23:21.866659,-0.14838075610131438
2023-01-27 15:23:21.871659,-0.15008509159088135
2023-01-27 15:23:21.876659,-0.1507269637157293
2023-01-27 15:23:21.881659,-0.14909943938255316
2023-01-27 15:23:21.886659,-0.14519195844943475
2023-01-27 15:23:21.891659,-0.13977169990539554
2023-01-27 15:23:21.896659,-0.1339085892161055
2023-01-27 15:23:21.901659,-0.1294102370738983
2023-01-27 15:23:21.906659,-0.12868968598202982
2023-01-27 15:23:21.911659,-0.13330480456352228
2023-01-27 15:23:21.916659,-0.14298480627052962
2023-01-27 15:23:21.921659,-0.1563116014003753
2023-01-27 15:23:21.926659,-0.1715803344970233
2023-01-27 15:23:21.931659,-0.18672287464141837
2023-01-27 15:23:21.936659,-0.19948077424455143
2023-01-27 15:23:21.941659,-0.20852765440940849
2023-01-27 15:23:21.946659,-0.21404113568665672
2023-01-27 15:23:21.951659,-0.21686971187591547
2023-01-27 15:23:21.956659,-0.21778137402514733
2023-01-27 15:23:21.961659,-0.21778325736522666
2023-01-27 15:23:21.966659,-0.21824587971472628
2023-01-27 15:23:21.971659,-0.2199949920177459
2023-01-27 15:23:21.976659,-0.22264781338502
2023-01-27 15:23:21.981659,-0.224995419383049
2023-01-27 15:23:21.986659,-0.22520396607599452
2023-01-27 15:23:21.991659,-0.22021135687828056
2023-01-27 15:23:21.996659,-0.20584655850394293
2023-01-27 15:23:22.001659,-0.17864525318145744
2023-01-27 15:23:22.006659,-0.1379824032988147
2023-01-27 15:23:22.011659,-0.08712291717529289
2023-01-27 15:23:22.016659,-0.03344256124770967
2023-01-27 15:23:22.021659,0.012212594971060696
2023-01-27 15:23:22.026659,0.03822826251039934
2023-01-27 15:23:22.031659,0.036709904670715277
2023-01-27 15:23:22.036659,0.006933268155708646
2023-01-27 15:23:22.041659,-0.04442691802978509
2023-01-27 15:23:22.046659,-0.10563970341874816
2023-01-27 15:23:22.051659,-0.16337952017784108
2023-01-27 15:23:22.056659,-0.20676447603720308
2023-01-27 15:23:22.061659,-0.23083727061748496
2023-01-27 15:23:22.066659,-0.23729826766075945
2023-01-27 15:23:22.071659,-0.23201525211334212
2023-01-27 15:23:22.076659,-0.22165914255245966
2023-01-27 15:23:22.081659,-0.21160483360290527
2023-01-27 15:23:22.086659,-0.2049352211439731
2023-01-27 15:23:22.091659,-0.2020126581192016
2023-01-27 15:23:22.096659,-0.2012003743003228
2023-01-27 15:23:22.101659,-0.20064234733581543
2023-01-27 15:23:22.106659,-0.1994328912607296
2023-01-27 15:23:22.111659,-0.1973247528076171
2023-01-27 15:23:22.116659,-0.1941980919857336
2023-01-27 15:23:22.121659,-0.19023279845714564
2023-01-27 15:23:22.126659,-0.18596781770640977
2023-01-27 15:23:22.131659,-0.18169841170310974
2023-01-27 15:23:22.136659,-0.17720054761256285
2023-01-27 15:23:22.141659,-0.17229855060577384
2023-01-27 15:23:22.146659,-0.16718058189356302
2023-01-27 15:23:22.151659,-0.1618649661540985
2023-01-27 15:23:22.156659,-0.15588764960275664
2023-01-27 15:23:22.161659,-0.14883498847484578
2023-01-27 15:23:22.166659,-0.1406997282218029
2023-01-27 15:23:22.171659,-0.13145367801189417
2023-01-27 15:23:22.176659,-0.12082739383780967
2023-01-27 15:23:22.181659,-0.10885556787252416
2023-01-27 15:23:22.186659,-0.0961648279957788
2023-01-27 15:23:22.191659,-0.08342067897319788
2023-01-27 15:23:22.196659,-0.07094186110341999
2023-01-27 15:23:22.201659,-0.05909164994955057
2023-01-27 15:23:22.206659,-0.048507699609951695
2023-01-27 15:23:22.211659,-0.0396188125014305
2023-01-27 15:23:22.216659,-0.032395534722577515
2023-01-27 15:23:22.221659,-0.026877325028181017
2023-01-27 15:23:22.226659,-0.02353247384554774
2023-01-27 15:23:22.231659,-0.02288659475743772
2023-01-27 15:23:22.236659,-0.02528611794003417
2023-01-27 15:23:22.241659,-0.03127674385905261
2023-01-27 15:23:22.246659,-0.04170120322598334
2023-01-27 15:23:22.251659,-0.05704820156097411
2023-01-27 15:23:22.256659,-0.0769725477420879
2023-01-27 15:23:22.261659,-0.10053753852844229
2023-01-27 15:23:22.266659,-0.12644023190200882
2023-01-27 15:23:22.271659,-0.15284976363182062
2023-01-27 15:23:22.276659,-0.1776244662150128
2023-01-27 15:23:22.281659,-0.19912779331207264
2023-01-27 15:23:22.286659,-0.21666589278254877
2023-01-27 15:23:22.291659,-0.2301400899887084
2023-01-27 15:23:22.296659,-0.23975328159131443
2023-01-27 15:23:22.301659,-0.24615108966827387
2023-01-27 15:23:22.306659,-0.250305602253813
2023-01-27 15:23:22.311659,-0.2529786229133604
2023-01-27 15:23:22.316659,-0.25455311113982493
2023-01-27 15:23:22.321659,-0.25535863637924183
2023-01-27 15:23:22.326659,-0.2556996001973454
2023-01-27 15:23:22.331659,-0.25552690029144276
2023-01-27 15:23:22.336659,-0.2545157530222569
2023-01-27 15:23:22.341659,-0.252473771572113
2023-01-27 15:23:22.346659,-0.24932226827136164
2023-01-27 15:23:22.351659,-0.24492502212524406
2023-01-27 15:23:22.356659,-0.23953190598056023
2023-01-27 15:23:22.361659,-0.2341548651456832
2023-01-27 15:23:22.366659,-0.22974891208720608
2023-01-27 15:23:22.371659,-0.22617340087890625
2023-01-27 15:23:22.376659,-0.22275901696349326
2023-01-27 15:23:22.381659,-0.21970650553703297
2023-01-27 15:23:22.386659,-0.21791900405513845
2023-01-27 15:23:22.391659,-0.21749477088451377
2023-01-27 15:23:22.396659,-0.2174929042692466
2023-01-27 15:23:22.401659,-0.2173505276441574
2023-01-27 15:23:22.406659,-0.217459229895416
2023-01-27 15:23:22.411659,-0.21804770827293385
2023-01-27 15:23:22.416659,-0.21849425415593343
2023-01-27 15:23:22.421659,-0.21809577941894523
2023-01-27 15:23:22.426659,-0.21656316499306724
2023-01-27 15:23:22.431659,-0.21338383853435508
2023-01-27 15:23:22.436659,-0.20772939380882718
2023-01-27 15:23:22.441659,-0.19968073070049278
2023-01-27 15:23:22.446659,-0.19092591508754594
2023-01-27 15:23:22.451659,-0.1838139742612838
2023-01-27 15:23:22.456659,-0.18028047964987232
2023-01-27 15:23:22.461659,-0.18177053332328788
2023-01-27 15:23:22.466659,-0.18904017448355162
2023-01-27 15:23:22.471659,-0.20124337077140797
2023-01-27 15:23:22.476659,-0.21582519863027883
2023-01-27 15:23:22.481659,-0.2299477756023406
2023-01-27 15:23:22.486659,-0.2417407242799226
2023-01-27 15:23:22.491659,-0.2501899003982543
2023-01-27 15:23:22.496659,-0.2548550151988622
2023-01-27 15:23:22.501659,-0.2562962174415587
2023-01-27 15:23:22.506659,-0.2560389148442361
2023-01-27 15:23:22.511659,-0.25545477867126454
2023-01-27 15:23:22.516659,-0.2550567328504016
2023-01-27 15:23:22.521659,-0.25507014989852894
2023-01-27 15:23:22.526659,-0.25582204495092065
2023-01-27 15:23:22.531659,-0.2569212615489959
2023-01-27 15:23:22.536659,-0.2564884903583861
2023-01-27 15:23:22.541659,-0.25148808956146235
2023-01-27 15:23:22.546659,-0.23829020843688847
2023-01-27 15:23:22.551659,-0.21302323043346397
2023-01-27 15:23:22.556659,-0.17302568253048503
2023-01-27 15:23:22.561659,-0.11962573230266572
2023-01-27 15:23:22.566659,-0.05983990711350443
2023-01-27 15:23:22.571659,-0.005072554107755423
2023-01-27 15:23:22.576659,0.032215187243899365
2023-01-27 15:23:22.581659,0.042167108505964175
2023-01-27 15:23:22.586659,0.021023940186360657
2023-01-27 15:23:22.591659,-0.02656479738652707
2023-01-27 15:23:22.596659,-0.08861472791521488
2023-01-27 15:23:22.601659,-0.1505418717861175
