2023-01-29 15:50:10.094678,-0.021828811615705424
2023-01-29 15:50:10.099678,-0.01258976714174767
2023-01-29 15:50:10.104678,-0.006010135170072308
2023-01-29 15:50:10.109678,-0.002663160906295038
2023-01-29 15:50:10.114678,-0.0011058648815378072
2023-01-29 15:50:10.119678,0.0004138394002664114
2023-01-29 15:50:10.124678,0.0025002162437885076
2023-01-29 15:50:10.129678,0.004645867072828376
2023-01-29 15:50:10.134678,0.00644286489114162
2023-01-29 15:50:10.139678,0.008274681026285662
2023-01-29 15:50:10.144678,0.01062591932713984
2023-01-29 15:50:10.149678,0.013323202846502335
2023-01-29 15:50:10.154678,0.016035040840506512
2023-01-29 15:50:10.159678,0.019036508847608186
2023-01-29 15:50:10.164678,0.022742351517081195
2023-01-29 15:50:10.169678,0.026889170748325558
2023-01-29 15:50:10.174678,0.03103633783757679
2023-01-29 15:50:10.179678,0.03553096766908344
2023-01-29 15:50:10.184678,0.04101316258311269
2023-01-29 15:50:10.189678,0.04727808395712672
2023-01-29 15:50:10.194678,0.05373060703277578
2023-01-29 15:50:10.199678,0.06066498957329824
2023-01-29 15:50:10.204678,0.06870786845684052
2023-01-29 15:50:10.209678,0.07708824594827295
2023-01-29 15:50:10.214678,0.08406977355480189
2023-01-29 15:50:10.219678,0.08935287433602115
2023-01-29 15:50:10.224678,0.09438316524028767
2023-01-29 15:50:10.229678,0.0996885527327944
2023-01-29 15:50:10.234678,0.10356664657592765
2023-01-29 15:50:10.239678,0.10439017022650675
2023-01-29 15:50:10.244678,0.10272523015737528
2023-01-29 15:50:10.249678,0.09984897153686681
2023-01-29 15:50:10.254678,0.09536882489919658
2023-01-29 15:50:10.259678,0.08789875500293319
2023-01-29 15:50:10.264678,0.0773624628782272
2023-01-29 15:50:10.269678,0.06505821261028774
2023-01-29 15:50:10.274678,0.051831405609846073
2023-01-29 15:50:10.279678,0.037656271169604065
2023-01-29 15:50:10.284678,0.02291063591837878
2023-01-29 15:50:10.289678,0.008725036464425904
2023-01-29 15:50:10.294678,-0.00408689212054013
2023-01-29 15:50:10.299678,-0.01542686877117977
2023-01-29 15:50:10.304678,-0.025122364982962622
2023-01-29 15:50:10.309678,-0.032663962856826115
2023-01-29 15:50:10.314678,-0.037935972213745076
2023-01-29 15:50:10.319678,-0.04146565772290636
2023-01-29 15:50:10.324678,-0.04375378414988511
2023-01-29 15:50:10.329678,-0.04495618619431085
2023-01-29 15:50:10.334678,-0.0453164204955101
2023-01-29 15:50:10.339678,-0.04527672980039973
2023-01-29 15:50:10.344678,-0.044979851692914886
2023-01-29 15:50:10.349678,-0.044160481577047085
2023-01-29 15:50:10.354678,-0.04267195984721176
2023-01-29 15:50:10.359678,-0.04071230670414099
2023-01-29 15:50:10.364678,-0.03848890587687491
2023-01-29 15:50:10.369678,-0.036110138216699665
2023-01-29 15:50:10.374678,-0.033873122185468604
2023-01-29 15:50:10.379678,-0.03222499335266127
2023-01-29 15:50:10.384678,-0.03132482618093487
2023-01-29 15:50:10.389678,-0.030954291726116384
2023-01-29 15:50:10.394678,-0.030868053436279207
2023-01-29 15:50:10.399678,-0.03089228338490084
2023-01-29 15:50:10.404678,-0.03069977089762679
2023-01-29 15:50:10.409678,-0.029892362400683443
2023-01-29 15:50:10.414678,-0.028391879051923703
2023-01-29 15:50:10.419678,-0.026478916014062798
2023-01-29 15:50:10.424678,-0.024449229240417376
2023-01-29 15:50:10.429678,-0.02250742547340751
2023-01-29 15:50:10.434678,-0.020939311012625608
2023-01-29 15:50:10.439678,-0.020025789172261523
2023-01-29 15:50:10.444678,-0.019737284630536978
2023-01-29 15:50:10.449678,-0.01977260142227309
2023-01-29 15:50:10.454678,-0.01990556716918937
2023-01-29 15:50:10.459678,-0.020069976452343395
2023-01-29 15:50:10.464678,-0.020170014351606282
2023-01-29 15:50:10.469678,-0.02009841631738234
2023-01-29 15:50:10.474678,-0.019929608330130515
2023-01-29 15:50:10.479678,-0.01984142387082007
2023-01-29 15:50:10.484678,-0.0198574867099523
2023-01-29 15:50:10.489678,-0.0198808148166547
2023-01-29 15:50:10.494678,-0.01992960833013046
2023-01-29 15:50:10.499678,-0.020110818405323937
2023-01-29 15:50:10.504678,-0.02041041851043705
2023-01-29 15:50:10.509678,-0.020731162244756258
2023-01-29 15:50:10.514678,-0.02108355425298213
2023-01-29 15:50:10.519678,-0.02152542137724454
2023-01-29 15:50:10.524678,-0.02197305485606192
2023-01-29 15:50:10.529678,-0.022284658378008023
2023-01-29 15:50:10.534678,-0.022477906197309428
2023-01-29 15:50:10.539678,-0.022679088250279675
2023-01-29 15:50:10.544678,-0.02293467521667482
2023-01-29 15:50:10.549678,-0.023259883927708974
2023-01-29 15:50:10.554678,-0.023776095360517512
2023-01-29 15:50:10.559678,-0.02458361232520094
2023-01-29 15:50:10.564678,-0.025555094704031906
2023-01-29 15:50:10.569678,-0.026426963633609617
2023-01-29 15:50:10.574678,-0.027021568268537487
2023-01-29 15:50:10.579678,-0.02724227636994872
2023-01-29 15:50:10.584678,-0.026997527107596293
2023-01-29 15:50:10.589678,-0.026346298805624443
2023-01-29 15:50:10.594678,-0.025627216324210108
2023-01-29 15:50:10.599678,-0.025242620921649812
2023-01-29 15:50:10.604678,-0.025362771004438373
2023-01-29 15:50:10.609678,-0.025944844849307955
2023-01-29 15:50:10.614678,-0.026877325028181017
2023-01-29 15:50:10.619678,-0.027912771440867477
2023-01-29 15:50:10.624678,-0.028584202751517178
2023-01-29 15:50:10.629678,-0.028385973056088157
2023-01-29 15:50:10.634678,-0.026949446648359184
2023-01-29 15:50:10.639678,-0.02391004871354757
2023-01-29 15:50:10.644678,-0.01879970356822009
2023-01-29 15:50:10.649678,-0.011377982201631326
2023-01-29 15:50:10.654678,-0.0021155676804481775
2023-01-29 15:50:10.659678,0.00770060607970288
2023-01-29 15:50:10.664678,0.016227364540100007
2023-01-29 15:50:10.669678,0.021430830139138598
2023-01-29 15:50:10.674678,0.021636486053466693
2023-01-29 15:50:10.679678,0.016290227219338253
2023-01-29 15:50:10.684678,0.0063947839662431725
2023-01-29 15:50:10.689678,-0.005879007580684435
2023-01-29 15:50:10.694678,-0.018102526664733793
2023-01-29 15:50:10.699678,-0.02833746357556192
2023-01-29 15:50:10.704678,-0.03550788015127177
2023-01-29 15:50:10.709678,-0.039545887861433746
2023-01-29 15:50:10.714678,-0.041253566741943255
2023-01-29 15:50:10.719678,-0.04176538757799627
2023-01-29 15:50:10.724678,-0.04192670434713358
2023-01-29 15:50:10.729678,-0.0421120624235929
2023-01-29 15:50:10.734678,-0.042527716606855295
2023-01-29 15:50:10.739678,-0.04346341510384819
2023-01-29 15:50:10.744678,-0.04505197331309309
2023-01-29 15:50:10.749678,-0.04677288155895233
2023-01-29 15:50:10.754678,-0.04726370424032204
2023-01-29 15:50:10.759678,-0.04436947771573939
2023-01-29 15:50:10.764678,-0.03478666394948946
2023-01-29 15:50:10.769678,-0.013764542444818707
2023-01-29 15:50:10.774678,0.023030837997794092
2023-01-29 15:50:10.779678,0.0749506486494972
2023-01-29 15:50:10.784678,0.13320863246917714
2023-01-29 15:50:10.789678,0.18413094729983398
2023-01-29 15:50:10.794678,0.21689376235008223
2023-01-29 15:50:10.799678,0.22736957636253805
2023-01-29 15:50:10.804678,0.21444162726402274
2023-01-29 15:50:10.809678,0.17609942270441714
2023-01-29 15:50:10.814678,0.11325498670339573
2023-01-29 15:50:10.819678,0.03687134001076683
2023-01-29 15:50:10.824678,-0.03324806690216059
2023-01-29 15:50:10.829678,-0.07976016672768617
2023-01-29 15:50:10.834678,-0.09758055210113516
2023-01-29 15:50:10.839678,-0.09289060429670365
2023-01-29 15:50:10.844678,-0.07553537935018526
2023-01-29 15:50:10.849678,-0.05402094380066534
2023-01-29 15:50:10.854678,-0.034762620925903265
2023-01-29 15:50:10.859678,-0.021489585572344413
2023-01-29 15:50:10.864678,-0.014135837554931615
2023-01-29 15:50:10.869678,-0.010017070497232763
2023-01-29 15:50:10.874678,-0.006875594612210931
2023-01-29 15:50:10.879678,-0.004167862470620973
2023-01-29 15:50:10.884678,-0.0018511216621844846
2023-01-29 15:50:10.889678,0.000500642713735824
2023-01-29 15:50:10.894678,0.003101229667663521
2023-01-29 15:50:10.899678,0.005698659004726378
2023-01-29 15:50:10.904678,0.008366107940673807
2023-01-29 15:50:10.909678,0.011737816695057007
2023-01-29 15:50:10.914678,0.016179284080862884
2023-01-29 15:50:10.919678,0.021421889047656007
2023-01-29 15:50:10.924678,0.027189850807189865
2023-01-29 15:50:10.929678,0.033484767030543656
2023-01-29 15:50:10.934678,0.04007558152079577
2023-01-29 15:50:10.939678,0.04639820173835598
2023-01-29 15:50:10.944678,0.05221605300903316
2023-01-29 15:50:10.949678,0.05785481322808838
2023-01-29 15:50:10.954678,0.06363531202077857
2023-01-29 15:50:10.959678,0.06958919876214743
2023-01-29 15:50:10.964678,0.07582386583089817
2023-01-29 15:50:10.969678,0.08258268726871756
2023-01-29 15:50:10.974678,0.08974333852529517
2023-01-29 15:50:10.979678,0.09670744267372995
2023-01-29 15:50:10.984678,0.10291755199432365
2023-01-29 15:50:10.989678,0.1080597751590278
2023-01-29 15:50:10.994678,0.11169235408306119
2023-01-29 15:50:10.999678,0.1131676957020093
2023-01-29 15:50:11.004678,0.11207699775695795
2023-01-29 15:50:11.009678,0.10839485618975228
2023-01-29 15:50:11.014678,0.10212421417236313
2023-01-29 15:50:11.019678,0.0932270305333849
2023-01-29 15:50:11.024678,0.08200228214263908
2023-01-29 15:50:11.029678,0.06913804962957101
2023-01-29 15:50:11.034678,0.055293243378400775
2023-01-29 15:50:11.039678,0.04096563882745288
2023-01-29 15:50:11.044678,0.026781162247061695
2023-01-29 15:50:11.049678,0.013483608982991615
2023-01-29 15:50:11.054678,0.0015385946026070863
2023-01-29 15:50:11.059678,-0.008908999505784823
2023-01-29 15:50:11.064678,-0.017645757645368475
2023-01-29 15:50:11.069678,-0.024326664079114158
2023-01-29 15:50:11.074678,-0.02884864807128899
2023-01-29 15:50:11.079678,-0.031434187122260086
2023-01-29 15:50:11.084678,-0.03231048583984365
2023-01-29 15:50:11.089678,-0.03166892235230578
2023-01-29 15:50:11.094678,-0.029978554695844584
2023-01-29 15:50:11.099678,-0.02795164343469933
2023-01-29 15:50:11.104678,-0.026083987206220606
2023-01-29 15:50:11.109678,-0.024490138993930072
2023-01-29 15:50:11.114678,-0.0231750812381505
2023-01-29 15:50:11.119678,-0.022112535011778865
2023-01-29 15:50:11.124678,-0.021035473793744992
2023-01-29 15:50:11.129678,-0.01953724562594816
2023-01-29 15:50:11.134678,-0.01750151440501209
2023-01-29 15:50:11.139678,-0.015184356613092262
2023-01-29 15:50:11.144678,-0.012861689552664732
2023-01-29 15:50:11.149678,-0.010679122787439784
2023-01-29 15:50:11.154678,-0.00882287882268423
2023-01-29 15:50:11.159678,-0.0074788754602122315
2023-01-29 15:50:11.164678,-0.006563067436218214
2023-01-29 15:50:11.169678,-0.005779667859581811
2023-01-29 15:50:11.174678,-0.004976391792297287
2023-01-29 15:50:11.179678,-0.0041837839056489325
2023-01-29 15:50:11.184678,-0.003341635223477998
2023-01-29 15:50:11.189678,-0.0023165176184875565
2023-01-29 15:50:11.194678,-0.0012020270805805093
2023-01-29 15:50:11.199678,-0.0002953706916941255
2023-01-29 15:50:11.204678,0.000240405410295331
2023-01-29 15:50:11.209678,0.00042094569578583215
2023-01-29 15:50:11.214678,0.00019232432532577566
2023-01-29 15:50:11.219678,-0.0005311983711823795
2023-01-29 15:50:11.224678,-0.0015866756439207469
2023-01-29 15:50:11.229678,-0.002645981528505156
2023-01-29 15:50:11.234678,-0.003606081008911109
2023-01-29 15:50:11.239678,-0.004624575949457352
2023-01-29 15:50:11.244678,-0.005793770309537597
2023-01-29 15:50:11.249678,-0.00708112324529598
2023-01-29 15:50:11.254678,-0.008558432571589928
2023-01-29 15:50:11.259678,-0.010342961335372242
2023-01-29 15:50:11.264678,-0.012284716591238894
2023-01-29 15:50:11.269678,-0.014015895673433131
2023-01-29 15:50:11.274678,-0.01533786486834282
2023-01-29 15:50:11.279678,-0.016299505174552458
2023-01-29 15:50:11.284678,-0.016924541443586284
2023-01-29 15:50:11.289678,-0.01716623937272851
2023-01-29 15:50:11.294678,-0.01711686514317976
2023-01-29 15:50:11.299678,-0.016948364699800048
2023-01-29 15:50:11.304678,-0.016636054962873365
2023-01-29 15:50:11.309678,-0.0160286895049694
2023-01-29 15:50:11.314678,-0.015193621627986369
2023-01-29 15:50:11.319678,-0.01442266399767081
2023-01-29 15:50:11.324678,-0.013919472694396872
2023-01-29 15:50:11.329678,-0.01375010802050706
2023-01-29 15:50:11.334678,-0.014039675705134773
2023-01-29 15:50:11.339678,-0.014888765725206818
2023-01-29 15:50:11.344678,-0.016107162460684724
2023-01-29 15:50:11.349678,-0.017330792187782385
2023-01-29 15:50:11.354678,-0.018391013145446684
2023-01-29 15:50:11.359678,-0.019309917072181076
2023-01-29 15:50:11.364678,-0.02002577111124989
2023-01-29 15:50:11.369678,-0.020468994696353757
2023-01-29 15:50:11.374678,-0.02084314823150629
2023-01-29 15:50:11.379678,-0.02142403644535088
2023-01-29 15:50:11.384678,-0.022021135315299006
2023-01-29 15:50:11.389678,-0.02190377466521672
2023-01-29 15:50:11.394678,-0.020218094810843395
2023-01-29 15:50:11.399678,-0.016216273025463863
2023-01-29 15:50:11.404678,-0.009303689002990697
2023-01-29 15:50:11.409678,0.0004943410536800315
2023-01-29 15:50:11.414678,0.011876027099788094
2023-01-29 15:50:11.419678,0.02237985134378679
2023-01-29 15:50:11.424678,0.029377540573477665
2023-01-29 15:50:11.429678,0.03102816421615617
2023-01-29 15:50:11.434678,0.02673308178782463
2023-01-29 15:50:11.439678,0.017391567712268095
2023-01-29 15:50:11.444678,0.005361040588468332
2023-01-29 15:50:11.449678,-0.006390887418583456
2023-01-29 15:50:11.454678,-0.015602311119437218
2023-01-29 15:50:11.459678,-0.021393080963329984
2023-01-29 15:50:11.464678,-0.023992460221052104
2023-01-29 15:50:11.469678,-0.024265479738919755
2023-01-29 15:50:11.474678,-0.02343952655792233
2023-01-29 15:50:11.479678,-0.022707992570820897
2023-01-29 15:50:11.484678,-0.022766392678022274
2023-01-29 15:50:11.489678,-0.02384246589420537
2023-01-29 15:50:11.494678,-0.026108026504516556
2023-01-29 15:50:11.499678,-0.02964638419569321
2023-01-29 15:50:11.504678,-0.03380100056529038
2023-01-29 15:50:11.509678,-0.036636613188556995
2023-01-29 15:50:11.514678,-0.03493090718984597
2023-01-29 15:50:11.519678,-0.02452713474066841
2023-01-29 15:50:11.524678,-0.0012741487007587957
2023-01-29 15:50:11.529678,0.036946911399154334
2023-01-29 15:50:11.534678,0.087723933160305
2023-01-29 15:50:11.539678,0.14290562015568775
2023-01-29 15:50:11.544678,0.1898721903562544
2023-01-29 15:50:11.549678,0.21500800191907626
2023-01-29 15:50:11.554678,0.2083353251218795
2023-01-29 15:50:11.559678,0.1678565589167044
2023-01-29 15:50:11.564678,0.10149916261434544
2023-01-29 15:50:11.569678,0.024974056207373474
2023-01-29 15:50:11.574678,-0.043801866471767405
2023-01-29 15:50:11.579678,-0.09084713462472274
2023-01-29 15:50:11.584678,-0.11008163541555395
2023-01-29 15:50:11.589678,-0.10404314068648887
2023-01-29 15:50:11.594678,-0.08154551684856409
2023-01-29 15:50:11.599678,-0.053349127831444416
2023-01-29 15:50:11.604678,-0.02793510816991319
2023-01-29 15:50:11.609678,-0.009479290462538625
2023-01-29 15:50:11.614678,0.0016587972640991057
2023-01-29 15:50:11.619678,0.007333926788165847
2023-01-29 15:50:11.624678,0.010121067985892216
2023-01-29 15:50:11.629678,0.012156650730815396
2023-01-29 15:50:11.634678,0.014472405426204194
2023-01-29 15:50:11.639678,0.01717937573593943
2023-01-29 15:50:11.644678,0.020170014351606272
2023-01-29 15:50:11.649678,0.023445252523196708
2023-01-29 15:50:11.654678,0.026925405487418078
2023-01-29 15:50:11.659678,0.030426310406244515
2023-01-29 15:50:11.664678,0.033945243805646765
2023-01-29 15:50:11.669678,0.03765786324742076
2023-01-29 15:50:11.674678,0.04156609624624246
2023-01-29 15:50:11.679678,0.04547100957563896
2023-01-29 15:50:11.684678,0.04937927052378652
2023-01-29 15:50:11.689678,0.05365036189468038
2023-01-29 15:50:11.694678,0.05868295952677719
2023-01-29 15:50:11.699678,0.06472576787022172
2023-01-29 15:50:11.704678,0.07197737693786616
2023-01-29 15:50:11.709678,0.08046787264230655
2023-01-29 15:50:11.714678,0.08971929550170887
2023-01-29 15:50:11.719678,0.09884138096679462
2023-01-29 15:50:11.724678,0.1071006059646606
2023-01-29 15:50:11.729678,0.11419809161469889
2023-01-29 15:50:11.734678,0.12003441900014863
2023-01-29 15:50:11.739678,0.12456985911526874
2023-01-29 15:50:11.744678,0.12794375419616685
2023-01-29 15:50:11.749678,0.13030587758348272
2023-01-29 15:50:11.754678,0.13135752081871027
2023-01-29 15:50:11.759678,0.1303363189062456
2023-01-29 15:50:11.764678,0.12654940783977492
2023-01-29 15:50:11.769678,0.11968242873988032
2023-01-29 15:50:11.774678,0.10964890569448467
2023-01-29 15:50:11.779678,0.09661257016887016
2023-01-29 15:50:11.784678,0.08130510896444315
2023-01-29 15:50:11.789678,0.06493806531110709
2023-01-29 15:50:11.794678,0.048609972000121966
2023-01-29 15:50:11.799678,0.03304007031755737
2023-01-29 15:50:11.804678,0.018871825188398323
2023-01-29 15:50:11.809678,0.0067640489133686445
2023-01-29 15:50:11.814678,-0.0030050675850361204
2023-01-29 15:50:11.819678,-0.010656858111289372
2023-01-29 15:50:11.824678,-0.016467770561575775
2023-01-29 15:50:11.829678,-0.020544536114111764
2023-01-29 15:50:11.834678,-0.023151040077209396
2023-01-29 15:50:11.839678,-0.0248140037508889
2023-01-29 15:50:11.844678,-0.02586762234568591
2023-01-29 15:50:11.849678,-0.026263565929218174
2023-01-29 15:50:11.854678,-0.026059946045279482
2023-01-29 15:50:11.859678,-0.02571613318563349
2023-01-29 15:50:11.864678,-0.025627216324210052
2023-01-29 15:50:11.869678,-0.025718796743509065
2023-01-29 15:50:11.874678,-0.025795500725507712
2023-01-29 15:50:11.879678,-0.02593246218530134
2023-01-29 15:50:11.884678,-0.026156108826398797
2023-01-29 15:50:11.889678,-0.02604890902028107
2023-01-29 15:50:11.894678,-0.025122364982962612
2023-01-29 15:50:11.899678,-0.023430467724900064
2023-01-29 15:50:11.904678,-0.02144416235387321
2023-01-29 15:50:11.909678,-0.019449778151605
2023-01-29 15:50:11.914678,-0.017429392784833915
2023-01-29 15:50:11.919678,-0.015430747380797905
2023-01-29 15:50:11.924678,-0.013655027374625196
2023-01-29 15:50:11.929678,-0.012136872226624035
2023-01-29 15:50:11.934678,-0.010625919327139797
2023-01-29 15:50:11.939678,-0.008873329304604188
2023-01-29 15:50:11.944678,-0.006875594612210913
2023-01-29 15:50:11.949678,-0.004806784460131335
2023-01-29 15:50:11.954678,-0.002860824344679718
2023-01-29 15:50:11.959678,-0.0012165970156390149
2023-01-29 15:50:11.964678,-7.212162017821318e-05
2023-01-29 15:50:11.969678,0.0003586220295056108
2023-01-29 15:50:11.974678,-7.21216201782416e-05
2023-01-29 15:50:11.979678,-0.0013055525466854287
2023-01-29 15:50:11.984678,-0.0030291080474853134
2023-01-29 15:50:11.989678,-0.004862783963836672
2023-01-29 15:50:11.994678,-0.006611148826777913
2023-01-29 15:50:11.999678,-0.008275529753768327
2023-01-29 15:50:12.004678,-0.00988066196441648
2023-01-29 15:50:12.009678,-0.01142989516040686
2023-01-29 15:50:12.014678,-0.012981891632080021
2023-01-29 15:50:12.019678,-0.014576612207712803
2023-01-29 15:50:12.024678,-0.016083121299743583
2023-01-29 15:50:12.029678,-0.01730431235140612
2023-01-29 15:50:12.034678,-0.018246769905090308
2023-01-29 15:50:12.039678,-0.019122759010288735
2023-01-29 15:50:12.044678,-0.020097892731428098
2023-01-29 15:50:12.049678,-0.021215662207348534
2023-01-29 15:50:12.054678,-0.022525986656546496
2023-01-29 15:50:12.059678,-0.024035082391810906
2023-01-29 15:50:12.064678,-0.025507014244794825
2023-01-29 15:50:12.069678,-0.02653959140013846
2023-01-29 15:50:12.074678,-0.026853283867239886
2023-01-29 15:50:12.079678,-0.026284207003827602
2023-01-29 15:50:12.084678,-0.024497311562299708
2023-01-29 15:50:12.089678,-0.020983660481093524
2023-01-29 15:50:12.094678,-0.0154340267181396
2023-01-29 15:50:12.099678,-0.00799970266343989
2023-01-29 15:50:12.104678,0.0006731351604684998
2023-01-29 15:50:12.109678,0.009305693672024383
2023-01-29 15:50:12.114678,0.015914838761091222
2023-01-29 15:50:12.119678,0.01839431354333207
2023-01-29 15:50:12.124678,0.015578269958496017
2023-01-29 15:50:12.129678,0.00784099893551424
2023-01-29 15:50:12.134678,-0.003149310825392604
2023-01-29 15:50:12.139678,-0.015014623307299121
2023-01-29 15:50:12.144678,-0.025290649384260063
2023-01-29 15:50:12.149678,-0.03226419582161689
2023-01-29 15:50:12.154678,-0.035700201988220166
2023-01-29 15:50:12.159678,-0.03668023003533778
2023-01-29 15:50:12.164678,-0.036637783050537095
2023-01-29 15:50:12.169678,-0.036626991823639946
2023-01-29 15:50:12.174678,-0.037286877632141134
2023-01-29 15:50:12.179678,-0.03893387143247194
2023-01-29 15:50:12.184678,-0.041469931602478007
2023-01-29 15:50:12.189678,-0.044494331423195324
2023-01-29 15:50:12.194678,-0.047576230019330853
2023-01-29 15:50:12.199678,-0.04999943539403738
2023-01-29 15:50:12.204678,-0.05000432580709452
2023-01-29 15:50:12.209678,-0.04456717549248182
2023-01-29 15:50:12.214678,-0.030267041176557475
2023-01-29 15:50:12.219678,-0.004686098282820315
2023-01-29 15:50:12.224678,0.03214220330119135
2023-01-29 15:50:12.229678,0.0762768747103007
2023-01-29 15:50:12.234678,0.1191689595580101
2023-01-29 15:50:12.239678,0.14916248241674077
2023-01-29 15:50:12.244678,0.15534996986389155
2023-01-29 15:50:12.249678,0.1319204520093738
2023-01-29 15:50:12.254678,0.08092045783996578
2023-01-29 15:50:12.259678,0.012507816510690285
2023-01-29 15:50:12.264678,-0.05760113522410391
2023-01-29 15:50:12.269678,-0.11324754133827061
2023-01-29 15:50:12.274678,-0.1435701102018356
2023-01-29 15:50:12.279678,-0.14625638000924668
2023-01-29 15:50:12.284678,-0.1268138587474822
2023-01-29 15:50:12.289678,-0.09519374151022744
2023-01-29 15:50:12.294678,-0.06188035011291496
2023-01-29 15:50:12.299678,-0.034589109272425284
2023-01-29 15:50:12.304678,-0.0164196901023387
2023-01-29 15:50:12.309678,-0.0063505867775761875
2023-01-29 15:50:12.314678,-0.0015385946026071243
2023-01-29 15:50:12.319678,0.0006677809727269543
2023-01-29 15:50:12.324678,0.002187689300626507
2023-01-29 15:50:12.329678,0.0042614837985924985
2023-01-29 15:50:12.334678,0.007236202713102093
2023-01-29 15:50:12.339678,0.010662433315439803
2023-01-29 15:50:12.344678,0.014063715934753404
2023-01-29 15:50:12.349678,0.017381368883658866
2023-01-29 15:50:12.354678,0.020554661750793405
2023-01-29 15:50:12.359678,0.023287424860757435
2023-01-29 15:50:12.364678,0.0256272163242101
2023-01-29 15:50:12.369678,0.028255835327412975
2023-01-29 15:50:12.374678,0.03178159520030019
2023-01-29 15:50:12.379678,0.0362042631691863
2023-01-29 15:50:12.384678,0.041421853005885995
2023-01-29 15:50:12.389678,0.04766147243421047
2023-01-29 15:50:12.394678,0.05493263527750961
2023-01-29 15:50:12.399678,0.06265427401941275
2023-01-29 15:50:12.404678,0.07039070129394528
2023-01-29 15:50:12.409678,0.0784131287005594
2023-01-29 15:50:12.414678,0.08697867393493648
2023-01-29 15:50:12.419678,0.09565658082251904
2023-01-29 15:50:12.424678,0.10397534072399128
2023-01-29 15:50:12.429678,0.1120394390045012
2023-01-29 15:50:12.434678,0.11972188949584957
2023-01-29 15:50:12.439678,0.12590897163889045
2023-01-29 15:50:12.444678,0.12943427264690388
2023-01-29 15:50:12.449678,0.13012174814979327
2023-01-29 15:50:12.454678,0.1279678046703338
2023-01-29 15:50:12.459678,0.12210228293125922
2023-01-29 15:50:12.464678,0.11188467592000961
2023-01-29 15:50:12.469678,0.09839073157006972
2023-01-29 15:50:12.474678,0.08330047130584706
2023-01-29 15:50:12.479678,0.06688593837710578
2023-01-29 15:50:12.484678,0.04894654080271721
2023-01-29 15:50:12.489678,0.031313271302252046
2023-01-29 15:50:12.494678,0.016948580741882324
2023-01-29 15:50:12.499678,0.006109112047653889
2023-01-29 15:50:12.504678,-0.004207094665616656
2023-01-29 15:50:12.509678,-0.015875944730454363
2023-01-29 15:50:12.514678,-0.02675712108612058
2023-01-29 15:50:12.519678,-0.033709525905674075
2023-01-29 15:50:12.524678,-0.0367820262908935
2023-01-29 15:50:12.529678,-0.03847178769140066
2023-01-29 15:50:12.534678,-0.04005154222249983
2023-01-29 15:50:12.539678,-0.04089266273178619
2023-01-29 15:50:12.544678,-0.04089295864105222
2023-01-29 15:50:12.549678,-0.04128751129356417
2023-01-29 15:50:12.554678,-0.042792163789272294
2023-01-29 15:50:12.559678,-0.0446836220775117
2023-01-29 15:50:12.564678,-0.04620591923594469
2023-01-29 15:50:12.569678,-0.04755219806975051
2023-01-29 15:50:12.574678,-0.04894654080271721
2023-01-29 15:50:12.579678,-0.049898047804998895
2023-01-29 15:50:12.584678,-0.04998028278350829
2023-01-29 15:50:12.589678,-0.04948685719544159
2023-01-29 15:50:12.594678,-0.04875421524047846
2023-01-29 15:50:12.599678,-0.04755554960747335
2023-01-29 15:50:12.604678,-0.04570106789469711
2023-01-29 15:50:12.609678,-0.04362964701089347
2023-01-29 15:50:12.614678,-0.041878622025251284
2023-01-29 15:50:12.619678,-0.04044713304763984
2023-01-29 15:50:12.624678,-0.039138000458478886
2023-01-29 15:50:12.629678,-0.03808073504293046
2023-01-29 15:50:12.634678,-0.037455163896083776
2023-01-29 15:50:12.639678,-0.03707021218702104
2023-01-29 15:50:12.644678,-0.03666182607412325
2023-01-29 15:50:12.649678,-0.03631534455991382
2023-01-29 15:50:12.654678,-0.03620505332946769
2023-01-29 15:50:12.659678,-0.03619176702578817
2023-01-29 15:50:12.664678,-0.0360608100891113
2023-01-29 15:50:12.669678,-0.03592669548806243
2023-01-29 15:50:12.674678,-0.03603677079081529
2023-01-29 15:50:12.679678,-0.03635611620991999
2023-01-29 15:50:12.684678,-0.03666182607412324
2023-01-29 15:50:12.689678,-0.03686084492725167
2023-01-29 15:50:12.694678,-0.03690223023295397
2023-01-29 15:50:12.699678,-0.03655897729830639
2023-01-29 15:50:12.704678,-0.03565212339162816
2023-01-29 15:50:12.709678,-0.034407978098556495
2023-01-29 15:50:12.714678,-0.033320188522338784
2023-01-29 15:50:12.719678,-0.03274058918993856
2023-01-29 15:50:12.724678,-0.03281533718109127
2023-01-29 15:50:12.729678,-0.03364631103677113
2023-01-29 15:50:12.734678,-0.03517131134867659
2023-01-29 15:50:12.739678,-0.0369075707757823
2023-01-29 15:50:12.744678,-0.038056176155805456
2023-01-29 15:50:12.749678,-0.037854737483980286
2023-01-29 15:50:12.754678,-0.03572424501180638
2023-01-29 15:50:12.759678,-0.0313149972959639
2023-01-29 15:50:12.764678,-0.02483387850224964
2023-01-29 15:50:12.769678,-0.017408220156647412
2023-01-29 15:50:12.774678,-0.010890364646911559
2023-01-29 15:50:12.779678,-0.007150336928699256
2023-01-29 15:50:12.784678,-0.007452567573636694
2023-01-29 15:50:12.789678,-0.012150397175603227
2023-01-29 15:50:12.794678,-0.02053062245249733
2023-01-29 15:50:12.799678,-0.03091500290170553
2023-01-29 15:50:12.804678,-0.0412776097655296
2023-01-29 15:50:12.809678,-0.05007126697318546
2023-01-29 15:50:12.814678,-0.05659143254160879
2023-01-29 15:50:12.819678,-0.06076879166461601
2023-01-29 15:50:12.824678,-0.0628900527954101
2023-01-29 15:50:12.829678,-0.06349986813178259
2023-01-29 15:50:12.834678,-0.06327470391988749
2023-01-29 15:50:12.839678,-0.06282252136108153
2023-01-29 15:50:12.844678,-0.0626496523618698
2023-01-29 15:50:12.849678,-0.06324112451524824
2023-01-29 15:50:12.854678,-0.06486137956380839
2023-01-29 15:50:12.859678,-0.06702663872128815
2023-01-29 15:50:12.864678,-0.0681068524718284
2023-01-29 15:50:12.869678,-0.06538868516133407
2023-01-29 15:50:12.874678,-0.055557690560817705
2023-01-29 15:50:12.879678,-0.03564091080421991
2023-01-29 15:50:12.884678,-0.004567702766507793
2023-01-29 15:50:12.889678,0.03506629119698438
2023-01-29 15:50:12.894678,0.07618447393178923
2023-01-29 15:50:12.899678,0.10833710698417234
2023-01-29 15:50:12.904678,0.12068351358175262
2023-01-29 15:50:12.909678,0.1058909296145939
2023-01-29 15:50:12.914678,0.0635391473770141
2023-01-29 15:50:12.919678,0.0014408218692303625
2023-01-29 15:50:12.924678,-0.06625573337078088
2023-01-29 15:50:12.929678,-0.12379412779087116
2023-01-29 15:50:12.934678,-0.15924453735351557
2023-01-29 15:50:12.939678,-0.16811765756999067
2023-01-29 15:50:12.944678,-0.15383541584014881
2023-01-29 15:50:12.949678,-0.12533625644088495
2023-01-29 15:50:12.954678,-0.09310901165008537
2023-01-29 15:50:12.959678,-0.06538292946270471
2023-01-29 15:50:12.964678,-0.046061675995588275
2023-01-29 15:50:12.969678,-0.03498851019388048
2023-01-29 15:50:12.974678,-0.02971410751342771
2023-01-29 15:50:12.979678,-0.027335685922101862
2023-01-29 15:50:12.984678,-0.02560317516326899
2023-01-29 15:50:12.989678,-0.023330156363030322
2023-01-29 15:50:12.994678,-0.020314257591962818
2023-01-29 15:50:12.999678,-0.016861465853582724
2023-01-29 15:50:13.004678,-0.013222297653555794
2023-01-29 15:50:13.009678,-0.009394157793004548
2023-01-29 15:50:13.014678,-0.005312959663569889
2023-01-29 15:50:13.019678,-0.0009985909407203715
2023-01-29 15:50:13.024678,0.003533959388732915
2023-01-29 15:50:13.029678,0.00830522560349949
2023-01-29 15:50:13.034678,0.01322229765355576
2023-01-29 15:50:13.039678,0.018099255425915766
2023-01-29 15:50:13.044678,0.022982757538556973
2023-01-29 15:50:13.049678,0.02830870718795156
2023-01-29 15:50:13.054678,0.034570299088954884
2023-01-29 15:50:13.059678,0.04194646478925186
2023-01-29 15:50:13.064678,0.05036493390798554
2023-01-29 15:50:13.069678,0.059675356605790014
2023-01-29 15:50:13.074678,0.06947716325521458
2023-01-29 15:50:13.079678,0.07898655506268946
2023-01-29 15:50:13.084678,0.087483525276184
2023-01-29 15:50:13.089678,0.09480616115784991
2023-01-29 15:50:13.094678,0.10099431127309791
2023-01-29 15:50:13.099678,0.10554437710471708
2023-01-29 15:50:13.104678,0.10760545730590822
2023-01-29 15:50:13.109678,0.10699389901656646
2023-01-29 15:50:13.114678,0.10433594882488247
2023-01-29 15:50:13.119678,0.09985487287122569
2023-01-29 15:50:13.124678,0.09262820333242407
2023-01-29 15:50:13.129678,0.08165285957473449
2023-01-29 15:50:13.134678,0.06728947162628166
2023-01-29 15:50:13.139678,0.05104519778281779
2023-01-29 15:50:13.144678,0.03420969098806376
2023-01-29 15:50:13.149678,0.017416446237277842
2023-01-29 15:50:13.154678,0.0013943513622507169
2023-01-29 15:50:13.159678,-0.012755655408488891
2023-01-29 15:50:13.164678,-0.024353068321943207
2023-01-29 15:50:13.169678,-0.0336643753555979
2023-01-29 15:50:13.174678,-0.04134973138570775
2023-01-29 15:50:13.179678,-0.04779523248129957
2023-01-29 15:50:13.184678,-0.05320171639323229
2023-01-29 15:50:13.189678,-0.05783615428041444
2023-01-29 15:50:13.194678,-0.061784189194440765
2023-01-29 15:50:13.199678,-0.06474216397207842
2023-01-29 15:50:13.204678,-0.06642401218414296
2023-01-29 15:50:13.209678,-0.0670007574461409
2023-01-29 15:50:13.214678,-0.06688078492879854
2023-01-29 15:50:13.219678,-0.06626706559128388
2023-01-29 15:50:13.224678,-0.06519794464111318
2023-01-29 15:50:13.229678,-0.06381804581632092
2023-01-29 15:50:13.234678,-0.06231307983398428
2023-01-29 15:50:13.239678,-0.06073668165437348
2023-01-29 15:50:13.244678,-0.05918781086802481
2023-01-29 15:50:13.249678,-0.058024012809714046
2023-01-29 15:50:13.254678,-0.057601135224103886
2023-01-29 15:50:13.259678,-0.057859041907215414
2023-01-29 15:50:13.264678,-0.05837043374776844
2023-01-29 15:50:13.269678,-0.058697464916338406
2023-01-29 15:50:13.274678,-0.05851467698812483
2023-01-29 15:50:13.279678,-0.05756576048875638
2023-01-29 15:50:13.284678,-0.05582213401794431
2023-01-29 15:50:13.289678,-0.05363594932416881
2023-01-29 15:50:13.294678,-0.051470797508954946
2023-01-29 15:50:13.299678,-0.04947617216541119
2023-01-29 15:50:13.304678,-0.04748006910085663
2023-01-29 15:50:13.309678,-0.045310469429522555
2023-01-29 15:50:13.314678,-0.04293640702962863
2023-01-29 15:50:13.319678,-0.040414376271125624
2023-01-29 15:50:13.324678,-0.03796001523733126
2023-01-29 15:50:13.329678,-0.03602151523191493
2023-01-29 15:50:13.334678,-0.03502706810832017
2023-01-29 15:50:13.339678,-0.0350442891246336
2023-01-29 15:50:13.344678,-0.03584444522857658
2023-01-29 15:50:13.349678,-0.03724193515523407
2023-01-29 15:50:13.354678,-0.03918608278036109
2023-01-29 15:50:13.359678,-0.041587749502657555
2023-01-29 15:50:13.364678,-0.04425863549113268
2023-01-29 15:50:13.369678,-0.04694957274593649
2023-01-29 15:50:13.374678,-0.049210987985134104
2023-01-29 15:50:13.379678,-0.050255685133421706
2023-01-29 15:50:13.384678,-0.04923502728342997
2023-01-29 15:50:13.389678,-0.045766271134615386
2023-01-29 15:50:13.394678,-0.04017174243926998
2023-01-29 15:50:13.399678,-0.03337084312784169
2023-01-29 15:50:13.404678,-0.026757121086120595
2023-01-29 15:50:13.409678,-0.022017394447393788
2023-01-29 15:50:13.414678,-0.02060274407267568
2023-01-29 15:50:13.419678,-0.023080291226920138
2023-01-29 15:50:13.424678,-0.02894481085240835
2023-01-29 15:50:13.429678,-0.036947995277238174
2023-01-29 15:50:13.434678,-0.04550874233245829
2023-01-29 15:50:13.439678,-0.053059581607020484
2023-01-29 15:50:13.444678,-0.05849063396453844
2023-01-29 15:50:13.449678,-0.06151247399486119
2023-01-29 15:50:13.454678,-0.0625534877181053
2023-01-29 15:50:13.459678,-0.062329219036380966
2023-01-29 15:50:13.464678,-0.06159186363220209
2023-01-29 15:50:13.469678,-0.06111397072295443
2023-01-29 15:50:13.474678,-0.06154378503561008
2023-01-29 15:50:13.479678,-0.06311900472706082
2023-01-29 15:50:13.484678,-0.0655585527420043
2023-01-29 15:50:13.489678,-0.0680884534805908
2023-01-29 15:50:13.494678,-0.06928484141826621
2023-01-29 15:50:13.499678,-0.06688903414007076
2023-01-29 15:50:13.504678,-0.058130025863647385
2023-01-29 15:50:13.509678,-0.04065029535359364
2023-01-29 15:50:13.514678,-0.013630986213683997
2023-01-29 15:50:13.519678,0.021154645011868756
2023-01-29 15:50:13.524678,0.05856275558471668
2023-01-29 15:50:13.529678,0.09027037566856072
2023-01-29 15:50:13.534678,0.10669191926717747
2023-01-29 15:50:13.539678,0.1002932183021528
2023-01-29 15:50:13.544678,0.06882806867361058
2023-01-29 15:50:13.549678,0.01700076468672261
2023-01-29 15:50:13.554678,-0.044234596192836706
2023-01-29 15:50:13.559678,-0.10081721257810919
2023-01-29 15:50:13.564678,-0.14027655124664298
2023-01-29 15:50:13.569678,-0.15594390810281977
2023-01-29 15:50:13.574678,-0.14859458804130546
2023-01-29 15:50:13.579678,-0.12502725173099627
2023-01-29 15:50:13.584678,-0.09479185193777079
2023-01-29 15:50:13.589678,-0.06666563229507085
2023-01-29 15:50:13.594678,-0.04606167599558832
2023-01-29 15:50:13.599678,-0.034199760339015735
2023-01-29 15:50:13.604678,-0.0291852168738842
2023-01-29 15:50:13.609678,-0.027979425301282782
2023-01-29 15:50:13.614678,-0.027862986549735003
2023-01-29 15:50:13.619678,-0.026992587857326174
2023-01-29 15:50:13.624678,-0.02456943318247785
2023-01-29 15:50:13.629678,-0.020818097090115954
2023-01-29 15:50:13.634678,-0.016515851020812877
2023-01-29 15:50:13.639678,-0.01232151860172425
2023-01-29 15:50:13.644678,-0.008582472801208387
2023-01-29 15:50:13.649678,-0.005573253960342451
2023-01-29 15:50:13.654678,-0.0034377973061054043
2023-01-29 15:50:13.659678,-0.0017824974574977498
2023-01-29 15:50:13.664678,0.00028848648071281007
2023-01-29 15:50:13.669678,0.003503806144196455
2023-01-29 15:50:13.674678,0.007981459610164074
2023-01-29 15:50:13.679678,0.013524363747389993
2023-01-29 15:50:13.684678,0.02004981040954578
2023-01-29 15:50:13.689678,0.027553791161732552
2023-01-29 15:50:13.694678,0.03591656684875475
2023-01-29 15:50:13.699678,0.04497207637029262
2023-01-29 15:50:13.704678,0.054596066474914474
2023-01-29 15:50:13.709678,0.0645278189494875
2023-01-29 15:50:13.714678,0.07423719018697725
2023-01-29 15:50:13.719678,0.08313337535186276
2023-01-29 15:50:13.724678,0.09080111980438227
2023-01-29 15:50:13.729678,0.09692054334404722
2023-01-29 15:50:13.734678,0.10109047591686238
2023-01-29 15:50:13.739678,0.10285424218615918
2023-01-29 15:50:13.744678,0.10178764909505834
2023-01-29 15:50:13.749678,0.09748865979178765
2023-01-29 15:50:13.754678,0.08967121690511694
2023-01-29 15:50:13.759678,0.07845470205838252
2023-01-29 15:50:13.764678,0.06450077146291727
2023-01-29 15:50:13.769678,0.04877262971936318
2023-01-29 15:50:13.774678,0.032214324921369455
2023-01-29 15:50:13.779678,0.015642416374854078
2023-01-29 15:50:13.784678,-0.00028848648071279587
2023-01-29 15:50:13.789678,-0.015180696289779857
2023-01-29 15:50:13.794678,-0.028848648071288976
2023-01-29 15:50:13.799678,-0.04105755992053922
2023-01-29 15:50:13.804678,-0.05137463659048079
2023-01-29 15:50:13.809678,-0.059341784140902534
2023-01-29 15:50:13.814678,-0.06471713632345184
2023-01-29 15:50:13.819678,-0.06755201866253396
2023-01-29 15:50:13.824678,-0.06822705268859856
2023-01-29 15:50:13.829678,-0.06751022230824597
2023-01-29 15:50:13.834678,-0.06639997661113729
2023-01-29 15:50:13.839678,-0.06570102154389634
2023-01-29 15:50:13.844678,-0.06570279598236076
2023-01-29 15:50:13.849678,-0.06621345616349546
2023-01-29 15:50:13.854678,-0.06676058471202845
2023-01-29 15:50:13.859678,-0.06677439683272499
2023-01-29 15:50:13.864678,-0.06584703922271719
2023-01-29 15:50:13.869678,-0.0640316346730801
2023-01-29 15:50:13.874678,-0.061856310814618946
2023-01-29 15:50:13.879678,-0.059965864571860046
2023-01-29 15:50:13.884678,-0.05875508114695532
2023-01-29 15:50:13.889678,-0.058260117903087605
2023-01-29 15:50:13.894678,-0.05817810818552967
2023-01-29 15:50:13.899678,-0.05792395878798728
2023-01-29 15:50:13.904678,-0.05687991902232169
2023-01-29 15:50:13.909678,-0.05479144958580995
2023-01-29 15:50:13.914678,-0.051927566528320264
2023-01-29 15:50:13.919678,-0.048854583137612234
2023-01-29 15:50:13.924678,-0.04613379761576653
2023-01-29 15:50:13.929678,-0.044181655388925795
2023-01-29 15:50:13.934678,-0.043176811188459265
2023-01-29 15:50:13.939678,-0.042964653555443516
2023-01-29 15:50:13.944678,-0.04315277189016338
2023-01-29 15:50:13.949678,-0.04339051741696852
2023-01-29 15:50:13.954678,-0.04351337999105452
2023-01-29 15:50:13.959678,-0.04344896568811732
2023-01-29 15:50:13.964678,-0.0431527718901634
2023-01-29 15:50:13.969678,-0.04268106368670829
2023-01-29 15:50:13.974678,-0.042167108505964175
2023-01-29 15:50:13.979678,-0.04163190230096114
2023-01-29 15:50:13.984678,-0.04089295864105219
2023-01-29 15:50:13.989678,-0.03967284608686624
2023-01-29 15:50:13.994678,-0.03769556805491441
2023-01-29 15:50:13.999678,-0.0347205996555826
2023-01-29 15:50:14.004678,-0.030723810195922786
2023-01-29 15:50:14.009678,-0.026182209499608092
2023-01-29 15:50:14.014678,-0.02209325693547717
2023-01-29 15:50:14.019678,-0.01961869663911562
2023-01-29 15:50:14.024678,-0.019665163010358776
2023-01-29 15:50:14.029678,-0.02261801176497759
2023-01-29 15:50:14.034678,-0.028175514191388987
2023-01-29 15:50:14.039678,-0.035352468615313395
2023-01-29 15:50:14.044678,-0.04284024238586421
2023-01-29 15:50:14.049678,-0.049554987841003116
2023-01-29 15:50:14.054678,-0.054932635277509585
2023-01-29 15:50:14.059678,-0.05887724511214465
2023-01-29 15:50:14.064678,-0.06163994595408428
2023-01-29 15:50:14.069678,-0.06370382475533597
2023-01-29 15:50:14.074678,-0.06553451716899862
2023-01-29 15:50:14.079678,-0.06734372102181063
2023-01-29 15:50:14.084678,-0.06916463375091547
2023-01-29 15:50:14.089678,-0.07107916489838273
2023-01-29 15:50:14.094678,-0.07315536588430398
2023-01-29 15:50:14.099678,-0.07511144193703213
2023-01-29 15:50:14.104678,-0.07608830928802486
2023-01-29 15:50:14.109678,-0.07457680756537059
2023-01-29 15:50:14.114678,-0.06834726035594937
2023-01-29 15:50:14.119678,-0.054717628658184865
2023-01-29 15:50:14.124678,-0.03166139125823972
2023-01-29 15:50:14.129678,0.0005584482446095032
2023-01-29 15:50:14.134678,0.038224458694457966
2023-01-29 15:50:14.139678,0.07412630793641496
2023-01-29 15:50:14.144678,0.09880661964416496
2023-01-29 15:50:14.149678,0.10320807895982473
2023-01-29 15:50:14.154678,0.08229076862335197
2023-01-29 15:50:14.159678,0.03790251553614982
2023-01-29 15:50:14.164678,-0.021035473793744965
2023-01-29 15:50:14.169678,-0.08125980331159702
2023-01-29 15:50:14.174678,-0.12936215102672569
2023-01-29 15:50:14.179678,-0.15592622548587143
2023-01-29 15:50:14.184678,-0.1584271639585494
2023-01-29 15:50:14.189678,-0.14152267404403565
2023-01-29 15:50:14.194678,-0.11416852474212633
2023-01-29 15:50:14.199678,-0.08535711023695429
2023-01-29 15:50:14.204678,-0.06132742017507549
2023-01-29 15:50:14.209678,-0.04501650513076445
2023-01-29 15:50:14.214678,-0.03634929656982421
2023-01-29 15:50:14.219678,-0.03276157887097891
2023-01-29 15:50:14.224678,-0.030819972977042122
2023-01-29 15:50:14.229678,-0.028529479577651305
2023-01-29 15:50:14.234678,-0.026011865586042356
2023-01-29 15:50:14.239678,-0.02381074788241965
2023-01-29 15:50:14.244678,-0.021347999572753917
2023-01-29 15:50:14.249678,-0.017690376035522665
2023-01-29 15:50:14.254678,-0.013126134872436537
2023-01-29 15:50:14.259678,-0.008920518958229328
2023-01-29 15:50:14.264678,-0.005649527069181194
2023-01-29 15:50:14.269678,-0.002627297649846407
2023-01-29 15:50:14.274678,0.0009856622200458743
2023-01-29 15:50:14.279678,0.005238107297381293
2023-01-29 15:50:14.284678,0.009712378494441506
2023-01-29 15:50:14.289678,0.014197944137050809
2023-01-29 15:50:14.294678,0.018775662407278973
2023-01-29 15:50:14.299678,0.02363848728020102
2023-01-29 15:50:14.304678,0.029113095253705912
2023-01-29 15:50:14.309678,0.03564162571714015
2023-01-29 15:50:14.314678,0.04353741928935051
2023-01-29 15:50:14.319678,0.05282387266877382
2023-01-29 15:50:14.324678,0.06327470391988749
2023-01-29 15:50:14.329678,0.07437708481194363
2023-01-29 15:50:14.334678,0.08522371947765345
2023-01-29 15:50:14.339678,0.09467811704366152
2023-01-29 15:50:14.344678,0.10176360607147207
2023-01-29 15:50:14.349678,0.10583461872972111
2023-01-29 15:50:14.354678,0.10647555440664287
2023-01-29 15:50:14.359678,0.10348811238487989
2023-01-29 15:50:14.364678,0.09700357913970938
2023-01-29 15:50:14.369678,0.08740937554203558
2023-01-29 15:50:14.374678,0.07512669265270229
2023-01-29 15:50:14.379678,0.06060488198914504
2023-01-29 15:50:14.384678,0.044523082673549576
2023-01-29 15:50:14.389678,0.027822308148018657
2023-01-29 15:50:14.394678,0.011515418998896947
2023-01-29 15:50:14.399678,-0.0034288851234330667
2023-01-29 15:50:14.404678,-0.016107162460684717
2023-01-29 15:50:14.409678,-0.025858047288113282
2023-01-29 15:50:14.414678,-0.03252685070037839
2023-01-29 15:50:14.419678,-0.036476908316543884
2023-01-29 15:50:14.424678,-0.0383446626365184
2023-01-29 15:50:14.429678,-0.038855125879623566
2023-01-29 15:50:14.434678,-0.03875335305929179
2023-01-29 15:50:14.439678,-0.03864896540054575
2023-01-29 15:50:14.444678,-0.03882547467946999
2023-01-29 15:50:14.449678,-0.039265541238769845
2023-01-29 15:50:14.454678,-0.0398351773619651
2023-01-29 15:50:14.459678,-0.040350728600450005
2023-01-29 15:50:14.464678,-0.04055639356374739
2023-01-29 15:50:14.469678,-0.04024975741513551
2023-01-29 15:50:14.474678,-0.03947456926107398
2023-01-29 15:50:14.479678,-0.03848528462993835
2023-01-29 15:50:14.484678,-0.03752728551626201
2023-01-29 15:50:14.489678,-0.036740683058575974
2023-01-29 15:50:14.494678,-0.03620505332946767
2023-01-29 15:50:14.499678,-0.03589137200854018
2023-01-29 15:50:14.504678,-0.03555595874786371
2023-01-29 15:50:14.509678,-0.034833587617102486
2023-01-29 15:50:14.514678,-0.0334884747862815
2023-01-29 15:50:14.519678,-0.031515016747038375
2023-01-29 15:50:14.524678,-0.02904097363352769
2023-01-29 15:50:14.529678,-0.026270227475326285
2023-01-29 15:50:14.534678,-0.023511648178100444
2023-01-29 15:50:14.539678,-0.021112405119907682
2023-01-29 15:50:14.544678,-0.01930455490946758
2023-01-29 15:50:14.549678,-0.018175355782900103
2023-01-29 15:50:14.554678,-0.01776595972478378
2023-01-29 15:50:14.559678,-0.01808897795459698
2023-01-29 15:50:14.564678,-0.019040107727050667
2023-01-29 15:50:14.569678,-0.02038899290036039
2023-01-29 15:50:14.574678,-0.021876892074942485
2023-01-29 15:50:14.579678,-0.02326041817396567
2023-01-29 15:50:14.584678,-0.024280946701764995
2023-01-29 15:50:14.589678,-0.02469507863471079
2023-01-29 15:50:14.594678,-0.02435306832194321
2023-01-29 15:50:14.599678,-0.02317314449797979
2023-01-29 15:50:14.604678,-0.021035473793744992
2023-01-29 15:50:14.609678,-0.017797661343011934
2023-01-29 15:50:14.614678,-0.013486742973327581
2023-01-29 15:50:14.619678,-0.008501505409273805
2023-01-29 15:50:14.624678,-0.0036782026290893255
2023-01-29 15:50:14.629678,-0.00018320030682434307
2023-01-29 15:50:14.634678,0.0007933378219603734
2023-01-29 15:50:14.639678,-0.0014944789425429073
2023-01-29 15:50:14.644678,-0.006947716232389193
2023-01-29 15:50:14.649678,-0.014569817621491258
2023-01-29 15:50:14.654678,-0.02281447313725938
2023-01-29 15:50:14.659678,-0.03014167561320161
2023-01-29 15:50:14.664678,-0.03553191944956765
2023-01-29 15:50:14.669678,-0.03874736770209841
2023-01-29 15:50:14.674678,-0.040219824761152184
2023-01-29 15:50:14.679678,-0.0406678519236264
2023-01-29 15:50:14.684678,-0.04074871540069575
2023-01-29 15:50:14.689678,-0.04095624486594104
2023-01-29 15:50:14.694678,-0.041686296463012584
2023-01-29 15:50:14.699678,-0.043280967149096565
2023-01-29 15:50:14.704678,-0.045965515077114084
2023-01-29 15:50:14.709678,-0.04964267206146172
2023-01-29 15:50:14.714678,-0.0535142421722412
2023-01-29 15:50:14.719678,-0.05567835075110157
2023-01-29 15:50:14.724678,-0.05308151245117178
2023-01-29 15:50:14.729678,-0.04214182405520978
2023-01-29 15:50:14.734678,-0.02002577111124991
2023-01-29 15:50:14.739678,0.013738348080874764
2023-01-29 15:50:14.744678,0.05584617704153057
2023-01-29 15:50:14.749678,0.09876117393908128
2023-01-29 15:50:14.754678,0.13193449378013605
2023-01-29 15:50:14.759678,0.14477865848022153
2023-01-29 15:50:14.764678,0.13049206137657157
2023-01-29 15:50:14.769678,0.08918014139939043
2023-01-29 15:50:14.774678,0.028776526451110753
2023-01-29 15:50:14.779678,-0.03698100649216479
2023-01-29 15:50:14.784678,-0.09298881143331517
2023-01-29 15:50:14.789678,-0.12781634930868468
2023-01-29 15:50:14.794678,-0.1371272504329681
2023-01-29 15:50:14.799678,-0.1241455257038256
2023-01-29 15:50:14.804678,-0.09734015166759487
2023-01-29 15:50:14.809678,-0.06664624686860392
2023-01-29 15:50:14.814678,-0.039931338280439294
2023-01-29 15:50:14.819678,-0.02109880671806884
2023-01-29 15:50:14.824678,-0.010265311226248719
2023-01-29 15:50:14.829678,-0.005291898137910469
2023-01-29 15:50:14.834678,-0.0034618377685546164
2023-01-29 15:50:14.839678,-0.002574373810761936
2023-01-29 15:50:14.844678,-0.0013943513622507405
2023-01-29 15:50:14.849678,0.0004103975398555898
2023-01-29 15:50:14.854678,0.0026925406418739943
2023-01-29 15:50:14.859678,0.0052441968983486945
2023-01-29 15:50:14.864678,0.007861256599426185
2023-01-29 15:50:14.869678,0.010214397720977368
2023-01-29 15:50:14.874678,0.011972188949584931
2023-01-29 15:50:14.879678,0.013145858075413118
2023-01-29 15:50:14.884678,0.014159878715872747
2023-01-29 15:50:14.889678,0.015523853696598958
2023-01-29 15:50:14.894678,0.017573636025190277
2023-01-29 15:50:14.899678,0.02055931887137469
2023-01-29 15:50:14.904678,0.02476175688207141
2023-01-29 15:50:14.909678,0.030356510834198967
2023-01-29 15:50:14.914678,0.03726283833384508
2023-01-29 15:50:14.919678,0.04524962720621259
2023-01-29 15:50:14.924678,0.05411525815725322
2023-01-29 15:50:14.929678,0.06366561709642703
2023-01-29 15:50:14.934678,0.07358809560537329
2023-01-29 15:50:14.939678,0.08344574271610443
2023-01-29 15:50:14.944678,0.09274840354919431
2023-01-29 15:50:14.949678,0.10096437361297977
2023-01-29 15:50:14.954678,0.10753333568572987
2023-01-29 15:50:14.959678,0.11196682552811395
2023-01-29 15:50:14.964678,0.11392812430858608
2023-01-29 15:50:14.969678,0.11319006445633646
2023-01-29 15:50:14.974678,0.10957678407430638
2023-01-29 15:50:14.979678,0.10299988183031082
2023-01-29 15:50:14.984678,0.09351770579814908
2023-01-29 15:50:14.989678,0.08134795184810469
2023-01-29 15:50:14.994678,0.0669048279523849
2023-01-29 15:50:14.999678,0.050880069558208105
2023-01-29 15:50:15.004678,0.03423373028635968
2023-01-29 15:50:15.009678,0.01803438654414961
2023-01-29 15:50:15.014678,0.00326951360329979
2023-01-29 15:50:15.019678,-0.009291917404828898
2023-01-29 15:50:15.024678,-0.0192324332892894
2023-01-29 15:50:15.029678,-0.02658519330728486
2023-01-29 15:50:15.034678,-0.03175755590200422
2023-01-29 15:50:15.039678,-0.03528858342373075
2023-01-29 15:50:15.044678,-0.037647485733032254
2023-01-29 15:50:15.049678,-0.039179247723125386
2023-01-29 15:50:15.054678,-0.04009962081909169
2023-01-29 15:50:15.059678,-0.040483109315403935
2023-01-29 15:50:15.064678,-0.040315985679626416
2023-01-29 15:50:15.069678,-0.03960490260864151
2023-01-29 15:50:15.074678,-0.03841678425669671
2023-01-29 15:50:15.079678,-0.036839283792121834
2023-01-29 15:50:15.084678,-0.03497898578643795
2023-01-29 15:50:15.089678,-0.032999874975819785
2023-01-29 15:50:15.094678,-0.031084418296813878
2023-01-29 15:50:15.099678,-0.029329496732798437
2023-01-29 15:50:15.104678,-0.027718743309378548
2023-01-29 15:50:15.109678,-0.026187253646567602
2023-01-29 15:50:15.114678,-0.02466559410095211
2023-01-29 15:50:15.119678,-0.02309517336171733
2023-01-29 15:50:15.124678,-0.021492242813110317
2023-01-29 15:50:15.129678,-0.020002609682603926
2023-01-29 15:50:15.134678,-0.018823742866516117
2023-01-29 15:50:15.139678,-0.018060914115156076
2023-01-29 15:50:15.144678,-0.017693838104605595
2023-01-29 15:50:15.149678,-0.017649136655663245
2023-01-29 15:50:15.154678,-0.01783808134496212
2023-01-29 15:50:15.159678,-0.01815031990031509
2023-01-29 15:50:15.164678,-0.01848717592656611
2023-01-29 15:50:15.169678,-0.018794033137556357
2023-01-29 15:50:15.174678,-0.019016068428754834
2023-01-29 15:50:15.179678,-0.019070552149115533
2023-01-29 15:50:15.184678,-0.01894394680857647
2023-01-29 15:50:15.189678,-0.01879484425275035
2023-01-29 15:50:15.194678,-0.018895864486694284
2023-01-29 15:50:15.199678,-0.01948700763047605
2023-01-29 15:50:15.204678,-0.02069890499114989
2023-01-29 15:50:15.209678,-0.02251649257499027
2023-01-29 15:50:15.214678,-0.024713676422834247
2023-01-29 15:50:15.219678,-0.026869675934982032
2023-01-29 15:50:15.224678,-0.028536122292280072
2023-01-29 15:50:15.229678,-0.029357660724385472
2023-01-29 15:50:15.234678,-0.02899289131164546
2023-01-29 15:50:15.239678,-0.027038749458027714
2023-01-29 15:50:15.244678,-0.023199122399091672
2023-01-29 15:50:15.249678,-0.017575121988695073
2023-01-29 15:50:15.254678,-0.010818243026733294
2023-01-29 15:50:15.259678,-0.0041164568388123825
2023-01-29 15:50:15.264678,0.0009616216411813762
2023-01-29 15:50:15.269678,0.002900860244348195
2023-01-29 15:50:15.274678,0.0009135405416599932
2023-01-29 15:50:15.279678,-0.00460930270024311
2023-01-29 15:50:15.284678,-0.012260675430297813
2023-01-29 15:50:15.289678,-0.02021994433745051
2023-01-29 15:50:15.294678,-0.026877325028181
2023-01-29 15:50:15.299678,-0.03131085556969311
2023-01-29 15:50:15.304678,-0.033536553382873514
2023-01-29 15:50:15.309678,-0.03432154789086817
2023-01-29 15:50:15.314678,-0.03459433838725092
2023-01-29 15:50:15.319678,-0.03495395757567807
2023-01-29 15:50:15.324678,-0.03565212339162817
2023-01-29 15:50:15.329678,-0.03681204018657846
2023-01-29 15:50:15.334678,-0.0385129451751708
2023-01-29 15:50:15.339678,-0.040760587948208235
2023-01-29 15:50:15.344678,-0.04341721534729001
2023-01-29 15:50:15.349678,-0.04587521875384525
2023-01-29 15:50:15.354678,-0.04647036641836156
2023-01-29 15:50:15.359678,-0.042223073942212766
2023-01-29 15:50:15.364678,-0.02944966219365588
2023-01-29 15:50:15.369678,-0.005108707163058554
2023-01-29 15:50:15.374678,0.031565230339765535
2023-01-29 15:50:15.379678,0.07750801488635223
2023-01-29 15:50:15.384678,0.12505888938903795
2023-01-29 15:50:15.389678,0.1630764065850742
2023-01-29 15:50:15.394678,0.18025597929954518
2023-01-29 15:50:15.399678,0.1693633191249061
2023-01-29 15:50:15.404678,0.13039588928222648
2023-01-29 15:50:15.409678,0.07133231196620703
2023-01-29 15:50:15.414678,0.0060341758653521095
2023-01-29 15:50:15.419678,-0.05029774832998624
2023-01-29 15:50:15.424678,-0.08642574399709696
2023-01-29 15:50:15.429678,-0.09852341899739728
2023-01-29 15:50:15.434678,-0.09015202522277826
2023-01-29 15:50:15.439678,-0.06945103706814848
2023-01-29 15:50:15.444678,-0.0454606637358665
2023-01-29 15:50:15.449678,-0.025031711031683924
2023-01-29 15:50:15.454678,-0.011154810898005905
2023-01-29 15:50:15.459678,-0.003261134125284993
2023-01-29 15:50:15.464678,0.0008895000210030825
2023-01-29 15:50:15.469678,0.003318359315837701
2023-01-29 15:50:15.474678,0.005192756652831977
2023-01-29 15:50:15.479678,0.00706822058760738
2023-01-29 15:50:15.484678,0.009039243683218878
2023-01-29 15:50:15.489678,0.010802545099255186
2023-01-29 15:50:15.494678,0.012092391960322786
2023-01-29 15:50:15.499678,0.013128385341288535
2023-01-29 15:50:15.504678,0.014424324035644464
2023-01-29 15:50:15.509678,0.016272089231804347
2023-01-29 15:50:15.514678,0.018679499626159564
2023-01-29 15:50:15.519678,0.02167814828039683
2023-01-29 15:50:15.524678,0.025362771004438373
2023-01-29 15:50:15.529678,0.029686282107278385
2023-01-29 15:50:15.534678,0.03449817746877665
2023-01-29 15:50:15.539678,0.03974789691103774
2023-01-29 15:50:15.544678,0.045436620712280155
2023-01-29 15:50:15.549678,0.051454356090105534
2023-01-29 15:50:15.554678,0.05767325684428205
2023-01-29 15:50:15.559678,0.06408886634158724
2023-01-29 15:50:15.564678,0.07065515220165244
2023-01-29 15:50:15.569678,0.07710348516311738
2023-01-29 15:50:15.574678,0.08313219249248496
2023-01-29 15:50:15.579678,0.08862926415575306
2023-01-29 15:50:15.584678,0.09349366277456275
2023-01-29 15:50:15.589678,0.09739390907210531
2023-01-29 15:50:15.594678,0.09991248697042457
2023-01-29 15:50:15.599678,0.10074035249136909
2023-01-29 15:50:15.604678,0.09950380027294148
2023-01-29 15:50:15.609678,0.09562742983581533
2023-01-29 15:50:15.614678,0.08868555724620801
2023-01-29 15:50:15.619678,0.0787873003503962
2023-01-29 15:50:15.624678,0.0664480552077293
2023-01-29 15:50:15.629678,0.05232492829521366
2023-01-29 15:50:15.634678,0.03731092065572727
2023-01-29 15:50:15.639678,0.022586568205096674
2023-01-29 15:50:15.644678,0.009183486923575377
2023-01-29 15:50:15.649678,-0.0024112735057469003
2023-01-29 15:50:15.654678,-0.01204431056976308
2023-01-29 15:50:15.659678,-0.019572870325036427
2023-01-29 15:50:15.664678,-0.02502620220184319
2023-01-29 15:50:15.669678,-0.02879824858113567
2023-01-29 15:50:15.674678,-0.0313248261809349
2023-01-29 15:50:15.679678,-0.03275954240755467
2023-01-29 15:50:15.684678,-0.0332240276038646
2023-01-29 15:50:15.689678,-0.03309115750558646
2023-01-29 15:50:15.694678,-0.032695136964321116
2023-01-29 15:50:15.699678,-0.032019767539734525
2023-01-29 15:50:15.704678,-0.03098825737833971
2023-01-29 15:50:15.709678,-0.029795361988749595
2023-01-29 15:50:15.714678,-0.02865632437169549
2023-01-29 15:50:15.719678,-0.027545084295837283
2023-01-29 15:50:15.724678,-0.026516716927289897
2023-01-29 15:50:15.729678,-0.025957418417917384
2023-01-29 15:50:15.734678,-0.026132067665457705
2023-01-29 15:50:15.739678,-0.02676635940351397
2023-01-29 15:50:15.744678,-0.02740621566772459
2023-01-29 15:50:15.749678,-0.027861672027662796
2023-01-29 15:50:15.754678,-0.027983188629150293
2023-01-29 15:50:15.759678,-0.02743770823613859
2023-01-29 15:50:15.764678,-0.026156108826398784
2023-01-29 15:50:15.769678,-0.024650182015569212
2023-01-29 15:50:15.774678,-0.023463567718863376
2023-01-29 15:50:15.779678,-0.022643082861801167
2023-01-29 15:50:15.784678,-0.02209325693547719
2023-01-29 15:50:15.789678,-0.021976924448138258
2023-01-29 15:50:15.794678,-0.022309621796011876
2023-01-29 15:50:15.799678,-0.022620777814931756
2023-01-29 15:50:15.804678,-0.022525986656546468
2023-01-29 15:50:15.809678,-0.022229951766434553
2023-01-29 15:50:15.814678,-0.02202113531529897
2023-01-29 15:50:15.819678,-0.021759894054072162
2023-01-29 15:50:15.824678,-0.02134799957275387
2023-01-29 15:50:15.829678,-0.021156141794373126
2023-01-29 15:50:15.834678,-0.02142012119293207
2023-01-29 15:50:15.839678,-0.021733992811176467
2023-01-29 15:50:15.844678,-0.021708607673645
2023-01-29 15:50:15.849678,-0.021590095072710543
2023-01-29 15:50:15.854678,-0.021660527214407907
2023-01-29 15:50:15.859678,-0.02164169677646232
2023-01-29 15:50:15.864678,-0.021323960274457866
2023-01-29 15:50:15.869678,-0.021139509093967328
2023-01-29 15:50:15.874678,-0.02142012119293212
2023-01-29 15:50:15.879678,-0.021745123472155625
2023-01-29 15:50:15.884678,-0.02175668999552722
2023-01-29 15:50:15.889678,-0.02193574603401071
2023-01-29 15:50:15.894678,-0.022790431976318293
2023-01-29 15:50:15.899678,-0.02397132531129203
2023-01-29 15:50:15.904678,-0.024954080581665046
2023-01-29 15:50:15.909678,-0.025754053839375093
2023-01-29 15:50:15.914678,-0.0260359048843383
2023-01-29 15:50:15.919678,-0.024383583494481643
2023-01-29 15:50:15.924678,-0.01959304139018053
2023-01-29 15:50:15.929678,-0.0120919818154669
2023-01-29 15:50:15.934678,-0.0032695136032998397
2023-01-29 15:50:15.939678,0.00561269838961038
2023-01-29 15:50:15.944678,0.012837648391723556
2023-01-29 15:50:15.949678,0.01584049147966041
2023-01-29 15:50:15.954678,0.013054013252258297
2023-01-29 15:50:15.959678,0.005536692094818179
2023-01-29 15:50:15.964678,-0.0043753786012529945
2023-01-29 15:50:15.969678,-0.015072104308250232
2023-01-29 15:50:15.974678,-0.025218527764081917
2023-01-29 15:50:15.979678,-0.03288652913762428
2023-01-29 15:50:15.984678,-0.03711859509348859
2023-01-29 15:50:15.989678,-0.03932800198618802
2023-01-29 15:50:15.994678,-0.04130164906382561
2023-01-29 15:50:15.999678,-0.0428899586473874
2023-01-29 15:50:16.004678,-0.043465297669172204
2023-01-29 15:50:16.009678,-0.04415199848219384
2023-01-29 15:50:16.014678,-0.04625400155782689
2023-01-29 15:50:16.019678,-0.04888776062077316
2023-01-29 15:50:16.024678,-0.050725542008876814
2023-01-29 15:50:16.029678,-0.05237379689888137
2023-01-29 15:50:16.034678,-0.053706567734479856
2023-01-29 15:50:16.039678,-0.05027836617980324
2023-01-29 15:50:16.044678,-0.036181014031171695
2023-01-29 15:50:16.049678,-0.009474955391502499
2023-01-29 15:50:16.054678,0.02856016159057608
2023-01-29 15:50:16.059678,0.0768178516894047
2023-01-29 15:50:16.064678,0.13063630461692807
2023-01-29 15:50:16.069678,0.1759059481036795
2023-01-29 15:50:16.074678,0.1953774690628051
2023-01-29 15:50:16.079678,0.18364616776015308
2023-01-29 15:50:16.084678,0.14998893439769734
2023-01-29 15:50:16.089678,0.10457122092948767
2023-01-29 15:50:16.094678,0.04964371770620339
2023-01-29 15:50:16.099678,-0.011299893367812418
2023-01-29 15:50:16.104678,-0.06397187709808339
2023-01-29 15:50:16.109678,-0.09213540690610827
2023-01-29 15:50:16.114678,-0.09334941953420628
2023-01-29 15:50:16.119678,-0.07892814064309611
2023-01-29 15:50:16.124678,-0.0602936744689941
2023-01-29 15:50:16.129678,-0.042067935756208104
2023-01-29 15:50:16.134678,-0.02678116224706165
2023-01-29 15:50:16.139678,-0.017751735845340323
2023-01-29 15:50:16.144678,-0.015073418617248492
2023-01-29 15:50:16.149678,-0.014444946434737673
2023-01-29 15:50:16.154678,-0.012573203071951788
2023-01-29 15:50:16.159678,-0.010143091789986736
2023-01-29 15:50:16.164678,-0.008149743080139096
2023-01-29 15:50:16.169678,-0.00523005252341144
2023-01-29 15:50:16.174678,-0.00040868920041240624
2023-01-29 15:50:16.179678,0.004865513174606979
2023-01-29 15:50:16.184678,0.009327730163931784
2023-01-29 15:50:16.189678,0.01384851336942376
2023-01-29 15:50:16.194678,0.01916031166911119
2023-01-29 15:50:16.199678,0.024112543272558008
2023-01-29 15:50:16.204678,0.027790864929556788
2023-01-29 15:50:16.209678,0.031201982115015747
2023-01-29 15:50:16.214678,0.03536363691091529
2023-01-29 15:50:16.219678,0.03969270133717033
2023-01-29 15:50:16.224678,0.043681662529706906
2023-01-29 15:50:16.229678,0.04831740124540929
2023-01-29 15:50:16.234678,0.05442778393626213
2023-01-29 15:50:16.239678,0.061242719721506314
2023-01-29 15:50:16.244678,0.06786644458770749
2023-01-29 15:50:16.249678,0.0746335421150347
2023-01-29 15:50:16.254678,0.08178591728210435
2023-01-29 15:50:16.259678,0.08828190514252844
2023-01-29 15:50:16.264678,0.09315709769725788
2023-01-29 15:50:16.269678,0.09675750399346941
2023-01-29 15:50:16.274678,0.09947975724935527
2023-01-29 15:50:16.279678,0.10052957674683892
2023-01-29 15:50:16.284678,0.0990229845046996
2023-01-29 15:50:16.289678,0.09514581516363481
2023-01-29 15:50:16.294678,0.08919040858745567
2023-01-29 15:50:16.299678,0.08061931287157864
2023-01-29 15:50:16.304678,0.0691886767745018
2023-01-29 15:50:16.309678,0.055995714084980136
2023-01-29 15:50:16.314678,0.0424075126647949
2023-01-29 15:50:16.319678,0.028888430243079993
2023-01-29 15:50:16.324678,0.015770595520734655
2023-01-29 15:50:16.329678,0.004150874230005949
2023-01-29 15:50:16.334678,-0.005000432487577113
2023-01-29 15:50:16.339678,-0.011795185250436487
2023-01-29 15:50:16.344678,-0.016636054962873383
2023-01-29 15:50:16.349678,-0.019346488383430224
2023-01-29 15:50:16.354678,-0.019953649491071757
2023-01-29 15:50:16.359678,-0.019477846005140947
2023-01-29 15:50:16.364678,-0.019016068428754796
2023-01-29 15:50:16.369678,-0.01872061481967636
2023-01-29 15:50:16.374678,-0.018415054306387905
2023-01-29 15:50:16.379678,-0.018410234413153946
2023-01-29 15:50:16.384678,-0.018895864486694284
2023-01-29 15:50:16.389678,-0.019288260268655537
2023-01-29 15:50:16.394678,-0.01904010772705071
2023-01-29 15:50:16.399678,-0.018472442041144295
2023-01-29 15:50:16.404678,-0.01807848736643787
2023-01-29 15:50:16.409678,-0.017678909474325374
2023-01-29 15:50:16.414678,-0.016996663063764506
2023-01-29 15:50:16.419678,-0.01638722860466477
2023-01-29 15:50:16.424678,-0.016227364540100007
2023-01-29 15:50:16.429678,-0.016183941634890016
2023-01-29 15:50:16.434678,-0.01581867597997181
2023-01-29 15:50:16.439678,-0.01534436139587585
2023-01-29 15:50:16.444678,-0.015097459778189583
2023-01-29 15:50:16.449678,-0.01484818837296367
2023-01-29 15:50:16.454678,-0.014328162185847721
2023-01-29 15:50:16.459678,-0.01388131990741934
2023-01-29 15:50:16.464678,-0.013895432464778371
2023-01-29 15:50:16.469678,-0.014097721698553561
2023-01-29 15:50:16.474678,-0.014063715934753399
2023-01-29 15:50:16.479678,-0.013916644833652132
2023-01-29 15:50:16.484678,-0.01389543246477838
2023-01-29 15:50:16.489678,-0.013753568505981788
2023-01-29 15:50:16.494678,-0.01324633788317442
2023-01-29 15:50:16.499678,-0.012743480006314414
2023-01-29 15:50:16.504678,-0.012717446312308301
2023-01-29 15:50:16.509678,-0.013045727678521449
2023-01-29 15:50:16.514678,-0.013390581123530821
2023-01-29 15:50:16.519678,-0.013805883146809557
2023-01-29 15:50:16.524678,-0.014376243576407419
2023-01-29 15:50:16.529678,-0.014711005252782365
2023-01-29 15:50:16.534678,-0.01442432403564456
2023-01-29 15:50:16.539678,-0.013749277680908462
2023-01-29 15:50:16.544678,-0.013126134872436532
2023-01-29 15:50:16.549678,-0.012562962204802516
2023-01-29 15:50:16.554678,-0.011924108490347833
2023-01-29 15:50:16.559678,-0.011436961966163858
2023-01-29 15:50:16.564678,-0.011347135528921972
2023-01-29 15:50:16.569678,-0.01142196085413513
2023-01-29 15:50:16.574678,-0.011323094367980874
2023-01-29 15:50:16.579678,-0.0111503544528783
2023-01-29 15:50:16.584678,-0.011154810898005853
2023-01-29 15:50:16.589678,-0.011279319060159271
2023-01-29 15:50:16.594678,-0.011467337608337392
2023-01-29 15:50:16.599678,-0.012080021803321765
2023-01-29 15:50:16.604678,-0.013510784134268712
2023-01-29 15:50:16.609678,-0.01564636205478921
2023-01-29 15:50:16.614678,-0.018078487366437877
2023-01-29 15:50:16.619678,-0.02051643754606717
2023-01-29 15:50:16.624678,-0.022646188735961928
2023-01-29 15:50:16.629678,-0.02398651906866751
2023-01-29 15:50:16.634678,-0.024280946701764974
2023-01-29 15:50:16.639678,-0.02364890603401844
2023-01-29 15:50:16.644678,-0.021973054856061873
2023-01-29 15:50:16.649678,-0.01855791459374378
2023-01-29 15:50:16.654678,-0.012837648391723636
2023-01-29 15:50:16.659678,-0.005127477199012382
2023-01-29 15:50:16.664678,0.0035580000840127104
2023-01-29 15:50:16.669678,0.011899550215064328
2023-01-29 15:50:16.674678,0.01815060898661612
2023-01-29 15:50:16.679678,0.020340382021470833
2023-01-29 15:50:16.684678,0.01742939278483391
2023-01-29 15:50:16.689678,0.010177953329954317
2023-01-29 15:50:16.694678,0.0005529324407689036
2023-01-29 15:50:16.699678,-0.00943933523747923
2023-01-29 15:50:16.704678,-0.018198689445853223
2023-01-29 15:50:16.709678,-0.02461647678108843
2023-01-29 15:50:16.714678,-0.028512081131338976
2023-01-29 15:50:16.719678,-0.030748421676630413
2023-01-29 15:50:16.724678,-0.03238260746002193
2023-01-29 15:50:16.729678,-0.033866518554603396
2023-01-29 15:50:16.734678,-0.0353395938873291
2023-01-29 15:50:16.739678,-0.03721773055639464
2023-01-29 15:50:16.744678,-0.03995537757873528
2023-01-29 15:50:16.749678,-0.04348869690164984
2023-01-29 15:50:16.754678,-0.047215621918439796
2023-01-29 15:50:16.759678,-0.04994869226317641
2023-01-29 15:50:16.764678,-0.04921098798513408
2023-01-29 15:50:16.769678,-0.04092712134840881
2023-01-29 15:50:16.774678,-0.02074698731303214
2023-01-29 15:50:16.779678,0.01365167820194902
2023-01-29 15:50:16.784678,0.0607504472136497
2023-01-29 15:50:16.789678,0.11427720138693274
2023-01-29 15:50:16.794678,0.16335546970367426
2023-01-29 15:50:16.799678,0.19478041289572998
2023-01-29 15:50:16.804678,0.19768536090850822
2023-01-29 15:50:16.809678,0.16832009755540867
2023-01-29 15:50:16.814678,0.1120048761367797
2023-01-29 15:50:16.819678,0.0415207215778546
2023-01-29 15:50:16.824678,-0.026925405487418064
2023-01-29 15:50:16.829678,-0.07889913130422453
2023-01-29 15:50:16.834678,-0.1064995974302291
2023-01-29 15:50:16.839678,-0.11029184769116568
2023-01-29 15:50:16.844678,-0.09724398702383037
2023-01-29 15:50:16.849678,-0.07648231640377849
2023-01-29 15:50:16.854678,-0.05575001239776612
2023-01-29 15:50:16.859678,-0.03966148585691428
2023-01-29 15:50:16.864678,-0.0293534994125366
2023-01-29 15:50:16.869678,-0.023391680051775676
2023-01-29 15:50:16.874678,-0.019665163010358803
2023-01-29 15:50:16.879678,-0.016894437970979396
2023-01-29 15:50:16.884678,-0.014640688896179118
2023-01-29 15:50:16.889678,-0.012584004792329755
2023-01-29 15:50:16.894678,-0.010385513305663986
2023-01-29 15:50:16.899678,-0.007956184909913778
2023-01-29 15:50:16.904678,-0.0052889189682899865
2023-01-29 15:50:16.909678,-0.002153031144187357
2023-01-29 15:50:16.914678,0.0016347568016499045
2023-01-29 15:50:16.919678,0.005830498400771858
2023-01-29 15:50:16.924678,0.01007298659533258
2023-01-29 15:50:16.929678,0.014400096646224242
2023-01-29 15:50:16.934678,0.01908819004893299
2023-01-29 15:50:16.939678,0.02420375171618037
2023-01-29 15:50:16.944678,0.02971410751342767
2023-01-29 15:50:16.949678,0.03580762787152768
2023-01-29 15:50:16.954678,0.04264792054891577
2023-01-29 15:50:16.959678,0.0499682863216303
2023-01-29 15:50:16.964678,0.05731264874339096
2023-01-29 15:50:16.969678,0.06451541158302548
2023-01-29 15:50:16.974678,0.07156869024038309
2023-01-29 15:50:16.979678,0.07821672304448793
2023-01-29 15:50:16.984678,0.08409380912780756
2023-01-29 15:50:16.989678,0.08908513669715709
2023-01-29 15:50:16.994678,0.09313305467367164
2023-01-29 15:50:16.999678,0.09583657389182648
2023-01-29 15:50:17.004678,0.09664297103881825
2023-01-29 15:50:17.009678,0.09530067527045029
2023-01-29 15:50:17.014678,0.09176274389028535
2023-01-29 15:50:17.019678,0.0858299758399572
2023-01-29 15:50:17.024678,0.07731437683105458
2023-01-29 15:50:17.029678,0.06644157440473987
2023-01-29 15:50:17.034678,0.05373060703277578
2023-01-29 15:50:17.039678,0.039631714313016465
2023-01-29 15:50:17.044678,0.024665594100952072
2023-01-29 15:50:17.049678,0.00975717421315281
2023-01-29 15:50:17.054678,-0.00401477050036194
2023-01-29 15:50:17.059678,-0.015964446893062426
2023-01-29 15:50:17.064678,-0.025819540023803683
2023-01-29 15:50:17.069678,-0.0333987500801215
2023-01-29 15:50:17.074678,-0.0386812314391136
2023-01-29 15:50:17.079678,-0.042076360896320567
2023-01-29 15:50:17.084678,-0.04421055316925037
2023-01-29 15:50:17.089678,-0.04547871338918461
2023-01-29 15:50:17.094678,-0.04608571529388419
2023-01-29 15:50:17.099678,-0.046364662918253
2023-01-29 15:50:17.104678,-0.04666268825530998
2023-01-29 15:50:17.109678,-0.046996230785697354
2023-01-29 15:50:17.114678,-0.04716753959655759
2023-01-29 15:50:17.119678,-0.0471389460282261
2023-01-29 15:50:17.124678,-0.046975217759609146
2023-01-29 15:50:17.129678,-0.04654234455425004
2023-01-29 15:50:17.134678,-0.04562894627451887
2023-01-29 15:50:17.139678,-0.04428988768536685
2023-01-29 15:50:17.144678,-0.04274408146738996
2023-01-29 15:50:17.149678,-0.04102627752708802
2023-01-29 15:50:17.154678,-0.03906587883830069
2023-01-29 15:50:17.159678,-0.037006013121314636
2023-01-29 15:50:17.164678,-0.03509918972849842
2023-01-29 15:50:17.169678,-0.033369049526463496
2023-01-29 15:50:17.174678,-0.03170947358012187
2023-01-29 15:50:17.179678,-0.030237531956500092
2023-01-29 15:50:17.184678,-0.02920925617218007
2023-01-29 15:50:17.189678,-0.02864673333716158
2023-01-29 15:50:17.194678,-0.0283678378909826
2023-01-29 15:50:17.199678,-0.028319235403588872
2023-01-29 15:50:17.204678,-0.028560161590576085
2023-01-29 15:50:17.209678,-0.028975843916526432
2023-01-29 15:50:17.214678,-0.0293294601142406
2023-01-29 15:50:17.219678,-0.029569598130131224
2023-01-29 15:50:17.224678,-0.02981027029454702
2023-01-29 15:50:17.229678,-0.03006350439269571
2023-01-29 15:50:17.234678,-0.03026704117655754
2023-01-29 15:50:17.239678,-0.030505685793970286
2023-01-29 15:50:17.244678,-0.030916135758161496
2023-01-29 15:50:17.249678,-0.03142886769980142
2023-01-29 15:50:17.254678,-0.03187775611877439
2023-01-29 15:50:17.259678,-0.03230371107559482
2023-01-29 15:50:17.264678,-0.032887458801269503
2023-01-29 15:50:17.269678,-0.033660081501363674
2023-01-29 15:50:17.274678,-0.03454625606536858
2023-01-29 15:50:17.279678,-0.03559685034085505
2023-01-29 15:50:17.284678,-0.03687819093465804
2023-01-29 15:50:17.289678,-0.038197932139112226
2023-01-29 15:50:17.294678,-0.039234161376953076
2023-01-29 15:50:17.299678,-0.03989279238970304
2023-01-29 15:50:17.304678,-0.04029194638133041
2023-01-29 15:50:17.309678,-0.040495238784706934
2023-01-29 15:50:17.314678,-0.04055639356374739
2023-01-29 15:50:17.319678,-0.04074101142514896
2023-01-29 15:50:17.324678,-0.04137377068400379
2023-01-29 15:50:17.329678,-0.04248005779472937
2023-01-29 15:50:17.334678,-0.043825905770063386
2023-01-29 15:50:17.339678,-0.04521917504190308
2023-01-29 15:50:17.344678,-0.04644632339477527
2023-01-29 15:50:17.349678,-0.04693978825300054
2023-01-29 15:50:17.354678,-0.04582127183675754
2023-01-29 15:50:17.359678,-0.04233409569296312
2023-01-29 15:50:17.364678,-0.03613293170928947
2023-01-29 15:50:17.369678,-0.027411547099131107
2023-01-29 15:50:17.374678,-0.017213027924299205
2023-01-29 15:50:17.379678,-0.007623079672516937
2023-01-29 15:50:17.384678,-0.0012020270805805046
2023-01-29 15:50:17.389678,0.000126432063948009
2023-01-29 15:50:17.394678,-0.004183053970336925
2023-01-29 15:50:17.399678,-0.013253732754770492
2023-01-29 15:50:17.404678,-0.025074284523725527
2023-01-29 15:50:17.409678,-0.03702565293681246
2023-01-29 15:50:17.414678,-0.04680693149566648
2023-01-29 15:50:17.419678,-0.05331309657859589
2023-01-29 15:50:17.424678,-0.056711636483669156
2023-01-29 15:50:17.429678,-0.0578176966582666
2023-01-29 15:50:17.434678,-0.05757709592580785
2023-01-29 15:50:17.439678,-0.056930266642768824
2023-01-29 15:50:17.444678,-0.056663554161786936
2023-01-29 15:50:17.449678,-0.057184949737869896
2023-01-29 15:50:17.454678,-0.058562755584716665
2023-01-29 15:50:17.459678,-0.060677859305297156
2023-01-29 15:50:17.464678,-0.06293813884258265
2023-01-29 15:50:17.469678,-0.06363343031899889
2023-01-29 15:50:17.474678,-0.05966862291097641
2023-01-29 15:50:17.479678,-0.047061451099665884
2023-01-29 15:50:17.484678,-0.0220451764762401
2023-01-29 15:50:17.489678,0.01727506922264926
2023-01-29 15:50:17.494678,0.06885211169719688
2023-01-29 15:50:17.499678,0.12527679819581994
2023-01-29 15:50:17.504678,0.17453432083129883
2023-01-29 15:50:17.509678,0.20332576067733135
2023-01-29 15:50:17.514678,0.20170013606548287
2023-01-29 15:50:17.519678,0.16711723856853988
2023-01-29 15:50:17.524678,0.10628323256969446
2023-01-29 15:50:17.529678,0.033589948885572284
2023-01-29 15:50:17.534678,-0.03375291824340819
2023-01-29 15:50:17.539678,-0.08180492863427603
2023-01-29 15:50:17.544678,-0.10416766256093964
2023-01-29 15:50:17.549678,-0.10272113366678555
2023-01-29 15:50:17.554678,-0.08527179807424534
2023-01-29 15:50:17.559678,-0.06166580056492935
2023-01-29 15:50:17.564678,-0.04000345990061747
2023-01-29 15:50:17.569678,-0.024434887337669815
2023-01-29 15:50:17.574678,-0.015289783477783207
2023-01-29 15:50:17.579678,-0.010807313324267875
2023-01-29 15:50:17.584678,-0.008846919052302785
2023-01-29 15:50:17.589678,-0.007700134395971879
2023-01-29 15:50:17.594678,-0.006298621650785204
2023-01-29 15:50:17.599678,-0.0042220256718733485
2023-01-29 15:50:17.604678,-0.0014664729824289016
2023-01-29 15:50:17.609678,0.0019153214545773096
2023-01-29 15:50:17.614678,0.005889932624995699
2023-01-29 15:50:17.619678,0.010245374804835037
2023-01-29 15:50:17.624678,0.014616648666560601
2023-01-29 15:50:17.629678,0.018822335338575556
2023-01-29 15:50:17.634678,0.02300679683685298
2023-01-29 15:50:17.639678,0.027407625040189676
2023-01-29 15:50:17.644678,0.032190285623073474
2023-01-29 15:50:17.649678,0.0375561570398839
2023-01-29 15:50:17.654678,0.043753784149885074
2023-01-29 15:50:17.659678,0.05084862915712598
2023-01-29 15:50:17.664678,0.058658920228481175
2023-01-29 15:50:17.669678,0.06699987216102475
2023-01-29 15:50:17.674678,0.07577578723430628
2023-01-29 15:50:17.679678,0.0847366914111012
2023-01-29 15:50:17.684678,0.09339749813079828
2023-01-29 15:50:17.689678,0.10134547121325363
2023-01-29 15:50:17.694678,0.10837475955486288
2023-01-29 15:50:17.699678,0.11416005789985549
2023-01-29 15:50:17.704678,0.11815925687551489
2023-01-29 15:50:17.709678,0.12017856052252265
2023-01-29 15:50:17.714678,0.12065947055816648
2023-01-29 15:50:17.719678,0.11976477514941479
2023-01-29 15:50:17.724678,0.11633217334747303
2023-01-29 15:50:17.729678,0.10864302346428024
2023-01-29 15:50:17.734678,0.09664297103881825
2023-01-29 15:50:17.739678,0.08271782599057394
2023-01-29 15:50:17.744678,0.06952524185180654
2023-01-29 15:50:17.749678,0.0573726265097431
2023-01-29 15:50:17.754678,0.044547121971845585
2023-01-29 15:50:17.759678,0.030143144313529234
2023-01-29 15:50:17.764678,0.015602311119437195
2023-01-29 15:50:17.769678,0.0031383477460799505
2023-01-29 15:50:17.774678,-0.006466905586421417
2023-01-29 15:50:17.779678,-0.01379279759716644
2023-01-29 15:50:17.784678,-0.01918435096740722
2023-01-29 15:50:17.789678,-0.022316863884376346
2023-01-29 15:50:17.794678,-0.023271244019269915
2023-01-29 15:50:17.799678,-0.02307710096900534
2023-01-29 15:50:17.804678,-0.022886594757437685
2023-01-29 15:50:17.809678,-0.02321069751190422
2023-01-29 15:50:17.814678,-0.024184783920645693
2023-01-29 15:50:17.819678,-0.025930954276762126
2023-01-29 15:50:17.824678,-0.02822359465062612
2023-01-29 15:50:17.829678,-0.03025771045182878
2023-01-29 15:50:17.834678,-0.0312527045607566
2023-01-29 15:50:17.839678,-0.031095337574778576
2023-01-29 15:50:17.844678,-0.03012279793620098
2023-01-29 15:50:17.849678,-0.028595829590348072
2023-01-29 15:50:17.854678,-0.026733081787824603
2023-01-29 15:50:17.859678,-0.02495812812035223
2023-01-29 15:50:17.864678,-0.023655891418456993
2023-01-29 15:50:17.869678,-0.022804337310932253
2023-01-29 15:50:17.874678,-0.022165378555655375
2023-01-29 15:50:17.879678,-0.021678561469606297
2023-01-29 15:50:17.884678,-0.021347999572753896
2023-01-29 15:50:17.889678,-0.020916128604800688
2023-01-29 15:50:17.894678,-0.020025771111249882
2023-01-29 15:50:17.899678,-0.018629197296269506
2023-01-29 15:50:17.904678,-0.016948580741882276
2023-01-29 15:50:17.909678,-0.015153918716351768
2023-01-29 15:50:17.914678,-0.013390581123530807
2023-01-29 15:50:17.919678,-0.012003332342504355
2023-01-29 15:50:17.924678,-0.011371175758540568
2023-01-29 15:50:17.929678,-0.011540989673164071
2023-01-29 15:50:17.934678,-0.012284716591238847
2023-01-29 15:50:17.939678,-0.013438277171370186
2023-01-29 15:50:17.944678,-0.014905135147273457
2023-01-29 15:50:17.949678,-0.016420787719599816
2023-01-29 15:50:17.954678,-0.017645757645368458
2023-01-29 15:50:17.959678,-0.018474451104049074
2023-01-29 15:50:17.964678,-0.01899202726781358
2023-01-29 15:50:17.969678,-0.01919016242951881
2023-01-29 15:50:17.974678,-0.019016068428754765
2023-01-29 15:50:17.979678,-0.018652513484425204
2023-01-29 15:50:17.984678,-0.018439095467328973
2023-01-29 15:50:17.989678,-0.018510090406470923
2023-01-29 15:50:17.994678,-0.018751621246337797
2023-01-29 15:50:17.999678,-0.019066256568634882
2023-01-29 15:50:18.004678,-0.019400715827941745
2023-01-29 15:50:18.009678,-0.01955486811880144
2023-01-29 15:50:18.014678,-0.019280513748526473
2023-01-29 15:50:18.019678,-0.01860118408965455
2023-01-29 15:50:18.024678,-0.017790000885724997
2023-01-29 15:50:18.029678,-0.017035694646061368
2023-01-29 15:50:18.034678,-0.01637160778045642
2023-01-29 15:50:18.039678,-0.015899955478547848
2023-01-29 15:50:18.044678,-0.01579463481903072
2023-01-29 15:50:18.049678,-0.01605071632412975
2023-01-29 15:50:18.054678,-0.01644372940063468
2023-01-29 15:50:18.059678,-0.016677769444417113
2023-01-29 15:50:18.064678,-0.01627544686198228
2023-01-29 15:50:18.069678,-0.014354937533817821
2023-01-29 15:50:18.074678,-0.009928743354976035
2023-01-29 15:50:18.079678,-0.0026823779798299746
2023-01-29 15:50:18.084678,0.0065390272065997315
2023-01-29 15:50:18.089678,0.01588328118991335
2023-01-29 15:50:18.094678,0.022958716377615877
2023-01-29 15:50:18.099678,0.02549043901188327
2023-01-29 15:50:18.104678,0.022285580635070787
2023-01-29 15:50:18.109678,0.014033317313349272
2023-01-29 15:50:18.114678,0.003101229667663496
2023-01-29 15:50:18.119678,-0.007628817728499875
2023-01-29 15:50:18.124678,-0.015914838761091225
2023-01-29 15:50:18.129678,-0.02070640832387933
2023-01-29 15:50:18.134678,-0.022285580635070825
2023-01-29 15:50:18.139678,-0.02207904797540777
2023-01-29 15:50:18.144678,-0.021924972534179608
2023-01-29 15:50:18.149678,-0.023118856856152892
2023-01-29 15:50:18.154678,-0.02603590488433833
2023-01-29 15:50:18.159678,-0.03044621730517413
2023-01-29 15:50:18.164678,-0.0358204059302806
2023-01-29 15:50:18.169678,-0.04127094325020688
2023-01-29 15:50:18.174678,-0.045460663735866505
2023-01-29 15:50:18.179678,-0.046585911702632744
2023-01-29 15:50:18.184678,-0.042167108505964196
2023-01-29 15:50:18.189678,-0.028955313031525737
2023-01-29 15:50:18.194678,-0.0038224458694458385
2023-01-29 15:50:18.199678,0.03426854674496302
2023-01-29 15:50:18.204678,0.08231481164693827
2023-01-29 15:50:18.209678,0.13252461901729304
2023-01-29 15:50:18.214678,0.17330825328826888
2023-01-29 15:50:18.219678,0.19222022547467668
2023-01-29 15:50:18.224678,0.1804723441600798
2023-01-29 15:50:18.229678,0.13720321584615713
2023-01-29 15:50:18.234678,0.07094363868236536
2023-01-29 15:50:18.239678,-0.0028450006004703708
2023-01-29 15:50:18.244678,-0.06695290654897679
2023-01-29 15:50:18.249678,-0.10807271572613873
2023-01-29 15:50:18.254678,-0.12087583541870109
2023-01-29 15:50:18.259678,-0.10892317403716274
2023-01-29 15:50:18.264678,-0.08193016052246085
2023-01-29 15:50:18.269678,-0.050979771868810295
2023-01-29 15:50:18.274678,-0.024473270401358594
2023-01-29 15:50:18.279678,-0.006423428454241113
2023-01-29 15:50:18.284678,0.0032454729080200035
2023-01-29 15:50:18.289678,0.007226667375877863
2023-01-29 15:50:18.294678,0.008750757202505979
2023-01-29 15:50:18.299678,0.00986899066953714
2023-01-29 15:50:18.304678,0.011178851127624501
2023-01-29 15:50:18.309678,0.01267822977593141
2023-01-29 15:50:18.314678,0.014328162185847688
2023-01-29 15:50:18.319678,0.01595406760049805
2023-01-29 15:50:18.324678,0.017429392784833873
2023-01-29 15:50:18.329678,0.019224113318862604
2023-01-29 15:50:18.334678,0.02214133739471429
2023-01-29 15:50:18.339678,0.026228809916786885
2023-01-29 15:50:18.344678,0.030603608116507457
2023-01-29 15:50:18.349678,0.034742114912852354
2023-01-29 15:50:18.354678,0.0392822436988353
2023-01-29 15:50:18.359678,0.04500108469030672
2023-01-29 15:50:18.364678,0.051591001451015354
2023-01-29 15:50:18.369678,0.05814466531557349
2023-01-29 15:50:18.374678,0.0644046068191528
2023-01-29 15:50:18.379678,0.07075842032579381
2023-01-29 15:50:18.384678,0.07729034125804898
2023-01-29 15:50:18.389678,0.08365771800995316
2023-01-29 15:50:18.394678,0.08981546014547338
2023-01-29 15:50:18.399678,0.09610672899240022
2023-01-29 15:50:18.404678,0.10255694389343253
2023-01-29 15:50:18.409678,0.10863832880318317
2023-01-29 15:50:18.414678,0.11375983804464336
2023-01-29 15:50:18.419678,0.11744741540275777
2023-01-29 15:50:18.424678,0.11900067329406724
2023-01-29 15:50:18.429678,0.1175382859255349
2023-01-29 15:50:18.434678,0.11258184909820546
2023-01-29 15:50:18.439678,0.10427278510129942
2023-01-29 15:50:18.444678,0.09301285445690145
2023-01-29 15:50:18.449678,0.07931641487180902
2023-01-29 15:50:18.454678,0.06404399871826168
2023-01-29 15:50:18.459678,0.048298877810390495
2023-01-29 15:50:18.464678,0.03291150182485579
2023-01-29 15:50:18.469678,0.018302115031229322
2023-01-29 15:50:18.474678,0.004856189247220729
2023-01-29 15:50:18.479678,-0.006952989132239153
2023-01-29 15:50:18.484678,-0.016876459121704077
2023-01-29 15:50:18.489678,-0.024958018573727335
2023-01-29 15:50:18.494678,-0.031228661537170417
2023-01-29 15:50:18.499678,-0.035692317538502154
2023-01-29 15:50:18.504678,-0.0386812314391136
2023-01-29 15:50:18.509678,-0.040857159717079775
2023-01-29 15:50:18.514678,-0.04274408146738996
2023-01-29 15:50:18.519678,-0.04453148113861321
2023-01-29 15:50:18.524678,-0.04632612317800517
2023-01-29 15:50:18.529678,-0.04818593264889347
2023-01-29 15:50:18.534678,-0.04981200024485576
2023-01-29 15:50:18.539678,-0.050599724743306845
2023-01-29 15:50:18.544678,-0.05017260834574689
2023-01-29 15:50:18.549678,-0.04862907857497462
2023-01-29 15:50:18.554678,-0.04625400155782689
2023-01-29 15:50:18.559678,-0.04335475827205088
2023-01-29 15:50:18.564678,-0.04043618962168689
2023-01-29 15:50:18.569678,-0.03810104312986993
2023-01-29 15:50:18.574678,-0.036565661430358755
2023-01-29 15:50:18.579678,-0.0355344281342641
2023-01-29 15:50:18.584678,-0.034642420709133044
2023-01-29 15:50:18.589678,-0.03372957016296715
2023-01-29 15:50:18.594678,-0.03264705464243879
2023-01-29 15:50:18.599678,-0.031206269629846368
2023-01-29 15:50:18.604678,-0.02947370335459694
2023-01-29 15:50:18.609678,-0.0277742189938475
2023-01-29 15:50:18.614678,-0.02625226974487296
2023-01-29 15:50:18.619678,-0.02473145762377339
2023-01-29 15:50:18.624678,-0.023102959617972284
2023-01-29 15:50:18.629678,-0.021506785893847316
2023-01-29 15:50:18.634678,-0.02002577111124986
2023-01-29 15:50:18.639678,-0.018576309550327973
2023-01-29 15:50:18.644678,-0.017237067222595197
2023-01-29 15:50:18.649678,-0.016309267279505137
2023-01-29 15:50:18.654678,-0.015890797600150084
2023-01-29 15:50:18.659678,-0.015743104067850892
2023-01-29 15:50:18.664678,-0.015722513198852497
2023-01-29 15:50:18.669678,-0.01597515264221853
2023-01-29 15:50:18.674678,-0.01656393334269523
2023-01-29 15:50:18.679678,-0.017296303024713043
2023-01-29 15:50:18.684678,-0.01807848736643789
2023-01-29 15:50:18.689678,-0.019027194780107882
2023-01-29 15:50:18.694678,-0.020049810409545784
2023-01-29 15:50:18.699678,-0.020743926322225204
2023-01-29 15:50:18.704678,-0.02093931101262559
2023-01-29 15:50:18.709678,-0.02094097052625453
2023-01-29 15:50:18.714678,-0.02101143263280387
2023-01-29 15:50:18.719678,-0.020983364521869836
2023-01-29 15:50:18.724678,-0.020530622452497378
2023-01-29 15:50:18.729678,-0.019339402447723843
2023-01-29 15:50:18.734678,-0.016828378662467006
2023-01-29 15:50:18.739678,-0.012332651268035592
2023-01-29 15:50:18.744678,-0.006058216094970694
2023-01-29 15:50:18.749678,0.00045478639665355125
2023-01-29 15:50:18.754678,0.0051206350326538095
2023-01-29 15:50:18.759678,0.006309585244805242
2023-01-29 15:50:18.764678,0.003149310825392573
2023-01-29 15:50:18.769678,-0.004267052662380252
2023-01-29 15:50:18.774678,-0.014400283806025888
2023-01-29 15:50:18.779678,-0.02456308084144506
2023-01-29 15:50:18.784678,-0.03240665048360823
2023-01-29 15:50:18.789678,-0.03706318212417095
2023-01-29 15:50:18.794678,-0.03882547467946999
2023-01-29 15:50:18.799678,-0.03843297620970982
2023-01-29 15:50:18.804678,-0.037046473473310415
2023-01-29 15:50:18.809678,-0.036103862707378837
2023-01-29 15:50:18.814678,-0.0363973788917064
2023-01-29 15:50:18.819678,-0.03762988167991968
2023-01-29 15:50:18.824678,-0.03930628299713129
2023-01-29 15:50:18.829678,-0.04146122237374045
2023-01-29 15:50:18.834678,-0.043946109712123815
2023-01-29 15:50:18.839678,-0.04559511460087157
2023-01-29 15:50:18.844678,-0.044643282890319755
2023-01-29 15:50:18.849678,-0.039232121418040854
2023-01-29 15:50:18.854678,-0.026901364326476985
2023-01-29 15:50:18.859678,-0.0047629436339398975
2023-01-29 15:50:18.864678,0.028151473030447908
2023-01-29 15:50:18.869678,0.0684848628676006
2023-01-29 15:50:18.874678,0.10878344625234596
2023-01-29 15:50:18.879678,0.13948449952420572
2023-01-29 15:50:18.884678,0.15073418617248527
2023-01-29 15:50:18.889678,0.13504197010972563
2023-01-29 15:50:18.894678,0.09169062227010716
2023-01-29 15:50:18.899678,0.029314933109955258
2023-01-29 15:50:18.904678,-0.0372628383338451
2023-01-29 15:50:18.909678,-0.09339511899910129
2023-01-29 15:50:18.914678,-0.12849669158458693
2023-01-29 15:50:18.919678,-0.13717705999937702
2023-01-29 15:50:18.924678,-0.12114028632640823
2023-01-29 15:50:18.929678,-0.09036223683815585
2023-01-29 15:50:18.934678,-0.05834639072418203
2023-01-29 15:50:18.939678,-0.03339331886763554
2023-01-29 15:50:18.944678,-0.015337864868342795
2023-01-29 15:50:18.949678,-0.0010789105834588851
2023-01-29 15:50:18.954678,0.009568135254084984
2023-01-29 15:50:18.959678,0.015212857634073571
2023-01-29 15:50:18.964678,0.01716494560241686
2023-01-29 15:50:18.969678,0.018859264397445608
2023-01-29 15:50:18.974678,0.021756689995527195
2023-01-29 15:50:18.979678,0.024591349865354918
2023-01-29 15:50:18.984678,0.026492675766348794
2023-01-29 15:50:18.989678,0.028385460253182032
2023-01-29 15:50:18.994678,0.03103633783757679
2023-01-29 15:50:18.999678,0.03387142778332376
2023-01-29 15:50:19.004678,0.03642141819000234
2023-01-29 15:50:19.009678,0.03932741891821397
2023-01-29 15:50:19.014678,0.04317681118845928
2023-01-29 15:50:19.019678,0.04759597259401667
2023-01-29 15:50:19.024678,0.05219201371073717
2023-01-29 15:50:19.029678,0.05735966882652716
2023-01-29 15:50:19.034678,0.06349106878042216
2023-01-29 15:50:19.039678,0.07025049276068897
2023-01-29 15:50:19.044678,0.0772662982344626
2023-01-29 15:50:19.049678,0.08481997314487763
2023-01-29 15:50:19.054678,0.09325325489044171
2023-01-29 15:50:19.059678,0.10228781551818551
2023-01-29 15:50:19.064678,0.11145194619894017
2023-01-29 15:50:19.069678,0.12061857800753195
2023-01-29 15:50:19.074678,0.12957851588726033
2023-01-29 15:50:19.079678,0.1375276711490575
2023-01-29 15:50:19.084678,0.14347395300865162
2023-01-29 15:50:19.089678,0.14679557665392023
2023-01-29 15:50:19.094678,0.1470079123973845
2023-01-29 15:50:19.099678,0.14341259640942394
2023-01-29 15:50:19.104678,0.1355165243148802
2023-01-29 15:50:19.109678,0.12360951057247269
2023-01-29 15:50:19.114678,0.10859112441539755
2023-01-29 15:50:19.119678,0.09147352676310648
2023-01-29 15:50:19.124678,0.07334768772125236
2023-01-29 15:50:19.129678,0.05547989831174357
2023-01-29 15:50:19.134678,0.03892163559794415
2023-01-29 15:50:19.139678,0.024068038838442038
2023-01-29 15:50:19.144678,0.010866324417292962
2023-01-29 15:50:19.149678,-0.0006705482464986995
2023-01-29 15:50:19.154678,-0.010385513305663984
2023-01-29 15:50:19.159678,-0.018203103418740207
2023-01-29 15:50:19.164678,-0.024112662300467366
2023-01-29 15:50:19.169678,-0.02804529459935479
2023-01-29 15:50:19.174678,-0.030074715614318837
2023-01-29 15:50:19.179678,-0.030698291545650572
2023-01-29 15:50:19.184678,-0.030675729736685704
2023-01-29 15:50:19.189678,-0.0305914909030407
2023-01-29 15:50:19.194678,-0.03069977089762678
2023-01-29 15:50:19.199678,-0.0310660978671798
2023-01-29 15:50:19.204678,-0.031613312661647665
2023-01-29 15:50:19.209678,-0.03206634822500889
2023-01-29 15:50:19.214678,-0.032094120979308964
2023-01-29 15:50:19.219678,-0.03157818559992409
2023-01-29 15:50:19.224678,-0.030651688575744605
2023-01-29 15:50:19.229678,-0.029500777158494904
2023-01-29 15:50:19.234678,-0.0282476358115673
2023-01-29 15:50:19.239678,-0.026991182176959415
2023-01-29 15:50:19.244678,-0.025795500725507688
2023-01-29 15:50:19.249678,-0.024601439104419406
2023-01-29 15:50:19.254678,-0.023271244019269905
2023-01-29 15:50:19.259678,-0.02178229127387986
2023-01-29 15:50:19.264678,-0.0203142575919628
2023-01-29 15:50:19.269678,-0.019112653377260893
2023-01-29 15:50:19.274678,-0.018318891525268464
2023-01-29 15:50:19.279678,-0.01793976439630128
2023-01-29 15:50:19.284678,-0.01788616180419918
2023-01-29 15:50:19.289678,-0.01798043816714098
2023-01-29 15:50:19.294678,-0.01800636574625955
2023-01-29 15:50:19.299678,-0.01786470635097035
2023-01-29 15:50:19.304678,-0.017669796943664474
2023-01-29 15:50:19.309678,-0.017606822712669137
2023-01-29 15:50:19.314678,-0.017693838104605567
2023-01-29 15:50:19.319678,-0.01776330190207266
2023-01-29 15:50:19.324678,-0.017669796943664464
2023-01-29 15:50:19.329678,-0.01741400980554456
2023-01-29 15:50:19.334678,-0.017068784683942656
2023-01-29 15:50:19.339678,-0.01673241303625537
2023-01-29 15:50:19.344678,-0.01658797264099114
2023-01-29 15:50:19.349678,-0.016821400139028383
2023-01-29 15:50:19.354678,-0.017357271164655567
2023-01-29 15:50:19.359678,-0.017792113153028193
2023-01-29 15:50:19.364678,-0.01766979694366446
2023-01-29 15:50:19.369678,-0.01667091158890442
2023-01-29 15:50:19.374678,-0.014472405426204185
2023-01-29 15:50:19.379678,-0.010721432003625823
2023-01-29 15:50:19.384678,-0.005433162208646529
2023-01-29 15:50:19.389678,0.0006987387642147738
2023-01-29 15:50:19.394678,0.006563067436218211
2023-01-29 15:50:19.399678,0.011053768569118902
2023-01-29 15:50:19.404678,0.013174216262996087
2023-01-29 15:50:19.409678,0.012214409536036579
2023-01-29 15:50:19.414678,0.008342067711055244
2023-01-29 15:50:19.419678,0.0028466764389941074
2023-01-29 15:50:19.424678,-0.0026444594841450258
2023-01-29 15:50:19.429678,-0.007127850702929929
2023-01-29 15:50:19.434678,-0.010241270065307567
2023-01-29 15:50:19.439678,-0.011859555127161628
2023-01-29 15:50:19.444678,-0.012308756820857502
2023-01-29 15:50:19.449678,-0.012585951114753087
2023-01-29 15:50:19.454678,-0.013510784134268686
2023-01-29 15:50:19.459678,-0.01482407718047978
2023-01-29 15:50:19.464678,-0.01591483876109121
2023-01-29 15:50:19.469678,-0.017110468760655095
2023-01-29 15:50:19.474678,-0.01906414888799193
2023-01-29 15:50:19.479678,-0.02096534888587207
2023-01-29 15:50:19.484678,-0.02079506777226922
2023-01-29 15:50:19.489678,-0.01754848003887255
2023-01-29 15:50:19.494678,-0.011467337608337404
2023-01-29 15:50:19.499678,-0.0012707538334406413
2023-01-29 15:50:19.504678,0.01697262190282337
2023-01-29 15:50:19.509678,0.0461445748684801
2023-01-29 15:50:19.514678,0.08346875756978975
2023-01-29 15:50:19.519678,0.12052256541481687
2023-01-29 15:50:19.524678,0.14717619121074668
2023-01-29 15:50:19.529678,0.15483457402860043
2023-01-29 15:50:19.534678,0.13794462382793415
2023-01-29 15:50:19.539678,0.09616363190007501
2023-01-29 15:50:19.544678,0.036733947694301584
2023-01-29 15:50:19.549678,-0.026635895857170945
2023-01-29 15:50:19.554678,-0.07911741733551017
2023-01-29 15:50:19.559678,-0.1103191651445132
2023-01-29 15:50:19.564678,-0.11669278144836417
2023-01-29 15:50:19.569678,-0.10130853518007607
2023-01-29 15:50:19.574678,-0.07231394946575159
2023-01-29 15:50:19.579678,-0.0398522984866585
2023-01-29 15:50:19.584678,-0.012020270340144586
2023-01-29 15:50:19.589678,0.007533211922361858
2023-01-29 15:50:19.594678,0.018943946808576473
2023-01-29 15:50:19.599678,0.02415159859033512
2023-01-29 15:50:19.604678,0.02567529678344717
2023-01-29 15:50:19.609678,0.02596175846985387
2023-01-29 15:50:19.614678,0.026564797386527013
2023-01-29 15:50:19.619678,0.02782069543261795
2023-01-29 15:50:19.624678,0.029593905434012413
2023-01-29 15:50:19.629678,0.032033259735151025
2023-01-29 15:50:19.634678,0.03533959388732913
2023-01-29 15:50:19.639678,0.039291023073210696
2023-01-29 15:50:19.644678,0.043489336967468165
2023-01-29 15:50:19.649678,0.04778225012287616
2023-01-29 15:50:19.654678,0.052071809768676716
2023-01-29 15:50:19.659678,0.05605312089307146
2023-01-29 15:50:19.664678,0.05959650129079809
2023-01-29 15:50:19.669678,0.0631726101751327
2023-01-29 15:50:19.674678,0.06752987951040257
2023-01-29 15:50:19.679678,0.07312804410772705
2023-01-29 15:50:19.684678,0.08012712001800529
2023-01-29 15:50:19.689678,0.08858703808408684
2023-01-29 15:50:19.694678,0.09825368970632548
2023-01-29 15:50:19.699678,0.1083421467225393
2023-01-29 15:50:19.704678,0.117918848991394
2023-01-29 15:50:19.709678,0.12641290946648776
2023-01-29 15:50:19.714678,0.13354520499706254
2023-01-29 15:50:19.719678,0.13900163360737397
2023-01-29 15:50:19.724678,0.14248828589916215
2023-01-29 15:50:19.729678,0.14390265406940558
2023-01-29 15:50:19.734678,0.14311334490776056
2023-01-29 15:50:19.739678,0.13971770913655301
2023-01-29 15:50:19.744678,0.133328840136528
2023-01-29 15:50:19.749678,0.12399868700879113
2023-01-29 15:50:19.754678,0.11212508380413051
2023-01-29 15:50:19.759678,0.09811343812688278
2023-01-29 15:50:19.764678,0.08241097629070278
2023-01-29 15:50:19.769678,0.06572453333376976
2023-01-29 15:50:19.774678,0.04889845848083484
2023-01-29 15:50:19.779678,0.03265190044051277
2023-01-29 15:50:19.784678,0.01764575764536851
2023-01-29 15:50:19.789678,0.004635441136870352
2023-01-29 15:50:19.794678,-0.005769729614257832
2023-01-29 15:50:19.799678,-0.013468815201704738
2023-01-29 15:50:19.804678,-0.01879970356822006
2023-01-29 15:50:19.809678,-0.02221384763487821
2023-01-29 15:50:19.814678,-0.0242088250815868
2023-01-29 15:50:19.819678,-0.025400267767019476
2023-01-29 15:50:19.824678,-0.026324391365051207
2023-01-29 15:50:19.829678,-0.027167284651454533
2023-01-29 15:50:19.834678,-0.027862986549734983
2023-01-29 15:50:19.839678,-0.02836920029587341
2023-01-29 15:50:19.844678,-0.028656324371695522
2023-01-29 15:50:19.849678,-0.02855512386504613
2023-01-29 15:50:19.854678,-0.027887027710676054
2023-01-29 15:50:19.859678,-0.02671372144664481
2023-01-29 15:50:19.864678,-0.025266608223318988
2023-01-29 15:50:19.869678,-0.02369524271716841
2023-01-29 15:50:19.874678,-0.022069215774536056
2023-01-29 15:50:19.879678,-0.020530024342762784
2023-01-29 15:50:19.884678,-0.019208392128348295
2023-01-29 15:50:19.889678,-0.018037886695696812
2023-01-29 15:50:19.894678,-0.016852419823408127
2023-01-29 15:50:19.899678,-0.01562959459062959
2023-01-29 15:50:19.904678,-0.014472405426204201
2023-01-29 15:50:19.909678,-0.013432195975055933
2023-01-29 15:50:19.914678,-0.012549161911010699
2023-01-29 15:50:19.919678,-0.011998351955037519
2023-01-29 15:50:19.924678,-0.011972188949584895
2023-01-29 15:50:19.929678,-0.01242754854090304
2023-01-29 15:50:19.934678,-0.013102094642817872
2023-01-29 15:50:19.939678,-0.013731398819511019
2023-01-29 15:50:19.944678,-0.014111797325312987
2023-01-29 15:50:19.949678,-0.014066375243365153
2023-01-29 15:50:19.954678,-0.01358290575444688
2023-01-29 15:50:19.959678,-0.012952184945617859
2023-01-29 15:50:19.964678,-0.01257320307195177
2023-01-29 15:50:19.969678,-0.012624807135483227
2023-01-29 15:50:19.974678,-0.013029973022639694
2023-01-29 15:50:19.979678,-0.013604124798833776
2023-01-29 15:50:19.984678,-0.014015635475516295
2023-01-29 15:50:19.989678,-0.013692102985084298
2023-01-29 15:50:19.994678,-0.012044310569763093
2023-01-29 15:50:19.999678,-0.008837980008361815
2023-01-29 15:50:20.004678,-0.004279216285794879
2023-01-29 15:50:20.009678,0.0010811053166036354
2023-01-29 15:50:20.014678,0.006274580955505319
2023-01-29 15:50:20.019678,0.009908742305272241
2023-01-29 15:50:20.024678,0.010673999786376872
2023-01-29 15:50:20.029678,0.008051185456557728
2023-01-29 15:50:20.034678,0.0025002162437884625
2023-01-29 15:50:20.039678,-0.004855779353430885
2023-01-29 15:50:20.044678,-0.012501081451773617
2023-01-29 15:50:20.049678,-0.018793764651940534
2023-01-29 15:50:20.054678,-0.022646188735961893
2023-01-29 15:50:20.059678,-0.024204361161941655
2023-01-29 15:50:20.064678,-0.024593472480773912
2023-01-29 15:50:20.069678,-0.02490715601378045
2023-01-29 15:50:20.074678,-0.025699337944388286
2023-01-29 15:50:20.079678,-0.027371809796005446
2023-01-29 15:50:20.084678,-0.030411284416913896
2023-01-29 15:50:20.089678,-0.03484378382959089
2023-01-29 15:50:20.094678,-0.0397630557417869
2023-01-29 15:50:20.099678,-0.043736410678475245
2023-01-29 15:50:20.104678,-0.04543662071228018
2023-01-29 15:50:20.109678,-0.0435471210388165
2023-01-29 15:50:20.114678,-0.03630121797323219
2023-01-29 15:50:20.119678,-0.021692180558161335
2023-01-29 15:50:20.124678,0.0015145540237425906
2023-01-29 15:50:20.129678,0.03265347635739199
2023-01-29 15:50:20.134678,0.06832321733236306
2023-01-29 15:50:20.139678,0.10203138834550937
2023-01-29 15:50:20.144678,0.12498676776885977
2023-01-29 15:50:20.149678,0.12861349095778726
2023-01-29 15:50:20.154678,0.1080381870269775
2023-01-29 15:50:20.159678,0.06471404666906612
2023-01-29 15:50:20.164678,0.006779432296752905
2023-01-29 15:50:20.169678,-0.05304739512580742
2023-01-29 15:50:20.174678,-0.1013789623975753
2023-01-29 15:50:20.179678,-0.1285663380467376
2023-01-29 15:50:20.184678,-0.1317181289196014
2023-01-29 15:50:20.189678,-0.11484666265506363
2023-01-29 15:50:20.194678,-0.08632957935333248
2023-01-29 15:50:20.199678,-0.05535319556750424
2023-01-29 15:50:20.204678,-0.0289928913116455
2023-01-29 15:50:20.209678,-0.010704459884758013
2023-01-29 15:50:20.214678,-0.00038464865065172187
2023-01-29 15:50:20.219678,0.004275733948063475
2023-01-29 15:50:20.224678,0.006034175865352106
2023-01-29 15:50:20.229678,0.006972836316176256
2023-01-29 15:50:20.234678,0.008269946090876952
2023-01-29 15:50:20.239678,0.010355412319412172
2023-01-29 15:50:20.244678,0.013102094642817919
2023-01-29 15:50:20.249678,0.016167229807829846
2023-01-29 15:50:20.254678,0.01942475698888303
2023-01-29 15:50:20.259678,0.023086243939362185
2023-01-29 15:50:20.264678,0.027430256828665695
2023-01-29 15:50:20.269678,0.032560284820062006
2023-01-29 15:50:20.274678,0.0384167842566967
2023-01-29 15:50:20.279678,0.04480652789552958
2023-01-29 15:50:20.284678,0.05135059356689446
2023-01-29 15:50:20.289678,0.05761428237561285
2023-01-29 15:50:20.294678,0.0634429901838302
2023-01-29 15:50:20.299678,0.06909545038738861
2023-01-29 15:50:20.304678,0.07500648498535148
2023-01-29 15:50:20.309678,0.08153148985922547
2023-01-29 15:50:20.314678,0.08890192210674278
2023-01-29 15:50:20.319678,0.09717062640601953
2023-01-29 15:50:20.324678,0.10604282468557343
2023-01-29 15:50:20.329678,0.1148798101651709
2023-01-29 15:50:20.334678,0.12296736240386955
2023-01-29 15:50:20.339678,0.12969211235224037
2023-01-29 15:50:20.344678,0.1344587504863739
2023-01-29 15:50:20.349678,0.1366634281567891
2023-01-29 15:50:20.354678,0.13587713241577135
2023-01-29 15:50:20.359678,0.1319235696477236
2023-01-29 15:50:20.364678,0.12472232431173316
2023-01-29 15:50:20.369678,0.11426123466136805
2023-01-29 15:50:20.374678,0.10085006803274146
2023-01-29 15:50:20.379678,0.08524858550620752
2023-01-29 15:50:20.384678,0.06844341754913326
2023-01-29 15:50:20.389678,0.051439508751218735
2023-01-29 15:50:20.394678,0.035291515290737076
2023-01-29 15:50:20.399678,0.021029081552778946
2023-01-29 15:50:20.404678,0.00930368900299067
2023-01-29 15:50:20.409678,0.00020162136606444864
2023-01-29 15:50:20.414678,-0.006514986511319825
2023-01-29 15:50:20.419678,-0.011168285351544625
2023-01-29 15:50:20.424678,-0.01423200033605091
2023-01-29 15:50:20.429678,-0.01632559572047758
2023-01-29 15:50:20.434678,-0.017886161804199236
2023-01-29 15:50:20.439678,-0.018986404499112878
2023-01-29 15:50:20.444678,-0.019617080688476462
2023-01-29 15:50:20.449678,-0.01994254429877879
2023-01-29 15:50:20.454678,-0.020121932029724083
2023-01-29 15:50:20.459678,-0.020123922794811542
2023-01-29 15:50:20.464678,-0.01992960833013049
2023-01-29 15:50:20.469678,-0.01969517553730237
2023-01-29 15:50:20.474678,-0.01949687860906117
2023-01-29 15:50:20.479678,-0.01914730569986117
2023-01-29 15:50:20.484678,-0.018511217087507217
2023-01-29 15:50:20.489678,-0.01779168837192758
2023-01-29 15:50:20.494678,-0.01726110838353628
2023-01-29 15:50:20.499678,-0.016924908318440793
2023-01-29 15:50:20.504678,-0.01668413542211049
2023-01-29 15:50:20.509678,-0.016567249472142633
2023-01-29 15:50:20.514678,-0.016515851020812877
2023-01-29 15:50:20.519678,-0.01620524757498623
2023-01-29 15:50:20.524678,-0.01540998648852101
2023-01-29 15:50:20.529678,-0.014324954913914159
2023-01-29 15:50:20.534678,-0.013222297653555811
2023-01-29 15:50:20.539678,-0.012057393642175668
2023-01-29 15:50:20.544678,-0.010746121406555068
2023-01-29 15:50:20.549678,-0.009527612785402487
2023-01-29 15:50:20.554678,-0.00865459442138668
2023-01-29 15:50:20.559678,-0.008018011011488017
2023-01-29 15:50:20.564678,-0.0075006484985350895
2023-01-29 15:50:20.569678,-0.007379280028247289
2023-01-29 15:50:20.574678,-0.007885297760367298
2023-01-29 15:50:20.579678,-0.008681794688087312
2023-01-29 15:50:20.584678,-0.00930368900299069
2023-01-29 15:50:20.589678,-0.009765914427988827
2023-01-29 15:50:20.594678,-0.0101210679858922
2023-01-29 15:50:20.599678,-0.009782963504968947
2023-01-29 15:50:20.604678,-0.008029541000723815
2023-01-29 15:50:20.609678,-0.004864408862715758
2023-01-29 15:50:20.614678,-0.0006250540609470789
2023-01-29 15:50:20.619678,0.0047911874871056645
2023-01-29 15:50:20.624678,0.011202892288565592
2023-01-29 15:50:20.629678,0.016974224643481774
2023-01-29 15:50:20.634678,0.019977688789367586
2023-01-29 15:50:20.639678,0.01980772480336206
2023-01-29 15:50:20.644678,0.017717879265546688
2023-01-29 15:50:20.649678,0.014248307255574891
2023-01-29 15:50:20.654678,0.008558432571589917
2023-01-29 15:50:20.659678,0.0007161742486484901
2023-01-29 15:50:20.664678,-0.00701983785256741
2023-01-29 15:50:20.669678,-0.012445038818183016
2023-01-29 15:50:20.674678,-0.0158186759799718
2023-01-29 15:50:20.679678,-0.01877258964280515
2023-01-29 15:50:20.684678,-0.021756689995527195
2023-01-29 15:50:20.689678,-0.02403594453551009
2023-01-29 15:50:20.694678,-0.025603175163268984
2023-01-29 15:50:20.699678,-0.027457543123717697
2023-01-29 15:50:20.704678,-0.030050676316022824
2023-01-29 15:50:20.709678,-0.032787619784507796
2023-01-29 15:50:20.714678,-0.03509918972849841
2023-01-29 15:50:20.719678,-0.03666236741435925
2023-01-29 15:50:20.724678,-0.0361088924109935
2023-01-29 15:50:20.729678,-0.03045786365479289
2023-01-29 15:50:20.734678,-0.016419690102338697
2023-01-29 15:50:20.739678,0.007939174620214647
2023-01-29 15:50:20.744678,0.042287312448024666
2023-01-29 15:50:20.749678,0.08316715235017583
2023-01-29 15:50:20.754678,0.12315969169139862
2023-01-29 15:50:20.759678,0.15181174077951837
2023-01-29 15:50:20.764678,0.15910029411315904
2023-01-29 15:50:20.769678,0.1395846938586738
2023-01-29 15:50:20.774678,0.09491205215454097
2023-01-29 15:50:20.779678,0.03392018447399908
2023-01-29 15:50:20.784678,-0.029569864273071213
2023-01-29 15:50:20.789678,-0.08107560094088917
2023-01-29 15:50:20.794678,-0.1105143651366233
2023-01-29 15:50:20.799678,-0.11534383539093497
2023-01-29 15:50:20.804678,-0.10015289485454544
2023-01-29 15:50:20.809678,-0.07362672742758777
2023-01-29 15:50:20.814678,-0.04493176937103267
2023-01-29 15:50:20.819678,-0.02084669813688466
2023-01-29 15:50:20.824678,-0.0043032569810748334
2023-01-29 15:50:20.829678,0.005237901522783886
2023-01-29 15:50:20.834678,0.010024905204772902
2023-01-29 15:50:20.839678,0.012289811822433742
2023-01-29 15:50:20.844678,0.013558864593505755
2023-01-29 15:50:20.849678,0.014698460491700463
2023-01-29 15:50:20.854678,0.016059082001447563
2023-01-29 15:50:20.859678,0.017688467911789824
2023-01-29 15:50:20.864678,0.01968920230865472
2023-01-29 15:50:20.869678,0.022361044316726288
2023-01-29 15:50:20.874678,0.025939743965864116
2023-01-29 15:50:20.879678,0.03035814706912981
2023-01-29 15:50:20.884678,0.035363636910915285
2023-01-29 15:50:20.889678,0.040708975354815546
2023-01-29 15:50:20.894678,0.046133797615766484
2023-01-29 15:50:20.899678,0.051358535976657405
2023-01-29 15:50:20.904678,0.056278906762599896
2023-01-29 15:50:20.909678,0.06108416128261393
2023-01-29 15:50:20.914678,0.06608744710683817
2023-01-29 15:50:20.919678,0.07153174732748978
2023-01-29 15:50:20.924678,0.0776028633117675
2023-01-29 15:50:20.929678,0.0844456102105614
2023-01-29 15:50:20.934678,0.09200315177440638
2023-01-29 15:50:20.939678,0.0998989735081187
2023-01-29 15:50:20.944678,0.1075573787093162
2023-01-29 15:50:20.949678,0.11437758600672396
2023-01-29 15:50:20.954678,0.11976997554302207
2023-01-29 15:50:20.959678,0.12318022398324653
2023-01-29 15:50:20.964678,0.12421747297048558
2023-01-29 15:50:20.969678,0.1227266154146697
2023-01-29 15:50:20.974678,0.11868815124034882
2023-01-29 15:50:20.979678,0.11211391569116831
2023-01-29 15:50:20.984678,0.10308583825826641
2023-01-29 15:50:20.989678,0.09182608733194653
2023-01-29 15:50:20.994678,0.07868468761444086
2023-01-29 15:50:20.999678,0.06412952267427706
2023-01-29 15:50:21.004678,0.04880229756236071
2023-01-29 15:50:21.009678,0.03352918928089887
2023-01-29 15:50:21.014678,0.019208392128348288
2023-01-29 15:50:21.019678,0.006660436566248222
2023-01-29 15:50:21.024678,-0.003485878463834458
2023-01-29 15:50:21.029678,-0.010902689856766793
2023-01-29 15:50:21.034678,-0.01565039157867429
2023-01-29 15:50:21.039678,-0.018144458491896803
2023-01-29 15:50:21.044678,-0.018992027267813582
2023-01-29 15:50:21.049678,-0.018809849154552014
2023-01-29 15:50:21.054678,-0.01810252666473381
2023-01-29 15:50:21.059678,-0.017205261675268063
2023-01-29 15:50:21.064678,-0.016299486160278293
2023-01-29 15:50:21.069678,-0.015489403169800207
2023-01-29 15:50:21.074678,-0.014857053756713786
2023-01-29 15:50:21.079678,-0.014445601876865576
2023-01-29 15:50:21.084678,-0.014232000336050883
2023-01-29 15:50:21.089678,-0.014144035765593017
2023-01-29 15:50:21.094678,-0.014087757095694518
2023-01-29 15:50:21.099678,-0.013969859332997733
2023-01-29 15:50:21.104678,-0.013751189224421928
2023-01-29 15:50:21.109678,-0.013485633621219094
2023-01-29 15:50:21.114678,-0.013246337883174374
2023-01-29 15:50:21.119678,-0.0129993992260341
2023-01-29 15:50:21.124678,-0.012597243301570405
2023-01-29 15:50:21.129678,-0.011892208052496954
2023-01-29 15:50:21.134678,-0.010818243026733298
2023-01-29 15:50:21.139678,-0.009426436490926645
2023-01-29 15:50:21.144678,-0.007957419380545602
2023-01-29 15:50:21.149678,-0.006844400480338604
2023-01-29 15:50:21.154678,-0.006490945816039994
2023-01-29 15:50:21.159678,-0.006998013983828863
2023-01-29 15:50:21.164678,-0.00814974308013911
2023-01-29 15:50:21.169678,-0.009588277223709002
2023-01-29 15:50:21.174678,-0.010890364646911626
2023-01-29 15:50:21.179678,-0.011605773228018118
2023-01-29 15:50:21.184678,-0.011491378769278493
2023-01-29 15:50:21.189678,-0.010741196092365176
2023-01-29 15:50:21.194678,-0.009832581505179405
2023-01-29 15:50:21.199678,-0.00917702870718466
2023-01-29 15:50:21.204678,-0.009063283912837533
2023-01-29 15:50:21.209678,-0.009785720702339452
2023-01-29 15:50:21.214678,-0.011491378769278526
2023-01-29 15:50:21.219678,-0.013905209491346587
2023-01-29 15:50:21.224678,-0.016467770561575824
2023-01-29 15:50:21.229678,-0.018687484715329966
2023-01-29 15:50:21.234678,-0.020073851570486995
2023-01-29 15:50:21.239678,-0.019883034823190968
2023-01-29 15:50:21.244678,-0.017453432083129758
2023-01-29 15:50:21.249678,-0.012886181142258906
2023-01-29 15:50:21.254678,-0.007067918777465792
2023-01-29 15:50:21.259678,-0.0011297173284479716
2023-01-29 15:50:21.264678,0.003630121704190856
2023-01-29 15:50:21.269678,0.005541293914921042
2023-01-29 15:50:21.274678,0.0033416352234780077
2023-01-29 15:50:21.279678,-0.0024130470933661644
2023-01-29 15:50:21.284678,-0.009447932243347125
2023-01-29 15:50:21.289678,-0.01576464765222928
2023-01-29 15:50:21.294678,-0.02096335217356678
2023-01-29 15:50:21.299678,-0.025240698498352553
2023-01-29 15:50:21.304678,-0.028031270951032593
2023-01-29 15:50:21.309678,-0.02861226567144902
2023-01-29 15:50:21.314678,-0.02752641960978497
2023-01-29 15:50:21.319678,-0.026310236187399857
2023-01-29 15:50:21.324678,-0.025915702804922953
2023-01-29 15:50:21.329678,-0.026266145375940544
2023-01-29 15:50:21.334678,-0.027286013588309174
2023-01-29 15:50:21.339678,-0.029407857289007477
2023-01-29 15:50:21.344678,-0.032791297882795264
2023-01-29 15:50:21.349678,-0.036627856769112364
2023-01-29 15:50:21.354678,-0.0392822436988353
2023-01-29 15:50:21.359678,-0.038387933311924485
2023-01-29 15:50:21.364678,-0.03060360811650748
2023-01-29 15:50:21.369678,-0.012206356269897956
2023-01-29 15:50:21.374678,0.018943946808576504
2023-01-29 15:50:21.379678,0.061318490739811445
2023-01-29 15:50:21.384678,0.10887961089611045
2023-01-29 15:50:21.389678,0.15172663368521278
2023-01-29 15:50:21.394678,0.1782125234603881
2023-01-29 15:50:21.399678,0.17863466552525453
2023-01-29 15:50:21.404678,0.1494359970092773
2023-01-29 15:50:21.409678,0.09551387749024155
2023-01-29 15:50:21.414678,0.029016932472586583
2023-01-29 15:50:21.419678,-0.03472190732537198
2023-01-29 15:50:21.424678,-0.0821946114301681
2023-01-29 15:50:21.429678,-0.10587877201410278
2023-01-29 15:50:21.434678,-0.10606686770915975
2023-01-29 15:50:21.439678,-0.08948865108666847
2023-01-29 15:50:21.444678,-0.06551047414541236
2023-01-29 15:50:21.449678,-0.04222128478213308
2023-01-29 15:50:21.454678,-0.024304986000060997
2023-01-29 15:50:21.459678,-0.012887284185910747
2023-01-29 15:50:21.464678,-0.006587108131497966
2023-01-29 15:50:21.469678,-0.003084894697355764
2023-01-29 15:50:21.474678,-0.0005288919201119787
2023-01-29 15:50:21.479678,0.0019325248119003314
2023-01-29 15:50:21.484678,0.004519621841609393
2023-01-29 15:50:21.489678,0.007319884818114166
2023-01-29 15:50:21.494678,0.010385513305663997
2023-01-29 15:50:21.499678,0.01368049845930925
2023-01-29 15:50:21.504678,0.017164945602416874
2023-01-29 15:50:21.509678,0.020825800952853336
2023-01-29 15:50:21.514678,0.024545392021536765
2023-01-29 15:50:21.519678,0.028113211310689157
2023-01-29 15:50:21.524678,0.0314931087195873
2023-01-29 15:50:21.529678,0.0349740980644574
2023-01-29 15:50:21.534678,0.03899375721812239
2023-01-29 15:50:21.539678,0.04391526342210418
2023-01-29 15:50:21.544678,0.049956243485212305
2023-01-29 15:50:21.549678,0.05709313611887942
2023-01-29 15:50:21.554678,0.06490945816040028
2023-01-29 15:50:21.559678,0.0726848724911346
2023-01-29 15:50:21.564678,0.07976651191711416
2023-01-29 15:50:21.569678,0.08582944958629174
2023-01-29 15:50:21.574678,0.09082516282796851
2023-01-29 15:50:21.579678,0.09485576255122628
2023-01-29 15:50:21.584678,0.09810944646596897
2023-01-29 15:50:21.589678,0.10069209887830709
2023-01-29 15:50:21.594678,0.10238866508007038
2023-01-29 15:50:21.599678,0.10267930388871226
2023-01-29 15:50:21.604678,0.10104238986968984
2023-01-29 15:50:21.609678,0.09717364495720134
2023-01-29 15:50:21.614678,0.090969406068325
2023-01-29 15:50:21.619678,0.08251389952205969
2023-01-29 15:50:21.624678,0.07214566320180887
2023-01-29 15:50:21.629678,0.06037397575809315
2023-01-29 15:50:21.634678,0.047648351639509146
2023-01-29 15:50:21.639678,0.03430176675713809
2023-01-29 15:50:21.644678,0.020722946152091037
2023-01-29 15:50:21.649678,0.007441780353199561
2023-01-29 15:50:21.654678,-0.0049763917922972965
2023-01-29 15:50:21.659678,-0.015992646585549494
2023-01-29 15:50:21.664678,-0.025074284523725482
2023-01-29 15:50:21.669678,-0.031828785628371235
2023-01-29 15:50:21.674678,-0.03625313565135001
2023-01-29 15:50:21.679678,-0.03874622238670729
2023-01-29 15:50:21.684678,-0.0398351773619651
2023-01-29 15:50:21.689678,-0.039962982948044075
2023-01-29 15:50:21.694678,-0.03947456926107403
2023-01-29 15:50:21.699678,-0.03859029305711616
2023-01-29 15:50:21.704678,-0.03733495995402328
2023-01-29 15:50:21.709678,-0.03564563614106662
2023-01-29 15:50:21.714678,-0.03360867500305168
2023-01-29 15:50:21.719678,-0.03148830679162226
2023-01-29 15:50:21.724678,-0.029521783813834118
2023-01-29 15:50:21.729678,-0.027818343281337463
2023-01-29 15:50:21.734678,-0.026444595307111712
2023-01-29 15:50:21.739678,-0.025431380025016735
2023-01-29 15:50:21.744678,-0.024665594100952114
2023-01-29 15:50:21.749678,-0.023931782845762996
2023-01-29 15:50:21.754678,-0.023102959617972322
2023-01-29 15:50:21.759678,-0.022175203735388775
2023-01-29 15:50:21.764678,-0.021131634712219193
2023-01-29 15:50:21.769678,-0.019947736801750934
2023-01-29 15:50:21.774678,-0.01875162124633781
2023-01-29 15:50:21.779678,-0.017809136479057713
2023-01-29 15:50:21.784678,-0.017309188842773403
2023-01-29 15:50:21.789678,-0.01729468977804563
2023-01-29 15:50:21.794678,-0.01779000088572498
2023-01-29 15:50:21.799678,-0.018798727222485115
2023-01-29 15:50:21.804678,-0.020145973190665217
2023-01-29 15:50:21.809678,-0.0215270492429766
2023-01-29 15:50:21.814678,-0.022790431976318307
2023-01-29 15:50:21.819678,-0.02402253393852615
2023-01-29 15:50:21.824678,-0.025314688682556093
2023-01-29 15:50:21.829678,-0.026624837699879132
2023-01-29 15:50:21.834678,-0.027911067008972102
2023-01-29 15:50:21.839678,-0.029179220480666363
2023-01-29 15:50:21.844678,-0.030291080474853488
2023-01-29 15:50:21.849678,-0.03093504895090003
2023-01-29 15:50:21.854678,-0.030964216217398595
2023-01-29 15:50:21.859678,-0.03064265828733901
2023-01-29 15:50:21.864678,-0.030411284416913875
2023-01-29 15:50:21.869678,-0.03051448183191266
2023-01-29 15:50:21.874678,-0.03098825737833972
2023-01-29 15:50:21.879678,-0.03188041371350286
2023-01-29 15:50:21.884678,-0.03324806690216062
2023-01-29 15:50:21.889678,-0.03492566049749759
2023-01-29 15:50:21.894678,-0.03644546121358869
2023-01-29 15:50:21.899678,-0.03722887295073215
2023-01-29 15:50:21.904678,-0.0367820262908935
2023-01-29 15:50:21.909678,-0.03472099603682971
2023-01-29 15:50:21.914678,-0.03077189251780495
2023-01-29 15:50:21.919678,-0.024929376391931875
2023-01-29 15:50:21.924678,-0.017717879265546705
2023-01-29 15:50:21.929678,-0.010316228476137728
2023-01-29 15:50:21.934678,-0.004351337905973068
2023-01-29 15:50:21.939678,-0.0013815172233803518
2023-01-29 15:50:21.944678,-0.0023078918457031155
2023-01-29 15:50:21.949678,-0.0070043313517484645
2023-01-29 15:50:21.954678,-0.0143281621858477
2023-01-29 15:50:21.959678,-0.02250952997005892
2023-01-29 15:50:21.964678,-0.029786229133605877
2023-01-29 15:50:21.969678,-0.03501666264789123
2023-01-29 15:50:21.974678,-0.03796001523733129
2023-01-29 15:50:21.979678,-0.0391141246113573
2023-01-29 15:50:21.984678,-0.03930628299713127
2023-01-29 15:50:21.989678,-0.03931373905925511
2023-01-29 15:50:21.994678,-0.0396428517997264
2023-01-29 15:50:21.999678,-0.04049281798877854
2023-01-29 15:50:22.004678,-0.041902661323547266
2023-01-29 15:50:22.009678,-0.043946735366375465
2023-01-29 15:50:22.014678,-0.046710770577192265
2023-01-29 15:50:22.019678,-0.049924677506345286
2023-01-29 15:50:22.024678,-0.05243241786956782
2023-01-29 15:50:22.029678,-0.0517961913666241
2023-01-29 15:50:22.034678,-0.044306717813014894
2023-01-29 15:50:22.039678,-0.0257285814750105
2023-01-29 15:50:22.044678,0.006995797157287484
2023-01-29 15:50:22.049678,0.05348319936213225
2023-01-29 15:50:22.054678,0.10823051631450648
2023-01-29 15:50:22.059678,0.16072305892938424
2023-01-29 15:50:22.064678,0.19780556857585896
2023-01-29 15:50:22.069678,0.20782366541997802
2023-01-29 15:50:22.074678,0.18516024947166437
2023-01-29 15:50:22.079678,0.13316504950494895
2023-01-29 15:50:22.084678,0.06373147666454307
2023-01-29 15:50:22.089678,-0.006665618234286242
2023-01-29 15:50:22.094678,-0.06269773095846173
2023-01-29 15:50:22.099678,-0.09507523120903971
2023-01-29 15:50:22.104678,-0.10270118713378898
2023-01-29 15:50:22.109678,-0.09155523809136196
2023-01-29 15:50:22.114678,-0.07111191749572751
2023-01-29 15:50:22.119678,-0.05013418043702317
2023-01-29 15:50:22.124678,-0.0338731221854686
2023-01-29 15:50:22.129678,-0.023624304677368438
2023-01-29 15:50:22.134678,-0.018030405044555626
2023-01-29 15:50:22.139678,-0.014843440967843555
2023-01-29 15:50:22.144678,-0.012260675430297813
2023-01-29 15:50:22.149678,-0.00950950506159306
2023-01-29 15:50:22.154678,-0.006659229751676299
2023-01-29 15:50:22.159678,-0.003991607821643148
2023-01-29 15:50:22.164678,-0.0015385946026071006
2023-01-29 15:50:22.169678,0.0009069599228995315
2023-01-29 15:50:22.174678,0.003582040546461911
2023-01-29 15:50:22.179678,0.006665662030930558
2023-01-29 15:50:22.184678,0.010241270065307622
2023-01-29 15:50:22.189678,0.01419785278669303
2023-01-29 15:50:22.194678,0.018246769905090325
2023-01-29 15:50:22.199678,0.022147241995602196
2023-01-29 15:50:22.204678,0.0258676223456859
2023-01-29 15:50:22.209678,0.02949517667385937
2023-01-29 15:50:22.214678,0.033127866685390375
2023-01-29 15:50:22.219678,0.03694595101924188
2023-01-29 15:50:22.224678,0.04125356674194329
2023-01-29 15:50:22.229678,0.04630667908409206
2023-01-29 15:50:22.234678,0.05214393138885483
2023-01-29 15:50:22.239678,0.058614458565757255
2023-01-29 15:50:22.244678,0.06541430950164787
2023-01-29 15:50:22.249678,0.07199257202899499
2023-01-29 15:50:22.254678,0.07757882773876186
2023-01-29 15:50:22.259678,0.08148986879609173
2023-01-29 15:50:22.264678,0.08339663594961158
2023-01-29 15:50:22.269678,0.08326014010871205
2023-01-29 15:50:22.274678,0.08113682270050036
2023-01-29 15:50:22.279678,0.07712232165345405
2023-01-29 15:50:22.284678,0.07132828235626218
2023-01-29 15:50:22.289678,0.06377688363956482
2023-01-29 15:50:22.294678,0.05442778393626206
2023-01-29 15:50:22.299678,0.043444612142736976
2023-01-29 15:50:22.304678,0.03137290477752677
2023-01-29 15:50:22.309678,0.018985474508184625
2023-01-29 15:50:22.314678,0.007043878547847162
2023-01-29 15:50:22.319678,-0.0037695291420198865
2023-01-29 15:50:22.324678,-0.01290977001190178
2023-01-29 15:50:22.329678,-0.020149540034680388
2023-01-29 15:50:22.334678,-0.02562721632421009
2023-01-29 15:50:22.339678,-0.029616949851835977
2023-01-29 15:50:22.344678,-0.032334528863429995
2023-01-29 15:50:22.349678,-0.03400154178023124
2023-01-29 15:50:22.354678,-0.034906864166259675
2023-01-29 15:50:22.359678,-0.03526987764004713
2023-01-29 15:50:22.364678,-0.035171311348676536
2023-01-29 15:50:22.369678,-0.03472213181889769
2023-01-29 15:50:22.374678,-0.03416160866618149
2023-01-29 15:50:22.379678,-0.033689487150510906
2023-01-29 15:50:22.384678,-0.03334423154592508
2023-01-29 15:50:22.389678,-0.033126153385866906
2023-01-29 15:50:22.394678,-0.03305574506521217
2023-01-29 15:50:22.399678,-0.03300476644104715
2023-01-29 15:50:22.404678,-0.0326710939407348
2023-01-29 15:50:22.409678,-0.03186749140512155
2023-01-29 15:50:22.414678,-0.030675729736685687
2023-01-29 15:50:22.419678,-0.029221187845186895
2023-01-29 15:50:22.424678,-0.027526419609784993
2023-01-29 15:50:22.429678,-0.0257239850799266
2023-01-29 15:50:22.434678,-0.024136703461408587
2023-01-29 15:50:22.439678,-0.02290330769872746
2023-01-29 15:50:22.444678,-0.021732648834586102
2023-01-29 15:50:22.449678,-0.020291160302269844
2023-01-29 15:50:22.454678,-0.01867949962615958
2023-01-29 15:50:22.459678,-0.01728860807050056
2023-01-29 15:50:22.464678,-0.01634756848216048
2023-01-29 15:50:22.469678,-0.01587734665084626
2023-01-29 15:50:22.474678,-0.015938878059387207
2023-01-29 15:50:22.479678,-0.016599649342819312
2023-01-29 15:50:22.484678,-0.017693838104605595
2023-01-29 15:50:22.489678,-0.018878781554680743
2023-01-29 15:50:22.494678,-0.019929608330130525
2023-01-29 15:50:22.499678,-0.02080848116593434
2023-01-29 15:50:22.504678,-0.02151628397405138
2023-01-29 15:50:22.509678,-0.02208851966259568
2023-01-29 15:50:22.514678,-0.02269427105784415
2023-01-29 15:50:22.519678,-0.023530964796262974
2023-01-29 15:50:22.524678,-0.02461751364171499
2023-01-29 15:50:22.529678,-0.025821621260239878
2023-01-29 15:50:22.534678,-0.027045607566833368
2023-01-29 15:50:22.539678,-0.02826211846135088
2023-01-29 15:50:22.544678,-0.02944966219365591
2023-01-29 15:50:22.549678,-0.030649271232730726
2023-01-29 15:50:22.554678,-0.03202199935913082
2023-01-29 15:50:22.559678,-0.03370092208036426
2023-01-29 15:50:22.564678,-0.035628080368041916
