2023-01-27 16:09:50.021740,0.017814040184020937
2023-01-27 16:09:50.026740,-0.019782368297888694
2023-01-27 16:09:50.031740,0.014135837554931573
2023-01-27 16:09:50.036740,0.02781048367193222
2023-01-27 16:09:50.041740,-0.004567702766507807
2023-01-27 16:09:50.046740,-0.03193295588760632
2023-01-27 16:09:50.051740,-0.029545824974775304
2023-01-27 16:09:50.056740,-0.02972556839448859
2023-01-27 16:09:50.061740,-0.051494836807250886
2023-01-27 16:09:50.066740,-0.07022112401115554
2023-01-27 16:09:50.071740,-0.06935696303844446
2023-01-27 16:09:50.076740,-0.06624881901801871
2023-01-27 16:09:50.081740,-0.06950120627880092
2023-01-27 16:09:50.086740,-0.05561819343539337
2023-01-27 16:09:50.091740,-0.006587108131498008
2023-01-27 16:09:50.096740,0.0643200732326209
2023-01-27 16:09:50.101740,0.13902644813060755
2023-01-27 16:09:50.106740,0.21447757725524252
2023-01-27 16:09:50.111740,0.2810339331626892
2023-01-27 16:09:50.116740,0.31114262577108814
2023-01-27 16:09:50.121740,0.28836628794670094
2023-01-27 16:09:50.126740,0.22702781690180776
2023-01-27 16:09:50.131740,0.15030145645141604
2023-01-27 16:09:50.136740,0.0692069867462903
2023-01-27 16:09:50.141740,-0.006274580955505314
2023-01-27 16:09:50.146740,-0.05832527045690453
2023-01-27 16:09:50.151740,-0.079237625002861
2023-01-27 16:09:50.156740,-0.08214032347139404
2023-01-27 16:09:50.161740,-0.0815455168485641
2023-01-27 16:09:50.166740,-0.07742373857903309
2023-01-27 16:09:50.171740,-0.06757795810699464
2023-01-27 16:09:50.176740,-0.059363319160086934
2023-01-27 16:09:50.181740,-0.05784153938293445
2023-01-27 16:09:50.186740,-0.05625691235696706
2023-01-27 16:09:50.191740,-0.049018662422895334
2023-01-27 16:09:50.196740,-0.041985520876124206
2023-01-27 16:09:50.201740,-0.04062851518392556
2023-01-27 16:09:50.206740,-0.03998691901369755
2023-01-27 16:09:50.211740,-0.035339593887329074
2023-01-27 16:09:50.216740,-0.03142220249997123
2023-01-27 16:09:50.221740,-0.03228644654154769
2023-01-27 16:09:50.226740,-0.032686129139413364
2023-01-27 16:09:50.231740,-0.027959149330854416
2023-01-27 16:09:50.236740,-0.022506627100443617
2023-01-27 16:09:50.241740,-0.020554661750793415
2023-01-27 16:09:50.246740,-0.01805311065704512
2023-01-27 16:09:50.251740,-0.011347135528922012
2023-01-27 16:09:50.256740,-0.004730429291279084
2023-01-27 16:09:50.261740,-0.001971324440091784
2023-01-27 16:09:50.266740,0.0010305065580254198
2023-01-27 16:09:50.271740,0.008101662620902022
2023-01-27 16:09:50.276740,0.015621576382971469
2023-01-27 16:09:50.281740,0.02021809481084336
2023-01-27 16:09:50.286740,0.025621341703407265
2023-01-27 16:09:50.291740,0.03526747226715075
2023-01-27 16:09:50.296740,0.045677571782163244
2023-01-27 16:09:50.301740,0.053514242172241155
2023-01-27 16:09:50.306740,0.061886602320091126
2023-01-27 16:09:50.311740,0.07349193096160879
2023-01-27 16:09:50.316740,0.08454428216635988
2023-01-27 16:09:50.321740,0.09152233600616447
2023-01-27 16:09:50.326740,0.09725227223443486
2023-01-27 16:09:50.331740,0.10457634925842277
2023-01-27 16:09:50.336740,0.11051448022099415
2023-01-27 16:09:50.341740,0.11226932704448689
2023-01-27 16:09:50.346740,0.11267003799146527
2023-01-27 16:09:50.351740,0.11416852474212637
2023-01-27 16:09:50.356740,0.11348925379476585
2023-01-27 16:09:50.361740,0.10753333568572984
2023-01-27 16:09:50.366740,0.09878422209839179
2023-01-27 16:09:50.371740,0.0898395031690597
2023-01-27 16:09:50.376740,0.07837397885815772
2023-01-27 16:09:50.381740,0.06255348771810529
2023-01-27 16:09:50.386740,0.045898512497458986
2023-01-27 16:09:50.391740,0.03185371682047839
2023-01-27 16:09:50.396740,0.01878657948049107
2023-01-27 16:09:50.401740,0.004976391792297325
2023-01-27 16:09:50.406740,-0.00673970720901355
2023-01-27 16:09:50.411740,-0.01391947269439692
2023-01-27 16:09:50.416740,-0.01901862179890146
2023-01-27 16:09:50.421740,-0.024473270401358604
2023-01-27 16:09:50.426740,-0.028202948564041132
2023-01-27 16:09:50.431740,-0.02831975743174549
2023-01-27 16:09:50.436740,-0.02745812733204552
2023-01-27 16:09:50.441740,-0.028127431869506808
2023-01-27 16:09:50.446740,-0.02841118257219848
2023-01-27 16:09:50.451740,-0.026420554146170578
2023-01-27 16:09:50.456740,-0.024446444252637423
2023-01-27 16:09:50.461740,-0.024617513641714984
2023-01-27 16:09:50.466740,-0.02488048741166016
2023-01-27 16:09:50.471740,-0.023271244019269867
2023-01-27 16:09:50.476740,-0.021851059090178083
2023-01-27 16:09:50.481740,-0.022525986656546402
2023-01-27 16:09:50.486740,-0.02319666922933
2023-01-27 16:09:50.491740,-0.021876892074942485
2023-01-27 16:09:50.496740,-0.020542214654341768
2023-01-27 16:09:50.501740,-0.021203756332397402
2023-01-27 16:09:50.506740,-0.022174594535909628
2023-01-27 16:09:50.511740,-0.021804770454764328
2023-01-27 16:09:50.516740,-0.02193253121695695
2023-01-27 16:09:50.521740,-0.024064581841230222
2023-01-27 16:09:50.526740,-0.025985466705318577
2023-01-27 16:09:50.531740,-0.025651257485151176
2023-01-27 16:09:50.536740,-0.02476300326853708
2023-01-27 16:09:50.541740,-0.025194486603140758
2023-01-27 16:09:50.546740,-0.025573239678322937
2023-01-27 16:09:50.551740,-0.02459347248077385
2023-01-27 16:09:50.556740,-0.023995726745419485
2023-01-27 16:09:50.561740,-0.025050243362784195
2023-01-27 16:09:50.566740,-0.025680420985093984
2023-01-27 16:09:50.571740,-0.02416074275970448
2023-01-27 16:09:50.576740,-0.022109579333122874
2023-01-27 16:09:50.581740,-0.0208671893924474
2023-01-27 16:09:50.586740,-0.018566628408375672
2023-01-27 16:09:50.591740,-0.013799270614981575
2023-01-27 16:09:50.596740,-0.00855316729618059
2023-01-27 16:09:50.601740,-0.004471540451049805
2023-01-27 16:09:50.606740,0.00025595634590042473
2023-01-27 16:09:50.611740,0.007236202713102064
2023-01-27 16:09:50.616740,0.014546291465219572
2023-01-27 16:09:50.621740,0.0199776887893676
2023-01-27 16:09:50.626740,0.02414250274729226
2023-01-27 16:09:50.631740,0.02740621566772455
2023-01-27 16:09:50.636740,0.02720560519740623
2023-01-27 16:09:50.641740,0.021612446755170774
2023-01-27 16:09:50.646740,0.012542671539061549
2023-01-27 16:09:50.651740,0.0025723378639668413
2023-01-27 16:09:50.656740,-0.008406700081355314
2023-01-27 16:09:50.661740,-0.020746987313032053
2023-01-27 16:09:50.666740,-0.0325749970634182
2023-01-27 16:09:50.671740,-0.0425277166068553
2023-01-27 16:09:50.676740,-0.051533848320140935
2023-01-27 16:09:50.681740,-0.058514676988124806
2023-01-27 16:09:50.686740,-0.05690041333091057
2023-01-27 16:09:50.691740,-0.038440823554992586
2023-01-27 16:09:50.696740,0.0012283199930970786
2023-01-27 16:09:50.701740,0.06159186363220213
2023-01-27 16:09:50.706740,0.13706532320884698
2023-01-27 16:09:50.711740,0.21429738402366622
2023-01-27 16:09:50.716740,0.27337720847826863
2023-01-27 16:09:50.721740,0.2969968318939207
2023-01-27 16:09:50.726740,0.2792503034953557
2023-01-27 16:09:50.731740,0.2259330004453659
2023-01-27 16:09:50.736740,0.1502557766208886
2023-01-27 16:09:50.741740,0.069861814379692
2023-01-27 16:09:50.746740,0.002502204162387997
2023-01-27 16:09:50.751740,-0.041518013924360206
2023-01-27 16:09:50.756740,-0.06299169421444357
2023-01-27 16:09:50.761740,-0.06885211169719682
2023-01-27 16:09:50.766740,-0.06566333345706364
2023-01-27 16:09:50.771740,-0.058634877204894964
2023-01-27 16:09:50.776740,-0.052398399896306014
2023-01-27 16:09:50.781740,-0.048802297562360646
2023-01-27 16:09:50.786740,-0.04587940809942895
2023-01-27 16:09:50.791740,-0.04163821786642068
2023-01-27 16:09:50.796740,-0.03705941785391312
2023-01-27 16:09:50.801740,-0.03360867500305166
2023-01-27 16:09:50.806740,-0.03053376226340987
2023-01-27 16:09:50.811740,-0.026925405487418116
2023-01-27 16:09:50.816740,-0.02387441961263478
2023-01-27 16:09:50.821740,-0.022165378555655403
2023-01-27 16:09:50.826740,-0.020195026415359602
2023-01-27 16:09:50.831740,-0.01651585102081287
2023-01-27 16:09:50.836740,-0.012212175406762518
2023-01-27 16:09:50.841740,-0.008606513962149622
2023-01-27 16:09:50.846740,-0.004927142970682368
2023-01-27 16:09:50.851740,-0.0003846486506516887
2023-01-27 16:09:50.856740,0.0038070954156799765
2023-01-27 16:09:50.861740,0.006707310676574669
2023-01-27 16:09:50.866740,0.009708492780820638
2023-01-27 16:09:50.871740,0.01418391894549136
2023-01-27 16:09:50.876740,0.019262583052066132
2023-01-27 16:09:50.881740,0.02399246022105216
2023-01-27 16:09:50.886740,0.029483005763175717
2023-01-27 16:09:50.891740,0.036806069314479856
2023-01-27 16:09:50.896740,0.04493151432027075
2023-01-27 16:09:50.901740,0.05279302597045893
2023-01-27 16:09:50.906740,0.06125125196735816
2023-01-27 16:09:50.911740,0.07096767425537098
2023-01-27 16:09:50.916740,0.08045047947888881
2023-01-27 16:09:50.921740,0.08825282752513874
2023-01-27 16:09:50.926740,0.09508409004585042
2023-01-27 16:09:50.931740,0.10181169211864467
2023-01-27 16:09:50.936740,0.10744598163414656
2023-01-27 16:09:50.941740,0.11104325950145717
2023-01-27 16:09:50.946740,0.11352709824994454
2023-01-27 16:09:50.951740,0.11563500016927708
2023-01-27 16:09:50.956740,0.1160289353287718
2023-01-27 16:09:50.961740,0.1133511513471603
2023-01-27 16:09:50.966740,0.10821290910496198
2023-01-27 16:09:50.971740,0.10133087635040278
2023-01-27 16:09:50.976740,0.09173114587362126
2023-01-27 16:09:50.981740,0.07873277366161344
2023-01-27 16:09:50.986740,0.0638186278981189
2023-01-27 16:09:50.991740,0.04870613664388646
2023-01-27 16:09:50.996740,0.03344207435440207
2023-01-27 16:09:51.001740,0.018150608986616096
2023-01-27 16:09:51.006740,0.004664364548812879
2023-01-27 16:09:51.011740,-0.005505283828824692
2023-01-27 16:09:51.016740,-0.013060683758840123
2023-01-27 16:09:51.021740,-0.01908819004893299
2023-01-27 16:09:51.026740,-0.023193031753389534
2023-01-27 16:09:51.031740,-0.02512236498296264
2023-01-27 16:09:51.036740,-0.026286218577462838
2023-01-27 16:09:51.041740,-0.027814906090497936
2023-01-27 16:09:51.046740,-0.02883864403971101
2023-01-27 16:09:51.051740,-0.028391879051923665
2023-01-27 16:09:51.056740,-0.02727786278256995
2023-01-27 16:09:51.061740,-0.026420554146170595
2023-01-27 16:09:51.066740,-0.025188111924879318
2023-01-27 16:09:51.071740,-0.023030837997794037
2023-01-27 16:09:51.076740,-0.02100064946507419
2023-01-27 16:09:51.081740,-0.019953649491071673
2023-01-27 16:09:51.086740,-0.018956776633546533
2023-01-27 16:09:51.091740,-0.01711686514317975
2023-01-27 16:09:51.096740,-0.01529764280578391
2023-01-27 16:09:51.101740,-0.014424324035644472
2023-01-27 16:09:51.106740,-0.013780801977830303
2023-01-27 16:09:51.111740,-0.012573203071951809
2023-01-27 16:09:51.116740,-0.011493954947214405
2023-01-27 16:09:51.121740,-0.011154810898005905
2023-01-27 16:09:51.126740,-0.010643145847782289
2023-01-27 16:09:51.131740,-0.009231567382812538
2023-01-27 16:09:51.136740,-0.007918199715343625
2023-01-27 16:09:51.141740,-0.007717013359069772
2023-01-27 16:09:51.146740,-0.007963943842534838
2023-01-27 16:09:51.151740,-0.007765094749629388
2023-01-27 16:09:51.156740,-0.0075165788897744315
2023-01-27 16:09:51.161740,-0.007524689193814889
2023-01-27 16:09:51.166740,-0.006727653912151595
2023-01-27 16:09:51.171740,-0.004303256981074758
2023-01-27 16:09:51.176740,-0.0010714314908451736
2023-01-27 16:09:51.181740,0.0020915269851684098
2023-01-27 16:09:51.186740,0.005770183384971413
2023-01-27 16:09:51.191740,0.010673999786376915
2023-01-27 16:09:51.196740,0.016307489778005006
2023-01-27 16:09:51.201740,0.022165378555655403
2023-01-27 16:09:51.206740,0.02861690964847703
2023-01-27 16:09:51.211740,0.035339593887329095
2023-01-27 16:09:51.216740,0.04047217821323087
2023-01-27 16:09:51.221740,0.04255175590515132
2023-01-27 16:09:51.226740,0.04173896033167475
2023-01-27 16:09:51.231740,0.0381282977759838
2023-01-27 16:09:51.236740,0.03079126730101661
2023-01-27 16:09:51.241740,0.019833445549011182
2023-01-27 16:09:51.246740,0.007542891577247758
2023-01-27 16:09:51.251740,-0.0040147705003619
2023-01-27 16:09:51.256740,-0.014955575691151702
2023-01-27 16:09:51.261740,-0.02581954002380373
2023-01-27 16:09:51.266740,-0.035422380653405305
2023-01-27 16:09:51.271740,-0.04146993160247798
2023-01-27 16:09:51.276740,-0.04120544429799137
2023-01-27 16:09:51.281740,-0.0299785546958446
2023-01-27 16:09:51.286740,-0.0015205274159383463
2023-01-27 16:09:51.291740,0.04745602607727053
2023-01-27 16:09:51.296740,0.11279804140215074
2023-01-27 16:09:51.301740,0.18328508734703056
2023-01-27 16:09:51.306740,0.24402314709160364
2023-01-27 16:09:51.311740,0.2798078656196594
2023-01-27 16:09:51.316740,0.27961468234956455
2023-01-27 16:09:51.321740,0.24230460822582237
2023-01-27 16:09:51.326740,0.17842808185519868
2023-01-27 16:09:51.331740,0.10503312200307842
2023-01-27 16:09:51.336740,0.03817436096018005
2023-01-27 16:09:51.341740,-0.011250972747802644
2023-01-27 16:09:51.346740,-0.03884176090760674
2023-01-27 16:09:51.351740,-0.0472396612167358
2023-01-27 16:09:51.356740,-0.044164053513036275
2023-01-27 16:09:51.361740,-0.03728687763214108
2023-01-27 16:09:51.366740,-0.030486877841476863
2023-01-27 16:09:51.371740,-0.024761756882071384
2023-01-27 16:09:51.376740,-0.020511936548470496
2023-01-27 16:09:51.381740,-0.01752555370330808
2023-01-27 16:09:51.386740,-0.014571749764819097
2023-01-27 16:09:51.391740,-0.010962486267089825
2023-01-27 16:09:51.396740,-0.00761591959686244
2023-01-27 16:09:51.401740,-0.005409121513366605
2023-01-27 16:09:51.406740,-0.00371208072320609
2023-01-27 16:09:51.411740,-0.0016828378429635553
2023-01-27 16:09:51.416740,0.00037960588005789
2023-01-27 16:09:51.421740,0.0022117297630757566
2023-01-27 16:09:51.426740,0.004720478855901187
2023-01-27 16:09:51.431740,0.008606513962149617
2023-01-27 16:09:51.436740,0.01308320609969051
2023-01-27 16:09:51.441740,0.017188986763358133
2023-01-27 16:09:51.446740,0.021145128439402167
2023-01-27 16:09:51.451740,0.025266608223319054
2023-01-27 16:09:51.456740,0.028868749073557107
2023-01-27 16:09:51.461740,0.03154119104146954
2023-01-27 16:09:51.466740,0.034307150366213124
2023-01-27 16:09:51.471740,0.03829658031463622
2023-01-27 16:09:51.476740,0.04339758139483077
2023-01-27 16:09:51.481740,0.049283109605312306
2023-01-27 16:09:51.486740,0.056476025821098765
2023-01-27 16:09:51.491740,0.0651979446411132
2023-01-27 16:09:51.496740,0.07437720207167518
2023-01-27 16:09:51.501740,0.08301198482513418
2023-01-27 16:09:51.506740,0.09142508247546965
2023-01-27 16:09:51.511740,0.10010480880737302
2023-01-27 16:09:51.516740,0.10848149363173246
2023-01-27 16:09:51.521740,0.11592348664999
2023-01-27 16:09:51.526740,0.12272437114978439
2023-01-27 16:09:51.531740,0.1289534568786621
2023-01-27 16:09:51.536740,0.13346188770296685
2023-01-27 16:09:51.541740,0.13515591621398917
2023-01-27 16:09:51.546740,0.13421080182557274
2023-01-27 16:09:51.551740,0.1310449838638305
2023-01-27 16:09:51.556740,0.12526523211383614
2023-01-27 16:09:51.561740,0.11669278144836417
2023-01-27 16:09:51.566740,0.10630674097130006
2023-01-27 16:09:51.571740,0.09508033841848365
2023-01-27 16:09:51.576740,0.08289959772658016
2023-01-27 16:09:51.581740,0.0695973634719848
2023-01-27 16:09:51.586740,0.05597605133795356
2023-01-27 16:09:51.591740,0.04284024238586419
2023-01-27 16:09:51.596740,0.030114089720230882
2023-01-27 16:09:51.601740,0.017910202965140284
2023-01-27 16:09:51.606740,0.007408803472787895
2023-01-27 16:09:51.611740,-0.0003365675802342215
2023-01-27 16:09:51.616740,-0.0055270547637071175
2023-01-27 16:09:51.621740,-0.008726716041564884
2023-01-27 16:09:51.626740,-0.00991886201438524
2023-01-27 16:09:51.631740,-0.009327730163931784
2023-01-27 16:09:51.636740,-0.008085103168173489
2023-01-27 16:09:51.641740,-0.0070919594727456145
2023-01-27 16:09:51.646740,-0.0061172916112283435
2023-01-27 16:09:51.651740,-0.004832148551940951
2023-01-27 16:09:51.656740,-0.003762251718057256
2023-01-27 16:09:51.661740,-0.003413756843656377
2023-01-27 16:09:51.666740,-0.0034276437122796135
2023-01-27 16:09:51.671740,-0.0033897161483764267
2023-01-27 16:09:51.676740,-0.003533296279231649
2023-01-27 16:09:51.681740,-0.0038945674896239757
2023-01-27 16:09:51.686740,-0.003723958679863851
2023-01-27 16:09:51.691740,-0.002500216243788453
2023-01-27 16:09:51.696740,-0.0006980029626637336
2023-01-27 16:09:51.701740,0.0010577838402240757
2023-01-27 16:09:51.706740,0.0027376194788503293
2023-01-27 16:09:51.711740,0.004303256981074848
2023-01-27 16:09:51.716740,0.005298763069325924
2023-01-27 16:09:51.721740,0.0055774054490029664
2023-01-27 16:09:51.726740,0.005613767669447237
2023-01-27 16:09:51.731740,0.005745689384639239
2023-01-27 16:09:51.736740,0.0059484859672712005
2023-01-27 16:09:51.741740,0.006490945816039972
2023-01-27 16:09:51.746740,0.0078019295248363055
2023-01-27 16:09:51.751740,0.00966429710388176
2023-01-27 16:09:51.756740,0.011723592571328585
2023-01-27 16:09:51.761740,0.014712810516357422
2023-01-27 16:09:51.766740,0.01970914533988925
2023-01-27 16:09:51.771740,0.026180148124694765
2023-01-27 16:09:51.776740,0.03238482424836596
2023-01-27 16:09:51.781740,0.03774365037679671
2023-01-27 16:09:51.786740,0.04299323892290239
2023-01-27 16:09:51.791740,0.04786471650004378
2023-01-27 16:09:51.796740,0.05066255569075231
2023-01-27 16:09:51.801740,0.050557255744934006
2023-01-27 16:09:51.806740,0.048249826391971236
2023-01-27 16:09:51.811740,0.0438499450683593
2023-01-27 16:09:51.816740,0.03630015941936049
2023-01-27 16:09:51.821740,0.025771459564566602
2023-01-27 16:09:51.826740,0.014549186439885972
2023-01-27 16:09:51.831740,0.0044234595261514
2023-01-27 16:09:51.836740,-0.005042014929397851
2023-01-27 16:09:51.841740,-0.014640688896179095
2023-01-27 16:09:51.846740,-0.02358641892790329
2023-01-27 16:09:51.851740,-0.030146837234496973
2023-01-27 16:09:51.856740,-0.03198559104460934
2023-01-27 16:09:51.861740,-0.024521350860595748
2023-01-27 16:09:51.866740,-0.0011179657200633907
2023-01-27 16:09:51.871740,0.042527716606855274
2023-01-27 16:09:51.876740,0.10393848324556444
2023-01-27 16:09:51.881740,0.17357270419597615
2023-01-27 16:09:51.886740,0.23731193639336173
2023-01-27 16:09:51.891740,0.27947127819061257
2023-01-27 16:09:51.896740,0.28751138259013276
2023-01-27 16:09:51.901740,0.2581232786178587
2023-01-27 16:09:51.906740,0.1996439472731147
2023-01-27 16:09:51.911740,0.1277995109558105
2023-01-27 16:09:51.916740,0.058797984550500615
2023-01-27 16:09:51.921740,0.004784067627042522
2023-01-27 16:09:51.926740,-0.02834924353855582
2023-01-27 16:09:51.931740,-0.04199882596731178
2023-01-27 16:09:51.936740,-0.043050292636953
2023-01-27 16:09:51.941740,-0.03894567489624021
2023-01-27 16:09:51.946740,-0.03390445592922671
2023-01-27 16:09:51.951740,-0.02932946011424058
2023-01-27 16:09:51.956740,-0.025668399074146118
2023-01-27 16:09:51.961740,-0.02257406711578359
2023-01-27 16:09:51.966740,-0.018821746587509503
2023-01-27 16:09:51.971740,-0.013799270614981561
2023-01-27 16:09:51.976740,-0.008445504644735119
2023-01-27 16:09:51.981740,-0.0038464865647255993
2023-01-27 16:09:51.986740,5.247313358371267e-05
2023-01-27 16:09:51.991740,0.003485878463834472
2023-01-27 16:09:51.996740,0.005892439120060885
2023-01-27 16:09:52.001740,0.006995797157287479
2023-01-27 16:09:52.006740,0.007761580108232456
2023-01-27 16:09:52.011740,0.009207527153193866
2023-01-27 16:09:52.016740,0.011244536784403318
2023-01-27 16:09:52.021740,0.013606945984065475
2023-01-27 16:09:52.026740,0.016810922234060142
2023-01-27 16:09:52.031740,0.021179717034101358
2023-01-27 16:09:52.036740,0.025980666188819473
2023-01-27 16:09:52.041740,0.030555527657270407
2023-01-27 16:09:52.046740,0.03534251333863733
2023-01-27 16:09:52.051740,0.040868919342756244
2023-01-27 16:09:52.056740,0.04676719186397482
2023-01-27 16:09:52.061740,0.052720904350280685
2023-01-27 16:09:52.066740,0.05934026627197414
2023-01-27 16:09:52.071740,0.06712119281291963
2023-01-27 16:09:52.076740,0.07549808383403886
2023-01-27 16:09:52.081740,0.0838293656706809
2023-01-27 16:09:52.086740,0.09232779064690558
2023-01-27 16:09:52.091740,0.10111451148986808
2023-01-27 16:09:52.096740,0.10935835454786826
2023-01-27 16:09:52.101740,0.11628409475088108
2023-01-27 16:09:52.106740,0.12208185814516036
2023-01-27 16:09:52.111740,0.1269340515136718
2023-01-27 16:09:52.116740,0.13011134245182043
2023-01-27 16:09:52.121740,0.13092479109764085
2023-01-27 16:09:52.126740,0.12962386261146927
2023-01-27 16:09:52.131740,0.12647728621959675
2023-01-27 16:09:52.136740,0.12092062614632011
2023-01-27 16:09:52.141740,0.11250972747802729
2023-01-27 16:09:52.146740,0.10181459195283077
2023-01-27 16:09:52.151740,0.08952697366476048
2023-01-27 16:09:52.156740,0.0756148056457799
2023-01-27 16:09:52.161740,0.06022155284881592
2023-01-27 16:09:52.166740,0.04449027358558472
2023-01-27 16:09:52.171740,0.02961794659495349
2023-01-27 16:09:52.176740,0.015922292379202323
2023-01-27 16:09:52.181740,0.0036060810089110617
2023-01-27 16:09:52.186740,-0.006492680607458486
2023-01-27 16:09:52.191740,-0.013775229454040503
2023-01-27 16:09:52.196740,-0.01867579549709714
2023-01-27 16:09:52.201740,-0.021804770454764328
2023-01-27 16:09:52.206740,-0.023138127802830682
2023-01-27 16:09:52.211740,-0.022790431976318307
2023-01-27 16:09:52.216740,-0.021688422160112443
2023-01-27 16:09:52.221740,-0.020650824531912755
2023-01-27 16:09:52.226740,-0.01957610084525667
2023-01-27 16:09:52.231740,-0.01824676990509031
2023-01-27 16:09:52.236740,-0.01709167779602912
2023-01-27 16:09:52.241740,-0.016419690102338725
2023-01-27 16:09:52.246740,-0.01573583381433474
2023-01-27 16:09:52.251740,-0.014568567276000892
2023-01-27 16:09:52.256740,-0.013200733699922442
2023-01-27 16:09:52.261740,-0.011900067329406695
2023-01-27 16:09:52.266740,-0.010241167360874461
2023-01-27 16:09:52.271740,-0.007909337989985877
2023-01-27 16:09:52.276740,-0.005426598839675592
2023-01-27 16:09:52.281740,-0.003413756843656273
2023-01-27 16:09:52.286740,-0.0018665467278590597
2023-01-27 16:09:52.291740,-0.0007692973013034911
2023-01-27 16:09:52.296740,-0.0006322240981310093
2023-01-27 16:09:52.301740,-0.0017309188842772182
2023-01-27 16:09:52.306740,-0.003470317235305854
2023-01-27 16:09:52.311740,-0.0050725541077553515
2023-01-27 16:09:52.316740,-0.006232578616554738
2023-01-27 16:09:52.321740,-0.006611148826777864
2023-01-27 16:09:52.326740,-0.005446676931671931
2023-01-27 16:09:52.331740,-0.0022838513832538513
2023-01-27 16:09:52.336740,0.0024792424124568126
2023-01-27 16:09:52.341740,0.008197824470698833
2023-01-27 16:09:52.346740,0.014541417939845884
2023-01-27 16:09:52.351740,0.0211316347122192
2023-01-27 16:09:52.356740,0.02730036636447598
2023-01-27 16:09:52.361740,0.03257493302226065
2023-01-27 16:09:52.366740,0.03682804289630192
2023-01-27 16:09:52.371740,0.039690934121608686
2023-01-27 16:09:52.376740,0.040358977787968056
2023-01-27 16:09:52.381740,0.03812829777598383
2023-01-27 16:09:52.386740,0.032690511835321345
2023-01-27 16:09:52.391740,0.024088621139526263
2023-01-27 16:09:52.396740,0.013036854210660304
2023-01-27 16:09:52.401740,0.0010097026824951575
2023-01-27 16:09:52.406740,-0.010736475356727164
2023-01-27 16:09:52.411740,-0.021852850914001378
2023-01-27 16:09:52.416740,-0.03188622894068564
2023-01-27 16:09:52.421740,-0.03935436531901345
2023-01-27 16:09:52.426740,-0.042796749219769496
2023-01-27 16:09:52.431740,-0.04134973138570778
2023-01-27 16:09:52.436740,-0.03218535389315408
2023-01-27 16:09:52.441740,-0.00851035118103017
2023-01-27 16:09:52.446740,0.03636892836327483
2023-01-27 16:09:52.451740,0.10157128423452369
2023-01-27 16:09:52.456740,0.17619410944471262
2023-01-27 16:09:52.461740,0.24396340548992146
2023-01-27 16:09:52.466740,0.2889741520092965
2023-01-27 16:09:52.471740,0.2991124093532561
2023-01-27 16:09:52.476740,0.26975934441511684
2023-01-27 16:09:52.481740,0.2076862305402754
2023-01-27 16:09:52.486740,0.12970101548429006
2023-01-27 16:09:52.491740,0.05474030971527087
2023-01-27 16:09:52.496740,-0.0038179265141932888
2023-01-27 16:09:52.501740,-0.04024386405944822
2023-01-27 16:09:52.506740,-0.05524756664403347
2023-01-27 16:09:52.511740,-0.05474030971527088
2023-01-27 16:09:52.516740,-0.0472413922939695
2023-01-27 16:09:52.521740,-0.03935436531901352
2023-01-27 16:09:52.526740,-0.03332968424828296
2023-01-27 16:09:52.531740,-0.028968852013349474
2023-01-27 16:09:52.536740,-0.026101873212240948
2023-01-27 16:09:52.541740,-0.024353068321943186
2023-01-27 16:09:52.546740,-0.02249979666897937
2023-01-27 16:09:52.551740,-0.019809406250715172
2023-01-27 16:09:52.556740,-0.016997772683800608
2023-01-27 16:09:52.561740,-0.014760891906916972
2023-01-27 16:09:52.566740,-0.012519643078139821
2023-01-27 16:09:52.571740,-0.009616216644644675
2023-01-27 16:09:52.576740,-0.006468329113101352
2023-01-27 16:09:52.581740,-0.0034618377685545878
2023-01-27 16:09:52.586740,4.743681076481228e-05
2023-01-27 16:09:52.591740,0.004519621841609378
2023-01-27 16:09:52.596740,0.009198635410310702
2023-01-27 16:09:52.601740,0.013366540893912296
2023-01-27 16:09:52.606740,0.01750257426209606
2023-01-27 16:09:52.611740,0.02218941971659659
2023-01-27 16:09:52.616740,0.027030949501490723
2023-01-27 16:09:52.621740,0.031685434281825915
2023-01-27 16:09:52.626740,0.036817904118845
2023-01-27 16:09:52.631740,0.0429604463279247
2023-01-27 16:09:52.636740,0.04951466486333606
2023-01-27 16:09:52.641740,0.05591829866170882
2023-01-27 16:09:52.646740,0.0627389198523354
2023-01-27 16:09:52.651740,0.07060706615447987
2023-01-27 16:09:52.656740,0.07911680562237103
2023-01-27 16:09:52.661740,0.08774797618389116
2023-01-27 16:09:52.666740,0.0967755062079759
2023-01-27 16:09:52.671740,0.10623514652252186
2023-01-27 16:09:52.676740,0.11503149537109099
2023-01-27 16:09:52.681740,0.1221019029617309
2023-01-27 16:09:52.686740,0.12750286081690132
2023-01-27 16:09:52.691740,0.13142964243888847
2023-01-27 16:09:52.696740,0.13322130713259617
2023-01-27 16:09:52.701740,0.13231913745403273
2023-01-27 16:09:52.706740,0.12918294513183717
2023-01-27 16:09:52.711740,0.12426555156707753
2023-01-27 16:09:52.716740,0.11706981426253424
2023-01-27 16:09:52.721740,0.107196770608425
2023-01-27 16:09:52.726740,0.09536719693687137
2023-01-27 16:09:52.731740,0.08248309791088093
2023-01-27 16:09:52.736740,0.06868167339081016
2023-01-27 16:09:52.741740,0.05425950139760968
2023-01-27 16:09:52.746740,0.040505460191953106
2023-01-27 16:09:52.751740,0.028584202751517192
2023-01-27 16:09:52.756740,0.01846359292236594
2023-01-27 16:09:52.761740,0.00980854034423818
2023-01-27 16:09:52.766740,0.0029408629922797044
2023-01-27 16:09:52.771740,-0.0019953649025409703
2023-01-27 16:09:52.776740,-0.00578422529516357
2023-01-27 16:09:52.781740,-0.009039243683218874
2023-01-27 16:09:52.786740,-0.011258599702395391
2023-01-27 16:09:52.791740,-0.011900067329406702
2023-01-27 16:09:52.796740,-0.011487095695056097
2023-01-27 16:09:52.801740,-0.010770162567496157
2023-01-27 16:09:52.806740,-0.009754997129657472
2023-01-27 16:09:52.811740,-0.008462270721793098
2023-01-27 16:09:52.816740,-0.0076443345521050214
2023-01-27 16:09:52.821740,-0.007741054054349613
2023-01-27 16:09:52.826740,-0.008004647770480157
2023-01-27 16:09:52.831740,-0.007596810813993177
2023-01-27 16:09:52.836740,-0.006704702069999977
2023-01-27 16:09:52.841740,-0.005745689384639187
2023-01-27 16:09:52.846740,-0.0044542163739921346
2023-01-27 16:09:52.851740,-0.0026925406418740277
2023-01-27 16:09:52.856740,-0.0012251565682854751
2023-01-27 16:09:52.861740,-0.0007212162017821696
2023-01-27 16:09:52.866740,-0.0008355917027396155
2023-01-27 16:09:52.871740,-0.0011299054604022747
2023-01-27 16:09:52.876740,-0.001953622843857128
2023-01-27 16:09:52.881740,-0.0034858784638344483
2023-01-27 16:09:52.886740,-0.004820943183881127
2023-01-27 16:09:52.891740,-0.004952351562678833
2023-01-27 16:09:52.896740,-0.003831425718651189
2023-01-27 16:09:52.901740,-0.0016347568016499374
2023-01-27 16:09:52.906740,0.002035249592487882
2023-01-27 16:09:52.911740,0.007284283638000431
2023-01-27 16:09:52.916740,0.013194333602913524
2023-01-27 16:09:52.921740,0.01891990564763542
2023-01-27 16:09:52.926740,0.024675701911124486
2023-01-27 16:09:52.931740,0.03077189251780501
2023-01-27 16:09:52.936740,0.03656382018786841
2023-01-27 16:09:52.941740,0.04120548814535148
2023-01-27 16:09:52.946740,0.04446855625256144
2023-01-27 16:09:52.951740,0.04589339345693587
2023-01-27 16:09:52.956740,0.0441316148702052
2023-01-27 16:09:52.961740,0.03822445869445807
2023-01-27 16:09:52.966740,0.02881285270571804
2023-01-27 16:09:52.971740,0.017285149544477376
2023-01-27 16:09:52.976740,0.00463525151856192
2023-01-27 16:09:52.981740,-0.00807762145996088
2023-01-27 16:09:52.986740,-0.019331992830054757
2023-01-27 16:09:52.991740,-0.02831975743174549
2023-01-27 16:09:52.996740,-0.035458977321923844
2023-01-27 16:09:53.001740,-0.04034002870321268
2023-01-27 16:09:53.006740,-0.03959231059766387
2023-01-27 16:09:53.011740,-0.02759854122996329
2023-01-27 16:09:53.016740,0.0010871813404101306
2023-01-27 16:09:53.021740,0.04969179630279542
2023-01-27 16:09:53.026740,0.11679797546501804
2023-01-27 16:09:53.031740,0.19340614974498738
2023-01-27 16:09:53.036740,0.2631233505250904
2023-01-27 16:09:53.041740,0.3078871965408324
2023-01-27 16:09:53.046740,0.3155233987496059
2023-01-27 16:09:53.051740,0.28387069702148426
2023-01-27 16:09:53.056740,0.22088519388340688
2023-01-27 16:09:53.061740,0.14248828589916218
2023-01-27 16:09:53.066740,0.06769140439300195
2023-01-27 16:09:53.071740,0.011130770668387375
2023-01-27 16:09:53.076740,-0.022327511799155368
2023-01-27 16:09:53.081740,-0.03644546121358866
2023-01-27 16:09:53.086740,-0.03819862939679069
2023-01-27 16:09:53.091740,-0.0338731221854686
2023-01-27 16:09:53.096740,-0.02821901768471345
2023-01-27 16:09:53.101740,-0.024136703461408556
2023-01-27 16:09:53.106740,-0.022127470204117268
2023-01-27 16:09:53.111740,-0.021011432632803858
2023-01-27 16:09:53.116740,-0.019627465247865225
2023-01-27 16:09:53.121740,-0.01754959486424919
2023-01-27 16:09:53.126740,-0.014698001826013144
2023-01-27 16:09:53.131740,-0.01125097274780263
2023-01-27 16:09:53.136740,-0.007806039626485869
2023-01-27 16:09:53.141740,-0.004856189247220678
2023-01-27 16:09:53.146740,-0.002210787551442422
2023-01-27 16:09:53.151740,0.0005769729614257055
2023-01-27 16:09:53.156740,0.0035930828140063697
2023-01-27 16:09:53.161740,0.006899635307490854
2023-01-27 16:09:53.166740,0.010947926324075296
2023-01-27 16:09:53.171740,0.01596291922032833
2023-01-27 16:09:53.176740,0.02134755532273012
2023-01-27 16:09:53.181740,0.026324391365051217
2023-01-27 16:09:53.186740,0.030740692294814805
2023-01-27 16:09:53.191740,0.034738581627607255
2023-01-27 16:09:53.196740,0.03826646764151131
2023-01-27 16:09:53.201740,0.04159013554453834
2023-01-27 16:09:53.206740,0.04570390578693017
2023-01-27 16:09:53.211740,0.051494836807250845
2023-01-27 16:09:53.216740,0.05891118788154752
2023-01-27 16:09:53.221740,0.06745775789022435
2023-01-27 16:09:53.226740,0.07688043115734637
2023-01-27 16:09:53.231740,0.0867623090744018
2023-01-27 16:09:53.236740,0.09613884263228924
2023-01-27 16:09:53.241740,0.10428786277770988
2023-01-27 16:09:53.246740,0.11142178339447656
2023-01-27 16:09:53.251740,0.11801501363515846
2023-01-27 16:09:53.256740,0.1240267503562945
2023-01-27 16:09:53.261740,0.12933811545371993
2023-01-27 16:09:53.266740,0.13422377827504692
2023-01-27 16:09:53.271740,0.1386418044567107
2023-01-27 16:09:53.276740,0.14162599054899058
2023-01-27 16:09:53.281740,0.14205555617809285
2023-01-27 16:09:53.286740,0.13950546378708142
2023-01-27 16:09:53.291740,0.13383369147777543
2023-01-27 16:09:53.296740,0.1246976002742468
2023-01-27 16:09:53.301740,0.11222124099731434
2023-01-27 16:09:53.306740,0.09752758260919894
2023-01-27 16:09:53.311740,0.08190612494945523
2023-01-27 16:09:53.316740,0.06598957008523999
2023-01-27 16:09:53.321740,0.05029281228780742
2023-01-27 16:09:53.326740,0.035828055183278765
2023-01-27 16:09:53.331740,0.023463567718863355
2023-01-27 16:09:53.336740,0.013278684868830633
2023-01-27 16:09:53.341740,0.005192756652832012
2023-01-27 16:09:53.346740,-0.00042159839664916867
2023-01-27 16:09:53.351740,-0.003413756843656235
2023-01-27 16:09:53.356740,-0.00449289594896761
2023-01-27 16:09:53.361740,-0.004519621841609355
2023-01-27 16:09:53.366740,-0.003761518160597774
2023-01-27 16:09:53.371740,-0.0024280946236102732
2023-01-27 16:09:53.376740,-0.001210436838836813
2023-01-27 16:09:53.381740,-0.0005769729614256391
2023-01-27 16:09:53.386740,-0.0001691949575540453
2023-01-27 16:09:53.391740,0.0004327297210692696
2023-01-27 16:09:53.396740,0.0009621527656560905
2023-01-27 16:09:53.401740,0.0010818243026733778
2023-01-27 16:09:53.406740,0.0010428989524413432
2023-01-27 16:09:53.411740,0.0010818243026733778
2023-01-27 16:09:53.416740,0.000874552775135631
2023-01-27 16:09:53.421740,0.0002884864807128906
2023-01-27 16:09:53.426740,-5.072604726213588e-07
2023-01-27 16:09:53.431740,0.0006490945816040229
2023-01-27 16:09:53.436740,0.0019959277465659586
2023-01-27 16:09:53.441740,0.003509918926283736
2023-01-27 16:09:53.446740,0.005100247577290029
2023-01-27 16:09:53.451740,0.006611148826777897
2023-01-27 16:09:53.456740,0.007374511972571198
2023-01-27 16:09:53.461740,0.007067918777465759
2023-01-27 16:09:53.466740,0.006421984500016543
2023-01-27 16:09:53.471740,0.006394783966243146
2023-01-27 16:09:53.476740,0.007245698114173715
2023-01-27 16:09:53.481740,0.00899116229265924
2023-01-27 16:09:53.486740,0.011981315396601341
2023-01-27 16:09:53.491740,0.01627544686198227
2023-01-27 16:09:53.496740,0.021148689430878713
2023-01-27 16:09:53.501740,0.025987824425101204
2023-01-27 16:09:53.506740,0.031067107096351663
2023-01-27 16:09:53.511740,0.036757986992597504
2023-01-27 16:09:53.516740,0.04259614007884024
2023-01-27 16:09:53.521740,0.047720473259687424
2023-01-27 16:09:53.526740,0.05146099491334877
2023-01-27 16:09:53.531740,0.05281706899404518
2023-01-27 16:09:53.536740,0.050230227110694914
2023-01-27 16:09:53.541740,0.04286428540945053
2023-01-27 16:09:53.546740,0.03166782006695539
2023-01-27 16:09:53.551740,0.018559297546744357
2023-01-27 16:09:53.556740,0.005150062943450654
2023-01-27 16:09:53.561740,-0.007308324333280197
2023-01-27 16:09:53.566740,-0.017758539658678196
2023-01-27 16:09:53.571740,-0.025963783264160094
2023-01-27 16:09:53.576740,-0.03228772729694811
2023-01-27 16:09:53.581740,-0.03550788015127176
2023-01-27 16:09:53.586740,-0.03106735557890049
2023-01-27 16:09:53.591740,-0.012356838211417103
2023-01-27 16:09:53.596740,0.02599480223081096
2023-01-27 16:09:53.601740,0.08512755483388898
2023-01-27 16:09:53.606740,0.15963719182722658
2023-01-27 16:09:53.611740,0.23641467094421378
2023-01-27 16:09:53.616740,0.2971171781124669
2023-01-27 16:09:53.621740,0.325004070997238
2023-01-27 16:09:53.626740,0.3120839510597013
2023-01-27 16:09:53.631740,0.2618976533412932
2023-01-27 16:09:53.636740,0.1875937880503533
2023-01-27 16:09:53.641740,0.10743717849254597
2023-01-27 16:09:53.646740,0.038794337729463925
2023-01-27 16:09:53.651740,-0.007933378219604378
2023-01-27 16:09:53.656740,-0.03182442777866776
2023-01-27 16:09:53.661740,-0.03860910981893519
2023-01-27 16:09:53.666740,-0.035768170306994154
2023-01-27 16:09:53.671740,-0.0296419858932495
2023-01-27 16:09:53.676740,-0.024478987293835453
2023-01-27 16:09:53.681740,-0.021684568375349017
2023-01-27 16:09:53.686740,-0.02005527379689537
2023-01-27 16:09:53.691740,-0.017982324585318506
2023-01-27 16:09:53.696740,-0.015308616286217462
2023-01-27 16:09:53.701740,-0.012525121681392097
2023-01-27 16:09:53.706740,-0.009290732443662174
2023-01-27 16:09:53.711740,-0.005144675727933588
2023-01-27 16:09:53.716740,-0.0009188071000187013
2023-01-27 16:09:53.721740,0.0021636486053465847
2023-01-27 16:09:53.726740,0.004423793377789347
2023-01-27 16:09:53.731740,0.00726024340838192
2023-01-27 16:09:53.736740,0.010952623553553205
2023-01-27 16:09:53.741740,0.014400283806025886
2023-01-27 16:09:53.746740,0.017053606550193896
2023-01-27 16:09:53.751740,0.01971324346959589
2023-01-27 16:09:53.756740,0.02316431858671376
2023-01-27 16:09:53.761740,0.02718985080718994
2023-01-27 16:09:53.766740,0.03131329416203611
2023-01-27 16:09:53.771740,0.035604041069746004
2023-01-27 16:09:53.776740,0.04035414213089239
2023-01-27 16:09:53.781740,0.04562894627451891
2023-01-27 16:09:53.786740,0.05145743628307042
2023-01-27 16:09:53.791740,0.057985782623291016
2023-01-27 16:09:53.796740,0.06525459577293723
2023-01-27 16:09:53.801740,0.07317940890789033
2023-01-27 16:09:53.806740,0.08175342403186449
2023-01-27 16:09:53.811740,0.09089728444814679
2023-01-27 16:09:53.816740,0.1001851456744294
2023-01-27 16:09:53.821740,0.10909597575664516
2023-01-27 16:09:53.826740,0.11742233076972951
2023-01-27 16:09:53.831740,0.12510697543621058
2023-01-27 16:09:53.836740,0.13190335156084623
2023-01-27 16:09:53.841740,0.1375599801540374
2023-01-27 16:09:53.846740,0.14204950865464588
2023-01-27 16:09:53.851740,0.1451808214187622
2023-01-27 16:09:53.856740,0.1462435475693685
2023-01-27 16:09:53.861740,0.14445960521697987
2023-01-27 16:09:53.866740,0.1395544466173846
2023-01-27 16:09:53.871740,0.13157388567924486
2023-01-27 16:09:53.876740,0.1205525783108828
2023-01-27 16:09:53.881740,0.10683616250753403
2023-01-27 16:09:53.886740,0.0914035136127134
2023-01-27 16:09:53.891740,0.07541517913341517
2023-01-27 16:09:53.896740,0.0597140038736795
2023-01-27 16:09:53.901740,0.04507601261138901
2023-01-27 16:09:53.906740,0.03246006977266289
2023-01-27 16:09:53.911740,0.022477906197309362
2023-01-27 16:09:53.916740,0.014930852589155764
2023-01-27 16:09:53.921740,0.00927964877337205
2023-01-27 16:09:53.926740,0.005215826709880976
2023-01-27 16:09:53.931740,0.0024280946236102637
2023-01-27 16:09:53.936740,0.0003268974108825565
2023-01-27 16:09:53.941740,-0.0014664729824288732
2023-01-27 16:09:53.946740,-0.002731646215911875
2023-01-27 16:09:53.951740,-0.003197391983121548
2023-01-27 16:09:53.956740,-0.003090227856712218
2023-01-27 16:09:53.961740,-0.002740621566772385
2023-01-27 16:09:53.966740,-0.0021121133339903507
2023-01-27 16:09:53.971740,-0.0011779865017159921
2023-01-27 16:09:53.976740,-0.0003027173948589687
2023-01-27 16:09:53.981740,0.00024040541029536654
2023-01-27 16:09:53.986740,0.0007089941350098409
2023-01-27 16:09:53.991740,0.0013943513622507217
2023-01-27 16:09:53.996740,0.002119589765014325
2023-01-27 16:09:54.001740,0.0026684999465942287
2023-01-27 16:09:54.006740,0.0032378125495983266
2023-01-27 16:09:54.011740,0.003990729805082083
2023-01-27 16:09:54.016740,0.004627030497455053
2023-01-27 16:09:54.021740,0.004880229942500478
2023-01-27 16:09:54.026740,0.004993839499078868
2023-01-27 16:09:54.031740,0.0052408380433917046
2023-01-27 16:09:54.036740,0.005435269938308977
2023-01-27 16:09:54.041740,0.005385081283748093
2023-01-27 16:09:54.046740,0.005347569219987008
2023-01-27 16:09:54.051740,0.0055533647537231254
2023-01-27 16:09:54.056740,0.0057615658161350135
2023-01-27 16:09:54.061740,0.0057937703095376275
2023-01-27 16:09:54.066740,0.006070326214808835
2023-01-27 16:09:54.071740,0.0071640810929238215
2023-01-27 16:09:54.076740,0.009298268778017524
2023-01-27 16:09:54.081740,0.012717446312308294
2023-01-27 16:09:54.086740,0.017971531516466247
2023-01-27 16:09:54.091740,0.02521852776408188
2023-01-27 16:09:54.096740,0.03361863759887844
2023-01-27 16:09:54.101740,0.04185458272695539
2023-01-27 16:09:54.106740,0.04880403924458708
2023-01-27 16:09:54.111740,0.053345959633588735
2023-01-27 16:09:54.116740,0.054200976169791526
2023-01-27 16:09:54.121740,0.05067745968699455
2023-01-27 16:09:54.126740,0.04325732885229123
2023-01-27 16:09:54.131740,0.03303170204162588
2023-01-27 16:09:54.136740,0.02100334425425445
2023-01-27 16:09:54.141740,0.008245905861258502
2023-01-27 16:09:54.146740,-0.004028864522893573
2023-01-27 16:09:54.151740,-0.015265743248164642
2023-01-27 16:09:54.156740,-0.025873727564269262
2023-01-27 16:09:54.161740,-0.035868488252162836
2023-01-27 16:09:54.166740,-0.04312533474307683
2023-01-27 16:09:54.171740,-0.0429844856262207
2023-01-27 16:09:54.176740,-0.029117489371982004
2023-01-27 16:09:54.181740,0.004784067627042475
2023-01-27 16:09:54.186740,0.06187231433697913
2023-01-27 16:09:54.191740,0.13813695311546323
2023-01-27 16:09:54.196740,0.22072018302077767
2023-01-27 16:09:54.201740,0.29098671674728377
2023-01-27 16:09:54.206740,0.33087294922670163
2023-01-27 16:09:54.211740,0.3291630744934081
2023-01-27 16:09:54.216740,0.2856211259195618
2023-01-27 16:09:54.221740,0.21170100569725026
2023-01-27 16:09:54.226740,0.1265615935980867
2023-01-27 16:09:54.231740,0.04947543144226065
2023-01-27 16:09:54.236740,-0.006949700882532511
2023-01-27 16:09:54.241740,-0.03904183954000469
2023-01-27 16:09:54.246740,-0.05035675487263584
2023-01-27 16:09:54.251740,-0.0484897717833518
2023-01-27 16:09:54.256740,-0.041531219536021624
2023-01-27 16:09:54.261740,-0.03485878556966778
2023-01-27 16:09:54.266740,-0.030047122507852624
2023-01-27 16:09:54.271740,-0.02649267576634878
2023-01-27 16:09:54.276740,-0.0234528950399189
2023-01-27 16:09:54.281740,-0.020410418510436984
2023-01-27 16:09:54.286740,-0.0167333522549078
2023-01-27 16:09:54.291740,-0.012164513580500995
2023-01-27 16:09:54.296740,-0.007280963070214341
2023-01-27 16:09:54.301740,-0.002764662262052146
2023-01-27 16:09:54.306740,0.00133112896126399
2023-01-27 16:09:54.311740,0.005024473182857027
2023-01-27 16:09:54.316740,0.007797397904968799
2023-01-27 16:09:54.321740,0.00932773016393178
2023-01-27 16:09:54.326740,0.010274597528025016
2023-01-27 16:09:54.331740,0.011587540619075203
2023-01-27 16:09:54.336740,0.013585455871990518
2023-01-27 16:09:54.341740,0.016419690102338725
2023-01-27 16:09:54.346740,0.020710370445898244
2023-01-27 16:09:54.351740,0.026733081787824572
2023-01-27 16:09:54.356740,0.03353889511714514
2023-01-27 16:09:54.361740,0.03993133828043928
2023-01-27 16:09:54.366740,0.04589347479272616
2023-01-27 16:09:54.371740,0.05204777047038071
2023-01-27 16:09:54.376740,0.058189449958345525
2023-01-27 16:09:54.381740,0.06361126899719236
2023-01-27 16:09:54.386740,0.06869218116535937
2023-01-27 16:09:54.391740,0.07488628476858128
2023-01-27 16:09:54.396740,0.08294807913307994
2023-01-27 16:09:54.401740,0.0920993089675903
2023-01-27 16:09:54.406740,0.10110755862355146
2023-01-27 16:09:54.411740,0.10936041921377178
2023-01-27 16:09:54.416740,0.11669757801586797
2023-01-27 16:09:54.421740,0.12296736240386959
2023-01-27 16:09:54.426740,0.12810493359519487
2023-01-27 16:09:54.431740,0.13217489421367634
2023-01-27 16:09:54.436740,0.13507546617317912
2023-01-27 16:09:54.441740,0.1364541053771972
2023-01-27 16:09:54.446740,0.13593108039202056
2023-01-27 16:09:54.451740,0.13313651084899897
2023-01-27 16:09:54.456740,0.12765031119144404
2023-01-27 16:09:54.461740,0.11928915977478019
2023-01-27 16:09:54.466740,0.10840825972687397
2023-01-27 16:09:54.471740,0.09565731137990953
2023-01-27 16:09:54.476740,0.08159971250963086
2023-01-27 16:09:54.481740,0.06683270633220673
2023-01-27 16:09:54.486740,0.05220319140319314
2023-01-27 16:09:54.491740,0.03851294517517075
2023-01-27 16:09:54.496740,0.026192320888296188
2023-01-27 16:09:54.501740,0.015554229728877525
2023-01-27 16:09:54.506740,0.0070699238261512625
2023-01-27 16:09:54.511740,0.0010097026824951408
2023-01-27 16:09:54.516740,-0.0029418211365721493
2023-01-27 16:09:54.521740,-0.005361040588468261
2023-01-27 16:09:54.526740,-0.006623940491300053
2023-01-27 16:09:54.531740,-0.007043878547847207
2023-01-27 16:09:54.536740,-0.007075507721105637
2023-01-27 16:09:54.541740,-0.006947716232389183
2023-01-27 16:09:54.546740,-0.006375265825518032
2023-01-27 16:09:54.551740,-0.005024473182856978
2023-01-27 16:09:54.556740,-0.003011904702259161
2023-01-27 16:09:54.561740,-0.0006490945816040607
2023-01-27 16:09:54.566740,0.0019274612050108571
2023-01-27 16:09:54.571740,0.00449558114632961
2023-01-27 16:09:54.576740,0.006498089161266214
2023-01-27 16:09:54.581740,0.007500648498535048
2023-01-27 16:09:54.586740,0.007627886972871501
2023-01-27 16:09:54.591740,0.007212162017822154
2023-01-27 16:09:54.596740,0.006360893788587456
2023-01-27 16:09:54.601740,0.005216797348111792
2023-01-27 16:09:54.606740,0.004233652390491348
2023-01-27 16:09:54.611740,0.0037503242492675022
2023-01-27 16:09:54.616740,0.003610387290709866
2023-01-27 16:09:54.621740,0.00358204054646194
2023-01-27 16:09:54.626740,0.0038161610393986694
2023-01-27 16:09:54.631740,0.004543662071228046
2023-01-27 16:09:54.636740,0.005719983990486582
2023-01-27 16:09:54.641740,0.00735640525817873
2023-01-27 16:09:54.646740,0.009800144570530344
2023-01-27 16:09:54.651740,0.013270378112792936
2023-01-27 16:09:54.656740,0.017492623946678422
2023-01-27 16:09:54.661740,0.022189419716596603
2023-01-27 16:09:54.666740,0.02754223257583207
2023-01-27 16:09:54.671740,0.033752918243408224
2023-01-27 16:09:54.676740,0.040495426470492035
2023-01-27 16:09:54.681740,0.04711946099996558
2023-01-27 16:09:54.686740,0.05291649930583807
2023-01-27 16:09:54.691740,0.05678375810384749
2023-01-27 16:09:54.696740,0.05717354903018253
2023-01-27 16:09:54.701740,0.053033433854579884
2023-01-27 16:09:54.706740,0.04464348095461126
2023-01-27 16:09:54.711740,0.033272109925746876
2023-01-27 16:09:54.716740,0.02040612202173709
2023-01-27 16:09:54.721740,0.007524689193814903
2023-01-27 16:09:54.726740,-0.00411115182223571
2023-01-27 16:09:54.731740,-0.014087757095694478
2023-01-27 16:09:54.736740,-0.02273387185689727
2023-01-27 16:09:54.741740,-0.029521783813834055
2023-01-27 16:09:54.746740,-0.0314572328074561
2023-01-27 16:09:54.751740,-0.023247202858328767
2023-01-27 16:09:54.756740,0.0009153823985907389
2023-01-27 16:09:54.761740,0.04488369077444075
2023-01-27 16:09:54.766740,0.10762092609564573
2023-01-27 16:09:54.771740,0.1807367801666258
2023-01-27 16:09:54.776740,0.24901442962319764
2023-01-27 16:09:54.781740,0.29514572024345376
2023-01-27 16:09:54.786740,0.3062819713045289
2023-01-27 16:09:54.791740,0.2787741124629973
2023-01-27 16:09:54.796740,0.21947863394654768
2023-01-27 16:09:54.801740,0.14359414577484134
2023-01-27 16:09:54.806740,0.0693004795925449
2023-01-27 16:09:54.811740,0.011010567657649498
2023-01-27 16:09:54.816740,-0.025022765389763117
2023-01-27 16:09:54.821740,-0.04043618962168692
2023-01-27 16:09:54.826740,-0.04142392626150983
2023-01-27 16:09:54.831740,-0.03529151529073714
2023-01-27 16:09:54.836740,-0.027924468482396634
2023-01-27 16:09:54.841740,-0.022189419716596565
2023-01-27 16:09:54.846740,-0.018046811164198855
2023-01-27 16:09:54.851740,-0.014424324035644493
2023-01-27 16:09:54.856740,-0.01085573034821337
2023-01-27 16:09:54.861740,-0.007380445953458481
2023-01-27 16:09:54.866740,-0.0038674040490368116
2023-01-27 16:09:54.871740,-0.00024040541029527655
2023-01-27 16:09:54.876740,0.0031487717095309096
2023-01-27 16:09:54.881740,0.006058216094970703
2023-01-27 16:09:54.886740,0.008838801531429756
2023-01-27 16:09:54.891740,0.011827945709228453
2023-01-27 16:09:54.896740,0.01478316642412336
2023-01-27 16:09:54.901740,0.01750151440501211
2023-01-27 16:09:54.906740,0.020441973372741333
2023-01-27 16:09:54.911740,0.024088621139526308
2023-01-27 16:09:54.916740,0.02822721491171548
2023-01-27 16:09:54.921740,0.03247877210378637
2023-01-27 16:09:54.926740,0.036965423110442715
2023-01-27 16:09:54.931740,0.04178246110677714
2023-01-27 16:09:54.936740,0.04645969821206724
2023-01-27 16:09:54.941740,0.05074958130717272
2023-01-27 16:09:54.946740,0.05539204898502615
2023-01-27 16:09:54.951740,0.061303377151489216
2023-01-27 16:09:54.956740,0.06853749925985252
2023-01-27 16:09:54.961740,0.07676144689321508
2023-01-27 16:09:54.966740,0.08602386280202065
2023-01-27 16:09:54.971740,0.09611408412456514
2023-01-27 16:09:54.976740,0.10585644325240139
2023-01-27 16:09:54.981740,0.1141444891691207
2023-01-27 16:09:54.986740,0.12114817808724072
2023-01-27 16:09:54.991740,0.12748698890209187
2023-01-27 16:09:54.996740,0.1328873772784686
2023-01-27 16:09:55.001740,0.13686279952526087
2023-01-27 16:09:55.006740,0.13999184044871993
2023-01-27 16:09:55.011740,0.14294505119323725
2023-01-27 16:09:55.016740,0.14466880161823523
2023-01-27 16:09:55.021740,0.14318546652793876
2023-01-27 16:09:55.026740,0.1379929146759586
2023-01-27 16:09:55.031740,0.1300593316555022
2023-01-27 16:09:55.036740,0.11970018340739894
2023-01-27 16:09:55.041740,0.10649959743022909
2023-01-27 16:09:55.046740,0.09155762894445243
2023-01-27 16:09:55.051740,0.07762690633535381
2023-01-27 16:09:55.056740,0.06606280501080436
2023-01-27 16:09:55.061740,0.05534132570028301
2023-01-27 16:09:55.066740,0.043741685593036546
2023-01-27 16:09:55.071740,0.03207008168101313
2023-01-27 16:09:55.076740,0.02239947448889633
2023-01-27 16:09:55.081740,0.015265743248164649
2023-01-27 16:09:55.086740,0.009663236884776919
2023-01-27 16:09:55.091740,0.0051206350326538745
2023-01-27 16:09:55.096740,0.002203356124388075
2023-01-27 16:09:55.101740,0.001153945922851515
2023-01-27 16:09:55.106740,0.0013531095291533764
2023-01-27 16:09:55.111740,0.0022117297630757
2023-01-27 16:09:55.116740,0.0035916508744196184
2023-01-27 16:09:55.121740,0.005192756652832012
2023-01-27 16:09:55.126740,0.00635780352006896
2023-01-27 16:09:55.131740,0.006755392067134319
2023-01-27 16:09:55.136740,0.006709599491401031
2023-01-27 16:09:55.141740,0.00668327044695609
2023-01-27 16:09:55.146740,0.0068810000209185655
2023-01-27 16:09:55.151740,0.007452567573636725
2023-01-27 16:09:55.156740,0.008607367744142655
2023-01-27 16:09:55.161740,0.010313391685485725
2023-01-27 16:09:55.166740,0.012184583133927116
2023-01-27 16:09:55.171740,0.01382331084460019
2023-01-27 16:09:55.176740,0.015071841665139411
2023-01-27 16:09:55.181740,0.015890797600150112
2023-01-27 16:09:55.186740,0.016273110278089992
2023-01-27 16:09:55.191740,0.01639564894139763
2023-01-27 16:09:55.196740,0.01664470461566106
2023-01-27 16:09:55.201740,0.017357271164655633
2023-01-27 16:09:55.206740,0.01864165801631073
2023-01-27 16:09:55.211740,0.020482540130615182
2023-01-27 16:09:55.216740,0.02286012384302378
2023-01-27 16:09:55.221740,0.025699337944388292
2023-01-27 16:09:55.226740,0.02885103288464029
2023-01-27 16:09:55.231740,0.03223836421966546
2023-01-27 16:09:55.236740,0.035959701080305856
2023-01-27 16:09:55.241740,0.040171742439270026
2023-01-27 16:09:55.246740,0.04488077118940015
2023-01-27 16:09:55.251740,0.049812000244855804
2023-01-27 16:09:55.256740,0.054345206127674864
2023-01-27 16:09:55.261740,0.057504974305629744
2023-01-27 16:09:55.266740,0.05813275270164977
2023-01-27 16:09:55.271740,0.05529324337840084
2023-01-27 16:09:55.276740,0.04871046214190642
2023-01-27 16:09:55.281740,0.03894567489624019
2023-01-27 16:09:55.286740,0.027209357301437535
2023-01-27 16:09:55.291740,0.01490513514727354
2023-01-27 16:09:55.296740,0.003110068104903462
2023-01-27 16:09:55.301740,-0.007717013359069796
2023-01-27 16:09:55.306740,-0.01747631436268545
2023-01-27 16:09:55.311740,-0.025531053543090747
2023-01-27 16:09:55.316740,-0.029604393025871555
2023-01-27 16:09:55.321740,-0.025314688682556055
2023-01-27 16:09:55.326740,-0.007093136868395504
2023-01-27 16:09:55.331740,0.029425621032714806
2023-01-27 16:09:55.336740,0.08433842641993719
2023-01-27 16:09:55.341740,0.15123903751373283
2023-01-27 16:09:55.346740,0.21739494214640778
2023-01-27 16:09:55.351740,0.2670182883739469
2023-01-27 16:09:55.356740,0.2866719605014627
2023-01-27 16:09:55.361740,0.27045607566833485
2023-01-27 16:09:55.366740,0.22248870641894897
2023-01-27 16:09:55.371740,0.1554461419582366
2023-01-27 16:09:55.376740,0.08579754822315364
2023-01-27 16:09:55.381740,0.027911067008972102
2023-01-27 16:09:55.386740,-0.010308383915893416
2023-01-27 16:09:55.391740,-0.02851208113133893
2023-01-27 16:09:55.396740,-0.031852286615196304
2023-01-27 16:09:55.401740,-0.02743025682866566
2023-01-27 16:09:55.406740,-0.021152091319066202
2023-01-27 16:09:55.411740,-0.01613120362162589
2023-01-27 16:09:55.416740,-0.01281485034807712
2023-01-27 16:09:55.421740,-0.010241270065307636
2023-01-27 16:09:55.426740,-0.007396805675718345
2023-01-27 16:09:55.431740,-0.00387052702717484
2023-01-27 16:09:55.436740,0.00020030613206624537
2023-01-27 16:09:55.441740,0.004399418830871463
2023-01-27 16:09:55.446740,0.008267737903785587
2023-01-27 16:09:55.451740,0.01156350038945673
2023-01-27 16:09:55.456740,0.014418067192231878
2023-01-27 16:09:55.461740,0.017164945602416933
2023-01-27 16:09:55.466740,0.020038011494298395
2023-01-27 16:09:55.471740,0.023127000778913387
2023-01-27 16:09:55.476740,0.026499916549171935
2023-01-27 16:09:55.481740,0.030146837234497025
2023-01-27 16:09:55.486740,0.03388203503894503
2023-01-27 16:09:55.491740,0.037551324814558
2023-01-27 16:09:55.496740,0.04129110033452904
2023-01-27 16:09:55.501740,0.045364499092102
2023-01-27 16:09:55.506740,0.049845180998422674
2023-01-27 16:09:55.511740,0.05471627041697498
2023-01-27 16:09:55.516740,0.060116481242676795
2023-01-27 16:09:55.521740,0.06613552570343002
2023-01-27 16:09:55.526740,0.07252038839143136
2023-01-27 16:09:55.531740,0.07899721711874003
2023-01-27 16:09:55.536740,0.08574088061396785
2023-01-27 16:09:55.541740,0.09308497607707969
2023-01-27 16:09:55.546740,0.10095211226479914
2023-01-27 16:09:55.551740,0.10907193273305885
2023-01-27 16:09:55.556740,0.11748844480043051
2023-01-27 16:09:55.561740,0.12616476416587818
2023-01-27 16:09:55.566740,0.1343218808386909
2023-01-27 16:09:55.571740,0.14097373187541953
2023-01-27 16:09:55.576740,0.14590062981777924
2023-01-27 16:09:55.581740,0.14919559657573683
2023-01-27 16:09:55.586740,0.15017169584490003
2023-01-27 16:09:55.591740,0.14794549345970145
2023-01-27 16:09:55.596740,0.1428704825310012
2023-01-27 16:09:55.601740,0.13587713241577135
2023-01-27 16:09:55.606740,0.1265426515263969
2023-01-27 16:09:55.611740,0.11383195966482153
2023-01-27 16:09:55.616740,0.09901874263212637
2023-01-27 16:09:55.621740,0.08539199829101558
2023-01-27 16:09:55.626740,0.0739379653170313
2023-01-27 16:09:55.631740,0.06173610687255849
2023-01-27 16:09:55.636740,0.04656961584982369
2023-01-27 16:09:55.641740,0.03110845945775504
2023-01-27 16:09:55.646740,0.019968265692331053
2023-01-27 16:09:55.651740,0.013967554084956636
2023-01-27 16:09:55.656740,0.010092705324943598
2023-01-27 16:09:55.661740,0.006370743270963454
2023-01-27 16:09:55.666740,0.0037595864715214873
2023-01-27 16:09:55.671740,0.003221432445570836
2023-01-27 16:09:55.676740,0.0038333077811857803
2023-01-27 16:09:55.681740,0.004591743461787729
2023-01-27 16:09:55.686740,0.005828391990236305
2023-01-27 16:09:55.691740,0.007813176140189079
2023-01-27 16:09:55.696740,0.009683000569399301
2023-01-27 16:09:55.701740,0.010746121406555157
2023-01-27 16:09:55.706740,0.011464500828230494
2023-01-27 16:09:55.711740,0.012284716591238927
2023-01-27 16:09:55.716740,0.012734119503531227
2023-01-27 16:09:55.721740,0.012477040290832585
2023-01-27 16:09:55.726740,0.012132681012696793
2023-01-27 16:09:55.731740,0.012260675430297813
2023-01-27 16:09:55.736740,0.012538282977208041
2023-01-27 16:09:55.741740,0.01264532469213007
2023-01-27 16:09:55.746740,0.012988924951983345
2023-01-27 16:09:55.751740,0.013847351074218759
2023-01-27 16:09:55.756740,0.014712019325564275
2023-01-27 16:09:55.761740,0.015193621627986393
2023-01-27 16:09:55.766740,0.015768469693563995
2023-01-27 16:09:55.771740,0.016972621902823386
2023-01-27 16:09:55.776740,0.018629409942068128
2023-01-27 16:09:55.781740,0.0204825401306152
2023-01-27 16:09:55.786740,0.022818680413946007
2023-01-27 16:09:55.791740,0.02584358118474481
2023-01-27 16:09:55.796740,0.02918220628164181
2023-01-27 16:09:55.801740,0.032623015344142886
2023-01-27 16:09:55.806740,0.03666454848748513
2023-01-27 16:09:55.811740,0.041686296463012563
2023-01-27 16:09:55.816740,0.04715119134305439
2023-01-27 16:09:55.821740,0.05211989209055902
2023-01-27 16:09:55.826740,0.055898788607809224
2023-01-27 16:09:55.831740,0.057697296142578104
2023-01-27 16:09:55.836740,0.0564203880463409
2023-01-27 16:09:55.841740,0.051542919129133155
2023-01-27 16:09:55.846740,0.04376022684197598
2023-01-27 16:09:55.851740,0.03430585190653802
2023-01-27 16:09:55.856740,0.02411351629476433
2023-01-27 16:09:55.861740,0.01394351385533804
2023-01-27 16:09:55.866740,0.00452526430213004
2023-01-27 16:09:55.871740,-0.00401477050036191
2023-01-27 16:09:55.876740,-0.012094616280492061
2023-01-27 16:09:55.881740,-0.019064148887991943
2023-01-27 16:09:55.886740,-0.02166569506381104
2023-01-27 16:09:55.891740,-0.014400283806025982
2023-01-27 16:09:55.896740,0.00858387611401011
2023-01-27 16:09:55.901740,0.0511101894080638
2023-01-27 16:09:55.906740,0.1121534319133708
2023-01-27 16:09:55.911740,0.18342933058738692
2023-01-27 16:09:55.916740,0.24997446606952628
2023-01-27 16:09:55.921740,0.29490530490875233
2023-01-27 16:09:55.926740,0.3058514245286615
2023-01-27 16:09:55.931740,0.2794712781906127
2023-01-27 16:09:55.936740,0.22257419132600298
2023-01-27 16:09:55.941740,0.14989277720451347
2023-01-27 16:09:55.946740,0.07882336875817474
2023-01-27 16:09:55.951740,0.022982757538557042
2023-01-27 16:09:55.956740,-0.01182217781800693
2023-01-27 16:09:55.961740,-0.02718985080718989
2023-01-27 16:09:55.966740,-0.02894681586614768
2023-01-27 16:09:55.971740,-0.02392033860087391
2023-01-27 16:09:55.976740,-0.017564740296713063
2023-01-27 16:09:55.981740,-0.012525121681391993
2023-01-27 16:09:55.986740,-0.00884901567092941
2023-01-27 16:09:55.991740,-0.005721648689359379
2023-01-27 16:09:55.996740,-0.002849213038720805
2023-01-27 16:09:56.001740,-0.00028848648071277456
2023-01-27 16:09:56.006740,0.002146512075172701
2023-01-27 16:09:56.011740,0.004687905311584395
2023-01-27 16:09:56.016740,0.0073089981643946035
2023-01-27 16:09:56.021740,0.01009702682495114
2023-01-27 16:09:56.026740,0.01347837043513365
2023-01-27 16:09:56.031740,0.0176217164844274
2023-01-27 16:09:56.036740,0.022038243898833736
2023-01-27 16:09:56.041740,0.02618014812469478
2023-01-27 16:09:56.046740,0.03001447943469301
2023-01-27 16:09:56.051740,0.03365675732493399
2023-01-27 16:09:56.056740,0.03695189079413802
2023-01-27 16:09:56.061740,0.03985921666026111
2023-01-27 16:09:56.066740,0.04279545163350874
2023-01-27 16:09:56.071740,0.046157836914062486
2023-01-27 16:09:56.076740,0.04992163482187312
2023-01-27 16:09:56.081740,0.0540912151336669
2023-01-27 16:09:56.086740,0.05908517681143411
2023-01-27 16:09:56.091740,0.0652460306882858
2023-01-27 16:09:56.096740,0.07238466296227182
2023-01-27 16:09:56.101740,0.08019924163818351
2023-01-27 16:09:56.106740,0.088704907716411
2023-01-27 16:09:56.111740,0.09784500300884236
2023-01-27 16:09:56.116740,0.10710884632950128
2023-01-27 16:09:56.121740,0.1159475296735763
2023-01-27 16:09:56.126740,0.12417124576425372
2023-01-27 16:09:56.131740,0.13157388567924488
2023-01-27 16:09:56.136740,0.13761813284363947
2023-01-27 16:09:56.141740,0.14191131293773643
2023-01-27 16:09:56.146740,0.14458930920403426
2023-01-27 16:09:56.151740,0.14582991600036613
2023-01-27 16:09:56.156740,0.14536290686103628
2023-01-27 16:09:56.161740,0.14280080795288078
2023-01-27 16:09:56.166740,0.13801923020130014
2023-01-27 16:09:56.171740,0.13085266947746274
2023-01-27 16:09:56.176740,0.12090235228879403
2023-01-27 16:09:56.181740,0.108134351670742
2023-01-27 16:09:56.186740,0.0933522298401965
2023-01-27 16:09:56.191740,0.07772307097911832
2023-01-27 16:09:56.196740,0.06217679892441696
2023-01-27 16:09:56.201740,0.04752814769744869
2023-01-27 16:09:56.206740,0.03465566746385899
2023-01-27 16:09:56.211740,0.02406458184123026
2023-01-27 16:09:56.216740,0.015583244313270394
2023-01-27 16:09:56.221740,0.008846919052302804
2023-01-27 16:09:56.226740,0.0037625541416926845
2023-01-27 16:09:56.231740,0.00024040541029531445
2023-01-27 16:09:56.236740,-0.002084093772589796
2023-01-27 16:09:56.241740,-0.0035099189262836742
2023-01-27 16:09:56.246740,-0.004041696029175033
2023-01-27 16:09:56.251740,-0.0037984054069965696
2023-01-27 16:09:56.256740,-0.003219098404449042
2023-01-27 16:09:56.261740,-0.00254829740151762
2023-01-27 16:09:56.266740,-0.0015540915303202305
2023-01-27 16:09:56.271740,-7.212162017819897e-05
2023-01-27 16:09:56.276740,0.0016192134745519457
2023-01-27 16:09:56.281740,0.003269513603299809
2023-01-27 16:09:56.286740,0.004998503823104443
2023-01-27 16:09:56.291740,0.006803472992032719
2023-01-27 16:09:56.296740,0.00821923514176502
2023-01-27 16:09:56.301740,0.008895000442862486
2023-01-27 16:09:56.306740,0.009102653196996689
2023-01-27 16:09:56.311740,0.009303689002990712
2023-01-27 16:09:56.316740,0.009632073594025063
2023-01-27 16:09:56.321740,0.01014510821551079
2023-01-27 16:09:56.326740,0.011087568432634403
2023-01-27 16:09:56.331740,0.012453000061213889
2023-01-27 16:09:56.336740,0.013685484980242833
2023-01-27 16:09:56.341740,0.014256040565669512
2023-01-27 16:09:56.346740,0.01421558937585836
2023-01-27 16:09:56.351740,0.013871392235159836
2023-01-27 16:09:56.356740,0.013355849350738405
2023-01-27 16:09:56.361740,0.012885729782283306
2023-01-27 16:09:56.366740,0.012998678350081026
2023-01-27 16:09:56.371740,0.014087757095694528
2023-01-27 16:09:56.376740,0.016048565897359212
2023-01-27 16:09:56.381740,0.018751621246337814
2023-01-27 16:09:56.386740,0.02248101900218883
2023-01-27 16:09:56.391740,0.02752641960978502
2023-01-27 16:09:56.396740,0.03368824832834689
2023-01-27 16:09:56.401740,0.04048427194356908
2023-01-27 16:09:56.406740,0.0473812682509044
2023-01-27 16:09:56.411740,0.05341808125376702
2023-01-27 16:09:56.416740,0.0570419173152614
2023-01-27 16:09:56.421740,0.05685587972402573
2023-01-27 16:09:56.426740,0.052395198594174415
2023-01-27 16:09:56.431740,0.044042270630597985
2023-01-27 16:09:56.436740,0.032690917486515654
2023-01-27 16:09:56.441740,0.01980940625071518
2023-01-27 16:09:56.446740,0.007216634102586785
2023-01-27 16:09:56.451740,-0.003894567489623938
2023-01-27 16:09:56.456740,-0.013558906551814761
2023-01-27 16:09:56.461740,-0.022237500175833664
2023-01-27 16:09:56.466740,-0.029360835615584543
2023-01-27 16:09:56.471740,-0.03240665048360813
2023-01-27 16:09:56.476740,-0.026663432226979922
2023-01-27 16:09:56.481740,-0.0058658919297157955
2023-01-27 16:09:56.486740,0.035338066997520845
2023-01-27 16:09:56.491740,0.09734015166759485
2023-01-27 16:09:56.496740,0.172604283892481
2023-01-27 16:09:56.501740,0.24636745452880843
2023-01-27 16:09:56.506740,0.30090365331675106
2023-01-27 16:09:56.511740,0.32139798998832686
2023-01-27 16:09:56.516740,0.30145417084985804
2023-01-27 16:09:56.521740,0.24610301852226238
2023-01-27 16:09:56.526740,0.17019461923723234
2023-01-27 16:09:56.531740,0.09238779544830314
2023-01-27 16:09:56.536740,0.028191933907081534
2023-01-27 16:09:56.541740,-0.014256040565669452
2023-01-27 16:09:56.546740,-0.03475389672086673
2023-01-27 16:09:56.551740,-0.038969717919826494
2023-01-27 16:09:56.556740,-0.03484496346518972
2023-01-27 16:09:56.561740,-0.028872689232230072
2023-01-27 16:09:56.566740,-0.024231721749939865
2023-01-27 16:09:56.571740,-0.021444162353873204
2023-01-27 16:09:56.576740,-0.01993013428823516
2023-01-27 16:09:56.581740,-0.01879970356822009
2023-01-27 16:09:56.586740,-0.01712952881878148
2023-01-27 16:09:56.591740,-0.014448365196585555
2023-01-27 16:09:56.596740,-0.010958381423556077
2023-01-27 16:09:56.601740,-0.007019837852567363
2023-01-27 16:09:56.606740,-0.00271630479217977
2023-01-27 16:09:56.611740,0.0018270810833200006
2023-01-27 16:09:56.616740,0.006152313748318751
2023-01-27 16:09:56.621740,0.009904703125357621
2023-01-27 16:09:56.626740,0.013222270113289195
2023-01-27 16:09:56.631740,0.016347568482160478
2023-01-27 16:09:56.636740,0.01921593550343374
2023-01-27 16:09:56.641740,0.021780729293823166
2023-01-27 16:09:56.646740,0.024382231039611284
2023-01-27 16:09:56.651740,0.027430256828665713
2023-01-27 16:09:56.656740,0.031061212840510534
2023-01-27 16:09:56.661740,0.03543575853109349
2023-01-27 16:09:56.666740,0.04098134367899538
2023-01-27 16:09:56.671740,0.04793683812022205
2023-01-27 16:09:56.676740,0.055961526410221354
2023-01-27 16:09:56.681740,0.06452481448650363
2023-01-27 16:09:56.686740,0.07335848109993205
2023-01-27 16:09:56.691740,0.08224269002676006
2023-01-27 16:09:56.696740,0.09077230432466953
2023-01-27 16:09:56.701740,0.09873449802398679
2023-01-27 16:09:56.706740,0.10638024831032293
2023-01-27 16:09:56.711740,0.11395215988159169
2023-01-27 16:09:56.716740,0.1212417636073627
2023-01-27 16:09:56.721740,0.12789568305015556
2023-01-27 16:09:56.726740,0.13376089271177294
2023-01-27 16:09:56.731740,0.13856968283653248
2023-01-27 16:09:56.736740,0.14165822973580566
2023-01-27 16:09:56.741740,0.1423921287059783
2023-01-27 16:09:56.746740,0.14058456507838976
2023-01-27 16:09:56.751740,0.13621370494365687
2023-01-27 16:09:56.756740,0.1291253518400464
2023-01-27 16:09:56.761740,0.11938532441854469
2023-01-27 16:09:56.766740,0.10758303637694966
2023-01-27 16:09:56.771740,0.09443124383687967
2023-01-27 16:09:56.776740,0.08038023648818152
2023-01-27 16:09:56.781740,0.06591916084289548
2023-01-27 16:09:56.786740,0.05186029362387383
2023-01-27 16:09:56.791740,0.038945674896240255
2023-01-27 16:09:56.796740,0.027484186618635324
2023-01-27 16:09:56.801740,0.017669796943664516
2023-01-27 16:09:56.806740,0.009861269797139065
2023-01-27 16:09:56.811740,0.0041830539703369045
2023-01-27 16:09:56.816740,0.0002049654589809293
2023-01-27 16:09:56.821740,-0.002620419021695805
2023-01-27 16:09:56.826740,-0.0045133282610278986
2023-01-27 16:09:56.831740,-0.0056254863739012674
2023-01-27 16:09:56.836740,-0.006306388621138687
2023-01-27 16:09:56.841740,-0.00673135137185444
2023-01-27 16:09:56.846740,-0.006638350049275907
2023-01-27 16:09:56.851740,-0.005817811004817415
2023-01-27 16:09:56.856740,-0.004532954310123465
2023-01-27 16:09:56.861740,-0.003125270362943392
2023-01-27 16:09:56.866740,-0.0015832972105495953
2023-01-27 16:09:56.871740,0.00014424324035634584
2023-01-27 16:09:56.876740,0.0018096723046715935
2023-01-27 16:09:56.881740,0.003245472908019991
2023-01-27 16:09:56.886740,0.004712144688693868
2023-01-27 16:09:56.891740,0.0064428648911416244
2023-01-27 16:09:56.896740,0.008161355043015111
2023-01-27 16:09:56.901740,0.009447932243347116
2023-01-27 16:09:56.906740,0.01025834454818919
2023-01-27 16:09:56.911740,0.010673999786376948
2023-01-27 16:09:56.916740,0.010463097262306877
2023-01-27 16:09:56.921740,0.009351770393550334
2023-01-27 16:09:56.926740,0.007524324572663907
2023-01-27 16:09:56.931740,0.005505283828824673
2023-01-27 16:09:56.936740,0.003785313037207402
2023-01-27 16:09:56.941740,0.0028608243446797106
2023-01-27 16:09:56.946740,0.003297698433973333
2023-01-27 16:09:56.951740,0.0053129596635699255
2023-01-27 16:09:56.956740,0.008469103231129703
2023-01-27 16:09:56.961740,0.012092391960322819
2023-01-27 16:09:56.966740,0.015806629342307397
2023-01-27 16:09:56.971740,0.01947283744812009
2023-01-27 16:09:56.976740,0.022985029351417136
2023-01-27 16:09:56.981740,0.026468634605407722
2023-01-27 16:09:56.986740,0.030364155771966227
2023-01-27 16:09:56.991740,0.03493090718984602
2023-01-27 16:09:56.996740,0.039853367163944005
2023-01-27 16:09:57.001740,0.04454712197184561
2023-01-27 16:09:57.006740,0.048522722730036785
2023-01-27 16:09:57.011740,0.051182311028242125
2023-01-27 16:09:57.016740,0.051640948565692464
2023-01-27 16:09:57.021740,0.0491629056632518
2023-01-27 16:09:57.026740,0.043615060272644016
2023-01-27 16:09:57.031740,0.03533959388732911
2023-01-27 16:09:57.036740,0.024963180505639258
2023-01-27 16:09:57.041740,0.013558864593505764
2023-01-27 16:09:57.046740,0.002474437338930405
2023-01-27 16:09:57.051740,-0.007524689193814917
2023-01-27 16:09:57.056740,-0.016685125879308354
2023-01-27 16:09:57.061740,-0.02529064938426014
2023-01-27 16:09:57.066740,-0.032029799588337744
2023-01-27 16:09:57.071740,-0.03305574506521223
2023-01-27 16:09:57.076740,-0.022208806778026398
2023-01-27 16:09:57.081740,0.0074044866487382515
2023-01-27 16:09:57.086740,0.0600788597381172
2023-01-27 16:09:57.091740,0.13335287570953358
2023-01-27 16:09:57.096740,0.215901458235189
2023-01-27 16:09:57.101740,0.289760649204254
2023-01-27 16:09:57.106740,0.33615536713506894
2023-01-27 16:09:57.111740,0.34216901659965504
2023-01-27 16:09:57.116740,0.3056500048615493
2023-01-27 16:09:57.121740,0.23639063537120802
2023-01-27 16:09:57.126740,0.15250367348336016
2023-01-27 16:09:57.131740,0.07332365214824668
2023-01-27 16:09:57.136740,0.012665423841109363
2023-01-27 16:09:57.141740,-0.024232864379882812
2023-01-27 16:09:57.146740,-0.03980809300501299
2023-01-27 16:09:57.151740,-0.04103720188140859
2023-01-27 16:09:57.156740,-0.03566434448667089
2023-01-27 16:09:57.161740,-0.029137134552001894
2023-01-27 16:09:57.166740,-0.02361351476228937
2023-01-27 16:09:57.171740,-0.01913627050817009
2023-01-27 16:09:57.176740,-0.015281557161109474
2023-01-27 16:09:57.181740,-0.011803905479609883
2023-01-27 16:09:57.186740,-0.008587809869109092
2023-01-27 16:09:57.191740,-0.005697607994079502
2023-01-27 16:09:57.196740,-0.0033133842632329332
2023-01-27 16:09:57.201740,-0.0012741487007588053
2023-01-27 16:09:57.206740,0.0010885923783334353
2023-01-27 16:09:57.211740,0.004375378601252971
2023-01-27 16:09:57.216740,0.00859947758420012
2023-01-27 16:09:57.221740,0.013414621353149359
2023-01-27 16:09:57.226740,0.018488010044781723
2023-01-27 16:09:57.231740,0.023391446098685226
2023-01-27 16:09:57.236740,0.02754252434505696
2023-01-27 16:09:57.241740,0.030675729736685704
2023-01-27 16:09:57.246740,0.03315924542971644
2023-01-27 16:09:57.251740,0.035580001771450015
2023-01-27 16:09:57.256740,0.03827436643445343
2023-01-27 16:09:57.261740,0.04146993160247805
2023-01-27 16:09:57.266740,0.04550221646821664
2023-01-27 16:09:57.271740,0.050557255744933964
2023-01-27 16:09:57.276740,0.05650140951158378
2023-01-27 16:09:57.281740,0.06327470391988756
2023-01-27 16:09:57.286740,0.07116816963083163
2023-01-27 16:09:57.291740,0.08041560649871818
2023-01-27 16:09:57.296740,0.09076359805912453
2023-01-27 16:09:57.301740,0.10166744887828821
2023-01-27 16:09:57.306740,0.11258655403216174
2023-01-27 16:09:57.311740,0.12284716218709936
2023-01-27 16:09:57.316740,0.1316119840249344
2023-01-27 16:09:57.321740,0.13837735354900355
2023-01-27 16:09:57.326740,0.14327757932359894
2023-01-27 16:09:57.331740,0.14662325382232658
2023-01-27 16:09:57.336740,0.14836200672409233
2023-01-27 16:09:57.341740,0.1481618583202362
2023-01-27 16:09:57.346740,0.14565953010229502
2023-01-27 16:09:57.351740,0.14037272334098805
2023-01-27 16:09:57.356740,0.1317723607054838
2023-01-27 16:09:57.361740,0.11986613273620597
2023-01-27 16:09:57.366740,0.10554607265198357
2023-01-27 16:09:57.371740,0.09012798964977256
2023-01-27 16:09:57.376740,0.07474832061522449
2023-01-27 16:09:57.381740,0.060293674468994085
2023-01-27 16:09:57.386740,0.0474396939535476
2023-01-27 16:09:57.391740,0.03637333959341042
2023-01-27 16:09:57.396740,0.026739175717460976
2023-01-27 16:09:57.401740,0.018174648284912095
2023-01-27 16:09:57.406740,0.01072102469450134
2023-01-27 16:09:57.411740,0.004567702766507786
2023-01-27 16:09:57.416740,-0.00025989136121670476
2023-01-27 16:09:57.421740,-0.003726283786818269
2023-01-27 16:09:57.426740,-0.005654899042933619
2023-01-27 16:09:57.431740,-0.006082256790250447
2023-01-27 16:09:57.436740,-0.005501350455791526
2023-01-27 16:09:57.441740,-0.0045196218416094355
2023-01-27 16:09:57.446740,-0.0035100991280974676
2023-01-27 16:09:57.451740,-0.002740621566772418
2023-01-27 16:09:57.456740,-0.002468590545286233
2023-01-27 16:09:57.461740,-0.002620419021695812
2023-01-27 16:09:57.466740,-0.002654332456281478
2023-01-27 16:09:57.471740,-0.0020194053649902227
2023-01-27 16:09:57.476740,-0.0005800610206092689
2023-01-27 16:09:57.481740,0.001514554023742626
2023-01-27 16:09:57.486740,0.0040450811346081535
2023-01-27 16:09:57.491740,0.006611148826777939
2023-01-27 16:09:57.496740,0.008638720666682682
2023-01-27 16:09:57.501740,0.009784500114619695
2023-01-27 16:09:57.506740,0.010171467070471521
2023-01-27 16:09:57.511740,0.010097026824951096
2023-01-27 16:09:57.516740,0.0097234391398628
2023-01-27 16:09:57.521740,0.009135405533015685
2023-01-27 16:09:57.526740,0.008432424643365228
2023-01-27 16:09:57.531740,0.0076689324341713905
2023-01-27 16:09:57.536740,0.006952797084252666
2023-01-27 16:09:57.541740,0.006659229751676288
2023-01-27 16:09:57.546740,0.007305815494768348
2023-01-27 16:09:57.551740,0.009207527153193874
2023-01-27 16:09:57.556740,0.01243965262613858
2023-01-27 16:09:57.561740,0.016924541443586315
2023-01-27 16:09:57.566740,0.022171671252893516
2023-01-27 16:09:57.571740,0.02721389196813095
2023-01-27 16:09:57.576740,0.031448715711119554
2023-01-27 16:09:57.581740,0.03543575853109347
2023-01-27 16:09:57.586740,0.04018337866284624
2023-01-27 16:09:57.591740,0.045677028596401166
2023-01-27 16:09:57.596740,0.050778281478366785
2023-01-27 16:09:57.601740,0.054475866258144226
2023-01-27 16:09:57.606740,0.056364964794536905
2023-01-27 16:09:57.611740,0.055870216339826466
2023-01-27 16:09:57.616740,0.052081371789520686
2023-01-27 16:09:57.621740,0.044835608452558476
2023-01-27 16:09:57.626740,0.03522711157373626
2023-01-27 16:09:57.631740,0.02461751364171501
2023-01-27 16:09:57.636740,0.013719136971482778
2023-01-27 16:09:57.641740,0.0028608243446797414
2023-01-27 16:09:57.646740,-0.0076448789578148916
2023-01-27 16:09:57.651740,-0.0176938381046056
2023-01-27 16:09:57.656740,-0.02683868337118406
2023-01-27 16:09:57.661740,-0.03247877210378641
2023-01-27 16:09:57.666740,-0.02884443839303924
2023-01-27 16:09:57.671740,-0.008606513962149601
2023-01-27 16:09:57.676740,0.03376008913651776
2023-01-27 16:09:57.681740,0.09868641942739477
2023-01-27 16:09:57.686740,0.17913189903885127
2023-01-27 16:09:57.691740,0.26019078493118275
2023-01-27 16:09:57.696740,0.32251297519465194
2023-01-27 16:09:57.701740,0.3492850065231322
2023-01-27 16:09:57.706740,0.33299815185607073
2023-01-27 16:09:57.711740,0.27810096740722645
2023-01-27 16:09:57.716740,0.19892367733969588
2023-01-27 16:09:57.721740,0.11452913284301748
2023-01-27 16:09:57.726740,0.042256024363750144
2023-01-27 16:09:57.731740,-0.007789134979247983
2023-01-27 16:09:57.736740,-0.03449565636402809
2023-01-27 16:09:57.741740,-0.04310468956828109
2023-01-27 16:09:57.746740,-0.0408836987295223
2023-01-27 16:09:57.751740,-0.034137569367885444
2023-01-27 16:09:57.756740,-0.026974982585619357
2023-01-27 16:09:57.761740,-0.021011432632803893
2023-01-27 16:09:57.766740,-0.01603360806102006
2023-01-27 16:09:57.771740,-0.011491378769278504
2023-01-27 16:09:57.776740,-0.007426698245780465
2023-01-27 16:09:57.781740,-0.0040388107299803785
2023-01-27 16:09:57.786740,-0.0010701008649475685
2023-01-27 16:09:57.791740,0.001875162124633725
2023-01-27 16:09:57.796740,0.004853507756343799
2023-01-27 16:09:57.801740,0.007861256599426197
2023-01-27 16:09:57.806740,0.011152232770363023
2023-01-27 16:09:57.811740,0.014833013527095262
2023-01-27 16:09:57.816740,0.018544107532929725
2023-01-27 16:09:57.821740,0.02197305485606194
2023-01-27 16:09:57.826740,0.025314337953267724
2023-01-27 16:09:57.831740,0.028848648071288986
2023-01-27 16:09:57.836740,0.03248169696914571
2023-01-27 16:09:57.841740,0.036084853112697594
2023-01-27 16:09:57.846740,0.039861993019727135
2023-01-27 16:09:57.851740,0.04397014901041977
2023-01-27 16:09:57.856740,0.04819913697615804
2023-01-27 16:09:57.861740,0.05245646089315409
2023-01-27 16:09:57.866740,0.057184831393215695
2023-01-27 16:09:57.871740,0.06289005279541006
2023-01-27 16:09:57.876740,0.06961222954027863
2023-01-27 16:09:57.881740,0.07719417661428446
2023-01-27 16:09:57.886740,0.08560923002309961
2023-01-27 16:09:57.891740,0.0945995301008224
2023-01-27 16:09:57.896740,0.10341813124320018
2023-01-27 16:09:57.901740,0.11140386760234817
2023-01-27 16:09:57.906740,0.11850994814965415
2023-01-27 16:09:57.911740,0.12493868917226782
2023-01-27 16:09:57.916740,0.13065831472266123
2023-01-27 16:09:57.921740,0.13561269640922535
2023-01-27 16:09:57.926740,0.13990279557459784
2023-01-27 16:09:57.931740,0.143257588148117
2023-01-27 16:09:57.936740,0.14466939283002592
2023-01-27 16:09:57.941740,0.1429931372404097
2023-01-27 16:09:57.946740,0.13765569967589233
2023-01-27 16:09:57.951740,0.1285688132047652
2023-01-27 16:09:57.956740,0.11589765990708137
2023-01-27 16:09:57.961740,0.1003932952880858
2023-01-27 16:09:57.966740,0.08354337698158862
2023-01-27 16:09:57.971740,0.06688078492879858
2023-01-27 16:09:57.976740,0.05134454660003579
2023-01-27 16:09:57.981740,0.03752728551626198
2023-01-27 16:09:57.986740,0.02603983645094638
2023-01-27 16:09:57.991740,0.01718898676335811
2023-01-27 16:09:57.996740,0.01067942321952376
2023-01-27 16:09:58.001740,0.006058216094970679
2023-01-27 16:09:58.006740,0.0031422513289751206
2023-01-27 16:09:58.011740,0.0017068784218280772
2023-01-27 16:09:58.016740,0.0011960593359997584
2023-01-27 16:09:58.021740,0.0011539459228515033
2023-01-27 16:09:58.026740,0.001588043937987713
2023-01-27 16:09:58.031740,0.0025482974015176105
2023-01-27 16:09:58.036740,0.003714718470352146
2023-01-27 16:09:58.041740,0.00473598670214411
2023-01-27 16:09:58.046740,0.005582420369012903
2023-01-27 16:09:58.051740,0.0062265000306068715
2023-01-27 16:09:58.056740,0.0063875554871644456
2023-01-27 16:09:58.061740,0.005962054245173941
2023-01-27 16:09:58.066740,0.005331451602014435
2023-01-27 16:09:58.071740,0.0049042701721191025
2023-01-27 16:09:58.076740,0.004722103813583431
2023-01-27 16:09:58.081740,0.004808108322322354
2023-01-27 16:09:58.086740,0.005466145813607049
2023-01-27 16:09:58.091740,0.00687559461221088
2023-01-27 16:09:58.096740,0.00875579682462724
2023-01-27 16:09:58.101740,0.010722081176936588
2023-01-27 16:09:58.106740,0.012585968783834023
2023-01-27 16:09:58.111740,0.014063715934753385
2023-01-27 16:09:58.116740,0.014676682271984771
2023-01-27 16:09:58.121740,0.01430412195622921
2023-01-27 16:09:58.126740,0.01349555112213549
2023-01-27 16:09:58.131740,0.013005932793021159
2023-01-27 16:09:58.136740,0.013366175112437886
2023-01-27 16:09:58.141740,0.014977256767451643
2023-01-27 16:09:58.146740,0.018078259594368214
2023-01-27 16:09:58.151740,0.02245386503636826
2023-01-27 16:09:58.156740,0.02766661747889385
2023-01-27 16:09:58.161740,0.03360867500305169
2023-01-27 16:09:58.166740,0.04022047835521704
2023-01-27 16:09:58.171740,0.04678289219737043
2023-01-27 16:09:58.176740,0.05240373729612046
2023-01-27 16:09:58.181740,0.0571203231811523
2023-01-27 16:09:58.186740,0.06122058218482302
2023-01-27 16:09:58.191740,0.06327470391988749
2023-01-27 16:09:58.196740,0.060501279869854915
2023-01-27 16:09:58.201740,0.05204777047038065
2023-01-27 16:09:58.206740,0.040659306919254706
2023-01-27 16:09:58.211740,0.029930472373962375
2023-01-27 16:09:58.216740,0.020821906425689898
2023-01-27 16:09:58.221740,0.011996230110526
2023-01-27 16:09:58.226740,0.002608923349979307
2023-01-27 16:09:58.231740,-0.00670731067657464
2023-01-27 16:09:58.236740,-0.014867021292355929
2023-01-27 16:09:58.241740,-0.02026617527008044
2023-01-27 16:09:58.246740,-0.01920150395943736
2023-01-27 16:09:58.251740,-0.005649527069181185
2023-01-27 16:09:58.256740,0.026165954481234165
2023-01-27 16:09:58.261740,0.07810771465301505
2023-01-27 16:09:58.266740,0.14544807256551448
2023-01-27 16:09:58.271740,0.21629273891448958
2023-01-27 16:09:58.276740,0.27406778894159506
2023-01-27 16:09:58.281740,0.30310314893722523
2023-01-27 16:09:58.286740,0.29485189807588563
2023-01-27 16:09:58.291740,0.2512717247009276
2023-01-27 16:09:58.296740,0.18392966891036905
2023-01-27 16:09:58.301740,0.10974507033824916
2023-01-27 16:09:58.306740,0.04504419818496302
2023-01-27 16:09:58.311740,0.00012020270514758617
2023-01-27 16:09:58.316740,-0.023052374661631812
2023-01-27 16:09:58.321740,-0.028968852013349453
2023-01-27 16:09:58.326740,-0.024691846407631775
2023-01-27 16:09:58.331740,-0.01670817658305157
2023-01-27 16:09:58.336740,-0.009328802881174544
2023-01-27 16:09:58.341740,-0.004159013740718294
2023-01-27 16:09:58.346740,-0.0007131374703665235
2023-01-27 16:09:58.351740,0.0019953649025410175
2023-01-27 16:09:58.356740,0.004326578269122872
2023-01-27 16:09:58.361740,0.006298621650785231
2023-01-27 16:09:58.366740,0.008216649610784088
2023-01-27 16:09:58.371740,0.010457634925842205
2023-01-27 16:09:58.376740,0.01305518343979745
2023-01-27 16:09:58.381740,0.015986960381269365
2023-01-27 16:09:58.386740,0.019471974827901924
2023-01-27 16:09:58.391740,0.02351164817810049
2023-01-27 16:09:58.396740,0.02754610239309597
2023-01-27 16:09:58.401740,0.031060378998517886
2023-01-27 16:09:58.406740,0.034182728678605605
2023-01-27 16:09:58.411740,0.03728687763214106
2023-01-27 16:09:58.416740,0.040448630877244277
2023-01-27 16:09:58.421740,0.043729744851589154
2023-01-27 16:09:58.426740,0.047512817063970855
2023-01-27 16:09:58.431740,0.05204777047038071
2023-01-27 16:09:58.436740,0.05709672040630058
2023-01-27 16:09:58.441740,0.06250540912151334
2023-01-27 16:09:58.446740,0.06868356865470493
2023-01-27 16:09:58.451740,0.07604023069143293
2023-01-27 16:09:58.456740,0.084377449747
2023-01-27 16:09:58.461740,0.09327729791402807
2023-01-27 16:09:58.466740,0.10258068261353244
2023-01-27 16:09:58.471740,0.11200487613677969
2023-01-27 16:09:58.476740,0.1208307328756569
2023-01-27 16:09:58.481740,0.12854477763175953
2023-01-27 16:09:58.486740,0.1353576660812117
2023-01-27 16:09:58.491740,0.14159879088401786
2023-01-27 16:09:58.496740,0.14706849825025622
2023-01-27 16:09:58.501740,0.15143136680126185
2023-01-27 16:09:58.506740,0.15465425001690442
2023-01-27 16:09:58.511740,0.15647988021373738
2023-01-27 16:09:58.516740,0.15600184625973054
2023-01-27 16:09:58.521740,0.15236894786357869
2023-01-27 16:09:58.526740,0.145489222602887
2023-01-27 16:09:58.531740,0.13561269640922544
2023-01-27 16:09:58.536740,0.12285853260737122
2023-01-27 16:09:58.541740,0.10774970054626457
2023-01-27 16:09:58.546740,0.09161773586120822
2023-01-27 16:09:58.551740,0.07579982280731197
2023-01-27 16:09:58.556740,0.060868382623134494
2023-01-27 16:09:58.561740,0.04711946099996555
2023-01-27 16:09:58.566740,0.03516147294986338
2023-01-27 16:09:58.571740,0.025386810302734323
2023-01-27 16:09:58.576740,0.017470127300605664
2023-01-27 16:09:58.581740,0.011058649048209114
2023-01-27 16:09:58.586740,0.006402424623425463
2023-01-27 16:09:58.591740,0.003678202629089327
2023-01-27 16:09:58.596740,0.00229597617442698
2023-01-27 16:09:58.601740,0.0015385946026070555
2023-01-27 16:09:58.606740,0.0013001473171524083
2023-01-27 16:09:58.611740,0.0015626351814717007
2023-01-27 16:09:58.616740,0.0018197051796951082
2023-01-27 16:09:58.621740,0.0017549594631418302
2023-01-27 16:09:58.626740,0.001868813071068601
2023-01-27 16:09:58.631740,0.00269254064187403
2023-01-27 16:09:58.636740,0.003969211964174737
2023-01-27 16:09:58.641740,0.005288918968290007
2023-01-27 16:09:58.646740,0.006847844341377322
2023-01-27 16:09:58.651740,0.0088228788226842
2023-01-27 16:09:58.656740,0.010676841032415674
2023-01-27 16:09:58.661740,0.011876027099788071
2023-01-27 16:09:58.666740,0.012636815528138728
2023-01-27 16:09:58.671740,0.013198256492614687
2023-01-27 16:09:58.676740,0.01309360774155241
2023-01-27 16:09:58.681740,0.01199623011052606
2023-01-27 16:09:58.686740,0.010589328572268896
2023-01-27 16:09:58.691740,0.00976045988500113
2023-01-27 16:09:58.696740,0.009665026298763495
2023-01-27 16:09:58.701740,0.010409554466605167
2023-01-27 16:09:58.706740,0.012790804472356775
2023-01-27 16:09:58.711740,0.017333230003714464
2023-01-27 16:09:58.716740,0.02332285240971139
2023-01-27 16:09:58.721740,0.029738148674368782
2023-01-27 16:09:58.726740,0.03634593105394548
2023-01-27 16:09:58.731740,0.04296044632792467
2023-01-27 16:09:58.736740,0.04861014583591757
2023-01-27 16:09:58.741740,0.05260070413351047
2023-01-27 16:09:58.746740,0.05550449686521771
2023-01-27 16:09:58.751740,0.0578896217048168
2023-01-27 16:09:58.756740,0.05893113904383893
2023-01-27 16:09:58.761740,0.057456891983747406
2023-01-27 16:09:58.766740,0.05340597640224396
2023-01-27 16:09:58.771740,0.047047339379787396
2023-01-27 16:09:58.776740,0.03795441269735825
2023-01-27 16:09:58.781740,0.026300352066755184
2023-01-27 16:09:58.786740,0.014052226992330797
2023-01-27 16:09:58.791740,0.003149310825392631
2023-01-27 16:09:58.796740,-0.0065151682867247915
2023-01-27 16:09:58.801740,-0.015530189499258919
2023-01-27 16:09:58.806740,-0.02229595279684281
2023-01-27 16:09:58.811740,-0.023439526557922277
2023-01-27 16:09:58.816740,-0.015458883408549503
2023-01-27 16:09:58.821740,0.005841851234435997
2023-01-27 16:09:58.826740,0.045141376358251606
2023-01-27 16:09:58.831740,0.10272523015737525
2023-01-27 16:09:58.836740,0.16977122682262583
2023-01-27 16:09:58.841740,0.23110172152519215
2023-01-27 16:09:58.846740,0.2724765367630352
2023-01-27 16:09:58.851740,0.28403899073600747
2023-01-27 16:09:58.856740,0.26065971503479046
2023-01-27 16:09:58.861740,0.20578703284263603
2023-01-27 16:09:58.866740,0.1353020575159834
2023-01-27 16:09:58.871740,0.07079939544200889
2023-01-27 16:09:58.876740,0.02505810579314188
2023-01-27 16:09:58.881740,-0.003461837768554574
2023-01-27 16:09:58.886740,-0.021130842225561764
2023-01-27 16:09:58.891740,-0.029497742652893028
2023-01-27 16:09:58.896740,-0.02799870360367593
2023-01-27 16:09:58.901740,-0.020843148231506216
2023-01-27 16:09:58.906740,-0.014970104044543745
2023-01-27 16:09:58.911740,-0.01266936492174859
2023-01-27 16:09:58.916740,-0.011034634164809475
2023-01-27 16:09:58.921740,-0.008053581230342274
2023-01-27 16:09:58.926740,-0.0049882158002913235
2023-01-27 16:09:58.931740,-0.0028127431869506077
2023-01-27 16:09:58.936740,-0.00031931198337612914
2023-01-27 16:09:58.941740,0.003317594528198242
2023-01-27 16:09:58.946740,0.0070610663879586135
2023-01-27 16:09:58.951740,0.010097026824951123
2023-01-27 16:09:58.956740,0.013091807924030623
2023-01-27 16:09:58.961740,0.016467770561575782
2023-01-27 16:09:58.966740,0.019387628122178747
2023-01-27 16:09:58.971740,0.021372040733694996
2023-01-27 16:09:58.976740,0.0233324766085567
2023-01-27 16:09:58.981740,0.026180148124694762
2023-01-27 16:09:58.986740,0.029758023098513827
2023-01-27 16:09:58.991740,0.03382503986358637
2023-01-27 16:09:58.996740,0.03879999673616506
2023-01-27 16:09:59.001740,0.04478752613067617
2023-01-27 16:09:59.006740,0.050957457266197034
2023-01-27 16:09:59.011740,0.05661547183990467
2023-01-27 16:09:59.016740,0.06204448767083067
2023-01-27 16:09:59.021740,0.06777028739452359
2023-01-27 16:09:59.026740,0.07386271667226138
2023-01-27 16:09:59.031740,0.0804636925458907
2023-01-27 16:09:59.036740,0.08813803132872502
2023-01-27 16:09:59.041740,0.09707570075988754
2023-01-27 16:09:59.046740,0.1065624593110871
2023-01-27 16:09:59.051740,0.11570712178945536
2023-01-27 16:09:59.056740,0.12412356249378537
2023-01-27 16:09:59.061740,0.13154983520507801
2023-01-27 16:09:59.066740,0.13745864710948608
2023-01-27 16:09:59.071740,0.14150261878967277
2023-01-27 16:09:59.076740,0.14380982836606654
2023-01-27 16:09:59.081740,0.14441153407096854
2023-01-27 16:09:59.086740,0.14281674073722442
2023-01-27 16:09:59.091740,0.13849756121635426
2023-01-27 16:09:59.096740,0.13138712954816212
2023-01-27 16:09:59.101740,0.12164513766765594
2023-01-27 16:09:59.106740,0.10943139283652903
2023-01-27 16:09:59.111740,0.09527266025543205
2023-01-27 16:09:59.116740,0.08026103866459111
2023-01-27 16:09:59.121740,0.06553451716899875
2023-01-27 16:09:59.126740,0.051813057084027156
2023-01-27 16:09:59.131740,0.0395947694778442
2023-01-27 16:09:59.136740,0.029365968272985432
2023-01-27 16:09:59.141740,0.021299919113516846
2023-01-27 16:09:59.146740,0.015054922547079212
2023-01-27 16:09:59.151740,0.010145108215510828
2023-01-27 16:09:59.156740,0.0062827132877436255
2023-01-27 16:09:59.161740,0.0032214324455707814
2023-01-27 16:09:59.166740,0.0006369486836347929
2023-01-27 16:09:59.171740,-0.0015626351814716911
2023-01-27 16:09:59.176740,-0.0030685682904931905
2023-01-27 16:09:59.181740,-0.00355800008401266
2023-01-27 16:09:59.186740,-0.0030659310488445183
2023-01-27 16:09:59.191740,-0.0018511216621844586
2023-01-27 16:09:59.196740,-0.00017497055887812015
2023-01-27 16:09:59.201740,0.0016107162227853849
2023-01-27 16:09:59.206740,0.0030462373855297737
2023-01-27 16:09:59.211740,0.0038945674896239666
2023-01-27 16:09:59.216740,0.004328250984369492
2023-01-27 16:09:59.221740,0.004615783691406167
2023-01-27 16:09:59.226740,0.004786961923586771
2023-01-27 16:09:59.231740,0.004735986702144063
2023-01-27 16:09:59.236740,0.004450316584359373
2023-01-27 16:09:59.241740,0.00399072980508196
2023-01-27 16:09:59.246740,0.0034563950906049096
2023-01-27 16:09:59.251740,0.0031493108253925397
2023-01-27 16:09:59.256740,0.003588534453963478
2023-01-27 16:09:59.261740,0.005144675727933581
2023-01-27 16:09:59.266740,0.0077331260181609214
2023-01-27 16:09:59.271740,0.010962486267089787
2023-01-27 16:09:59.276740,0.014451833975228711
2023-01-27 16:09:59.281740,0.017934244126081435
2023-01-27 16:09:59.286740,0.02128562879644163
2023-01-27 16:09:59.291740,0.024665594100952076
2023-01-27 16:09:59.296740,0.028512049175700004
2023-01-27 16:09:59.301740,0.03319998830556858
2023-01-27 16:09:59.306740,0.038716645446110184
2023-01-27 16:09:59.311740,0.044691365212201975
2023-01-27 16:09:59.316740,0.050556147850784834
2023-01-27 16:09:59.321740,0.05553364753723139
2023-01-27 16:09:59.326740,0.058631185593170196
2023-01-27 16:09:59.331740,0.05889932438731183
2023-01-27 16:09:59.336740,0.055766475478167744
2023-01-27 16:09:59.341740,0.04916290566325177
2023-01-27 16:09:59.346740,0.03952698285981213
2023-01-27 16:09:59.351740,0.027838945388793897
2023-01-27 16:09:59.356740,0.015466992245152715
2023-01-27 16:09:59.361740,0.0036541621666400723
2023-01-27 16:09:59.366740,-0.006979872535762775
2023-01-27 16:09:59.371740,-0.0163716077804565
2023-01-27 16:09:59.376740,-0.024299740152454726
2023-01-27 16:09:59.381740,-0.02937754057347767
2023-01-27 16:09:59.386740,-0.02822660880165527
2023-01-27 16:09:59.391740,-0.015506148338317812
2023-01-27 16:09:59.396740,0.014450326309168123
2023-01-27 16:09:59.401740,0.0644526928663253
2023-01-27 16:09:59.406740,0.13122149487184212
2023-01-27 16:09:59.411740,0.20420035719871513
2023-01-27 16:09:59.416740,0.26758180766166606
2023-01-27 16:09:59.421740,0.30512255430221547
2023-01-27 16:09:59.426740,0.30603020082889554
2023-01-27 16:09:59.431740,0.26942235231399525
2023-01-27 16:09:59.436740,0.2049940463316941
2023-01-27 16:09:59.441740,0.12924194335937494
2023-01-27 16:09:59.446740,0.05917722340549339
2023-01-27 16:09:59.451740,0.006755392067134276
2023-01-27 16:09:59.456740,-0.023763689955684873
2023-01-27 16:09:59.461740,-0.03521939367055885
2023-01-27 16:09:59.466740,-0.03458507923887338
2023-01-27 16:09:59.471740,-0.029089054092764754
2023-01-27 16:09:59.476740,-0.02333848863642356
2023-01-27 16:09:59.481740,-0.018847784027457216
2023-01-27 16:09:59.486740,-0.015463514345553993
2023-01-27 16:09:59.491740,-0.012741486541926746
2023-01-27 16:09:59.496740,-0.010202716548187255
2023-01-27 16:09:59.501740,-0.00723620271310214
2023-01-27 16:09:59.506740,-0.0035265073568970517
2023-01-27 16:09:59.511740,0.0005288919201120355
2023-01-27 16:09:59.516740,0.0042474695592387285
2023-01-27 16:09:59.521740,0.0074285268783569145
2023-01-27 16:09:59.526740,0.01035909228361453
2023-01-27 16:09:59.531740,0.013174216262996101
2023-01-27 16:09:59.536740,0.015640137898688337
2023-01-27 16:09:59.541740,0.017597675323486286
2023-01-27 16:09:59.546740,0.019251407310088633
2023-01-27 16:09:59.551740,0.020939311012625625
2023-01-27 16:09:59.556740,0.022932503834119634
2023-01-27 16:09:59.561740,0.025555094704031885
2023-01-27 16:09:59.566740,0.02917755818968382
2023-01-27 16:09:59.571740,0.03389716148376461
2023-01-27 16:09:59.576740,0.03941797614781865
2023-01-27 16:09:59.581740,0.045388542115688324
2023-01-27 16:09:59.586740,0.05170544836360708
2023-01-27 16:09:59.591740,0.05841851234436028
2023-01-27 16:09:59.596740,0.06556825079511217
2023-01-27 16:09:59.601740,0.07325153052806846
2023-01-27 16:09:59.606740,0.08163819667333098
2023-01-27 16:09:59.611740,0.09072899818420402
2023-01-27 16:09:59.616740,0.10019390928300102
2023-01-27 16:09:59.621740,0.10955274105072017
2023-01-27 16:09:59.626740,0.11839832055700165
2023-01-27 16:09:59.631740,0.1263811290264129
2023-01-27 16:09:59.636740,0.13316644418811363
2023-01-27 16:09:59.641740,0.13854563236236572
2023-01-27 16:09:59.646740,0.14244753831998622
2023-01-27 16:09:59.651740,0.14470002055168146
2023-01-27 16:09:59.656740,0.1448786160714419
2023-01-27 16:09:59.661740,0.1424882858991622
2023-01-27 16:09:59.666740,0.13720582479408855
2023-01-27 16:09:59.671740,0.12892942130565638
2023-01-27 16:09:59.676740,0.11781719973420217
2023-01-27 16:09:59.681740,0.1044321060180664
2023-01-27 16:09:59.686740,0.08970317465172357
2023-01-27 16:09:59.691740,0.0745737552642822
2023-01-27 16:09:59.696740,0.05972477434183038
2023-01-27 16:09:59.701740,0.045652985572814886
2023-01-27 16:09:59.706740,0.032825631478903765
2023-01-27 16:09:59.711740,0.0216364860534667
2023-01-27 16:09:59.716740,0.012350269806504475
2023-01-27 16:09:59.721740,0.00519275665283205
2023-01-27 16:09:59.726740,0.0003404283932750142
2023-01-27 16:09:59.731740,-0.002307891845703106
2023-01-27 16:09:59.736740,-0.0032276887288372413
2023-01-27 16:09:59.741740,-0.003029108047485285
2023-01-27 16:09:59.746740,-0.0022161447292941812
2023-01-27 16:09:59.751740,-0.0012020270805805163
2023-01-27 16:09:59.756740,-0.0003284842355134951
2023-01-27 16:09:59.761740,0.0002884864807127864
2023-01-27 16:09:59.766740,0.000786814192723232
2023-01-27 16:09:59.771740,0.001298189163208022
2023-01-27 16:09:59.776740,0.0017736514549995708
2023-01-27 16:09:59.781740,0.0021396081428974177
2023-01-27 16:09:59.786740,0.0024454125956717082
2023-01-27 16:09:59.791740,0.002740621566772418
2023-01-27 16:09:59.796740,0.0029823531419882116
2023-01-27 16:09:59.801740,0.0031973919831216084
2023-01-27 16:09:59.806740,0.0035708162186949364
2023-01-27 16:09:59.811740,0.00423113536089652
2023-01-27 16:09:59.816740,0.0050842120122813585
2023-01-27 16:09:59.821740,0.005962054245173886
2023-01-27 16:09:59.826740,0.006762062556197619
2023-01-27 16:09:59.831740,0.007332365028560152
2023-01-27 16:09:59.836740,0.007443131938324555
2023-01-27 16:09:59.841740,0.00706791877746582
2023-01-27 16:09:59.846740,0.006558351487879022
2023-01-27 16:09:59.851740,0.006394783966243167
2023-01-27 16:09:59.856740,0.006891694588936839
2023-01-27 16:09:59.861740,0.008221864700317319
2023-01-27 16:09:59.866740,0.010483381152821086
2023-01-27 16:09:59.871740,0.013558864593505778
2023-01-27 16:09:59.876740,0.017117503372285386
2023-01-27 16:09:59.881740,0.020987391471862765
2023-01-27 16:09:59.886740,0.025404746838399404
2023-01-27 16:09:59.891740,0.030723810195922793
2023-01-27 16:09:59.896740,0.03697888646433715
2023-01-27 16:09:59.901740,0.04377782344818111
2023-01-27 16:09:59.906740,0.05033338966857451
2023-01-27 16:09:59.911740,0.055389404296874986
2023-01-27 16:09:59.916740,0.05739922552395322
2023-01-27 16:09:59.921740,0.055197082459926605
2023-01-27 16:09:59.926740,0.048605162858406034
2023-01-27 16:09:59.931740,0.038416784256696694
2023-01-27 16:09:59.936740,0.026017352516232665
2023-01-27 16:09:59.941740,0.013054013252258313
2023-01-27 16:09:59.946740,0.0009688092927507057
2023-01-27 16:09:59.951740,-0.009664297103881824
2023-01-27 16:09:59.956740,-0.01923445353975472
2023-01-27 16:09:59.961740,-0.028007229790091487
2023-01-27 16:09:59.966740,-0.03450137170280467
2023-01-27 16:09:59.971740,-0.034570299088954905
2023-01-27 16:09:59.976740,-0.02184551686086212
2023-01-27 16:09:59.981740,0.010289351455867228
2023-01-27 16:09:59.986740,0.06524354016024592
2023-01-27 16:09:59.991740,0.13943514227867118
2023-01-27 16:09:59.996740,0.22071892979092034
2023-01-27 16:10:00.001740,0.2909626662731169
2023-01-27 16:10:00.006740,0.3320284229986421
2023-01-27 16:10:00.011740,0.33236047625541676
2023-01-27 16:10:00.016740,0.29142243955057273
2023-01-27 16:10:00.021740,0.22018730640411355
2023-01-27 16:10:00.026740,0.13707302399570925
2023-01-27 16:10:00.031740,0.0608466081321239
2023-01-27 16:10:00.036740,0.004170592675425098
2023-01-27 16:10:00.041740,-0.028992891311645508
2023-01-27 16:10:00.046740,-0.04196173907400088
2023-01-27 16:10:00.051740,-0.041974782943725496
2023-01-27 16:10:00.056740,-0.036633826002826886
2023-01-27 16:10:00.061740,-0.031060378998517893
2023-01-27 16:10:00.066740,-0.026845804102145238
2023-01-27 16:10:00.071740,-0.0233433656394481
2023-01-27 16:10:00.076740,-0.01984545801779084
2023-01-27 16:10:00.081740,-0.01639564894139759
2023-01-27 16:10:00.086740,-0.01304679691298026
2023-01-27 16:10:00.091740,-0.009399851784110003
2023-01-27 16:10:00.096740,-0.005276118500024144
2023-01-27 16:10:00.101740,-0.0012741487007587485
2023-01-27 16:10:00.106740,0.0018044926792244098
2023-01-27 16:10:00.111740,0.003798405406996551
2023-01-27 16:10:00.116740,0.005141996799479027
2023-01-27 16:10:00.121740,0.0062745809555053425
2023-01-27 16:10:00.126740,0.007472518499264632
2023-01-27 16:10:00.131740,0.009087324142456008
2023-01-27 16:10:00.136740,0.01153449029563029
2023-01-27 16:10:00.141740,0.015001296997070293
2023-01-27 16:10:00.146740,0.019368657237162436
2023-01-27 16:10:00.151740,0.024425189942121544
2023-01-27 16:10:00.156740,0.03001833789763583
2023-01-27 16:10:00.161740,0.036036770790815284
2023-01-27 16:10:00.166740,0.042421493304892456
2023-01-27 16:10:00.171740,0.04923502728343006
2023-01-27 16:10:00.176740,0.05662186844894717
2023-01-27 16:10:00.181740,0.06464501470327372
2023-01-27 16:10:00.186740,0.07316170612992011
2023-01-27 16:10:00.191740,0.08183400332927698
2023-01-27 16:10:00.196740,0.09024800500780754
2023-01-27 16:10:00.201740,0.09808540344238277
2023-01-27 16:10:00.206740,0.10526178114743569
2023-01-27 16:10:00.211740,0.11193275451660148
2023-01-27 16:10:00.216740,0.11836020323843222
2023-01-27 16:10:00.221740,0.1247223243117332
2023-01-27 16:10:00.226740,0.13093879904023906
2023-01-27 16:10:00.231740,0.13657431304454792
2023-01-27 16:10:00.236740,0.14091154830031347
2023-01-27 16:10:00.241740,0.14318546652793873
2023-01-27 16:10:00.246740,0.14279633108072828
2023-01-27 16:10:00.251740,0.13936302065849293
2023-01-27 16:10:00.256740,0.132704396505529
2023-01-27 16:10:00.261740,0.12287120521068567
2023-01-27 16:10:00.266740,0.1101786490704211
2023-01-27 16:10:00.271740,0.09517650306224823
2023-01-27 16:10:00.276740,0.07863851376401611
2023-01-27 16:10:00.281740,0.06159186363220211
2023-01-27 16:10:00.286740,0.045213591786479664
2023-01-27 16:10:00.291740,0.030531486496329314
2023-01-27 16:10:00.296740,0.01817609900779955
2023-01-27 16:10:00.301740,0.008390149101614947
2023-01-27 16:10:00.306740,0.0011594278565289404
2023-01-27 16:10:00.311740,-0.0037262837868182715
2023-01-27 16:10:00.316740,-0.00661934188994176
2023-01-27 16:10:00.321740,-0.00788529776036726
2023-01-27 16:10:00.326740,-0.007844230691527627
2023-01-27 16:10:00.331740,-0.006875594612210875
2023-01-27 16:10:00.336740,-0.005486893391481203
2023-01-27 16:10:00.341740,-0.0041830539703369045
2023-01-27 16:10:00.346740,-0.0032999041454602317
2023-01-27 16:10:00.351740,-0.0029810271225868706
2023-01-27 16:10:00.356740,-0.003196413061975818
2023-01-27 16:10:00.361740,-0.003702243324369045
2023-01-27 16:10:00.366740,-0.004088530373857703
2023-01-27 16:10:00.371740,-0.003990729805081921
2023-01-27 16:10:00.376740,-0.0032456685223371693
2023-01-27 16:10:00.381740,-0.0018511216621844254
2023-01-27 16:10:00.386740,8.434218133542022e-05
2023-01-27 16:10:00.391740,0.0022838513832539463
2023-01-27 16:10:00.396740,0.004342539694614947
2023-01-27 16:10:00.401740,0.005962054245173983
2023-01-27 16:10:00.406740,0.007095268140156998
2023-01-27 16:10:00.411740,0.007813176140189133
2023-01-27 16:10:00.416740,0.008136837603150687
2023-01-27 16:10:00.421740,0.008053581230342291
2023-01-27 16:10:00.426740,0.00755705553055281
2023-01-27 16:10:00.431740,0.006587108131498041
2023-01-27 16:10:00.436740,0.00508449343968919
2023-01-27 16:10:00.441740,0.003245472908020004
2023-01-27 16:10:00.446740,0.001631684471461424
2023-01-27 16:10:00.451740,0.0009135405416599624
2023-01-27 16:10:00.456740,0.0015488630416827243
2023-01-27 16:10:00.461740,0.0037022433243691162
2023-01-27 16:10:00.466740,0.007265421784856558
2023-01-27 16:10:00.471740,0.011827945709228512
2023-01-27 16:10:00.476740,0.016802172765396393
2023-01-27 16:10:00.481740,0.02178072929382322
2023-01-27 16:10:00.486740,0.026743318090711187
2023-01-27 16:10:00.491740,0.03185371682047837
2023-01-27 16:10:00.496740,0.03714925134585006
2023-01-27 16:10:00.501740,0.042431555688381126
2023-01-27 16:10:00.506740,0.0472057359740163
2023-01-27 16:10:00.511740,0.05055725574493404
2023-01-27 16:10:00.516740,0.05129131585612364
2023-01-27 16:10:00.521740,0.048489771783351884
2023-01-27 16:10:00.526740,0.04201808021231601
2023-01-27 16:10:00.531740,0.03255089372396464
2023-01-27 16:10:00.536740,0.021306451227866972
2023-01-27 16:10:00.541740,0.00976045988500114
2023-01-27 16:10:00.546740,-0.0008186355552831277
2023-01-27 16:10:00.551740,-0.010000864975154263
2023-01-27 16:10:00.556740,-0.01831353302251973
2023-01-27 16:10:00.561740,-0.026300352066755222
2023-01-27 16:10:00.566740,-0.03298452369076159
2023-01-27 16:10:00.571740,-0.0347626209259033
2023-01-27 16:10:00.576740,-0.025462515938398364
2023-01-27 16:10:00.581740,0.002019405364990187
2023-01-27 16:10:00.586740,0.05240792305790509
2023-01-27 16:10:00.591740,0.12409727275371547
2023-01-27 16:10:00.596740,0.2069097201551529
2023-01-27 16:10:00.601740,0.28360626101493824
2023-01-27 16:10:00.606740,0.3350672262068461
2023-01-27 16:10:00.611740,0.3470252156257628
2023-01-27 16:10:00.616740,0.3155619450204566
2023-01-27 16:10:00.621740,0.24893979728221882
2023-01-27 16:10:00.626740,0.16457738040186043
2023-01-27 16:10:00.631740,0.0823388546705245
2023-01-27 16:10:00.636740,0.017535423616329135
2023-01-27 16:10:00.641740,-0.023030837997794106
2023-01-27 16:10:00.646740,-0.04096948380350995
2023-01-27 16:10:00.651740,-0.043297015130519784
2023-01-27 16:10:00.656740,-0.038317202981956795
2023-01-27 16:10:00.661740,-0.032142203301191274
2023-01-27 16:10:00.666740,-0.027326373445660218
2023-01-27 16:10:00.671740,-0.02382417581975464
2023-01-27 16:10:00.676740,-0.02079329732669278
2023-01-27 16:10:00.681740,-0.017621716484427393
2023-01-27 16:10:00.686740,-0.014071396787013933
2023-01-27 16:10:00.691740,-0.010289351455867242
2023-01-27 16:10:00.696740,-0.006732079840482621
2023-01-27 16:10:00.701740,-0.0036541621666401057
2023-01-27 16:10:00.706740,-0.0006732131148624678
2023-01-27 16:10:00.711740,0.0027887027245013956
2023-01-27 16:10:00.716740,0.0066752974963783344
2023-01-27 16:10:00.721740,0.010337432846426945
2023-01-27 16:10:00.726740,0.013415038931733627
2023-01-27 16:10:00.731740,0.016203325241804147
2023-01-27 16:10:00.736740,0.019021500346044006
2023-01-27 16:10:00.741740,0.021708607673645
2023-01-27 16:10:00.746740,0.02405761127438932
2023-01-27 16:10:00.751740,0.026420554146170602
2023-01-27 16:10:00.756740,0.029518411982665003
2023-01-27 16:10:00.761740,0.03380100056529037
2023-01-27 16:10:00.766740,0.0392630823205591
2023-01-27 16:10:00.771740,0.04574915021657946
2023-01-27 16:10:00.776740,0.05313369555013693
2023-01-27 16:10:00.781740,0.061231255531310994
2023-01-27 16:10:00.786740,0.06978609797673835
2023-01-27 16:10:00.791740,0.07861256599426258
2023-01-27 16:10:00.796740,0.08760937120065541
2023-01-27 16:10:00.801740,0.09659489244222635
2023-01-27 16:10:00.806740,0.10521463563618025
2023-01-27 16:10:00.811740,0.11303862184286112
2023-01-27 16:10:00.816740,0.1197166450452236
2023-01-27 16:10:00.821740,0.1250829398632049
2023-01-27 16:10:00.826740,0.1292091176598131
2023-01-27 16:10:00.831740,0.13236722350120536
2023-01-27 16:10:00.836740,0.134846318056314
2023-01-27 16:10:00.841740,0.13669452071189875
2023-01-27 16:10:00.846740,0.13755443852522073
2023-01-27 16:10:00.851740,0.13669452071189875
2023-01-27 16:10:00.856740,0.13322599859648637
2023-01-27 16:10:00.861740,0.1264292001724242
2023-01-27 16:10:00.866740,0.11606499332331259
2023-01-27 16:10:00.871740,0.10253290832042694
2023-01-27 16:10:00.876740,0.08680857518467348
2023-01-27 16:10:00.881740,0.07019837945699686
2023-01-27 16:10:00.886740,0.05400968463144471
2023-01-27 16:10:00.891740,0.039258204400539266
2023-01-27 16:10:00.896740,0.026524239508978278
2023-01-27 16:10:00.901740,0.015986960381269448
2023-01-27 16:10:00.906740,0.007562401417154224
2023-01-27 16:10:00.911740,0.0010577838402241041
2023-01-27 16:10:00.916740,-0.003699414216547557
2023-01-27 16:10:00.921740,-0.006803472992032624
2023-01-27 16:10:00.926740,-0.008330642905268823
2023-01-27 16:10:00.931740,-0.008462270721793041
2023-01-27 16:10:00.936740,-0.007532760111130907
2023-01-27 16:10:00.941740,-0.005962054245173845
2023-01-27 16:10:00.946740,-0.004167066831299166
2023-01-27 16:10:00.951740,-0.0025002162437884863
2023-01-27 16:10:00.956740,-0.0011632055573798348
2023-01-27 16:10:00.961740,-0.00012020270514758142
2023-01-27 16:10:00.966740,0.0008566858511268833
2023-01-27 16:10:00.971740,0.0019953649025410414
2023-01-27 16:10:00.976740,0.0033598940799823064
2023-01-27 16:10:00.981740,0.004832148551940856
2023-01-27 16:10:00.986740,0.006168618339625704
2023-01-27 16:10:00.991740,0.007067918777465839
2023-01-27 16:10:00.996740,0.007299718292257144
2023-01-27 16:10:01.001740,0.006875594612210965
2023-01-27 16:10:01.006740,0.0060947081623694424
2023-01-27 16:10:01.011740,0.005385081283748131
2023-01-27 16:10:01.016740,0.005080701382832316
2023-01-27 16:10:01.021740,0.005288918968290029
2023-01-27 16:10:01.026740,0.005861835246944551
2023-01-27 16:10:01.031740,0.00646690558642139
2023-01-27 16:10:01.036740,0.006790038553452542
2023-01-27 16:10:01.041740,0.0067794322967529436
2023-01-27 16:10:01.046740,0.00671239326278443
2023-01-27 16:10:01.051740,0.007019837852567409
2023-01-27 16:10:01.056740,0.008051769732499086
2023-01-27 16:10:01.061740,0.009952783584594716
2023-01-27 16:10:01.066740,0.012638350867460492
2023-01-27 16:10:01.071740,0.015842717140913013
2023-01-27 16:10:01.076740,0.01927941653273439
2023-01-27 16:10:01.081740,0.022862553596496516
2023-01-27 16:10:01.086740,0.026801538136127387
2023-01-27 16:10:01.091740,0.031469069421291324
2023-01-27 16:10:01.096740,0.0371312212439097
2023-01-27 16:10:01.101740,0.043657623231410925
2023-01-27 16:10:01.106740,0.05029120320196177
2023-01-27 16:10:01.111740,0.055629812180995865
2023-01-27 16:10:01.116740,0.05797945329856278
2023-01-27 16:10:01.121740,0.05599042028188698
2023-01-27 16:10:01.126740,0.04923336336698476
2023-01-27 16:10:01.131740,0.03841678425669665
2023-01-27 16:10:01.136740,0.025156129237119317
2023-01-27 16:10:01.141740,0.01134713552892199
2023-01-27 16:10:01.146740,-0.0016255085000375237
2023-01-27 16:10:01.151740,-0.01334249973297107
2023-01-27 16:10:01.156740,-0.02395782321973604
2023-01-27 16:10:01.161740,-0.03295958042144771
2023-01-27 16:10:01.166740,-0.03776119827212705
2023-01-27 16:10:01.171740,-0.03312786668539039
2023-01-27 16:10:01.176740,-0.012262270864904126
2023-01-27 16:10:01.181740,0.030291080474853488
2023-01-27 16:10:01.186740,0.09485453317623073
2023-01-27 16:10:01.191740,0.17388522624969474
2023-01-27 16:10:01.196740,0.2522770336444106
2023-01-27 16:10:01.201740,0.31134903430938715
2023-01-27 16:10:01.206740,0.33522917627999865
2023-01-27 16:10:01.211740,0.3169264495372772
2023-01-27 16:10:01.216740,0.2612434551655025
2023-01-27 16:10:01.221740,0.18299660086631767
2023-01-27 16:10:01.226740,0.1013082816446359
2023-01-27 16:10:01.231740,0.03274321556091301
2023-01-27 16:10:01.236740,-0.0135562899331024
2023-01-27 16:10:01.241740,-0.03697435185313222
2023-01-27 16:10:01.246740,-0.04305378142339679
2023-01-27 16:10:01.251740,-0.03945052623748771
2023-01-27 16:10:01.256740,-0.032412871411661215
2023-01-27 16:10:01.261740,-0.02524256706237788
2023-01-27 16:10:01.266740,-0.018748871163405397
2023-01-27 16:10:01.271740,-0.012597243301570315
2023-01-27 16:10:01.276740,-0.006441562978356585
2023-01-27 16:10:01.281740,-0.00040868920041233755
2023-01-27 16:10:01.286740,0.004993013700416209
2023-01-27 16:10:01.291740,0.009279648773372104
2023-01-27 16:10:01.296740,0.012307356064839424
2023-01-27 16:10:01.301740,0.014207959175109825
2023-01-27 16:10:01.306740,0.015156414592428774
2023-01-27 16:10:01.311740,0.015385946258902501
2023-01-27 16:10:01.316740,0.0153723115395451
2023-01-27 16:10:01.321740,0.01577059552073471
2023-01-27 16:10:01.326740,0.017150076415741372
2023-01-27 16:10:01.331740,0.0199296083301305
2023-01-27 16:10:01.336740,0.02441597575642076
2023-01-27 16:10:01.341740,0.030531486496329297
2023-01-27 16:10:01.346740,0.037521852316481114
2023-01-27 16:10:01.351740,0.04433075711131092
2023-01-27 16:10:01.356740,0.0503411086571241
2023-01-27 16:10:01.361740,0.05548556894063947
2023-01-27 16:10:01.366740,0.05982868127059756
2023-01-27 16:10:01.371740,0.06368339061737062
2023-01-27 16:10:01.376740,0.06808861583628349
2023-01-27 16:10:01.381740,0.0742371901869773
2023-01-27 16:10:01.386740,0.08203904700037175
2023-01-27 16:10:01.391740,0.09003182500600805
2023-01-27 16:10:01.396740,0.09722562596148543
2023-01-27 16:10:01.401740,0.10426382720470417
2023-01-27 16:10:01.406740,0.11207327450140059
2023-01-27 16:10:01.411740,0.12015461921691886
2023-01-27 16:10:01.416740,0.1272459843612978
2023-01-27 16:10:01.421740,0.13316056132316578
2023-01-27 16:10:01.426740,0.13874153690888227
2023-01-27 16:10:01.431740,0.14412304759025568
2023-01-27 16:10:01.436740,0.14816511742104976
2023-01-27 16:10:01.441740,0.1497004479169845
2023-01-27 16:10:01.446740,0.14834120657043118
2023-01-27 16:10:01.451740,0.14388263225555403
2023-01-27 16:10:01.456740,0.13592581670749446
2023-01-27 16:10:01.461740,0.12455403804779044
2023-01-27 16:10:01.466740,0.11068423695970978
2023-01-27 16:10:01.471740,0.09534478187561024
2023-01-27 16:10:01.476740,0.07916284947530951
2023-01-27 16:10:01.481740,0.06284197419881818
2023-01-27 16:10:01.486740,0.04749204124611134
2023-01-27 16:10:01.491740,0.03404140472412099
2023-01-27 16:10:01.496740,0.022761020563236384
2023-01-27 16:10:01.501740,0.013679067604243686
2023-01-27 16:10:01.506740,0.006992095433447801
2023-01-27 16:10:01.511740,0.0027406215667724015
2023-01-27 16:10:01.516740,0.0005340344014187957
2023-01-27 16:10:01.521740,-4.8081081331370494e-05
2023-01-27 16:10:01.526740,0.0008335915332947744
2023-01-27 16:10:01.531740,0.002860824344679718
2023-01-27 16:10:01.536740,0.005246906834088473
2023-01-27 16:10:01.541740,0.007188121788203697
2023-01-27 16:10:01.546740,0.008341200567988087
2023-01-27 16:10:01.551740,0.008654594421386738
2023-01-27 16:10:01.556740,0.008154325324137943
2023-01-27 16:10:01.561740,0.007212162017822208
2023-01-27 16:10:01.566740,0.00664292508279135
2023-01-27 16:10:01.571740,0.007140040397644043
2023-01-27 16:10:01.576740,0.008794481224510368
2023-01-27 16:10:01.581740,0.011323094367980891
2023-01-27 16:10:01.586740,0.014399782954295745
2023-01-27 16:10:01.591740,0.017525553703308095
2023-01-27 16:10:01.596740,0.019988824927310786
2023-01-27 16:10:01.601740,0.021347999572753944
2023-01-27 16:10:01.606740,0.02174441913388794
2023-01-27 16:10:01.611740,0.02151628397405137
2023-01-27 16:10:01.616740,0.020790872818732892
2023-01-27 16:10:01.621740,0.01966516301035881
2023-01-27 16:10:01.626740,0.018422647983854346
2023-01-27 16:10:01.631740,0.01726110838353631
2023-01-27 16:10:01.636740,0.01609015214891885
2023-01-27 16:10:01.641740,0.014881094917654906
2023-01-27 16:10:01.646740,0.013958206099346199
2023-01-27 16:10:01.651740,0.013703107833862286
2023-01-27 16:10:01.656740,0.014255881371021496
2023-01-27 16:10:01.661740,0.015746554359793642
2023-01-27 16:10:01.666740,0.01850475307433895
2023-01-27 16:10:01.671740,0.022742351517081226
2023-01-27 16:10:01.676740,0.028271283336412854
2023-01-27 16:10:01.681740,0.03476262092590329
2023-01-27 16:10:01.686740,0.04198630171227126
2023-01-27 16:10:01.691740,0.04952351376414287
2023-01-27 16:10:01.696740,0.056506889156644174
2023-01-27 16:10:01.701740,0.06190439313650127
2023-01-27 16:10:01.706740,0.06483259523484279
2023-01-27 16:10:01.711740,0.0644526928663253
2023-01-27 16:10:01.716740,0.060016311171942296
2023-01-27 16:10:01.721740,0.051470797508955016
2023-01-27 16:10:01.726740,0.03988227204628062
2023-01-27 16:10:01.731740,0.026997527107596255
2023-01-27 16:10:01.736740,0.014473637071361812
2023-01-27 16:10:01.741740,0.0034858784638345003
2023-01-27 16:10:01.746740,-0.005438290316861303
2023-01-27 16:10:01.751740,-0.012453000061213913
2023-01-27 16:10:01.756740,-0.017628754468117323
2023-01-27 16:10:01.761740,-0.019328594207763606
2023-01-27 16:10:01.766740,-0.013223486678016285
2023-01-27 16:10:01.771740,0.006611148826777902
2023-01-27 16:10:01.776740,0.04484768002352583
2023-01-27 16:10:01.781740,0.10171552747488022
2023-01-27 16:10:01.786740,0.17070955725806003
2023-01-27 16:10:01.791740,0.23850619792938224
2023-01-27 16:10:01.796740,0.2883345105712108
2023-01-27 16:10:01.801740,0.306156277656555
2023-01-27 16:10:01.806740,0.2864540044482859
2023-01-27 16:10:01.811740,0.23439526557922355
2023-01-27 16:10:01.816740,0.16369247584533972
2023-01-27 16:10:01.821740,0.091570422053337
2023-01-27 16:10:01.826740,0.032780739706499425
2023-01-27 16:10:01.831740,-0.005048513412475491
2023-01-27 16:10:01.836740,-0.022471390625011307
2023-01-27 16:10:01.841740,-0.025434892624616574
2023-01-27 16:10:01.846740,-0.021102813859647275
2023-01-27 16:10:01.851740,-0.01497725676745174
2023-01-27 16:10:01.856740,-0.0098810250922209
2023-01-27 16:10:01.861740,-0.00613033771514889
2023-01-27 16:10:01.866740,-0.0026316074462054595
2023-01-27 16:10:01.871740,0.0015145540237426214
2023-01-27 16:10:01.876740,0.006162989448581838
2023-01-27 16:10:01.881740,0.010649959556758393
2023-01-27 16:10:01.886740,0.014591746335499204
2023-01-27 16:10:01.891740,0.017862122505903157
2023-01-27 16:10:01.896740,0.020293669161884346
2023-01-27 16:10:01.901740,0.02190093323588374
2023-01-27 16:10:01.906740,0.023073874534092775
2023-01-27 16:10:01.911740,0.02411266230046742
2023-01-27 16:10:01.916740,0.024875380446781423
2023-01-27 16:10:01.921740,0.025290649384260143
2023-01-27 16:10:01.926740,0.025888897870094248
2023-01-27 16:10:01.931740,0.027406215667724595
2023-01-27 16:10:01.936740,0.030180727750590997
2023-01-27 16:10:01.941740,0.03430585190653802
2023-01-27 16:10:01.946740,0.03992278721583724
2023-01-27 16:10:01.951740,0.046830974519252645
2023-01-27 16:10:01.956740,0.054195569618951424
2023-01-27 16:10:01.961740,0.061231255531311035
2023-01-27 16:10:01.966740,0.0679230435150463
2023-01-27 16:10:01.971740,0.0746458768844604
2023-01-27 16:10:01.976740,0.08150606228890699
2023-01-27 16:10:01.981740,0.08858939260244364
2023-01-27 16:10:01.986740,0.09633951548653533
2023-01-27 16:10:01.991740,0.10493695735931392
2023-01-27 16:10:01.996740,0.11365961968763436
2023-01-27 16:10:02.001740,0.12157301604747774
2023-01-27 16:10:02.006740,0.1284818454795668
2023-01-27 16:10:02.011740,0.13448278605937947
2023-01-27 16:10:02.016740,0.13910559315015578
2023-01-27 16:10:02.021740,0.1418872773647308
2023-01-27 16:10:02.026740,0.14333516854956735
2023-01-27 16:10:02.031740,0.1440749615430831
2023-01-27 16:10:02.036740,0.1432995442442876
2023-01-27 16:10:02.041740,0.13948321342468256
2023-01-27 16:10:02.046740,0.13265138406818722
2023-01-27 16:10:02.051740,0.124409794807434
2023-01-27 16:10:02.056740,0.11535857863191978
2023-01-27 16:10:02.061740,0.10404746234416962
2023-01-27 16:10:02.066740,0.08937732527533865
2023-01-27 16:10:02.071740,0.0728188008069992
2023-01-27 16:10:02.076740,0.05713807294349937
2023-01-27 16:10:02.081740,0.0437537841498851
2023-01-27 16:10:02.086740,0.032440926123418166
2023-01-27 16:10:02.091740,0.02293467521667482
2023-01-27 16:10:02.096740,0.015471161101393226
2023-01-27 16:10:02.101740,0.009928743354976089
2023-01-27 16:10:02.106740,0.005644565925037279
2023-01-27 16:10:02.111740,0.0023078918457030647
2023-01-27 16:10:02.116740,0.0002675148773381769
2023-01-27 16:10:02.121740,-0.00024040541029527417
2023-01-27 16:10:02.126740,0.00040235639200151256
2023-01-27 16:10:02.131740,0.0015866756439208084
2023-01-27 16:10:02.136740,0.002862581231052374
2023-01-27 16:10:02.141740,0.0038224458694457817
2023-01-27 16:10:02.146740,0.004106000596839006
2023-01-27 16:10:02.151740,0.0037743649445474243
2023-01-27 16:10:02.156740,0.0033818492905954445
2023-01-27 16:10:02.161740,0.003485878463834524
2023-01-27 16:10:02.166740,0.004251647701627263
2023-01-27 16:10:02.171740,0.005553364753723087
2023-01-27 16:10:02.176740,0.007172445386907829
2023-01-27 16:10:02.181740,0.008798837661743102
2023-01-27 16:10:02.186740,0.010106081931513581
2023-01-27 16:10:02.191740,0.011010567657649486
2023-01-27 16:10:02.196740,0.01174630547417388
2023-01-27 16:10:02.201740,0.012597243301570377
2023-01-27 16:10:02.206740,0.013644825547147132
2023-01-27 16:10:02.211740,0.014784932136535619
2023-01-27 16:10:02.216740,0.01583330400123905
2023-01-27 16:10:02.221740,0.01656393334269521
2023-01-27 16:10:02.226740,0.016800782732406976
2023-01-27 16:10:02.231740,0.01658797264099121
2023-01-27 16:10:02.236740,0.016223039349583013
2023-01-27 16:10:02.241740,0.016083121299743604
2023-01-27 16:10:02.246740,0.01646342813549896
2023-01-27 16:10:02.251740,0.017573636025190277
2023-01-27 16:10:02.256740,0.01958409847431933
2023-01-27 16:10:02.261740,0.022622149437665877
2023-01-27 16:10:02.266740,0.026766625479692645
2023-01-27 16:10:02.271740,0.03204604238271708
2023-01-27 16:10:02.276740,0.038346508909426695
2023-01-27 16:10:02.281740,0.04524429887533181
2023-01-27 16:10:02.286740,0.051932084644245036
2023-01-27 16:10:02.291740,0.05733668804168694
2023-01-27 16:10:02.296740,0.06035118706957368
2023-01-27 16:10:02.301740,0.06007730960845938
2023-01-27 16:10:02.306740,0.05604717677321082
2023-01-27 16:10:02.311740,0.04839360713958736
2023-01-27 16:10:02.316740,0.03788783371777061
2023-01-27 16:10:02.321740,0.025771459564566602
2023-01-27 16:10:02.326740,0.013383634548246034
2023-01-27 16:10:02.331740,0.001706878421828134
2023-01-27 16:10:02.336740,-0.008888319782378024
2023-01-27 16:10:02.341740,-0.018366973847150806
2023-01-27 16:10:02.346740,-0.026123662883260672
2023-01-27 16:10:02.351740,-0.029834311455488205
2023-01-27 16:10:02.356740,-0.024883460648795874
2023-01-27 16:10:02.361740,-0.005216797348111789
2023-01-27 16:10:02.366740,0.03410178639100498
2023-01-27 16:10:02.371740,0.09342154115438457
2023-01-27 16:10:02.376740,0.16591349439329142
2023-01-27 16:10:02.381740,0.23773691058158866
2023-01-27 16:10:02.386740,0.2916761867256003
2023-01-27 16:10:02.391740,0.3131040036678314
2023-01-27 16:10:02.396740,0.29568285865684957
2023-01-27 16:10:02.401740,0.2440595626831053
2023-01-27 16:10:02.406740,0.17213041320678432
2023-01-27 16:10:02.411740,0.0976526737213134
2023-01-27 16:10:02.416740,0.03581698758283712
2023-01-27 16:10:02.421740,-0.005264878273010168
2023-01-27 16:10:02.426740,-0.025496636605265043
2023-01-27 16:10:02.431740,-0.030459364876150967
2023-01-27 16:10:02.436740,-0.02754112493290326
2023-01-27 16:10:02.441740,-0.02259810827672474
2023-01-27 16:10:02.446740,-0.018476782934617023
2023-01-27 16:10:02.451740,-0.015458067879080658
2023-01-27 16:10:02.456740,-0.01267060979319001
2023-01-27 16:10:02.461740,-0.009351770393550281
2023-01-27 16:10:02.466740,-0.005388631855096018
2023-01-27 16:10:02.471740,-0.0012020270805804594
2023-01-27 16:10:02.476740,0.00267724075292521
2023-01-27 16:10:02.481740,0.0059860944747924
2023-01-27 16:10:02.486740,0.008834728094356516
2023-01-27 16:10:02.491740,0.011539459228515568
2023-01-27 16:10:02.496740,0.014376111825270219
2023-01-27 16:10:02.501740,0.017429392784833887
2023-01-27 16:10:02.506740,0.02056348202373901
2023-01-27 16:10:02.511740,0.023487608879804583
2023-01-27 16:10:02.516740,0.025922905516204697
2023-01-27 16:10:02.521740,0.027814906090497898
2023-01-27 16:10:02.526740,0.02944006127474634
2023-01-27 16:10:02.531740,0.0313248261809349
2023-01-27 16:10:02.536740,0.03405848743761713
2023-01-27 16:10:02.541740,0.038104258477687794
2023-01-27 16:10:02.546740,0.043637636179978775
2023-01-27 16:10:02.551740,0.05046109482645978
2023-01-27 16:10:02.556740,0.058090142825687904
2023-01-27 16:10:02.561740,0.06599128246307369
2023-01-27 16:10:02.566740,0.07379766028800852
2023-01-27 16:10:02.571740,0.08137723058462137
