2023-01-28 10:10:10.023839,0.0004808108205907047
2023-01-28 10:10:10.028839,0.003947602103181907
2023-01-28 10:10:10.033839,0.0012981891632080267
2023-01-28 10:10:10.038839,0.0029147804339351826
2023-01-28 10:10:10.043839,0.01629948616027832
2023-01-28 10:10:10.048839,0.04517675682474896
2023-01-28 10:10:10.053839,0.09546498954296112
2023-01-28 10:10:10.058839,0.1738831467748688
2023-01-28 10:10:10.063839,0.27860581874847407
2023-01-28 10:10:10.068839,0.3948891806826268
2023-01-28 10:10:10.073839,0.5005240440368652
2023-01-28 10:10:10.078839,0.5732584248378851
2023-01-28 10:10:10.083839,0.5954120755195615
2023-01-28 10:10:10.088839,0.5590340979921405
2023-01-28 10:10:10.093839,0.47131478786468506
2023-01-28 10:10:10.098839,0.353374510747755
2023-01-28 10:10:10.103839,0.2309574782848357
2023-01-28 10:10:10.108839,0.12489688138569567
2023-01-28 10:10:10.113839,0.047263704240322016
2023-01-28 10:10:10.118839,0.001072855744151757
2023-01-28 10:10:10.123839,-0.018992027267813644
2023-01-28 10:10:10.128839,-0.023157015534898098
2023-01-28 10:10:10.133839,-0.020698904991149892
2023-01-28 10:10:10.138839,-0.016501074520516888
2023-01-28 10:10:10.143839,-0.012260675430297829
2023-01-28 10:10:10.148839,-0.008617573720037694
2023-01-28 10:10:10.153839,-0.0053129596635698864
2023-01-28 10:10:10.158839,-0.0013537936321450512
2023-01-28 10:10:10.163839,0.0033656756859272528
2023-01-28 10:10:10.168839,0.007413626169604924
2023-01-28 10:10:10.173839,0.009471973404288188
2023-01-28 10:10:10.178839,0.009616641914880101
2023-01-28 10:10:10.183839,0.008486310951411781
2023-01-28 10:10:10.188839,0.006486883895715725
2023-01-28 10:10:10.193839,0.004519621841609455
2023-01-28 10:10:10.198839,0.004252821617804746
2023-01-28 10:10:10.203839,0.006731351371854572
2023-01-28 10:10:10.208839,0.011487155787488632
2023-01-28 10:10:10.213839,0.017549594864249254
2023-01-28 10:10:10.218839,0.024404654855446913
2023-01-28 10:10:10.223839,0.03149310871958729
2023-01-28 10:10:10.228839,0.03790334739354947
2023-01-28 10:10:10.233839,0.043369136750697944
2023-01-28 10:10:10.238839,0.04881302926756874
2023-01-28 10:10:10.243839,0.05531728267669678
2023-01-28 10:10:10.248839,0.06327614819333034
2023-01-28 10:10:10.253839,0.07293900102376934
2023-01-28 10:10:10.258839,0.08480310358687297
2023-01-28 10:10:10.263839,0.0988066196441649
2023-01-28 10:10:10.268839,0.11386571825081572
2023-01-28 10:10:10.273839,0.12876114249229428
2023-01-28 10:10:10.278839,0.142832617616124
2023-01-28 10:10:10.283839,0.15544614195823656
2023-01-28 10:10:10.288839,0.16565257369705363
2023-01-28 10:10:10.293839,0.17294764518737785
2023-01-28 10:10:10.298839,0.17768129487740672
2023-01-28 10:10:10.303839,0.18023192882537842
2023-01-28 10:10:10.308839,0.18043464190266126
2023-01-28 10:10:10.313839,0.17821252346038807
2023-01-28 10:10:10.318839,0.1740040798371812
2023-01-28 10:10:10.323839,0.16806742548942555
2023-01-28 10:10:10.328839,0.16003610778019184
2023-01-28 10:10:10.333839,0.14962832629680622
2023-01-28 10:10:10.338839,0.137157764578
2023-01-28 10:10:10.343839,0.12294332683086391
2023-01-28 10:10:10.348839,0.1069191762105059
2023-01-28 10:10:10.353839,0.08931060880422596
2023-01-28 10:10:10.358839,0.0710826840539986
2023-01-28 10:10:10.363839,0.05329787731170647
2023-01-28 10:10:10.368839,0.036636492859786755
2023-01-28 10:10:10.373839,0.02190093323588375
2023-01-28 10:10:10.378839,0.010239081906667733
2023-01-28 10:10:10.383839,0.002283851383253894
2023-01-28 10:10:10.388839,-0.0024571248721262434
2023-01-28 10:10:10.393839,-0.005000432487577083
2023-01-28 10:10:10.398839,-0.006215414290360419
2023-01-28 10:10:10.403839,-0.006971756927669017
2023-01-28 10:10:10.408839,-0.008120081726064621
2023-01-28 10:10:10.413839,-0.009736418724059963
2023-01-28 10:10:10.418839,-0.010924657888710953
2023-01-28 10:10:10.423839,-0.010866324417293042
2023-01-28 10:10:10.428839,-0.009666865843107804
2023-01-28 10:10:10.433839,-0.007933378219604454
2023-01-28 10:10:10.438839,-0.0061539680921558785
2023-01-28 10:10:10.443839,-0.004808108322322292
2023-01-28 10:10:10.448839,-0.004342702638273541
2023-01-28 10:10:10.453839,-0.004495581146329622
2023-01-28 10:10:10.458839,-0.004186442007755052
2023-01-28 10:10:10.463839,-0.0025723378639668035
2023-01-28 10:10:10.468839,0.00019763615085948533
2023-01-28 10:10:10.473839,0.003533959388732924
2023-01-28 10:10:10.478839,0.007093054754323695
2023-01-28 10:10:10.483839,0.010577837936580075
2023-01-28 10:10:10.488839,0.013538781669680769
2023-01-28 10:10:10.493839,0.015866756439208957
2023-01-28 10:10:10.498839,0.017945147323723095
2023-01-28 10:10:10.503839,0.019881527870893385
2023-01-28 10:10:10.508839,0.021113760850100617
2023-01-28 10:10:10.513839,0.02117971703410137
2023-01-28 10:10:10.518839,0.020359375299511477
2023-01-28 10:10:10.523839,0.019208392128348274
2023-01-28 10:10:10.528839,0.018036732264733794
2023-01-28 10:10:10.533839,0.017188986763358095
2023-01-28 10:10:10.538839,0.017137734427224435
2023-01-28 10:10:10.543839,0.01776595972478369
2023-01-28 10:10:10.548839,0.018107442831873034
2023-01-28 10:10:10.553839,0.01730918884277339
2023-01-28 10:10:10.558839,0.015426363414970038
2023-01-28 10:10:10.563839,0.012981891632079945
2023-01-28 10:10:10.568839,0.01040037480077945
2023-01-28 10:10:10.573839,0.00826994609087698
2023-01-28 10:10:10.578839,0.007393071495424024
2023-01-28 10:10:10.583839,0.007909337989985924
2023-01-28 10:10:10.588839,0.008866954412268271
2023-01-28 10:10:10.593839,0.009207527153193888
2023-01-28 10:10:10.598839,0.008737186940993067
2023-01-28 10:10:10.603839,0.00778913497924799
2023-01-28 10:10:10.608839,0.006635933732641137
2023-01-28 10:10:10.613839,0.005745689384639287
2023-01-28 10:10:10.618839,0.00584692817255592
2023-01-28 10:10:10.623839,0.006971756927669058
2023-01-28 10:10:10.628839,0.007964849451027168
2023-01-28 10:10:10.633839,0.0076448917388916154
2023-01-28 10:10:10.638839,0.006047523929882989
2023-01-28 10:10:10.643839,0.004086892120540071
2023-01-28 10:10:10.648839,0.0027618243953798183
2023-01-28 10:10:10.653839,0.0033897161483764553
2023-01-28 10:10:10.658839,0.0076808064655949785
2023-01-28 10:10:10.663839,0.016227364540099983
2023-01-28 10:10:10.668839,0.0271156321493299
2023-01-28 10:10:10.673839,0.03702243417501435
2023-01-28 10:10:10.678839,0.04357363469128861
2023-01-28 10:10:10.683839,0.04594147205352785
2023-01-28 10:10:10.688839,0.043718171275507076
2023-01-28 10:10:10.693839,0.03666182607412328
2023-01-28 10:10:10.698839,0.025811298605511523
2023-01-28 10:10:10.703839,0.013775229454040527
2023-01-28 10:10:10.708839,0.0032853576678414905
2023-01-28 10:10:10.713839,-0.0042551755905150986
2023-01-28 10:10:10.718839,-0.008844326232095861
2023-01-28 10:10:10.723839,-0.011226932518183996
2023-01-28 10:10:10.728839,-0.01242342457530396
2023-01-28 10:10:10.733839,-0.013342499732971082
2023-01-28 10:10:10.738839,-0.014383768982676116
2023-01-28 10:10:10.743839,-0.015409986488520976
2023-01-28 10:10:10.748839,-0.015942533255667447
2023-01-28 10:10:10.753839,-0.014857053756713763
2023-01-28 10:10:10.758839,-0.009510887304172674
2023-01-28 10:10:10.763839,0.004904270172119064
2023-01-28 10:10:10.768839,0.03509062586540927
2023-01-28 10:10:10.773839,0.08808454126119605
2023-01-28 10:10:10.778839,0.1681295649624904
2023-01-28 10:10:10.783839,0.2726197242736814
2023-01-28 10:10:10.788839,0.38937758679335294
2023-01-28 10:10:10.793839,0.4977113008499142
2023-01-28 10:10:10.798839,0.5736655637310962
2023-01-28 10:10:10.803839,0.597623825073242
2023-01-28 10:10:10.808839,0.5614366975143741
2023-01-28 10:10:10.813839,0.47210812568664534
2023-01-28 10:10:10.818839,0.34984402165830253
2023-01-28 10:10:10.823839,0.22086045145988453
2023-01-28 10:10:10.828839,0.10849747933820574
2023-01-28 10:10:10.833839,0.026853283867239855
2023-01-28 10:10:10.838839,-0.021100501947230704
2023-01-28 10:10:10.843839,-0.041397809982299784
2023-01-28 10:10:10.848839,-0.04447047064163246
2023-01-28 10:10:10.853839,-0.04014770314097399
2023-01-28 10:10:10.858839,-0.03458853750708971
2023-01-28 10:10:10.863839,-0.03012279793620098
2023-01-28 10:10:10.868839,-0.026769513082665453
2023-01-28 10:10:10.873839,-0.02367993257939809
2023-01-28 10:10:10.878839,-0.020071436563079782
2023-01-28 10:10:10.883839,-0.015914838761091236
2023-01-28 10:10:10.888839,-0.012064649094186792
2023-01-28 10:10:10.893839,-0.009568135254084956
2023-01-28 10:10:10.898839,-0.008881138321476627
2023-01-28 10:10:10.903839,-0.00976045988500109
2023-01-28 10:10:10.908839,-0.011514164482782988
2023-01-28 10:10:10.913839,-0.013078054413199477
2023-01-28 10:10:10.918839,-0.0132515009733854
2023-01-28 10:10:10.923839,-0.011395215988159043
2023-01-28 10:10:10.928839,-0.007874523003643578
2023-01-28 10:10:10.933839,-0.0036060810089111185
2023-01-28 10:10:10.938839,0.0006856242275632311
2023-01-28 10:10:10.943839,0.004687905311584435
2023-01-28 10:10:10.948839,0.008446196969838813
2023-01-28 10:10:10.953839,0.012501081451773638
2023-01-28 10:10:10.958839,0.017811081728927963
2023-01-28 10:10:10.963839,0.025122364982962636
2023-01-28 10:10:10.968839,0.034499189208428475
2023-01-28 10:10:10.973839,0.04562894627451887
2023-01-28 10:10:10.978839,0.05826399565395826
2023-01-28 10:10:10.983839,0.0720735415816307
2023-01-28 10:10:10.988839,0.08637736315048528
2023-01-28 10:10:10.993839,0.10039329528808594
2023-01-28 10:10:10.998839,0.11354056524480624
2023-01-28 10:10:11.003839,0.12525121867656697
2023-01-28 10:10:11.008839,0.13482158129863658
2023-01-28 10:10:11.013839,0.14183919131755812
2023-01-28 10:10:11.018839,0.1465443526291416
2023-01-28 10:10:11.023839,0.14946004748344424
2023-01-28 10:10:11.028839,0.15087031984885885
2023-01-28 10:10:11.033839,0.15085439383983595
2023-01-28 10:10:11.038839,0.14941377097162642
2023-01-28 10:10:11.043839,0.14614245295524586
2023-01-28 10:10:11.048839,0.1400557221317461
2023-01-28 10:10:11.053839,0.13020357489585874
2023-01-28 10:10:11.058839,0.11638932929044447
2023-01-28 10:10:11.063839,0.09916722774505612
2023-01-28 10:10:11.068839,0.07953962904062274
2023-01-28 10:10:11.073839,0.05897144600749016
2023-01-28 10:10:11.078839,0.03925168281109366
2023-01-28 10:10:11.083839,0.021756689995527205
2023-01-28 10:10:11.088839,0.006918235763427906
2023-01-28 10:10:11.093839,-0.005361040588468349
2023-01-28 10:10:11.098839,-0.015078861693716451
2023-01-28 10:10:11.103839,-0.02221345901489249
2023-01-28 10:10:11.108839,-0.027049899529552324
2023-01-28 10:10:11.113839,-0.030002593994140597
2023-01-28 10:10:11.118839,-0.0313731482570564
2023-01-28 10:10:11.123839,-0.031613312661647706
2023-01-28 10:10:11.128839,-0.031474330641719526
2023-01-28 10:10:11.133839,-0.03146906942129128
2023-01-28 10:10:11.138839,-0.03146013141974766
2023-01-28 10:10:11.143839,-0.031156539916992076
2023-01-28 10:10:11.148839,-0.03072485219989697
2023-01-28 10:10:11.153839,-0.030555527657270355
2023-01-28 10:10:11.158839,-0.03077209500942121
2023-01-28 10:10:11.163839,-0.031348865479230784
2023-01-28 10:10:11.168839,-0.032310574930963405
2023-01-28 10:10:11.173839,-0.03334423154592508
2023-01-28 10:10:11.178839,-0.033582729306995775
2023-01-28 10:10:11.183839,-0.03231048583984368
2023-01-28 10:10:11.188839,-0.029652352257878205
2023-01-28 10:10:11.193839,-0.02620418928563586
2023-01-28 10:10:11.198839,-0.02238859831728615
2023-01-28 10:10:11.203839,-0.01860737800598137
2023-01-28 10:10:11.208839,-0.01549998592353029
2023-01-28 10:10:11.213839,-0.013366540893912334
2023-01-28 10:10:11.218839,-0.011666648197536555
2023-01-28 10:10:11.223839,-0.00971237849444149
2023-01-28 10:10:11.228839,-0.007542041235664252
2023-01-28 10:10:11.233839,-0.00555336475372313
2023-01-28 10:10:11.238839,-0.003766603326176816
2023-01-28 10:10:11.243839,-0.0022357702255249023
2023-01-28 10:10:11.248839,-0.0017432789114353682
2023-01-28 10:10:11.253839,-0.0030771892052142485
2023-01-28 10:10:11.258839,-0.005810698670186601
2023-01-28 10:10:11.263839,-0.008774797432124568
2023-01-28 10:10:11.268839,-0.011625825998585014
2023-01-28 10:10:11.273839,-0.014881094917654896
2023-01-28 10:10:11.278839,-0.018332086731562346
2023-01-28 10:10:11.283839,-0.020554661750793384
2023-01-28 10:10:11.288839,-0.020455852117115914
2023-01-28 10:10:11.293839,-0.01853525638580322
2023-01-28 10:10:11.298839,-0.01619941650261865
2023-01-28 10:10:11.303839,-0.014496445655822669
2023-01-28 10:10:11.308839,-0.013933360175332313
2023-01-28 10:10:11.313839,-0.014833013527095281
2023-01-28 10:10:11.318839,-0.017132055644896248
2023-01-28 10:10:11.323839,-0.020025771111249976
2023-01-28 10:10:11.328839,-0.022297269081903392
2023-01-28 10:10:11.333839,-0.023006796836853007
2023-01-28 10:10:11.338839,-0.021812334534381667
2023-01-28 10:10:11.343839,-0.01896798610687254
2023-01-28 10:10:11.348839,-0.015280646771436661
2023-01-28 10:10:11.353839,-0.011851986870169568
2023-01-28 10:10:11.358839,-0.009583220997512071
2023-01-28 10:10:11.363839,-0.008919040672481005
2023-01-28 10:10:11.368839,-0.009983562047570923
2023-01-28 10:10:11.373839,-0.012645324692129953
2023-01-28 10:10:11.378839,-0.016335548004859136
2023-01-28 10:10:11.383839,-0.020025771111249934
2023-01-28 10:10:11.388839,-0.022497141109923815
2023-01-28 10:10:11.393839,-0.022550027817487637
2023-01-28 10:10:11.398839,-0.019141055958456183
2023-01-28 10:10:11.403839,-0.011827945709228498
2023-01-28 10:10:11.408839,-0.0013744888910349868
2023-01-28 10:10:11.413839,0.010169148445129362
2023-01-28 10:10:11.418839,0.020084071609527042
2023-01-28 10:10:11.423839,0.02579550072550773
2023-01-28 10:10:11.428839,0.025591012462869534
2023-01-28 10:10:11.433839,0.019280513748526434
2023-01-28 10:10:11.438839,0.008456057953811047
2023-01-28 10:10:11.443839,-0.0041349730454384335
2023-01-28 10:10:11.448839,-0.015777239368146314
2023-01-28 10:10:11.453839,-0.024641554802656115
2023-01-28 10:10:11.458839,-0.03002149886308398
2023-01-28 10:10:11.463839,-0.03231048583984373
2023-01-28 10:10:11.468839,-0.032764856145703236
2023-01-28 10:10:11.473839,-0.032839380204677464
2023-01-28 10:10:11.478839,-0.03346560838825741
2023-01-28 10:10:11.483839,-0.03490686416625965
2023-01-28 10:10:11.488839,-0.03698651625620548
2023-01-28 10:10:11.493839,-0.03889759629964817
2023-01-28 10:10:11.498839,-0.03848510995742476
2023-01-28 10:10:11.503839,-0.03166139125823973
2023-01-28 10:10:11.508839,-0.012422944806234374
2023-01-28 10:10:11.513839,0.026300352066755257
2023-01-28 10:10:11.518839,0.09042541490295378
2023-01-28 10:10:11.523839,0.18102526664733887
2023-01-28 10:10:11.528839,0.2907714784789729
2023-01-28 10:10:11.533839,0.40311178565025313
2023-01-28 10:10:11.538839,0.4955380958341911
2023-01-28 10:10:11.543839,0.5460808873176574
2023-01-28 10:10:11.548839,0.5407570337089157
2023-01-28 10:10:11.553839,0.47910392284393316
2023-01-28 10:10:11.558839,0.3750301965333329
2023-01-28 10:10:11.563839,0.25199294090270985
2023-01-28 10:10:11.568839,0.13469253728995328
2023-01-28 10:10:11.573839,0.04139780998229975
2023-01-28 10:10:11.578839,-0.02002399281313194
2023-01-28 10:10:11.583839,-0.05173524469137197
2023-01-28 10:10:11.588839,-0.06228767040525469
2023-01-28 10:10:11.593839,-0.06168802827596662
2023-01-28 10:10:11.598839,-0.05755910451402758
2023-01-28 10:10:11.603839,-0.05392293259501448
2023-01-28 10:10:11.608839,-0.05209977819047661
2023-01-28 10:10:11.613839,-0.05204777047038066
2023-01-28 10:10:11.618839,-0.0532124805538425
2023-01-28 10:10:11.623839,-0.05500475689768787
2023-01-28 10:10:11.628839,-0.05699073064630762
2023-01-28 10:10:11.633839,-0.05868295952677714
2023-01-28 10:10:11.638839,-0.05932078620970353
2023-01-28 10:10:11.643839,-0.05817810818552965
2023-01-28 10:10:11.648839,-0.05511213297111051
2023-01-28 10:10:11.653839,-0.05062937736511232
2023-01-28 10:10:11.658839,-0.04549925674563261
2023-01-28 10:10:11.663839,-0.04050831124186509
2023-01-28 10:10:11.668839,-0.03638642362542062
2023-01-28 10:10:11.673839,-0.03351251408457754
2023-01-28 10:10:11.678839,-0.031596908330949476
2023-01-28 10:10:11.683839,-0.029882391914725207
2023-01-28 10:10:11.688839,-0.027675994080716377
2023-01-28 10:10:11.693839,-0.0245453920215368
2023-01-28 10:10:11.698839,-0.02017985664344836
2023-01-28 10:10:11.703839,-0.01442432403564445
2023-01-28 10:10:11.708839,-0.0074278529452376126
2023-01-28 10:10:11.713839,0.0005529324407689273
2023-01-28 10:10:11.718839,0.009522876642702169
2023-01-28 10:10:11.723839,0.01971324346959594
2023-01-28 10:10:11.728839,0.031240140253743352
2023-01-28 10:10:11.733839,0.04401823133230201
2023-01-28 10:10:11.738839,0.05787462666824479
2023-01-28 10:10:11.743839,0.07238607108592977
2023-01-28 10:10:11.748839,0.08660020536298682
2023-01-28 10:10:11.753839,0.09921531379222849
2023-01-28 10:10:11.758839,0.10910966317613766
2023-01-28 10:10:11.763839,0.11561095714569077
2023-01-28 10:10:11.768839,0.11847157967099382
2023-01-28 10:10:11.773839,0.11794289201498027
2023-01-28 10:10:11.778839,0.11479656662012484
2023-01-28 10:10:11.783839,0.10986527055501927
2023-01-28 10:10:11.788839,0.10342529619542079
2023-01-28 10:10:11.793839,0.09515246003866185
2023-01-28 10:10:11.798839,0.08459960166857614
2023-01-28 10:10:11.803839,0.07154464721679679
2023-01-28 10:10:11.808839,0.05610014624321976
2023-01-28 10:10:11.813839,0.03892163559794415
2023-01-28 10:10:11.818839,0.021329019463486233
2023-01-28 10:10:11.823839,0.004880229942500449
2023-01-28 10:10:11.828839,-0.009317825158666
2023-01-28 10:10:11.833839,-0.020843148231506275
2023-01-28 10:10:11.838839,-0.029738411792162526
2023-01-28 10:10:11.843839,-0.03637333959341041
2023-01-28 10:10:11.848839,-0.04138649922026134
2023-01-28 10:10:11.853839,-0.04534045979380597
2023-01-28 10:10:11.858839,-0.04834841312741353
2023-01-28 10:10:11.863839,-0.05024472996592515
2023-01-28 10:10:11.868839,-0.05109005192826849
2023-01-28 10:10:11.873839,-0.051302514970302436
2023-01-28 10:10:11.878839,-0.051379201572218106
2023-01-28 10:10:11.883839,-0.05171120166778555
2023-01-28 10:10:11.888839,-0.05251117516744072
2023-01-28 10:10:11.893839,-0.0535623244941234
2023-01-28 10:10:11.898839,-0.054087189831535584
2023-01-28 10:10:11.903839,-0.053225755691528265
2023-01-28 10:10:11.908839,-0.050745269801451616
2023-01-28 10:10:11.913839,-0.04716753959655764
2023-01-28 10:10:11.918839,-0.043323812091061224
2023-01-28 10:10:11.923839,-0.039979420602321625
2023-01-28 10:10:11.928839,-0.037663962966203134
2023-01-28 10:10:11.933839,-0.036445461213588735
2023-01-28 10:10:11.938839,-0.03587034259438766
2023-01-28 10:10:11.943839,-0.03541171550750735
2023-01-28 10:10:11.948839,-0.03497403093476701
2023-01-28 10:10:11.953839,-0.03478666394948954
2023-01-28 10:10:11.958839,-0.03496926957128858
2023-01-28 10:10:11.963839,-0.03548383712768553
2023-01-28 10:10:11.968839,-0.03634022062178056
2023-01-28 10:10:11.973839,-0.03747920319437984
2023-01-28 10:10:11.978839,-0.03855614797121416
2023-01-28 10:10:11.983839,-0.03921012207865706
2023-01-28 10:10:11.988839,-0.039489877872772014
2023-01-28 10:10:11.993839,-0.03969093412160872
2023-01-28 10:10:11.998839,-0.03986441357575265
2023-01-28 10:10:12.003839,-0.039835177361965055
2023-01-28 10:10:12.008839,-0.039607208744801066
2023-01-28 10:10:12.013839,-0.03935436531901345
2023-01-28 10:10:12.018839,-0.03905090556857463
2023-01-28 10:10:12.023839,-0.03848890587687492
2023-01-28 10:10:12.028839,-0.0376447866211276
2023-01-28 10:10:12.033839,-0.0366858653724193
2023-01-28 10:10:12.038839,-0.03565917634811376
2023-01-28 10:10:12.043839,-0.034546256065368555
2023-01-28 10:10:12.048839,-0.033604975230171814
2023-01-28 10:10:12.053839,-0.033272109925746876
2023-01-28 10:10:12.058839,-0.033684767492324644
2023-01-28 10:10:12.063839,-0.03459433838725078
2023-01-28 10:10:12.068839,-0.035723300457573555
2023-01-28 10:10:12.073839,-0.03687819093465793
2023-01-28 10:10:12.078839,-0.03775900538486386
2023-01-28 10:10:12.083839,-0.03805617615580546
2023-01-28 10:10:12.088839,-0.03778589921890005
2023-01-28 10:10:12.093839,-0.03721475601196278
2023-01-28 10:10:12.098839,-0.03643890533515574
2023-01-28 10:10:12.103839,-0.03533959388732912
2023-01-28 10:10:12.108839,-0.033930016552524596
2023-01-28 10:10:12.113839,-0.03240665048360819
2023-01-28 10:10:12.118839,-0.030864381697161766
2023-01-28 10:10:12.123839,-0.029305418953299495
2023-01-28 10:10:12.128839,-0.027929852775596505
2023-01-28 10:10:12.133839,-0.02704560756683333
2023-01-28 10:10:12.138839,-0.02661165146329079
2023-01-28 10:10:12.143839,-0.02613206766545761
2023-01-28 10:10:12.148839,-0.024996355836842534
2023-01-28 10:10:12.153839,-0.022670229896902937
2023-01-28 10:10:12.158839,-0.018705636016083882
2023-01-28 10:10:12.163839,-0.013102094642817813
2023-01-28 10:10:12.168839,-0.006828768542495825
2023-01-28 10:10:12.173839,-0.0016587972640990263
2023-01-28 10:10:12.178839,0.0007268581709084809
2023-01-28 10:10:12.183839,-0.0005288919201120071
2023-01-28 10:10:12.188839,-0.005308310851632676
2023-01-28 10:10:12.193839,-0.012573203071951826
2023-01-28 10:10:12.198839,-0.020573143441079647
2023-01-28 10:10:12.203839,-0.027574500069022106
2023-01-28 10:10:12.208839,-0.03277657711404124
2023-01-28 10:10:12.213839,-0.036493539810180595
2023-01-28 10:10:12.218839,-0.039514602493266986
2023-01-28 10:10:12.223839,-0.042503677308559376
2023-01-28 10:10:12.228839,-0.045841079325437364
2023-01-28 10:10:12.233839,-0.04952351376414282
2023-01-28 10:10:12.238839,-0.05304914466777299
2023-01-28 10:10:12.243839,-0.05562981218099592
2023-01-28 10:10:12.248839,-0.05639571734480908
2023-01-28 10:10:12.253839,-0.053754650056362104
2023-01-28 10:10:12.258839,-0.04411055301778375
2023-01-28 10:10:12.263839,-0.02137204073369501
2023-01-28 10:10:12.268839,0.02172152197817802
2023-01-28 10:10:12.273839,0.09068091958761211
2023-01-28 10:10:12.278839,0.18558116124577237
2023-01-28 10:10:12.283839,0.29786229133605935
2023-01-28 10:10:12.288839,0.4097140155743954
2023-01-28 10:10:12.293839,0.49785554409027083
2023-01-28 10:10:12.298839,0.5409869723061933
2023-01-28 10:10:12.303839,0.5274975299835205
2023-01-28 10:10:12.308839,0.45982517450530697
2023-01-28 10:10:12.313839,0.35375654697418196
2023-01-28 10:10:12.318839,0.23298824781353436
2023-01-28 10:10:12.323839,0.12102007865905756
2023-01-28 10:10:12.328839,0.03392315689982151
2023-01-28 10:10:12.333839,-0.022742351517081146
2023-01-28 10:10:12.338839,-0.052286638561745764
2023-01-28 10:10:12.343839,-0.0627458095550536
2023-01-28 10:10:12.348839,-0.0628139810591581
2023-01-28 10:10:12.353839,-0.05911568924784662
2023-01-28 10:10:12.358839,-0.05518689394160341
2023-01-28 10:10:12.363839,-0.052095852792263045
2023-01-28 10:10:12.368839,-0.04981541950733724
2023-01-28 10:10:12.373839,-0.048081081360578544
2023-01-28 10:10:12.378839,-0.04646298911910818
2023-01-28 10:10:12.383839,-0.044426918029785156
2023-01-28 10:10:12.388839,-0.041727873897781126
2023-01-28 10:10:12.393839,-0.03858506679534907
2023-01-28 10:10:12.398839,-0.035370659310859136
2023-01-28 10:10:12.403839,-0.032310485839843646
2023-01-28 10:10:12.408839,-0.029482896465722625
2023-01-28 10:10:12.413839,-0.026805203408002826
2023-01-28 10:10:12.418839,-0.023951553221888567
2023-01-28 10:10:12.423839,-0.020578702911734484
2023-01-28 10:10:12.428839,-0.016749506001512444
2023-01-28 10:10:12.433839,-0.0129097700119018
2023-01-28 10:10:12.438839,-0.009367667335269456
2023-01-28 10:10:12.443839,-0.005986094474792338
2023-01-28 10:10:12.448839,-0.0023829536966451692
2023-01-28 10:10:12.453839,0.0018270810833199674
2023-01-28 10:10:12.458839,0.00698233687129942
2023-01-28 10:10:12.463839,0.013222297653555856
2023-01-28 10:10:12.468839,0.020289127870613367
2023-01-28 10:10:12.473839,0.027766823768615657
2023-01-28 10:10:12.478839,0.03564864376464204
2023-01-28 10:10:12.483839,0.044475000351667404
2023-01-28 10:10:12.488839,0.054846435974927034
2023-01-28 10:10:12.493839,0.06695290654897679
2023-01-28 10:10:12.498839,0.08048025915993884
2023-01-28 10:10:12.503839,0.0945995301008224
2023-01-28 10:10:12.508839,0.10798097426500053
2023-01-28 10:10:12.513839,0.11919300258159626
2023-01-28 10:10:12.518839,0.12734036589655928
2023-01-28 10:10:12.523839,0.13224701583385454
2023-01-28 10:10:12.528839,0.13407034987867028
2023-01-28 10:10:12.533839,0.13299226760864258
2023-01-28 10:10:12.538839,0.1292498304884258
2023-01-28 10:10:12.543839,0.12308757007122029
2023-01-28 10:10:12.548839,0.11454361443684358
2023-01-28 10:10:12.553839,0.10354261100292206
2023-01-28 10:10:12.558839,0.0903192342482148
2023-01-28 10:10:12.563839,0.07555942237377161
2023-01-28 10:10:12.568839,0.060088843788486425
2023-01-28 10:10:12.573839,0.044643282890319824
2023-01-28 10:10:12.578839,0.029923034426635162
2023-01-28 10:10:12.583839,0.01651585102081299
2023-01-28 10:10:12.588839,0.0046277316422498795
2023-01-28 10:10:12.593839,-0.0058658919297157955
2023-01-28 10:10:12.598839,-0.01498502261275551
2023-01-28 10:10:12.603839,-0.02245386503636829
2023-01-28 10:10:12.608839,-0.02800607134629609
2023-01-28 10:10:12.613839,-0.031685434281825985
2023-01-28 10:10:12.618839,-0.033817775612449315
2023-01-28 10:10:12.623839,-0.03490686416625971
2023-01-28 10:10:12.628839,-0.03556026341987973
2023-01-28 10:10:12.633839,-0.03620505332946769
2023-01-28 10:10:12.638839,-0.03672357728324996
2023-01-28 10:10:12.643839,-0.036517582833766896
2023-01-28 10:10:12.648839,-0.03500140609774399
2023-01-28 10:10:12.653839,-0.03197392076253893
2023-01-28 10:10:12.658839,-0.027685275994236452
2023-01-28 10:10:12.663839,-0.022862553596496495
2023-01-28 10:10:12.668839,-0.018603230969947343
2023-01-28 10:10:12.673839,-0.015818675979971795
2023-01-28 10:10:12.678839,-0.0146066063835249
2023-01-28 10:10:12.683839,-0.01432816218584771
2023-01-28 10:10:12.688839,-0.014279298587277011
2023-01-28 10:10:12.693839,-0.014063715934753421
2023-01-28 10:10:12.698839,-0.013426345119536932
2023-01-28 10:10:12.703839,-0.01216451358050097
2023-01-28 10:10:12.708839,-0.010320444225397903
2023-01-28 10:10:12.713839,-0.008173784241080166
2023-01-28 10:10:12.718839,-0.005983465089015583
2023-01-28 10:10:12.723839,-0.0040147705003619385
2023-01-28 10:10:12.728839,-0.002824890867624524
2023-01-28 10:10:12.733839,-0.003125270362943448
2023-01-28 10:10:12.738839,-0.005176242653721533
2023-01-28 10:10:12.743839,-0.008510351181030195
2023-01-28 10:10:12.748839,-0.012281922411588564
2023-01-28 10:10:12.753839,-0.01565039157867422
2023-01-28 10:10:12.758839,-0.017892025102987864
2023-01-28 10:10:12.763839,-0.018607378005981383
2023-01-28 10:10:12.768839,-0.018024712836533476
2023-01-28 10:10:12.773839,-0.01682837866246699
2023-01-28 10:10:12.778839,-0.015535412804153746
2023-01-28 10:10:12.783839,-0.014232000336050906
2023-01-28 10:10:12.788839,-0.012939056348873719
2023-01-28 10:10:12.793839,-0.01192410849034783
2023-01-28 10:10:12.798839,-0.01156572358759673
2023-01-28 10:10:12.803839,-0.012188553810119638
2023-01-28 10:10:12.808839,-0.014071216959829502
2023-01-28 10:10:12.813839,-0.01723706722259519
2023-01-28 10:10:12.818839,-0.021064031032667893
2023-01-28 10:10:12.823839,-0.024401148781180267
2023-01-28 10:10:12.828839,-0.026303709497816373
2023-01-28 10:10:12.833839,-0.026564797386527002
2023-01-28 10:10:12.838839,-0.025575417045941747
2023-01-28 10:10:12.843839,-0.023992460221052045
2023-01-28 10:10:12.848839,-0.02257978806822648
2023-01-28 10:10:12.853839,-0.021924972534179705
2023-01-28 10:10:12.858839,-0.021987847480238683
2023-01-28 10:10:12.863839,-0.02204517647624006
2023-01-28 10:10:12.868839,-0.021175199916728085
2023-01-28 10:10:12.873839,-0.01865546032786362
2023-01-28 10:10:12.878839,-0.013985816958161416
2023-01-28 10:10:12.883839,-0.007019837852567396
2023-01-28 10:10:12.888839,0.0016227884880337436
2023-01-28 10:10:12.893839,0.010457634925842247
2023-01-28 10:10:12.898839,0.017639621181651535
2023-01-28 10:10:12.903839,0.021540325134992523
2023-01-28 10:10:12.908839,0.021041153404063095
2023-01-28 10:10:12.913839,0.015842717140913024
2023-01-28 10:10:12.918839,0.006828739415744844
2023-01-28 10:10:12.923839,-0.0040868921205400805
2023-01-28 10:10:12.928839,-0.014758326917953377
2023-01-28 10:10:12.933839,-0.023535689339041623
2023-01-28 10:10:12.938839,-0.029479163891688438
2023-01-28 10:10:12.943839,-0.032430689781904165
2023-01-28 10:10:12.948839,-0.03314733965115492
2023-01-28 10:10:12.953839,-0.03305574506521214
2023-01-28 10:10:12.958839,-0.03352494469885306
2023-01-28 10:10:12.963839,-0.035315554589033064
2023-01-28 10:10:12.968839,-0.038525025583446844
2023-01-28 10:10:12.973839,-0.04245559498667713
2023-01-28 10:10:12.978839,-0.04501424579970809
2023-01-28 10:10:12.983839,-0.04216710850596422
2023-01-28 10:10:12.988839,-0.028081821290797154
2023-01-28 10:10:12.993839,0.003918608184903787
2023-01-28 10:10:12.998839,0.05944830834274544
2023-01-28 10:10:13.003839,0.1400361508131026
2023-01-28 10:10:13.008839,0.23995692869523416
2023-01-28 10:10:13.013839,0.3451260030269621
2023-01-28 10:10:13.018839,0.43562616649715435
2023-01-28 10:10:13.023839,0.49129247665405257
2023-01-28 10:10:13.028839,0.49823673267304897
2023-01-28 10:10:13.033839,0.4538854062557217
2023-01-28 10:10:13.038839,0.3683517028920009
2023-01-28 10:10:13.043839,0.2610562443733214
2023-01-28 10:10:13.048839,0.1539059936609706
2023-01-28 10:10:13.053839,0.06440460681915282
2023-01-28 10:10:13.058839,0.0016663922209832643
2023-01-28 10:10:13.063839,-0.03392120450735088
2023-01-28 10:10:13.068839,-0.04829736741593186
2023-01-28 10:10:13.073839,-0.04995624348521226
2023-01-28 10:10:13.078839,-0.046406798946377684
2023-01-28 10:10:13.083839,-0.042359434068202854
2023-01-28 10:10:13.088839,-0.039891235258760406
2023-01-28 10:10:13.093839,-0.03942648693919174
2023-01-28 10:10:13.098839,-0.04046737104022649
2023-01-28 10:10:13.103839,-0.04209498688578594
2023-01-28 10:10:13.108839,-0.04349267872864414
2023-01-28 10:10:13.113839,-0.04418651387095444
2023-01-28 10:10:13.118839,-0.04383334763478412
2023-01-28 10:10:13.123839,-0.04207094758748991
2023-01-28 10:10:13.128839,-0.03877809919496581
2023-01-28 10:10:13.133839,-0.03430585190653794
2023-01-28 10:10:13.138839,-0.02929320528028686
2023-01-28 10:10:13.143839,-0.02440114878118031
2023-01-28 10:10:13.148839,-0.020267284282298806
2023-01-28 10:10:13.153839,-0.017357271164655633
2023-01-28 10:10:13.158839,-0.015542293642165575
2023-01-28 10:10:13.163839,-0.013943513855337968
2023-01-28 10:10:13.168839,-0.011411621758090367
2023-01-28 10:10:13.173839,-0.007140040397643933
2023-01-28 10:10:13.178839,-0.0008592792293149453
2023-01-28 10:10:13.183839,0.0072121620178222014
2023-01-28 10:10:13.188839,0.016394555299851093
2023-01-28 10:10:13.193839,0.02581954002380378
2023-01-28 10:10:13.198839,0.035061696329459845
2023-01-28 10:10:13.203839,0.044523082673549624
2023-01-28 10:10:13.208839,0.05509363332705799
2023-01-28 10:10:13.213839,0.06750583648681635
2023-01-28 10:10:13.218839,0.08196946100903348
2023-01-28 10:10:13.223839,0.09801328182220448
2023-01-28 10:10:13.228839,0.11434045979944979
2023-01-28 10:10:13.233839,0.12902557849884028
2023-01-28 10:10:13.238839,0.1402603766591986
2023-01-28 10:10:13.243839,0.14708003401756276
2023-01-28 10:10:13.248839,0.14946901770995183
2023-01-28 10:10:13.253839,0.14806568622589103
2023-01-28 10:10:13.258839,0.1439336481687127
2023-01-28 10:10:13.263839,0.1382811963558197
2023-01-28 10:10:13.268839,0.13190108645053047
2023-01-28 10:10:13.273839,0.12474636733531938
2023-01-28 10:10:13.278839,0.1161488177486354
2023-01-28 10:10:13.283839,0.10539373010396938
2023-01-28 10:10:13.288839,0.09202824408176692
2023-01-28 10:10:13.293839,0.07592003047466261
2023-01-28 10:10:13.298839,0.057463569520482725
2023-01-28 10:10:13.303839,0.03779172897338866
2023-01-28 10:10:13.308839,0.018490051983910072
2023-01-28 10:10:13.313839,0.0009135405416599932
2023-01-28 10:10:13.318839,-0.014197230844504152
2023-01-28 10:10:13.323839,-0.026516716927289904
2023-01-28 10:10:13.328839,-0.03584134282237033
2023-01-28 10:10:13.333839,-0.04216710850596421
2023-01-28 10:10:13.338839,-0.04591461269846835
2023-01-28 10:10:13.343839,-0.04779259487986558
2023-01-28 10:10:13.348839,-0.04829832640388643
2023-01-28 10:10:13.353839,-0.04743198677897451
2023-01-28 10:10:13.358839,-0.045030474151591685
2023-01-28 10:10:13.363839,-0.04134973138570772
2023-01-28 10:10:13.368839,-0.037163094066490106
2023-01-28 10:10:13.373839,-0.033272109925746834
2023-01-28 10:10:13.378839,-0.030112732877261385
2023-01-28 10:10:13.383839,-0.027911067008972095
2023-01-28 10:10:13.388839,-0.02694889344087675
2023-01-28 10:10:13.393839,-0.027382176369428562
2023-01-28 10:10:13.398839,-0.028881467102846226
2023-01-28 10:10:13.403839,-0.03069977089762674
2023-01-28 10:10:13.408839,-0.03207098384239302
2023-01-28 10:10:13.413839,-0.03238260746002189
2023-01-28 10:10:13.418839,-0.031117432316000306
2023-01-28 10:10:13.423839,-0.02800722979009144
2023-01-28 10:10:13.428839,-0.023336280059081643
2023-01-28 10:10:13.433839,-0.017886161804199167
2023-01-28 10:10:13.438839,-0.012529561392959085
2023-01-28 10:10:13.443839,-0.00800549983978272
2023-01-28 10:10:13.448839,-0.004970170446650058
2023-01-28 10:10:13.453839,-0.00389456748962399
2023-01-28 10:10:13.458839,-0.0047770294335932224
2023-01-28 10:10:13.463839,-0.007140040397643967
2023-01-28 10:10:13.468839,-0.010367920661197398
2023-01-28 10:10:13.473839,-0.013895432464778338
2023-01-28 10:10:13.478839,-0.01712223427094863
2023-01-28 10:10:13.483839,-0.01947283744812003
2023-01-28 10:10:13.488839,-0.020691321465394426
2023-01-28 10:10:13.493839,-0.02093931101262561
2023-01-28 10:10:13.498839,-0.020591054601740953
2023-01-28 10:10:13.503839,-0.020121932029724062
2023-01-28 10:10:13.508839,-0.02015394971679744
2023-01-28 10:10:13.513839,-0.021251838654279685
2023-01-28 10:10:13.518839,-0.023483722158681615
2023-01-28 10:10:13.523839,-0.026324391365051217
2023-01-28 10:10:13.528839,-0.02906019462157326
2023-01-28 10:10:13.533839,-0.031156539916992083
2023-01-28 10:10:13.538839,-0.03228458354483232
2023-01-28 10:10:13.543839,-0.03231048583984375
2023-01-28 10:10:13.548839,-0.031384086807920604
2023-01-28 10:10:13.553839,-0.02983431145548813
2023-01-28 10:10:13.558839,-0.027905551851088423
2023-01-28 10:10:13.563839,-0.025819540023803683
2023-01-28 10:10:13.568839,-0.024164711866410442
2023-01-28 10:10:13.573839,-0.023944377899169846
2023-01-28 10:10:13.578839,-0.02601704190685753
2023-01-28 10:10:13.583839,-0.030507445335388093
2023-01-28 10:10:13.588839,-0.03668346557002393
2023-01-28 10:10:13.593839,-0.04315277189016342
2023-01-28 10:10:13.598839,-0.048222944262024024
2023-01-28 10:10:13.603839,-0.05055725574493401
2023-01-28 10:10:13.608839,-0.04987955060528794
2023-01-28 10:10:13.613839,-0.047023296356201
2023-01-28 10:10:13.618839,-0.04317629192598229
2023-01-28 10:10:13.623839,-0.039065878838300656
2023-01-28 10:10:13.628839,-0.034698503876150484
2023-01-28 10:10:13.633839,-0.029521783813834124
2023-01-28 10:10:13.638839,-0.0227919635983224
2023-01-28 10:10:13.643839,-0.014232000336050928
2023-01-28 10:10:13.648839,-0.004731980969399854
2023-01-28 10:10:13.653839,0.0036301217041909127
2023-01-28 10:10:13.658839,0.008464547306129335
2023-01-28 10:10:13.663839,0.008149743080139117
2023-01-28 10:10:13.668839,0.002451577986439022
2023-01-28 10:10:13.673839,-0.007332365028560085
2023-01-28 10:10:13.678839,-0.01864928027202163
2023-01-28 10:10:13.683839,-0.028584202751517192
2023-01-28 10:10:13.688839,-0.03512829605744769
2023-01-28 10:10:13.693839,-0.03796001523733131
2023-01-28 10:10:13.698839,-0.03825127669438913
2023-01-28 10:10:13.703839,-0.03791193291544904
2023-01-28 10:10:13.708839,-0.038804911451860546
2023-01-28 10:10:13.713839,-0.04202286526560779
2023-01-28 10:10:13.718839,-0.0473693207409518
2023-01-28 10:10:13.723839,-0.05339404195547097
2023-01-28 10:10:13.728839,-0.05777789314723969
2023-01-28 10:10:13.733839,-0.057264566421508734
2023-01-28 10:10:13.738839,-0.04699301273020975
2023-01-28 10:10:13.743839,-0.02031425759196286
2023-01-28 10:10:13.748839,0.029778491128129577
2023-01-28 10:10:13.753839,0.10762950032949432
2023-01-28 10:10:13.758839,0.21131828378777603
2023-01-28 10:10:13.763839,0.3299804627895354
2023-01-28 10:10:13.768839,0.44395409889328885
2023-01-28 10:10:13.773839,0.5291563272476194
2023-01-28 10:10:13.778839,0.5648210469074901
2023-01-28 10:10:13.783839,0.5411525964736936
2023-01-28 10:10:13.788839,0.46312435574281596
2023-01-28 10:10:13.793839,0.34878015518188454
2023-01-28 10:10:13.798839,0.2229542892046812
2023-01-28 10:10:13.803839,0.10902385413646687
2023-01-28 10:10:13.808839,0.022105552332264057
2023-01-28 10:10:13.813839,-0.0334884747862814
2023-01-28 10:10:13.818839,-0.06213116294590293
2023-01-28 10:10:13.823839,-0.07233798503875734
2023-01-28 10:10:13.828839,-0.07261824026287364
2023-01-28 10:10:13.833839,-0.0691165551543235
2023-01-28 10:10:13.838839,-0.06505879507037773
2023-01-28 10:10:13.843839,-0.061519742012023856
2023-01-28 10:10:13.848839,-0.05869123168799346
2023-01-28 10:10:13.853839,-0.05663951486349098
2023-01-28 10:10:13.858839,-0.055243289820629794
2023-01-28 10:10:13.863839,-0.05401909351348869
2023-01-28 10:10:13.868839,-0.0524344872371469
2023-01-28 10:10:13.873839,-0.050340890884399414
2023-01-28 10:10:13.878839,-0.0479556167765039
2023-01-28 10:10:13.883839,-0.045556824654340626
2023-01-28 10:10:13.888839,-0.04332531907264933
2023-01-28 10:10:13.893839,-0.04127760976552962
2023-01-28 10:10:13.898839,-0.039129127470941015
2023-01-28 10:10:13.903839,-0.03637333959341035
2023-01-28 10:10:13.908839,-0.03275905311297105
2023-01-28 10:10:13.913839,-0.028656324371695442
2023-01-28 10:10:13.918839,-0.02479178028538112
2023-01-28 10:10:13.923839,-0.021660527214407796
2023-01-28 10:10:13.928839,-0.019237904543180244
2023-01-28 10:10:13.933839,-0.01702070236206051
2023-01-28 10:10:13.938839,-0.014096233081641344
2023-01-28 10:10:13.943839,-0.009327730163931808
2023-01-28 10:10:13.948839,-0.0018511265447665435
2023-01-28 10:10:13.953839,0.008462270721793137
2023-01-28 10:10:13.958839,0.021063459959076186
2023-01-28 10:10:13.963839,0.03512322902679438
2023-01-28 10:10:13.968839,0.04971966109174465
2023-01-28 10:10:13.973839,0.0638035982847213
2023-01-28 10:10:13.978839,0.07637581345231806
2023-01-28 10:10:13.983839,0.08688251674175258
2023-01-28 10:10:13.988839,0.09533747678965737
2023-01-28 10:10:13.993839,0.10200401395559305
2023-01-28 10:10:13.998839,0.10706484333647953
2023-01-28 10:10:14.003839,0.11061052978038777
2023-01-28 10:10:14.008839,0.11271722302240926
2023-01-28 10:10:14.013839,0.11327902972698203
2023-01-28 10:10:14.018839,0.1117330065344447
2023-01-28 10:10:14.023839,0.10712464898824682
2023-01-28 10:10:14.028839,0.09864653885818808
2023-01-28 10:10:14.033839,0.08623342216014852
2023-01-28 10:10:14.038839,0.07070052473218344
2023-01-28 10:10:14.043839,0.05339404195547095
2023-01-28 10:10:14.048839,0.03577165146163614
2023-01-28 10:10:14.053839,0.01918435096740711
2023-01-28 10:10:14.058839,0.004693770363330315
2023-01-28 10:10:14.063839,-0.007236202713102093
2023-01-28 10:10:14.068839,-0.016922491794285927
2023-01-28 10:10:14.073839,-0.02521852776408184
2023-01-28 10:10:14.078839,-0.03300953586904205
2023-01-28 10:10:14.083839,-0.040844880044460144
2023-01-28 10:10:14.088839,-0.04878088273005643
2023-01-28 10:10:14.093839,-0.05630294606089585
2023-01-28 10:10:14.098839,-0.06245380310600013
2023-01-28 10:10:14.103839,-0.06635189056396479
2023-01-28 10:10:14.108839,-0.06779788449191036
2023-01-28 10:10:14.113839,-0.06740967929363247
2023-01-28 10:10:14.118839,-0.06621337578106883
2023-01-28 10:10:14.123839,-0.06512582302093496
2023-01-28 10:10:14.128839,-0.06461812682785485
2023-01-28 10:10:14.133839,-0.06454885005950918
2023-01-28 10:10:14.138839,-0.06425571652108777
2023-01-28 10:10:14.143839,-0.06303429603576655
2023-01-28 10:10:14.148839,-0.06070946222845649
2023-01-28 10:10:14.153839,-0.05776941776275614
2023-01-28 10:10:14.158839,-0.05500135082241924
2023-01-28 10:10:14.163839,-0.053057473152875824
2023-01-28 10:10:14.168839,-0.05220602890249288
2023-01-28 10:10:14.173839,-0.052192013710737235
2023-01-28 10:10:14.178839,-0.0522569172834249
2023-01-28 10:10:14.183839,-0.05149483680725087
2023-01-28 10:10:14.188839,-0.04937613851552615
2023-01-28 10:10:14.193839,-0.04601359367370601
2023-01-28 10:10:14.198839,-0.04208513674512985
2023-01-28 10:10:14.203839,-0.03865718841552727
2023-01-28 10:10:14.208839,-0.036929420889207296
2023-01-28 10:10:14.213839,-0.037743650376796695
2023-01-28 10:10:14.218839,-0.041081919170379365
2023-01-28 10:10:14.223839,-0.046037636697292286
2023-01-28 10:10:14.228839,-0.05127861445979975
2023-01-28 10:10:14.233839,-0.055533647537231355
2023-01-28 10:10:14.238839,-0.05785815135265136
2023-01-28 10:10:14.243839,-0.05781750008463844
2023-01-28 10:10:14.248839,-0.055589652940664584
2023-01-28 10:10:14.253839,-0.051807366311550036
2023-01-28 10:10:14.258839,-0.047269379045390164
2023-01-28 10:10:14.263839,-0.04286428540945045
2023-01-28 10:10:14.268839,-0.039639775578758106
2023-01-28 10:10:14.273839,-0.03860910981893522
2023-01-28 10:10:14.278839,-0.04027432834867687
2023-01-28 10:10:14.283839,-0.044306717813014866
2023-01-28 10:10:14.288839,-0.04961455738041127
2023-01-28 10:10:14.293839,-0.054644148796796604
2023-01-28 10:10:14.298839,-0.0578417008118015
2023-01-28 10:10:14.303839,-0.05829831212759003
2023-01-28 10:10:14.308839,-0.05625147646667943
2023-01-28 10:10:14.313839,-0.05296131223440176
2023-01-28 10:10:14.318839,-0.050021760497429055
2023-01-28 10:10:14.323839,-0.048658054322004395
2023-01-28 10:10:14.328839,-0.04932073688708263
2023-01-28 10:10:14.333839,-0.051518879830837194
2023-01-28 10:10:14.338839,-0.05396682319550289
2023-01-28 10:10:14.343839,-0.05519708245992653
2023-01-28 10:10:14.348839,-0.05433691419769145
2023-01-28 10:10:14.353839,-0.05147079750895496
2023-01-28 10:10:14.358839,-0.04747195901666302
2023-01-28 10:10:14.363839,-0.04363358020782474
2023-01-28 10:10:14.368839,-0.041218969200948315
2023-01-28 10:10:14.373839,-0.04084488004446015
2023-01-28 10:10:14.378839,-0.0419853354046641
2023-01-28 10:10:14.383839,-0.04310468956828103
2023-01-28 10:10:14.388839,-0.042398612716292756
2023-01-28 10:10:14.393839,-0.03860910981893527
2023-01-28 10:10:14.398839,-0.031586956252125514
2023-01-28 10:10:14.403839,-0.022574067115783615
2023-01-28 10:10:14.408839,-0.013996542737495428
2023-01-28 10:10:14.413839,-0.008558432571589928
2023-01-28 10:10:14.418839,-0.00805536501101435
2023-01-28 10:10:14.423839,-0.012693405151367102
2023-01-28 10:10:14.428839,-0.021164818068834888
2023-01-28 10:10:14.433839,-0.031156539916992115
2023-01-28 10:10:14.438839,-0.04009506830402239
2023-01-28 10:10:14.443839,-0.04608571529388412
2023-01-28 10:10:14.448839,-0.048623886472281865
2023-01-28 10:10:14.453839,-0.04853785037994383
2023-01-28 10:10:14.458839,-0.04730465376656024
2023-01-28 10:10:14.463839,-0.0463982447981834
2023-01-28 10:10:14.468839,-0.04693365856846856
2023-01-28 10:10:14.473839,-0.04940330982208245
2023-01-28 10:10:14.478839,-0.05351020078879689
2023-01-28 10:10:14.483839,-0.05825022980570791
2023-01-28 10:10:14.488839,-0.06190942898085831
2023-01-28 10:10:14.493839,-0.06147166341543191
2023-01-28 10:10:14.498839,-0.051780673292373125
2023-01-28 10:10:14.503839,-0.025603175163268967
2023-01-28 10:10:14.508839,0.024620896675975945
2023-01-28 10:10:14.513839,0.10354261100292195
2023-01-28 10:10:14.518839,0.20912667117221742
2023-01-28 10:10:14.523839,0.329932391643524
2023-01-28 10:10:14.528839,0.4455343718130382
2023-01-28 10:10:14.533839,0.5312959551811216
2023-01-28 10:10:14.538839,0.5662361964764796
2023-01-28 10:10:14.543839,0.5405756235122677
2023-01-28 10:10:14.548839,0.4595391865933675
2023-01-28 10:10:14.553839,0.34176033735275246
2023-01-28 10:10:14.558839,0.21285340293115115
2023-01-28 10:10:14.563839,0.09678721427917472
2023-01-28 10:10:14.568839,0.008884768707553524
2023-01-28 10:10:14.573839,-0.046638648957013966
2023-01-28 10:10:14.578839,-0.07448755848751655
2023-01-28 10:10:14.583839,-0.08370916545391079
2023-01-28 10:10:14.588839,-0.08326255916326798
2023-01-28 10:10:14.593839,-0.0792616605758666
2023-01-28 10:10:14.598839,-0.07443667129798157
2023-01-28 10:10:14.603839,-0.06938099861145
2023-01-28 10:10:14.608839,-0.0641949023168086
2023-01-28 10:10:14.613839,-0.059235893189906866
2023-01-28 10:10:14.618839,-0.05496921423655076
2023-01-28 10:10:14.623839,-0.051735244691371876
2023-01-28 10:10:14.628839,-0.04972819771135107
2023-01-28 10:10:14.633839,-0.04889845848083484
2023-01-28 10:10:14.638839,-0.04883651975813016
2023-01-28 10:10:14.643839,-0.048970580101013066
2023-01-28 10:10:14.648839,-0.04886565133831368
2023-01-28 10:10:14.653839,-0.04815320298075676
2023-01-28 10:10:14.658839,-0.0463224825220442
2023-01-28 10:10:14.663839,-0.04296044632792471
2023-01-28 10:10:14.668839,-0.03822923536545604
2023-01-28 10:10:14.673839,-0.03283938020467754
2023-01-28 10:10:14.678839,-0.027549248977955073
2023-01-28 10:10:14.683839,-0.022910635918378733
2023-01-28 10:10:14.688839,-0.019351601723674238
2023-01-28 10:10:14.693839,-0.016996663063764454
2023-01-28 10:10:14.698839,-0.01522401930771388
2023-01-28 10:10:14.703839,-0.012717446312308268
2023-01-28 10:10:14.708839,-0.00819881307159441
2023-01-28 10:10:14.713839,-0.0010577838402239929
2023-01-28 10:10:14.718839,0.008658998257929316
2023-01-28 10:10:14.723839,0.020530622452497486
2023-01-28 10:10:14.728839,0.03388096411612898
2023-01-28 10:10:14.733839,0.0478647165000438
2023-01-28 10:10:14.738839,0.06169777696961995
2023-01-28 10:10:14.743839,0.07483820617198936
2023-01-28 10:10:14.748839,0.08695380727942173
2023-01-28 10:10:14.753839,0.09779691696166981
2023-01-28 10:10:14.758839,0.1070771940137771
2023-01-28 10:10:14.763839,0.11431276798248287
2023-01-28 10:10:14.768839,0.11879476467180268
2023-01-28 10:10:14.773839,0.11981805413961413
2023-01-28 10:10:14.778839,0.11699552010014092
2023-01-28 10:10:14.783839,0.11037012189626684
2023-01-28 10:10:14.788839,0.10036912651685055
2023-01-28 10:10:14.793839,0.08774797618389116
2023-01-28 10:10:14.798839,0.07340848962640029
2023-01-28 10:10:14.803839,0.05805790424346918
2023-01-28 10:10:14.808839,0.042084851072861015
2023-01-28 10:10:14.813839,0.02586762234568592
2023-01-28 10:10:14.818839,0.010081955917182762
2023-01-28 10:10:14.823839,-0.004423459526151419
2023-01-28 10:10:14.828839,-0.016942432265256088
2023-01-28 10:10:14.833839,-0.0270456075668334
2023-01-28 10:10:14.838839,-0.03467839867902228
2023-01-28 10:10:14.843839,-0.04036406800150867
2023-01-28 10:10:14.848839,-0.04512410358395431
2023-01-28 10:10:14.853839,-0.04990816116332996
2023-01-28 10:10:14.858839,-0.055101747044496406
2023-01-28 10:10:14.863839,-0.060606203973293235
2023-01-28 10:10:14.868839,-0.066127751738542
2023-01-28 10:10:14.873839,-0.07123212516307831
2023-01-28 10:10:14.878839,-0.07543311131424343
2023-01-28 10:10:14.883839,-0.07854044437408436
2023-01-28 10:10:14.888839,-0.08075983429600922
2023-01-28 10:10:14.893839,-0.08224269002676012
2023-01-28 10:10:14.898839,-0.08275079218992223
2023-01-28 10:10:14.903839,-0.08197824656963344
2023-01-28 10:10:14.908839,-0.07997942063393142
2023-01-28 10:10:14.913839,-0.07709801197052
2023-01-28 10:10:14.918839,-0.07378532516864439
2023-01-28 10:10:14.923839,-0.07072727382183071
2023-01-28 10:10:14.928839,-0.06877919121157001
2023-01-28 10:10:14.933839,-0.06837129592895504
2023-01-28 10:10:14.938839,-0.06916203212861338
2023-01-28 10:10:14.943839,-0.07053494453430169
2023-01-28 10:10:14.948839,-0.07218457112317979
2023-01-28 10:10:14.953839,-0.07399678230285642
2023-01-28 10:10:14.958839,-0.07574188750163593
2023-01-28 10:10:14.963839,-0.07724225521087642
2023-01-28 10:10:14.968839,-0.07851329725142511
2023-01-28 10:10:14.973839,-0.0793818682432174
2023-01-28 10:10:14.978839,-0.07929924017045682
2023-01-28 10:10:14.983839,-0.07791539281606671
2023-01-28 10:10:14.988839,-0.07553691505735881
2023-01-28 10:10:14.993839,-0.07267455756664273
2023-01-28 10:10:14.998839,-0.06948626761235432
2023-01-28 10:10:15.003839,-0.06601532548665998
2023-01-28 10:10:15.008839,-0.06257245919410263
2023-01-28 10:10:15.013839,-0.05947629734873766
2023-01-28 10:10:15.018839,-0.056825945354508176
2023-01-28 10:10:15.023839,-0.054956674575805546
2023-01-28 10:10:15.028839,-0.054660349136379405
2023-01-28 10:10:15.033839,-0.05639910697937015
2023-01-28 10:10:15.038839,-0.05960359847431906
2023-01-28 10:10:15.043839,-0.06315450370311726
2023-01-28 10:10:15.048839,-0.06616287555853435
2023-01-28 10:10:15.053839,-0.06793856620788566
2023-01-28 10:10:15.058839,-0.06785956057715092
2023-01-28 10:10:15.063839,-0.06596724689006796
2023-01-28 10:10:15.068839,-0.06327114998535945
2023-01-28 10:10:15.073839,-0.06084660813212383
2023-01-28 10:10:15.078839,-0.058980210642142344
2023-01-28 10:10:15.083839,-0.057625174522399916
2023-01-28 10:10:15.088839,-0.0570604974253294
2023-01-28 10:10:15.093839,-0.05743285268545145
2023-01-28 10:10:15.098839,-0.058197884873452115
2023-01-28 10:10:15.103839,-0.0587069988250732
2023-01-28 10:10:15.108839,-0.05883616656988099
2023-01-28 10:10:15.113839,-0.058418512344360234
2023-01-28 10:10:15.118839,-0.05674545943319584
2023-01-28 10:10:15.123839,-0.053466163575649144
2023-01-28 10:10:15.128839,-0.04942690894628981
2023-01-28 10:10:15.133839,-0.045821271836757486
2023-01-28 10:10:15.138839,-0.04303169190600763
2023-01-28 10:10:15.143839,-0.04094104096293442
2023-01-28 10:10:15.148839,-0.03952351743607002
2023-01-28 10:10:15.153839,-0.03817638009786599
2023-01-28 10:10:15.158839,-0.03530272259335459
2023-01-28 10:10:15.163839,-0.02978622913360589
2023-01-28 10:10:15.168839,-0.022458491278226186
2023-01-28 10:10:15.173839,-0.015313824638724275
2023-01-28 10:10:15.178839,-0.010050549279563887
2023-01-28 10:10:15.183839,-0.008197824470698738
2023-01-28 10:10:15.188839,-0.0113883925289231
2023-01-28 10:10:15.193839,-0.019881527870893412
2023-01-28 10:10:15.198839,-0.03146520490358006
2023-01-28 10:10:15.203839,-0.043152771890163324
2023-01-28 10:10:15.208839,-0.053324854092304856
2023-01-28 10:10:15.213839,-0.061231255531311014
2023-01-28 10:10:15.218839,-0.06580352303693705
2023-01-28 10:10:15.223839,-0.0667605847120285
2023-01-28 10:10:15.228839,-0.06583360685260958
2023-01-28 10:10:15.233839,-0.06500562280416489
2023-01-28 10:10:15.238839,-0.06439448451527252
2023-01-28 10:10:15.243839,-0.06341894716024395
2023-01-28 10:10:15.248839,-0.06235821919907566
2023-01-28 10:10:15.253839,-0.060053270310163574
2023-01-28 10:10:15.258839,-0.05095017294039792
2023-01-28 10:10:15.263839,-0.026901364326476985
2023-01-28 10:10:15.268839,0.018727863588362828
2023-01-28 10:10:15.273839,0.08993566036224362
2023-01-28 10:10:15.278839,0.18727560022221623
2023-01-28 10:10:15.283839,0.3026704192161559
2023-01-28 10:10:15.288839,0.4156814652425743
2023-01-28 10:10:15.293839,0.5002115368843076
2023-01-28 10:10:15.298839,0.5367298533780632
2023-01-28 10:10:15.303839,0.5172322392463683
2023-01-28 10:10:15.308839,0.44334089592326814
2023-01-28 10:10:15.313839,0.32817742228507973
2023-01-28 10:10:15.318839,0.19944914382141268
2023-01-28 10:10:15.323839,0.08943080902099594
2023-01-28 10:10:15.328839,0.01469104070031085
2023-01-28 10:10:15.333839,-0.0306997708976268
2023-01-28 10:10:15.338839,-0.05937241300086009
2023-01-28 10:10:15.343839,-0.07471799850463859
2023-01-28 10:10:15.348839,-0.07516952114862571
2023-01-28 10:10:15.353839,-0.06652017682790745
2023-01-28 10:10:15.358839,-0.060064799209261575
2023-01-28 10:10:15.363839,-0.06048600003123276
2023-01-28 10:10:15.368839,-0.06364510566474443
2023-01-28 10:10:15.373839,-0.06589512526988975
2023-01-28 10:10:15.378839,-0.06837572379424725
2023-01-28 10:10:15.383839,-0.07156869024038319
2023-01-28 10:10:15.388839,-0.07248578071304375
2023-01-28 10:10:15.393839,-0.06959736347198484
2023-01-28 10:10:15.398839,-0.06567695470204372
2023-01-28 10:10:15.403839,-0.06351511180400837
2023-01-28 10:10:15.408839,-0.06261369877913127
2023-01-28 10:10:15.413839,-0.06190439313650127
2023-01-28 10:10:15.418839,-0.06207728637225231
2023-01-28 10:10:15.423839,-0.06315450370311733
2023-01-28 10:10:15.428839,-0.06285785592814135
2023-01-28 10:10:15.433839,-0.05954841896891586
2023-01-28 10:10:15.438839,-0.0544295014796339
2023-01-28 10:10:15.443839,-0.04913886636495586
2023-01-28 10:10:15.448839,-0.04341873822232049
2023-01-28 10:10:15.453839,-0.03673394769430164
2023-01-28 10:10:15.458839,-0.029954236303872513
2023-01-28 10:10:15.463839,-0.023703973740339206
2023-01-28 10:10:15.468839,-0.01693893432506428
2023-01-28 10:10:15.473839,-0.008798837661743107
2023-01-28 10:10:15.478839,-0.00023845495118476377
2023-01-28 10:10:15.483839,0.007620851509273033
2023-01-28 10:10:15.488839,0.015189465318848646
2023-01-28 10:10:15.493839,0.023102959617972308
2023-01-28 10:10:15.498839,0.030739981270376904
2023-01-28 10:10:15.503839,0.03740708157420153
2023-01-28 10:10:15.508839,0.04361060757480254
2023-01-28 10:10:15.513839,0.04981200024485575
2023-01-28 10:10:15.518839,0.05515787284164435
2023-01-28 10:10:15.523839,0.05868295952677715
2023-01-28 10:10:15.528839,0.06060472243348426
2023-01-28 10:10:15.533839,0.06127933785319311
2023-01-28 10:10:15.538839,0.06005332234715079
2023-01-28 10:10:15.543839,0.056326985359191735
2023-01-28 10:10:15.548839,0.05067059889932804
2023-01-28 10:10:15.553839,0.0437297448515892
2023-01-28 10:10:15.558839,0.03500242481780379
2023-01-28 10:10:15.563839,0.023776095360517502
2023-01-28 10:10:15.568839,0.010360881678338254
2023-01-28 10:10:15.573839,-0.00454366207122797
2023-01-28 10:10:15.578839,-0.020658888636108534
2023-01-28 10:10:15.583839,-0.03723879903554903
2023-01-28 10:10:15.588839,-0.05233110642981228
2023-01-28 10:10:15.593839,-0.06409208476543422
2023-01-28 10:10:15.598839,-0.0722335530467944
2023-01-28 10:10:15.603839,-0.07743458449840535
2023-01-28 10:10:15.608839,-0.08024759107331478
2023-01-28 10:10:15.613839,-0.08144935220479947
2023-01-28 10:10:15.618839,-0.08245411377759163
2023-01-28 10:10:15.623839,-0.08418997377157197
2023-01-28 10:10:15.628839,-0.08612604801657771
2023-01-28 10:10:15.633839,-0.08721908181905727
2023-01-28 10:10:15.638839,-0.08711695636929877
2023-01-28 10:10:15.643839,-0.08570452779531464
2023-01-28 10:10:15.648839,-0.08241325654234795
2023-01-28 10:10:15.653839,-0.077049933373928
2023-01-28 10:10:15.658839,-0.07069684753590383
2023-01-28 10:10:15.663839,-0.06490945816040022
2023-01-28 10:10:15.668839,-0.060589438199850375
2023-01-28 10:10:15.673839,-0.058298312127590055
2023-01-28 10:10:15.678839,-0.05876556075805201
2023-01-28 10:10:15.683839,-0.06202459335327133
2023-01-28 10:10:15.688839,-0.06660601336774634
2023-01-28 10:10:15.693839,-0.07051090896129597
2023-01-28 10:10:15.698839,-0.07259830234432713
2023-01-28 10:10:15.703839,-0.07250627130269999
2023-01-28 10:10:15.708839,-0.07010432986545329
2023-01-28 10:10:15.713839,-0.06599128246307376
2023-01-28 10:10:15.718839,-0.061876866070746606
2023-01-28 10:10:15.723839,-0.059404175728559314
2023-01-28 10:10:15.728839,-0.05883180098216504
2023-01-28 10:10:15.733839,-0.05940417572855913
2023-01-28 10:10:15.738839,-0.060366175573670695
2023-01-28 10:10:15.743839,-0.06094276905059797
2023-01-28 10:10:15.748839,-0.06013972092905966
2023-01-28 10:10:15.753839,-0.05762517452239998
2023-01-28 10:10:15.758839,-0.05441425818575427
2023-01-28 10:10:15.763839,-0.05187948793172831
2023-01-28 10:10:15.768839,-0.050460292784439406
2023-01-28 10:10:15.773839,-0.04990816116333002
2023-01-28 10:10:15.778839,-0.050100762891383294
2023-01-28 10:10:15.783839,-0.050797663629054995
2023-01-28 10:10:15.788839,-0.05122558115933103
2023-01-28 10:10:15.793839,-0.05084574222564684
2023-01-28 10:10:15.798839,-0.05011606664658986
2023-01-28 10:10:15.803839,-0.04973987862467754
2023-01-28 10:10:15.808839,-0.04966311532940048
2023-01-28 10:10:15.813839,-0.04954755306243881
2023-01-28 10:10:15.818839,-0.049619311989782526
2023-01-28 10:10:15.823839,-0.05017260834574686
2023-01-28 10:10:15.828839,-0.05077320047760254
2023-01-28 10:10:15.833839,-0.050845742225646876
2023-01-28 10:10:15.838839,-0.050552199480686906
2023-01-28 10:10:15.843839,-0.05022069066762915
2023-01-28 10:10:15.848839,-0.04945193704840526
2023-01-28 10:10:15.853839,-0.047744512557983204
2023-01-28 10:10:15.858839,-0.04549757482698517
2023-01-28 10:10:15.863839,-0.043417215347289935
2023-01-28 10:10:15.868839,-0.0414591216960529
2023-01-28 10:10:15.873839,-0.03942648693919177
2023-01-28 10:10:15.878839,-0.038061943992832414
2023-01-28 10:10:15.883839,-0.0382485017180442
2023-01-28 10:10:15.888839,-0.03947038139776975
2023-01-28 10:10:15.893839,-0.04038810729980464
2023-01-28 10:10:15.898839,-0.0406598529440025
2023-01-28 10:10:15.903839,-0.04067659378051742
2023-01-28 10:10:15.908839,-0.03954092311544141
2023-01-28 10:10:15.913839,-0.03509918972849836
2023-01-28 10:10:15.918839,-0.026701437689447664
2023-01-28 10:10:15.923839,-0.01670817658305148
2023-01-28 10:10:15.928839,-0.008444704279594309
2023-01-28 10:10:15.933839,-0.00350991892628367
2023-01-28 10:10:15.938839,-0.0017839596039982031
2023-01-28 10:10:15.943839,-0.003125270362943425
2023-01-28 10:10:15.948839,-0.007780243460681035
2023-01-28 10:10:15.953839,-0.015241703018546056
2023-01-28 10:10:15.958839,-0.023737825534161074
2023-01-28 10:10:15.963839,-0.031348865479230735
2023-01-28 10:10:15.968839,-0.03737804356649912
2023-01-28 10:10:15.973839,-0.04235943406820284
2023-01-28 10:10:15.978839,-0.04683962737609831
2023-01-28 10:10:15.983839,-0.050509177148342146
2023-01-28 10:10:15.988839,-0.0527570975047693
2023-01-28 10:10:15.993839,-0.05382677167654024
2023-01-28 10:10:15.998839,-0.05483868129970055
2023-01-28 10:10:16.003839,-0.05639910697937017
2023-01-28 10:10:16.008839,-0.05732770079588662
2023-01-28 10:10:16.013839,-0.05449990555644034
2023-01-28 10:10:16.018839,-0.04304199880128046
2023-01-28 10:10:16.023839,-0.016371607780456533
2023-01-28 10:10:16.028839,0.03263128535555144
2023-01-28 10:10:16.033839,0.10830263793468464
2023-01-28 10:10:16.038839,0.20826169004541653
2023-01-28 10:10:16.043839,0.32151818275451644
2023-01-28 10:10:16.048839,0.4296772477884427
2023-01-28 10:10:16.053839,0.5108615159988401
2023-01-28 10:10:16.058839,0.5458570352971401
2023-01-28 10:10:16.063839,0.5249973535537716
2023-01-28 10:10:16.068839,0.45237043047140013
2023-01-28 10:10:16.073839,0.34447690844535817
2023-01-28 10:10:16.078839,0.22414561622237025
2023-01-28 10:10:16.083839,0.11323094367980942
2023-01-28 10:10:16.088839,0.026951875686797872
2023-01-28 10:10:16.093839,-0.02889673039317125
2023-01-28 10:10:16.098839,-0.05723891625489256
2023-01-28 10:10:16.103839,-0.06596724689006805
2023-01-28 10:10:16.108839,-0.06356139990280689
2023-01-28 10:10:16.113839,-0.05663951486349094
2023-01-28 10:10:16.118839,-0.049582382563533846
2023-01-28 10:10:16.123839,-0.04471540451049812
2023-01-28 10:10:16.128839,-0.04249981112600445
2023-01-28 10:10:16.133839,-0.04221519082784647
2023-01-28 10:10:16.138839,-0.0428625584082624
2023-01-28 10:10:16.143839,-0.04348933696746824
2023-01-28 10:10:16.148839,-0.043182817494785725
2023-01-28 10:10:16.153839,-0.041493974626064245
2023-01-28 10:10:16.158839,-0.038891615868112454
2023-01-28 10:10:16.163839,-0.036325257271528126
2023-01-28 10:10:16.168839,-0.03430536957587185
2023-01-28 10:10:16.173839,-0.03267109394073483
2023-01-28 10:10:16.178839,-0.031009784259070725
2023-01-28 10:10:16.183839,-0.028824608772992984
2023-01-28 10:10:16.188839,-0.025482524868702786
2023-01-28 10:10:16.193839,-0.020602744072675646
2023-01-28 10:10:16.198839,-0.014541186849499685
2023-01-28 10:10:16.203839,-0.008101662620901938
2023-01-28 10:10:16.208839,-0.0017933819740870546
2023-01-28 10:10:16.213839,0.004351337905973167
2023-01-28 10:10:16.218839,0.010487013806564457
2023-01-28 10:10:16.223839,0.016996663063764565
2023-01-28 10:10:16.228839,0.024674716423695797
2023-01-28 10:10:16.233839,0.03428181260824191
2023-01-28 10:10:16.238839,0.04581589724171
2023-01-28 10:10:16.243839,0.058490633964538546
2023-01-28 10:10:16.248839,0.07128536535681729
2023-01-28 10:10:16.253839,0.08318027108907688
2023-01-28 10:10:16.258839,0.09315570859463289
2023-01-28 10:10:16.263839,0.10063370317220677
2023-01-28 10:10:16.268839,0.10599827338876844
2023-01-28 10:10:16.273839,0.1102739572525024
2023-01-28 10:10:16.278839,0.11424363493636565
2023-01-28 10:10:16.283839,0.11806309223175034
2023-01-28 10:10:16.288839,0.12139902559588019
2023-01-28 10:10:16.293839,0.1233760565519331
2023-01-28 10:10:16.298839,0.12253089293240776
2023-01-28 10:10:16.303839,0.11748611927032462
2023-01-28 10:10:16.308839,0.10789340004342844
2023-01-28 10:10:16.313839,0.09452740848064413
2023-01-28 10:10:16.318839,0.07862364946928732
2023-01-28 10:10:16.323839,0.0614716634154319
2023-01-28 10:10:16.328839,0.044366284901075005
2023-01-28 10:10:16.333839,0.028271675109863243
2023-01-28 10:10:16.338839,0.01341950448325015
2023-01-28 10:10:16.343839,-0.0003846486506516745
2023-01-28 10:10:16.348839,-0.013063075350938959
2023-01-28 10:10:16.353839,-0.024184783920645637
2023-01-28 10:10:16.358839,-0.03341672914750688
2023-01-28 10:10:16.363839,-0.040604472160339314
2023-01-28 10:10:16.368839,-0.045515895303036784
2023-01-28 10:10:16.373839,-0.04800895974040024
2023-01-28 10:10:16.378839,-0.04845605819828009
2023-01-28 10:10:16.383839,-0.047600269317626884
2023-01-28 10:10:16.388839,-0.046021478909909035
2023-01-28 10:10:16.393839,-0.044090352952480295
2023-01-28 10:10:16.398839,-0.0422940845805782
2023-01-28 10:10:16.403839,-0.04110932350158687
2023-01-28 10:10:16.408839,-0.04057892961630751
2023-01-28 10:10:16.413839,-0.04043618962168682
2023-01-28 10:10:16.418839,-0.04060440389931663
2023-01-28 10:10:16.423839,-0.04118144512176508
2023-01-28 10:10:16.428839,-0.042028184002590764
2023-01-28 10:10:16.433839,-0.04281620308756823
2023-01-28 10:10:16.438839,-0.04340962481809984
2023-01-28 10:10:16.443839,-0.043753784149885136
2023-01-28 10:10:16.448839,-0.043458581681120205
2023-01-28 10:10:16.453839,-0.04197478294372547
2023-01-28 10:10:16.458839,-0.03920501294556306
2023-01-28 10:10:16.463839,-0.0356040410697459
2023-01-28 10:10:16.468839,-0.0318075876998706
2023-01-28 10:10:16.473839,-0.028584202751517247
2023-01-28 10:10:16.478839,-0.026960105449043016
2023-01-28 10:10:16.483839,-0.027742784470319762
2023-01-28 10:10:16.488839,-0.030788268026098856
2023-01-28 10:10:16.493839,-0.03507515043020244
2023-01-28 10:10:16.498839,-0.039452724686644736
2023-01-28 10:10:16.503839,-0.04300852864980687
2023-01-28 10:10:16.508839,-0.044994731188602435
2023-01-28 10:10:16.513839,-0.045076012611389084
2023-01-28 10:10:16.518839,-0.04370894944856292
2023-01-28 10:10:16.523839,-0.04180650040507305
2023-01-28 10:10:16.528839,-0.03999392071396675
2023-01-28 10:10:16.533839,-0.03851294517517076
2023-01-28 10:10:16.538839,-0.03762089376409889
2023-01-28 10:10:16.543839,-0.03747920319437982
2023-01-28 10:10:16.548839,-0.037697744084182645
2023-01-28 10:10:16.553839,-0.03755132481455801
2023-01-28 10:10:16.558839,-0.03668273354469358
2023-01-28 10:10:16.563839,-0.035219393670558874
2023-01-28 10:10:16.568839,-0.03341159028168549
2023-01-28 10:10:16.573839,-0.03173351287841789
2023-01-28 10:10:16.578839,-0.031149961063937012
2023-01-28 10:10:16.583839,-0.03252685070037837
2023-01-28 10:10:16.588839,-0.035699000134622974
2023-01-28 10:10:16.593839,-0.03961881250143047
2023-01-28 10:10:16.598839,-0.04330763506166695
2023-01-28 10:10:16.603839,-0.0461097583174704
2023-01-28 10:10:16.608839,-0.04732741100113518
2023-01-28 10:10:16.613839,-0.04654248803853979
2023-01-28 10:10:16.618839,-0.04427160383262746
2023-01-28 10:10:16.623839,-0.041397809982299645
2023-01-28 10:10:16.628839,-0.0379069143085238
2023-01-28 10:10:16.633839,-0.033103823661804
2023-01-28 10:10:16.638839,-0.027127919617588276
2023-01-28 10:10:16.643839,-0.021131634712219134
2023-01-28 10:10:16.648839,-0.015637617768871487
2023-01-28 10:10:16.653839,-0.009856621734797878
2023-01-28 10:10:16.658839,-0.0032763865179642076
2023-01-28 10:10:16.663839,0.0029810271225868897
2023-01-28 10:10:16.668839,0.0071293804103200195
2023-01-28 10:10:16.673839,0.00834206771105509
2023-01-28 10:10:16.678839,0.0067096998601658886
2023-01-28 10:10:16.683839,0.002307891845703068
2023-01-28 10:10:16.688839,-0.004695357158302353
2023-01-28 10:10:16.693839,-0.013294419273733992
2023-01-28 10:10:16.698839,-0.02186143443848857
2023-01-28 10:10:16.703839,-0.029113095253705853
2023-01-28 10:10:16.708839,-0.03446776583477836
2023-01-28 10:10:16.713839,-0.03776768967509262
2023-01-28 10:10:16.718839,-0.03926738628616069
2023-01-28 10:10:16.723839,-0.03976305574178692
2023-01-28 10:10:16.728839,-0.04016744400371868
2023-01-28 10:10:16.733839,-0.040868919342756146
2023-01-28 10:10:16.738839,-0.04160712197780896
2023-01-28 10:10:16.743839,-0.041469931602477965
2023-01-28 10:10:16.748839,-0.038241095123730945
2023-01-28 10:10:16.753839,-0.02759854122996329
2023-01-28 10:10:16.758839,-0.0033950999919659304
2023-01-28 10:10:16.763839,0.04062851518392559
2023-01-28 10:10:16.768839,0.10818971793094172
2023-01-28 10:10:16.773839,0.19742092490196217
2023-01-28 10:10:16.778839,0.2985526451513565
2023-01-28 10:10:16.783839,0.3943369984626769
2023-01-28 10:10:16.788839,0.4643606424407337
2023-01-28 10:10:16.793839,0.4917492568492888
2023-01-28 10:10:16.798839,0.469106920612411
2023-01-28 10:10:16.803839,0.40121257305145247
2023-01-28 10:10:16.808839,0.3035245764022495
2023-01-28 10:10:16.813839,0.19689202308654774
2023-01-28 10:10:16.818839,0.10052267840558765
2023-01-28 10:10:16.823839,0.02651671692728995
2023-01-28 10:10:16.828839,-0.021699621541525344
2023-01-28 10:10:16.833839,-0.047431986778974436
2023-01-28 10:10:16.838839,-0.05733114379777997
2023-01-28 10:10:16.843839,-0.05822619050741186
2023-01-28 10:10:16.848839,-0.05504004015237227
2023-01-28 10:10:16.853839,-0.05031685158610336
2023-01-28 10:10:16.858839,-0.04514059070741009
2023-01-28 10:10:16.863839,-0.04021982476115218
2023-01-28 10:10:16.868839,-0.036155404152376544
2023-01-28 10:10:16.873839,-0.03319998830556854
2023-01-28 10:10:16.878839,-0.031225773312191108
2023-01-28 10:10:16.883839,-0.029858350753784027
2023-01-28 10:10:16.888839,-0.02848575453555414
2023-01-28 10:10:16.893839,-0.026420554146170654
2023-01-28 10:10:16.898839,-0.023422339610619927
2023-01-28 10:10:16.903839,-0.020001729950308668
2023-01-28 10:10:16.908839,-0.016997965477546225
2023-01-28 10:10:16.913839,-0.014905135147273473
2023-01-28 10:10:16.918839,-0.013626417986651044
2023-01-28 10:10:16.923839,-0.012549161911010704
2023-01-28 10:10:16.928839,-0.010624972523242454
2023-01-28 10:10:16.933839,-0.006707310676574683
2023-01-28 10:10:16.938839,-0.0002866149766014126
2023-01-28 10:10:16.943839,0.008053581230342352
2023-01-28 10:10:16.948839,0.01704976978205721
2023-01-28 10:10:16.953839,0.025579135864972992
2023-01-28 10:10:16.958839,0.03312960573238695
2023-01-28 10:10:16.963839,0.039907298982143416
2023-01-28 10:10:16.968839,0.04683075183442289
2023-01-28 10:10:16.973839,0.05517303943634024
2023-01-28 10:10:16.978839,0.06574205909841241
2023-01-28 10:10:16.983839,0.07827600091695779
2023-01-28 10:10:16.988839,0.09165650755252293
2023-01-28 10:10:16.993839,0.10455231368541702
2023-01-28 10:10:16.998839,0.11583723870098159
2023-01-28 10:10:17.003839,0.12481848895549763
2023-01-28 10:10:17.008839,0.1314842626668515
2023-01-28 10:10:17.013839,0.13643006980419153
2023-01-28 10:10:17.018839,0.1402347050832984
2023-01-28 10:10:17.023839,0.142872929573059
2023-01-28 10:10:17.028839,0.14375885265278832
2023-01-28 10:10:17.033839,0.142127677798271
2023-01-28 10:10:17.038839,0.13725158576360824
2023-01-28 10:10:17.043839,0.12864093482494354
2023-01-28 10:10:17.048839,0.11644381574349874
2023-01-28 10:10:17.053839,0.10159532725810995
2023-01-28 10:10:17.058839,0.08534396547232828
2023-01-28 10:10:17.063839,0.06865978240966793
2023-01-28 10:10:17.068839,0.052132395999566206
2023-01-28 10:10:17.073839,0.03613293170928952
2023-01-28 10:10:17.078839,0.020802302035914304
2023-01-28 10:10:17.083839,0.006082256790250437
2023-01-28 10:10:17.088839,-0.007924842923772834
2023-01-28 10:10:17.093839,-0.020674865692853837
2023-01-28 10:10:17.098839,-0.03139684507716914
2023-01-28 10:10:17.103839,-0.03942648693919181
2023-01-28 10:10:17.108839,-0.0441980285205594
2023-01-28 10:10:17.113839,-0.04522025585174555
2023-01-28 10:10:17.118839,-0.042462028656233115
2023-01-28 10:10:17.123839,-0.036757986992597524
2023-01-28 10:10:17.128839,-0.029661302568914374
2023-01-28 10:10:17.133839,-0.022934675216674805
2023-01-28 10:10:17.138839,-0.018143334812146864
2023-01-28 10:10:17.143839,-0.016275446861982294
2023-01-28 10:10:17.148839,-0.017272136112764954
2023-01-28 10:10:17.153839,-0.019953649491071746
2023-01-28 10:10:17.158839,-0.02270188652728959
2023-01-28 10:10:17.163839,-0.024329027161002124
2023-01-28 10:10:17.168839,-0.02438960959218257
2023-01-28 10:10:17.173839,-0.023030837997794065
2023-01-28 10:10:17.178839,-0.02082036497228434
2023-01-28 10:10:17.183839,-0.018487175926566048
2023-01-28 10:10:17.188839,-0.016454845947301303
2023-01-28 10:10:17.193839,-0.014616648666560554
2023-01-28 10:10:17.198839,-0.012683790450360485
2023-01-28 10:10:17.203839,-0.010601878166198602
2023-01-28 10:10:17.208839,-0.008487086932259648
2023-01-28 10:10:17.213839,-0.006394783966243173
2023-01-28 10:10:17.218839,-0.00441421195843751
2023-01-28 10:10:17.223839,-0.0028367838822305107
2023-01-28 10:10:17.228839,-0.0019864157726233126
2023-01-28 10:10:17.233839,-0.0019953649025410305
2023-01-28 10:10:17.238839,-0.002910022959148667
2023-01-28 10:10:17.243839,-0.004808108322322318
2023-01-28 10:10:17.248839,-0.007561854673770284
2023-01-28 10:10:17.253839,-0.010649959556758404
2023-01-28 10:10:17.258839,-0.013466860621038843
2023-01-28 10:10:17.263839,-0.0157225131988525
2023-01-28 10:10:17.268839,-0.0173778972355396
2023-01-28 10:10:17.273839,-0.018391013145446698
2023-01-28 10:10:17.278839,-0.018766345325966934
2023-01-28 10:10:17.283839,-0.018679499626159585
2023-01-28 10:10:17.288839,-0.01829834235468947
2023-01-28 10:10:17.293839,-0.017621716484427417
2023-01-28 10:10:17.298839,-0.016709602787856923
2023-01-28 10:10:17.303839,-0.01589079760015007
2023-01-28 10:10:17.308839,-0.015493646942128729
2023-01-28 10:10:17.313839,-0.015530189499258823
2023-01-28 10:10:17.318839,-0.015869152924892244
2023-01-28 10:10:17.323839,-0.01651585102081282
2023-01-28 10:10:17.328839,-0.01745363048344552
2023-01-28 10:10:17.333839,-0.0184150543063879
2023-01-28 10:10:17.338839,-0.019125976417747097
2023-01-28 10:10:17.343839,-0.019617080688476524
2023-01-28 10:10:17.348839,-0.019999610645205723
2023-01-28 10:10:17.353839,-0.02012193202972411
2023-01-28 10:10:17.358839,-0.019801225044338743
2023-01-28 10:10:17.363839,-0.019232433289289388
2023-01-28 10:10:17.368839,-0.01873031427572674
2023-01-28 10:10:17.373839,-0.018054446205496708
2023-01-28 10:10:17.378839,-0.016284076744624773
2023-01-28 10:10:17.383839,-0.012380878441035671
2023-01-28 10:10:17.388839,-0.005783843189601749
2023-01-28 10:10:17.393839,0.0031973919831215386
2023-01-28 10:10:17.398839,0.013035562034638473
2023-01-28 10:10:17.403839,0.021059513092040974
2023-01-28 10:10:17.408839,0.024464276464373005
2023-01-28 10:10:17.413839,0.02175668999552722
2023-01-28 10:10:17.418839,0.013484696319578958
2023-01-28 10:10:17.423839,0.0018751621246337392
2023-01-28 10:10:17.428839,-0.010091884994865876
2023-01-28 10:10:17.433839,-0.01976132392883295
2023-01-28 10:10:17.438839,-0.02585576073122993
2023-01-28 10:10:17.443839,-0.028944810852408357
2023-01-28 10:10:17.448839,-0.030806984811503194
2023-01-28 10:10:17.453839,-0.03315190598368637
2023-01-28 10:10:17.458839,-0.036752749636921746
2023-01-28 10:10:17.463839,-0.041349731385707716
2023-01-28 10:10:17.468839,-0.04591309400051776
2023-01-28 10:10:17.473839,-0.04894654080271711
2023-01-28 10:10:17.478839,-0.04866448009708841
2023-01-28 10:10:17.483839,-0.04262387752532943
2023-01-28 10:10:17.488839,-0.026764740126047692
2023-01-28 10:10:17.493839,0.005000432487577162
2023-01-28 10:10:17.498839,0.059222135380796154
2023-01-28 10:10:17.503839,0.13941109180450428
2023-01-28 10:10:17.508839,0.242268853313322
2023-01-28 10:10:17.513839,0.3556557595729826
2023-01-28 10:10:17.518839,0.45976502368906325
2023-01-28 10:10:17.523839,0.5320652723312375
2023-01-28 10:10:17.528839,0.5547811427161597
2023-01-28 10:10:17.533839,0.521583557128906
2023-01-28 10:10:17.538839,0.4399879054437282
2023-01-28 10:10:17.543839,0.3284178376197812
2023-01-28 10:10:17.548839,0.20972684121649066
2023-01-28 10:10:17.553839,0.10407149791717514
2023-01-28 10:10:17.558839,0.02373671920738037
2023-01-28 10:10:17.563839,-0.028343796730041528
2023-01-28 10:10:17.568839,-0.056307775026257466
2023-01-28 10:10:17.573839,-0.06731351464986798
2023-01-28 10:10:17.578839,-0.06824748375901357
2023-01-28 10:10:17.583839,-0.0642122849822044
2023-01-28 10:10:17.588839,-0.058276183401503895
2023-01-28 10:10:17.593839,-0.05187948793172829
2023-01-28 10:10:17.598839,-0.04564687965229898
2023-01-28 10:10:17.603839,-0.04009962081909159
2023-01-28 10:10:17.608839,-0.035728327005605486
2023-01-28 10:10:17.613839,-0.032671093940734745
2023-01-28 10:10:17.618839,-0.030661040451091987
2023-01-28 10:10:17.623839,-0.02925733849406236
2023-01-28 10:10:17.628839,-0.027906418013311028
2023-01-28 10:10:17.633839,-0.025915702804923037
2023-01-28 10:10:17.638839,-0.022776150160209938
2023-01-28 10:10:17.643839,-0.01863141916692248
2023-01-28 10:10:17.648839,-0.014257588226565943
2023-01-28 10:10:17.653839,-0.010553797706961679
2023-01-28 10:10:17.658839,-0.00810813679729199
2023-01-28 10:10:17.663839,-0.006995797157287446
2023-01-28 10:10:17.668839,-0.006593162924215751
2023-01-28 10:10:17.673839,-0.0056014461442827415
2023-01-28 10:10:17.678839,-0.00262779965200779
2023-01-28 10:10:17.683839,0.0030531487427651882
2023-01-28 10:10:17.688839,0.0113003118924366
2023-01-28 10:10:17.693839,0.021468203514814252
2023-01-28 10:10:17.698839,0.03274007625500717
2023-01-28 10:10:17.703839,0.04430671781301497
2023-01-28 10:10:17.708839,0.05567262268386823
2023-01-28 10:10:17.713839,0.0669048279523849
2023-01-28 10:10:17.718839,0.07838785101212081
2023-01-28 10:10:17.723839,0.09032031148672104
2023-01-28 10:10:17.728839,0.1025689813448142
2023-01-28 10:10:17.733839,0.11481761932373037
2023-01-28 10:10:17.738839,0.12648428099220896
2023-01-28 10:10:17.743839,0.13650219142436973
2023-01-28 10:10:17.748839,0.1435260499415314
2023-01-28 10:10:17.753839,0.14650306105613697
2023-01-28 10:10:17.758839,0.14500593733523084
2023-01-28 10:10:17.763839,0.13921877741813649
2023-01-28 10:10:17.768839,0.1299269778238491
2023-01-28 10:10:17.773839,0.11842370033264156
2023-01-28 10:10:17.778839,0.10597792841506866
2023-01-28 10:10:17.783839,0.09318113327026362
2023-01-28 10:10:17.788839,0.07989044055301213
2023-01-28 10:10:17.793839,0.06575088202953311
2023-01-28 10:10:17.798839,0.05063541749912571
2023-01-28 10:10:17.803839,0.034786663949489434
2023-01-28 10:10:17.808839,0.018924443299941248
2023-01-28 10:10:17.813839,0.004207094665616666
2023-01-28 10:10:17.818839,-0.008278873533224582
2023-01-28 10:10:17.823839,-0.018150608986616107
2023-01-28 10:10:17.828839,-0.025774452384895064
2023-01-28 10:10:17.833839,-0.03178159520030028
2023-01-28 10:10:17.838839,-0.036711141613805086
2023-01-28 10:10:17.843839,-0.04091700166463851
2023-01-28 10:10:17.848839,-0.044397358894869766
2023-01-28 10:10:17.853839,-0.046686731278896255
2023-01-28 10:10:17.858839,-0.04724844321508332
2023-01-28 10:10:17.863839,-0.04608571529388416
2023-01-28 10:10:17.868839,-0.043824455224776786
2023-01-28 10:10:17.873839,-0.04125356674194317
2023-01-28 10:10:17.878839,-0.038968430209155094
2023-01-28 10:10:17.883839,-0.0372868776321411
2023-01-28 10:10:17.888839,-0.036108111552730617
2023-01-28 10:10:17.893839,-0.034834742546081425
2023-01-28 10:10:17.898839,-0.032783124511480556
2023-01-28 10:10:17.903839,-0.029810270294546953
2023-01-28 10:10:17.908839,-0.026422046357226083
2023-01-28 10:10:17.913839,-0.023343365639448103
2023-01-28 10:10:17.918839,-0.02117829766142107
2023-01-28 10:10:17.923839,-0.020314257591962773
2023-01-28 10:10:17.928839,-0.020736882512173566
2023-01-28 10:10:17.933839,-0.021876892074942436
2023-01-28 10:10:17.938839,-0.022919369564622986
2023-01-28 10:10:17.943839,-0.02334336563944804
2023-01-28 10:10:17.948839,-0.02304597363045781
2023-01-28 10:10:17.953839,-0.022093256935477167
2023-01-28 10:10:17.958839,-0.020649946848780805
2023-01-28 10:10:17.963839,-0.019064148887991773
2023-01-28 10:10:17.968839,-0.017671973241120704
2023-01-28 10:10:17.973839,-0.01649181172251692
2023-01-28 10:10:17.978839,-0.01531681797254303
2023-01-28 10:10:17.983839,-0.014015635475516243
2023-01-28 10:10:17.988839,-0.012510762803613488
2023-01-28 10:10:17.993839,-0.010649959556758385
2023-01-28 10:10:17.998839,-0.00847239197102967
2023-01-28 10:10:18.003839,-0.006490945816039991
2023-01-28 10:10:18.008839,-0.005339701260264505
2023-01-28 10:10:18.013839,-0.005240838043391643
2023-01-28 10:10:18.018839,-0.006165217715878834
2023-01-28 10:10:18.023839,-0.008293986320495607
2023-01-28 10:10:18.028839,-0.011736611611123045
2023-01-28 10:10:18.033839,-0.01581867597997183
2023-01-28 10:10:18.038839,-0.019230988091438122
2023-01-28 10:10:18.043839,-0.02103547379374499
2023-01-28 10:10:18.048839,-0.021170618606016503
2023-01-28 10:10:18.053839,-0.020025771111249924
2023-01-28 10:10:18.058839,-0.018078590704753244
2023-01-28 10:10:18.063839,-0.016035040840506564
2023-01-28 10:10:18.068839,-0.01472045705177466
2023-01-28 10:10:18.073839,-0.014496445655822768
2023-01-28 10:10:18.078839,-0.015081197531387123
2023-01-28 10:10:18.083839,-0.01608312129974364
2023-01-28 10:10:18.088839,-0.01736726678127116
2023-01-28 10:10:18.093839,-0.018799703568220076
2023-01-28 10:10:18.098839,-0.020062006635444263
2023-01-28 10:10:18.103839,-0.02091526985168455
2023-01-28 10:10:18.108839,-0.02127451164065265
2023-01-28 10:10:18.113839,-0.02079506777226921
2023-01-28 10:10:18.118839,-0.01867780638444128
2023-01-28 10:10:18.123839,-0.01408775709569448
2023-01-28 10:10:18.128839,-0.006597270164856611
2023-01-28 10:10:18.133839,0.003702243324369111
2023-01-28 10:10:18.138839,0.015967190434561535
2023-01-28 10:10:18.143839,0.028199553489684972
2023-01-28 10:10:18.148839,0.03749440598254199
2023-01-28 10:10:18.153839,0.04120548814535152
2023-01-28 10:10:18.158839,0.03807590227943081
2023-01-28 10:10:18.163839,0.028536122292280183
2023-01-28 10:10:18.168839,0.014440568494854058
2023-01-28 10:10:18.173839,-0.0013943513622506054
2023-01-28 10:10:18.178839,-0.01604954332902112
2023-01-28 10:10:18.183839,-0.027598541229963258
2023-01-28 10:10:18.188839,-0.035563883698520975
2023-01-28 10:10:18.193839,-0.040412150323390836
2023-01-28 10:10:18.198839,-0.042885179061093744
2023-01-28 10:10:18.203839,-0.04380186647176734
2023-01-28 10:10:18.208839,-0.043990601228758454
2023-01-28 10:10:18.213839,-0.043994188308715876
2023-01-28 10:10:18.218839,-0.0437946365895146
2023-01-28 10:10:18.223839,-0.042551755905151326
2023-01-28 10:10:18.228839,-0.037822568972836666
2023-01-28 10:10:18.233839,-0.02447327040135866
2023-01-28 10:10:18.238839,0.005290993414848103
2023-01-28 10:10:18.243839,0.05969266220927223
2023-01-28 10:10:18.248839,0.14346417250552848
2023-01-28 10:10:18.253839,0.25377196073532093
2023-01-28 10:10:18.258839,0.3776886531247653
2023-01-28 10:10:18.263839,0.4930714964866637
2023-01-28 10:10:18.268839,0.5740257586174065
2023-01-28 10:10:18.273839,0.5995951294898983
2023-01-28 10:10:18.278839,0.5616832969386775
2023-01-28 10:10:18.283839,0.4682856798171996
2023-01-28 10:10:18.288839,0.3407394683048485
2023-01-28 10:10:18.293839,0.20638804137706748
2023-01-28 10:10:18.298839,0.089630598062326
2023-01-28 10:10:18.303839,0.005024473182856979
2023-01-28 10:10:18.308839,-0.04471231349314086
2023-01-28 10:10:18.313839,-0.06577491760253901
2023-01-28 10:10:18.318839,-0.06819579023170112
2023-01-28 10:10:18.323839,-0.06159186363220213
2023-01-28 10:10:18.328839,-0.05287820596483495
2023-01-28 10:10:18.333839,-0.04574915021657944
2023-01-28 10:10:18.338839,-0.04144385237218103
2023-01-28 10:10:18.343839,-0.03997942060232157
2023-01-28 10:10:18.348839,-0.04083817087105881
2023-01-28 10:10:18.353839,-0.04296044632792469
2023-01-28 10:10:18.358839,-0.04489170738691478
2023-01-28 10:10:18.363839,-0.045484703034162466
2023-01-28 10:10:18.368839,-0.04444851592997367
2023-01-28 10:10:18.373839,-0.042167108505964154
2023-01-28 10:10:18.378839,-0.0392103410062446
2023-01-28 10:10:18.383839,-0.03606081008911125
2023-01-28 10:10:18.388839,-0.032931063858117435
2023-01-28 10:10:18.393839,-0.02959390543401245
2023-01-28 10:10:18.398839,-0.02561475118937633
2023-01-28 10:10:18.403839,-0.0209633521735667
2023-01-28 10:10:18.408839,-0.01624326594425142
2023-01-28 10:10:18.413839,-0.0121885538101196
2023-01-28 10:10:18.418839,-0.009074030182575767
2023-01-28 10:10:18.423839,-0.006611148826777859
2023-01-28 10:10:18.428839,-0.004090075443525847
2023-01-28 10:10:18.433839,-0.0005048513412474449
2023-01-28 10:10:18.438839,0.005101024428889635
2023-01-28 10:10:18.443839,0.013102094642818049
2023-01-28 10:10:18.448839,0.023175673436086754
2023-01-28 10:10:18.453839,0.034762620925903355
2023-01-28 10:10:18.458839,0.047431050348168
2023-01-28 10:10:18.463839,0.06075044721364967
2023-01-28 10:10:18.468839,0.07412579972808753
2023-01-28 10:10:18.473839,0.08690655231475825
2023-01-28 10:10:18.478839,0.09842138568212325
2023-01-28 10:10:18.483839,0.10782182216644269
2023-01-28 10:10:18.488839,0.11422858536764406
2023-01-28 10:10:18.493839,0.11726975440978996
2023-01-28 10:10:18.498839,0.11731904770754543
2023-01-28 10:10:18.503839,0.11510610580444328
2023-01-28 10:10:18.508839,0.11126936640129174
2023-01-28 10:10:18.513839,0.10625918954610816
2023-01-28 10:10:18.518839,0.10026024062538245
2023-01-28 10:10:18.523839,0.09298881143331517
2023-01-28 10:10:18.528839,0.08383180782674171
2023-01-28 10:10:18.533839,0.07241010665893549
2023-01-28 10:10:18.538839,0.05889757032909193
2023-01-28 10:10:18.543839,0.04380186647176738
2023-01-28 10:10:18.548839,0.027758925585726235
2023-01-28 10:10:18.553839,0.011635622009634803
2023-01-28 10:10:18.558839,-0.0035261185161865756
2023-01-28 10:10:18.563839,-0.016900500282645184
2023-01-28 10:10:18.568839,-0.028041802824088212
2023-01-28 10:10:18.573839,-0.036613743752241114
2023-01-28 10:10:18.578839,-0.04228392589932154
2023-01-28 10:10:18.583839,-0.045051973313093185
2023-01-28 10:10:18.588839,-0.04543945498400323
2023-01-28 10:10:18.593839,-0.04423459619283671
2023-01-28 10:10:18.598839,-0.042271115989774274
2023-01-28 10:10:18.603839,-0.04046022891998287
2023-01-28 10:10:18.608839,-0.03959458789492877
2023-01-28 10:10:18.613839,-0.03983517736196506
2023-01-28 10:10:18.618839,-0.04058255488012564
2023-01-28 10:10:18.623839,-0.04101316258311264
2023-01-28 10:10:18.628839,-0.04061677350456392
2023-01-28 10:10:18.633839,-0.0392822436988353
2023-01-28 10:10:18.638839,-0.03728020668394863
2023-01-28 10:10:18.643839,-0.03531555458903305
2023-01-28 10:10:18.648839,-0.034237990864443325
2023-01-28 10:10:18.653839,-0.034426055848598425
2023-01-28 10:10:18.658839,-0.035555639405132095
2023-01-28 10:10:18.663839,-0.03697435185313219
2023-01-28 10:10:18.668839,-0.038063478377031695
2023-01-28 10:10:18.673839,-0.038296580314636154
2023-01-28 10:10:18.678839,-0.03738382391539886
2023-01-28 10:10:18.683839,-0.035507880151271716
2023-01-28 10:10:18.688839,-0.033140611477211666
2023-01-28 10:10:18.693839,-0.030579566955566396
2023-01-28 10:10:18.698839,-0.027928700159994643
2023-01-28 10:10:18.703839,-0.02541085146367536
2023-01-28 10:10:18.708839,-0.023201394266099296
2023-01-28 10:10:18.713839,-0.020987391471862658
2023-01-28 10:10:18.718839,-0.01831568222957622
2023-01-28 10:10:18.723839,-0.015530189499258905
2023-01-28 10:10:18.728839,-0.013800109510395862
2023-01-28 10:10:18.733839,-0.013991594314575117
2023-01-28 10:10:18.738839,-0.01596253839450087
2023-01-28 10:10:18.743839,-0.019064148887991832
2023-01-28 10:10:18.748839,-0.022688446239789047
2023-01-28 10:10:18.753839,-0.02605994604527952
2023-01-28 10:10:18.758839,-0.02819243419545491
2023-01-28 10:10:18.763839,-0.028632283210754315
2023-01-28 10:10:18.768839,-0.027925873607697094
2023-01-28 10:10:18.773839,-0.02699752710759626
2023-01-28 10:10:18.778839,-0.02638998030614322
2023-01-28 10:10:18.783839,-0.026324391365051172
2023-01-28 10:10:18.788839,-0.0269364581766889
2023-01-28 10:10:18.793839,-0.02795914933085441
2023-01-28 10:10:18.798839,-0.028545525590350278
2023-01-28 10:10:18.803839,-0.027911067008972154
2023-01-28 10:10:18.808839,-0.025997511578355066
2023-01-28 10:10:18.813839,-0.023295283317565776
2023-01-28 10:10:18.818839,-0.02040722430463066
2023-01-28 10:10:18.823839,-0.018102526664733755
2023-01-28 10:10:18.828839,-0.017333252779557086
2023-01-28 10:10:18.833839,-0.018631419166922437
2023-01-28 10:10:18.838839,-0.021606501025794093
2023-01-28 10:10:18.843839,-0.02529064938426002
2023-01-28 10:10:18.848839,-0.028698846470314596
2023-01-28 10:10:18.853839,-0.030819972977042098
2023-01-28 10:10:18.858839,-0.030536896628036433
2023-01-28 10:10:18.863839,-0.027117729187011656
2023-01-28 10:10:18.868839,-0.020689426361242644
2023-01-28 10:10:18.873839,-0.011996230110525929
2023-01-28 10:10:18.878839,-0.001985760460292103
2023-01-28 10:10:18.883839,0.008101662620902075
2023-01-28 10:10:18.888839,0.01665624902240107
2023-01-28 10:10:18.893839,0.022237500175833706
2023-01-28 10:10:18.898839,0.024115917779181168
2023-01-28 10:10:18.903839,0.022117298096418277
2023-01-28 10:10:18.908839,0.016315182427057224
2023-01-28 10:10:18.913839,0.007260243408381879
2023-01-28 10:10:18.918839,-0.0037699394817663494
2023-01-28 10:10:18.923839,-0.015169581398367774
2023-01-28 10:10:18.928839,-0.025552466342710498
2023-01-28 10:10:18.933839,-0.03380100056529043
2023-01-28 10:10:18.938839,-0.0390738523920679
2023-01-28 10:10:18.943839,-0.04127760976552961
2023-01-28 10:10:18.948839,-0.041341118302224686
2023-01-28 10:10:18.953839,-0.040628515183925504
2023-01-28 10:10:18.958839,-0.04014395944971856
2023-01-28 10:10:18.963839,-0.04034002870321266
2023-01-28 10:10:18.968839,-0.04106344984522776
2023-01-28 10:10:18.973839,-0.040917001664638464
2023-01-28 10:10:18.978839,-0.036508632767339
2023-01-28 10:10:18.983839,-0.022429823875427208
2023-01-28 10:10:18.988839,0.008036295151523433
2023-01-28 10:10:18.993839,0.061519742012023856
2023-01-28 10:10:18.998839,0.14182690776162202
2023-01-28 10:10:19.003839,0.2460789680480956
2023-01-28 10:10:19.008839,0.36207855760020236
2023-01-28 10:10:19.013839,0.46948772668838484
2023-01-28 10:10:19.018839,0.5450201220005535
2023-01-28 10:10:19.023839,0.569664657115936
2023-01-28 10:10:19.028839,0.5354245504433273
2023-01-28 10:10:19.033839,0.4489570856094357
2023-01-28 10:10:19.038839,0.3298509798600383
2023-01-28 10:10:19.043839,0.20367145538330061
2023-01-28 10:10:19.048839,0.09325186825752015
2023-01-28 10:10:19.053839,0.012477040290832535
2023-01-28 10:10:19.058839,-0.03558968523059723
2023-01-28 10:10:19.063839,-0.056783758103847504
2023-01-28 10:10:19.068839,-0.06144163745825021
2023-01-28 10:10:19.073839,-0.0593801364302634
2023-01-28 10:10:19.078839,-0.05663984136406728
2023-01-28 10:10:19.083839,-0.05522112175822249
2023-01-28 10:10:19.088839,-0.054681288129839106
2023-01-28 10:10:19.093839,-0.05375465005636206
2023-01-28 10:10:19.098839,-0.051475997035499925
2023-01-28 10:10:19.103839,-0.047984920442104166
2023-01-28 10:10:19.108839,-0.044556377656660304
2023-01-28 10:10:19.113839,-0.04257579892873756
2023-01-28 10:10:19.118839,-0.04246164507890149
2023-01-28 10:10:19.123839,-0.04360954090952865
2023-01-28 10:10:19.128839,-0.04498109329036522
2023-01-28 10:10:19.133839,-0.045460663735866505
2023-01-28 10:10:19.138839,-0.044103540914959515
2023-01-28 10:10:19.143839,-0.040652554482221596
2023-01-28 10:10:19.148839,-0.03575751414588609
2023-01-28 10:10:19.153839,-0.030363202095031655
2023-01-28 10:10:19.158839,-0.024992359225120945
2023-01-28 10:10:19.163839,-0.01978536508977404
2023-01-28 10:10:19.168839,-0.014849088048751596
2023-01-28 10:10:19.173839,-0.010145108215510783
2023-01-28 10:10:19.178839,-0.005273590368364136
2023-01-28 10:10:19.183839,0.00024040541029538313
2023-01-28 10:10:19.188839,0.006622445582376642
2023-01-28 10:10:19.193839,0.014087757095694502
2023-01-28 10:10:19.198839,0.02309845172341634
2023-01-28 10:10:19.203839,0.03396928310394281
2023-01-28 10:10:19.208839,0.04637879566890542
2023-01-28 10:10:19.213839,0.059548418968915925
2023-01-28 10:10:19.218839,0.07265697265377574
2023-01-28 10:10:19.223839,0.08481502532958982
2023-01-28 10:10:19.228839,0.0950193531708378
2023-01-28 10:10:19.233839,0.10262906551361076
2023-01-28 10:10:19.238839,0.10774180610127154
2023-01-28 10:10:19.243839,0.11077880859374996
2023-01-28 10:10:19.248839,0.11190098133895886
2023-01-28 10:10:19.253839,0.11109133809804901
2023-01-28 10:10:19.258839,0.10846404592805811
2023-01-28 10:10:19.263839,0.10407149791717521
2023-01-28 10:10:19.268839,0.09763939744770588
2023-01-28 10:10:19.273839,0.08887787908315647
2023-01-28 10:10:19.278839,0.0778702730809148
2023-01-28 10:10:19.283839,0.06488542258739471
2023-01-28 10:10:19.288839,0.050143735401703554
2023-01-28 10:10:19.293839,0.034185647964477546
2023-01-28 10:10:19.298839,0.01821943170673733
2023-01-28 10:10:19.303839,0.0036541621666400367
2023-01-28 10:10:19.308839,-0.008644233650419967
2023-01-28 10:10:19.313839,-0.018487175926566086
2023-01-28 10:10:19.318839,-0.026138761561346986
2023-01-28 10:10:19.323839,-0.03228644654154761
2023-01-28 10:10:19.328839,-0.03782639431930928
2023-01-28 10:10:19.333839,-0.04312872886657711
2023-01-28 10:10:19.338839,-0.04762027122071834
2023-01-28 10:10:19.343839,-0.050413012504577484
2023-01-28 10:10:19.348839,-0.05121344503383361
2023-01-28 10:10:19.353839,-0.050485134124755755
2023-01-28 10:10:19.358839,-0.04911703618291138
2023-01-28 10:10:19.363839,-0.048201285302638855
2023-01-28 10:10:19.368839,-0.048644304488115984
2023-01-28 10:10:19.373839,-0.05046109482645971
2023-01-28 10:10:19.378839,-0.05263840268634567
2023-01-28 10:10:19.383839,-0.05399505421519264
2023-01-28 10:10:19.388839,-0.05393604933104882
2023-01-28 10:10:19.393839,-0.0522641353309154
2023-01-28 10:10:19.398839,-0.04891327097319474
2023-01-28 10:10:19.403839,-0.04437883943319315
2023-01-28 10:10:19.408839,-0.03991099651325259
2023-01-28 10:10:19.413839,-0.03663778305053708
2023-01-28 10:10:19.418839,-0.03470262878262173
2023-01-28 10:10:19.423839,-0.033608675003051716
2023-01-28 10:10:19.428839,-0.03296302122693553
2023-01-28 10:10:19.433839,-0.03240665048360819
2023-01-28 10:10:19.438839,-0.031315045505911236
2023-01-28 10:10:19.443839,-0.029281377792358322
2023-01-28 10:10:19.448839,-0.026683522327827915
2023-01-28 10:10:19.453839,-0.024256905540823936
2023-01-28 10:10:19.458839,-0.022367181033728162
2023-01-28 10:10:19.463839,-0.021155675873160192
2023-01-28 10:10:19.468839,-0.021000156444262934
2023-01-28 10:10:19.473839,-0.022189419716596603
2023-01-28 10:10:19.478839,-0.02436256317553028
2023-01-28 10:10:19.483839,-0.026805203408002756
2023-01-28 10:10:19.488839,-0.029076422303361747
2023-01-28 10:10:19.493839,-0.030892094597220438
2023-01-28 10:10:19.498839,-0.03176094828614703
2023-01-28 10:10:19.503839,-0.03137290477752686
2023-01-28 10:10:19.508839,-0.030146317346719815
2023-01-28 10:10:19.513839,-0.028848648071288986
2023-01-28 10:10:19.518839,-0.027862528621099992
2023-01-28 10:10:19.523839,-0.027261972427368105
2023-01-28 10:10:19.528839,-0.027270784548109366
2023-01-28 10:10:19.533839,-0.028055310249328606
2023-01-28 10:10:19.538839,-0.029301471684913337
2023-01-28 10:10:19.543839,-0.030555527657270383
2023-01-28 10:10:19.548839,-0.031777108202736076
2023-01-28 10:10:19.553839,-0.033055745065212146
2023-01-28 10:10:19.558839,-0.03404286695720141
2023-01-28 10:10:19.563839,-0.03420969098806372
2023-01-28 10:10:19.568839,-0.033453582720467306
2023-01-28 10:10:19.573839,-0.031973920762538834
2023-01-28 10:10:19.578839,-0.029852179682147994
2023-01-28 10:10:19.583839,-0.027310054749250412
2023-01-28 10:10:19.588839,-0.025100383452457752
2023-01-28 10:10:19.593839,-0.024016499519348068
2023-01-28 10:10:19.598839,-0.024132357886033493
2023-01-28 10:10:19.603839,-0.024930041283369
2023-01-28 10:10:19.608839,-0.0258499045430929
2023-01-28 10:10:19.613839,-0.02620418928563585
2023-01-28 10:10:19.618839,-0.024933489225625976
2023-01-28 10:10:19.623839,-0.021179717034101424
2023-01-28 10:10:19.628839,-0.015032589523755949
2023-01-28 10:10:19.633839,-0.007308324333280244
2023-01-28 10:10:19.638839,0.0010947969297821771
2023-01-28 10:10:19.643839,0.009135405533015721
2023-01-28 10:10:19.648839,0.015354998516816001
2023-01-28 10:10:19.653839,0.01841505430638786
2023-01-28 10:10:19.658839,0.017817700862330213
2023-01-28 10:10:19.663839,0.013679067604243745
2023-01-28 10:10:19.668839,0.006156488928284422
2023-01-28 10:10:19.673839,-0.004303256981074836
2023-01-28 10:10:19.678839,-0.016456777826641497
2023-01-28 10:10:19.683839,-0.028656324371695557
2023-01-28 10:10:19.688839,-0.03959811075299227
2023-01-28 10:10:19.693839,-0.04829744622111327
2023-01-28 10:10:19.698839,-0.053825149345229806
2023-01-28 10:10:19.703839,-0.05582213401794428
2023-01-28 10:10:19.708839,-0.055058140952527326
2023-01-28 10:10:19.713839,-0.05286514759063712
2023-01-28 10:10:19.718839,-0.050178191184479116
2023-01-28 10:10:19.723839,-0.04743198677897454
2023-01-28 10:10:19.728839,-0.044596055659602625
2023-01-28 10:10:19.733839,-0.040075581520795794
2023-01-28 10:10:19.738839,-0.029371311010150197
2023-01-28 10:10:19.743839,-0.005385081283748112
2023-01-28 10:10:19.748839,0.03951905389147085
2023-01-28 10:10:19.753839,0.11068265140056611
2023-01-28 10:10:19.758839,0.20769120768769073
2023-01-28 10:10:19.763839,0.3209412097930908
2023-01-28 10:10:19.768839,0.43113865871914625
2023-01-28 10:10:19.773839,0.5141069889068604
2023-01-28 10:10:19.778839,0.5490794935013495
2023-01-28 10:10:19.783839,0.5260310769081114
2023-01-28 10:10:19.788839,0.4491902097301168
2023-01-28 10:10:19.793839,0.3360146284103392
2023-01-28 10:10:19.798839,0.21150265701876136
2023-01-28 10:10:19.803839,0.09940763562917698
2023-01-28 10:10:19.808839,0.014785330325365052
2023-01-28 10:10:19.813839,-0.038224458694458056
2023-01-28 10:10:19.818839,-0.06393942581242497
2023-01-28 10:10:19.823839,-0.07120808213949197
2023-01-28 10:10:19.828839,-0.06966415510641719
2023-01-28 10:10:19.833839,-0.06644805520772928
2023-01-28 10:10:19.838839,-0.06466975131118698
2023-01-28 10:10:19.843839,-0.06452481448650356
2023-01-28 10:10:19.848839,-0.06527454027177322
2023-01-28 10:10:19.853839,-0.06587108224630345
2023-01-28 10:10:19.858839,-0.06489294052002488
2023-01-28 10:10:19.863839,-0.06142358109354967
2023-01-28 10:10:19.868839,-0.0559960822907697
2023-01-28 10:10:19.873839,-0.049956243485212284
2023-01-28 10:10:19.878839,-0.04425608744723209
2023-01-28 10:10:19.883839,-0.03952264785766594
2023-01-28 10:10:19.888839,-0.03656096495129843
2023-01-28 10:10:19.893839,-0.035652123391628196
2023-01-28 10:10:19.898839,-0.03576994423422366
2023-01-28 10:10:19.903839,-0.03550788015127177
2023-01-28 10:10:19.908839,-0.034410526548534166
2023-01-28 10:10:19.913839,-0.03257493302226056
2023-01-28 10:10:19.918839,-0.029648014819810158
2023-01-28 10:10:19.923839,-0.025338729843497144
2023-01-28 10:10:19.928839,-0.020277498858364593
2023-01-28 10:10:19.933839,-0.015121500007808283
2023-01-28 10:10:19.938839,-0.009328410905212497
2023-01-28 10:10:19.943839,-0.0019713244400917725
2023-01-28 10:10:19.948839,0.006892952091521825
2023-01-28 10:10:19.953839,0.016900500282645205
2023-01-28 10:10:19.958839,0.02857149524375803
2023-01-28 10:10:19.963839,0.04226326942443844
2023-01-28 10:10:19.968839,0.056642156454981524
2023-01-28 10:10:19.973839,0.06983777135610576
2023-01-28 10:10:19.978839,0.08143550520705471
2023-01-28 10:10:19.983839,0.09166657924652084
2023-01-28 10:10:19.988839,0.09958326151472374
2023-01-28 10:10:19.993839,0.10419170558452598
2023-01-28 10:10:19.998839,0.10655018500502543
2023-01-28 10:10:20.003839,0.1082064732909202
2023-01-28 10:10:20.008839,0.10821868666748541
2023-01-28 10:10:20.013839,0.10464847087860094
2023-01-28 10:10:20.018839,0.09855005258677313
2023-01-28 10:10:20.023839,0.09294073283672337
2023-01-28 10:10:20.028839,0.08759967777716592
2023-01-28 10:10:20.033839,0.07880489528179152
2023-01-28 10:10:20.038839,0.06542504267667103
2023-01-28 10:10:20.043839,0.0514467582106591
2023-01-28 10:10:20.048839,0.040313061242432315
2023-01-28 10:10:20.053839,0.03009875677525982
2023-01-28 10:10:20.058839,0.017198358277664832
2023-01-28 10:10:20.063839,0.0022117297630756903
2023-01-28 10:10:20.068839,-0.011172974054667027
2023-01-28 10:10:20.073839,-0.021444162353873215
2023-01-28 10:10:20.078839,-0.03000310247573686
2023-01-28 10:10:20.083839,-0.03755132481455788
2023-01-28 10:10:20.088839,-0.04303902854858014
2023-01-28 10:10:20.093839,-0.04615783691406253
2023-01-28 10:10:20.098839,-0.04814843643236683
2023-01-28 10:10:20.103839,-0.04973987862467764
2023-01-28 10:10:20.108839,-0.05035573810634917
2023-01-28 10:10:20.113839,-0.0497398786246776
2023-01-28 10:10:20.118839,-0.04863151363985675
2023-01-28 10:10:20.123839,-0.047456026077270494
2023-01-28 10:10:20.128839,-0.045850007327375486
2023-01-28 10:10:20.133839,-0.043873988091945565
2023-01-28 10:10:20.138839,-0.04241248682127391
2023-01-28 10:10:20.143839,-0.041974782943725454
2023-01-28 10:10:20.148839,-0.042120569192258345
2023-01-28 10:10:20.153839,-0.042311351746320655
2023-01-28 10:10:20.158839,-0.042365234721785154
2023-01-28 10:10:20.163839,-0.04190266132354731
2023-01-28 10:10:20.168839,-0.04034347408557549
2023-01-28 10:10:20.173839,-0.03776768967509264
2023-01-28 10:10:20.178839,-0.03501032839340242
2023-01-28 10:10:20.183839,-0.032671093940734745
2023-01-28 10:10:20.188839,-0.030664851557116055
2023-01-28 10:10:20.193839,-0.028824608772993067
2023-01-28 10:10:20.198839,-0.02725690416286442
2023-01-28 10:10:20.203839,-0.02601186558604237
2023-01-28 10:10:20.208839,-0.025070500374608954
2023-01-28 10:10:20.213839,-0.024761756882071398
2023-01-28 10:10:20.218839,-0.0255557110461245
2023-01-28 10:10:20.223839,-0.027286013588309198
2023-01-28 10:10:20.228839,-0.029080878285235773
2023-01-28 10:10:20.233839,-0.030170878395438097
2023-01-28 10:10:20.238839,-0.030382655807206057
2023-01-28 10:10:20.243839,-0.029930472373962447
2023-01-28 10:10:20.248839,-0.029263471623625314
2023-01-28 10:10:20.253839,-0.029089054092764844
2023-01-28 10:10:20.258839,-0.02994115225035219
2023-01-28 10:10:20.263839,-0.031541191041469505
2023-01-28 10:10:20.268839,-0.03292015137437376
2023-01-28 10:10:20.273839,-0.03322402760386459
2023-01-28 10:10:20.278839,-0.032177879239057156
2023-01-28 10:10:20.283839,-0.029978554695844508
2023-01-28 10:10:20.288839,-0.027232450011847334
2023-01-28 10:10:20.293839,-0.024954080581665018
2023-01-28 10:10:20.298839,-0.024123840021615117
2023-01-28 10:10:20.303839,-0.025074284523725423
2023-01-28 10:10:20.308839,-0.02745111463429874
2023-01-28 10:10:20.313839,-0.030627649277448602
2023-01-28 10:10:20.318839,-0.033883778938403906
2023-01-28 10:10:20.323839,-0.036397378891706335
2023-01-28 10:10:20.328839,-0.03754870581800487
2023-01-28 10:10:20.333839,-0.037310920655727275
2023-01-28 10:10:20.338839,-0.036139554117129324
2023-01-28 10:10:20.343839,-0.0345462560653686
2023-01-28 10:10:20.348839,-0.03291558777894989
2023-01-28 10:10:20.353839,-0.03144502639770498
2023-01-28 10:10:20.358839,-0.02985882625701068
2023-01-28 10:10:20.363839,-0.027261972427368077
2023-01-28 10:10:20.368839,-0.02261777235829471
2023-01-28 10:10:20.373839,-0.015458067879080729
2023-01-28 10:10:20.378839,-0.0061724221404620555
2023-01-28 10:10:20.383839,0.004038810729980428
2023-01-28 10:10:20.388839,0.013248986058258342
2023-01-28 10:10:20.393839,0.019208392128348274
2023-01-28 10:10:20.398839,0.02024288698218883
2023-01-28 10:10:20.403839,0.015986960381269302
2023-01-28 10:10:20.408839,0.00734249777863775
2023-01-28 10:10:20.413839,-0.00399072980508195
2023-01-28 10:10:20.418839,-0.01591262941263257
2023-01-28 10:10:20.423839,-0.026444595307111636
2023-01-28 10:10:20.428839,-0.034492706713859234
2023-01-28 10:10:20.433839,-0.04019578546285613
2023-01-28 10:10:20.438839,-0.044414506970356746
2023-01-28 10:10:20.443839,-0.04796087741851802
2023-01-28 10:10:20.448839,-0.05124401658858621
2023-01-28 10:10:20.453839,-0.054163336753845194
2023-01-28 10:10:20.458839,-0.055980135719416714
2023-01-28 10:10:20.463839,-0.05543748661875723
2023-01-28 10:10:20.468839,-0.0510825855562547
2023-01-28 10:10:20.473839,-0.04103720188140868
2023-01-28 10:10:20.478839,-0.02208909838851607
2023-01-28 10:10:20.483839,0.01064995955675838
2023-01-28 10:10:20.488839,0.06234214908684924
2023-01-28 10:10:20.493839,0.1355646103620528
2023-01-28 10:10:20.498839,0.22722992812719084
2023-01-28 10:10:20.503839,0.3266388177871704
2023-01-28 10:10:20.508839,0.4161982893383717
2023-01-28 10:10:20.513839,0.47585844993591286
2023-01-28 10:10:20.518839,0.4900940957454627
2023-01-28 10:10:20.523839,0.45398157835006697
2023-01-28 10:10:20.528839,0.3752484371820148
2023-01-28 10:10:20.533839,0.2716100215911866
2023-01-28 10:10:20.538839,0.1647358500845602
2023-01-28 10:10:20.543839,0.07317940890789038
2023-01-28 10:10:20.548839,0.007203781303105511
2023-01-28 10:10:20.553839,-0.032214324921369344
2023-01-28 10:10:20.558839,-0.05051413909463629
2023-01-28 10:10:20.563839,-0.05543748661875718
2023-01-28 10:10:20.568839,-0.053926804410935496
2023-01-28 10:10:20.573839,-0.05053321644663811
2023-01-28 10:10:20.578839,-0.04719832054964545
2023-01-28 10:10:20.583839,-0.044282674789428655
2023-01-28 10:10:20.588839,-0.04192191098800935
2023-01-28 10:10:20.593839,-0.040412150323390905
2023-01-28 10:10:20.598839,-0.03971612040726742
2023-01-28 10:10:20.603839,-0.039354365319013464
2023-01-28 10:10:20.608839,-0.03891549931907188
2023-01-28 10:10:20.613839,-0.03820041939616201
2023-01-28 10:10:20.618839,-0.03689882541929762
2023-01-28 10:10:20.623839,-0.03473858162760723
2023-01-28 10:10:20.628839,-0.031972908570683654
2023-01-28 10:10:20.633839,-0.02906501293182371
2023-01-28 10:10:20.638839,-0.02585917375284012
2023-01-28 10:10:20.643839,-0.021756689995527167
2023-01-28 10:10:20.648839,-0.016692349566377954
2023-01-28 10:10:20.653839,-0.011082689277827715
2023-01-28 10:10:20.658839,-0.0047981797453757885
2023-01-28 10:10:20.663839,0.002716581104323171
2023-01-28 10:10:20.668839,0.011061911954073132
2023-01-28 10:10:20.673839,0.018847784027457157
2023-01-28 10:10:20.678839,0.0256363658281808
2023-01-28 10:10:20.683839,0.03283938020467742
2023-01-28 10:10:20.688839,0.04189455338734713
2023-01-28 10:10:20.693839,0.05248050019145007
2023-01-28 10:10:20.698839,0.06343661604443752
2023-01-28 10:10:20.703839,0.07459779828786835
2023-01-28 10:10:20.708839,0.086576013349635
2023-01-28 10:10:20.713839,0.09923934936523433
2023-01-28 10:10:20.718839,0.11152560086181919
2023-01-28 10:10:20.723839,0.12251059710979459
2023-01-28 10:10:20.728839,0.13171213906291215
2023-01-28 10:10:20.733839,0.13854563236236572
2023-01-28 10:10:20.738839,0.14245342408221917
2023-01-28 10:10:20.743839,0.14361819624900812
2023-01-28 10:10:20.748839,0.1428183736177889
2023-01-28 10:10:20.753839,0.14049291610717765
2023-01-28 10:10:20.758839,0.13642341059785848
2023-01-28 10:10:20.763839,0.1302035748958587
2023-01-28 10:10:20.768839,0.12145888585905353
2023-01-28 10:10:20.773839,0.10974507033824916
2023-01-28 10:10:20.778839,0.09491340938093372
2023-01-28 10:10:20.783839,0.07769902795553206
2023-01-28 10:10:20.788839,0.059553912983377366
2023-01-28 10:10:20.793839,0.041878622025251305
2023-01-28 10:10:20.798839,0.02565680964932857
2023-01-28 10:10:20.803839,0.011563500389456815
2023-01-28 10:10:20.808839,-0.00012297657776068623
2023-01-28 10:10:20.813839,-0.009688338264822927
2023-01-28 10:10:20.818839,-0.017633565308628647
2023-01-28 10:10:20.823839,-0.024136703461408653
2023-01-28 10:10:20.828839,-0.029109916999221788
2023-01-28 10:10:20.833839,-0.03264705464243876
2023-01-28 10:10:20.838839,-0.03509686536474381
2023-01-28 10:10:20.843839,-0.03683010861277576
2023-01-28 10:10:20.848839,-0.0382368021693699
2023-01-28 10:10:20.853839,-0.03976305574178684
2023-01-28 10:10:20.858839,-0.0415567872610294
2023-01-28 10:10:20.863839,-0.04315277189016342
2023-01-28 10:10:20.868839,-0.04381453248495671
2023-01-28 10:10:20.873839,-0.04312872886657707
2023-01-28 10:10:20.878839,-0.041098725531517166
2023-01-28 10:10:20.883839,-0.03791193291544902
2023-01-28 10:10:20.888839,-0.03394139716817226
2023-01-28 10:10:20.893839,-0.029786229133605867
2023-01-28 10:10:20.898839,-0.02595269962451053
2023-01-28 10:10:20.903839,-0.02257406711578355
2023-01-28 10:10:20.908839,-0.01965448461201303
2023-01-28 10:10:20.913839,-0.017381310462951584
2023-01-28 10:10:20.918839,-0.01590496611043336
2023-01-28 10:10:20.923839,-0.014977256767451734
2023-01-28 10:10:20.928839,-0.01409507587067254
2023-01-28 10:10:20.933839,-0.012885729782283268
2023-01-28 10:10:20.938839,-0.011175694627499979
2023-01-28 10:10:20.943839,-0.008943080902099543
2023-01-28 10:10:20.948839,-0.006516227136206112
2023-01-28 10:10:20.953839,-0.004639824386685968
2023-01-28 10:10:20.958839,-0.004017061556175432
2023-01-28 10:10:20.963839,-0.004832148551940888
2023-01-28 10:10:20.968839,-0.00683809038644771
2023-01-28 10:10:20.973839,-0.009664297103881761
2023-01-28 10:10:20.978839,-0.012805461933547813
2023-01-28 10:10:20.983839,-0.01555422972887744
2023-01-28 10:10:20.988839,-0.01728300712407657
2023-01-28 10:10:20.993839,-0.01774191856384276
2023-01-28 10:10:20.998839,-0.016979084822162625
2023-01-28 10:10:21.003839,-0.015217661857604899
2023-01-28 10:10:21.008839,-0.01300813927492974
2023-01-28 10:10:21.013839,-0.011226932518184084
2023-01-28 10:10:21.018839,-0.01059700314134946
2023-01-28 10:10:21.023839,-0.011275013908743813
2023-01-28 10:10:21.028839,-0.013004791377986104
2023-01-28 10:10:21.033839,-0.015434026718139652
2023-01-28 10:10:21.038839,-0.018122123925563074
2023-01-28 10:10:21.043839,-0.020530622452497416
2023-01-28 10:10:21.048839,-0.022289906375885037
2023-01-28 10:10:21.053839,-0.023343365639448076
2023-01-28 10:10:21.058839,-0.023710260798497754
2023-01-28 10:10:21.063839,-0.02336740493774412
2023-01-28 10:10:21.068839,-0.022540838226601086
2023-01-28 10:10:21.073839,-0.02182881161570536
2023-01-28 10:10:21.078839,-0.02176060932314587
2023-01-28 10:10:21.083839,-0.022357702255248985
2023-01-28 10:10:21.088839,-0.02322203827519225
2023-01-28 10:10:21.093839,-0.0238001346588134
2023-01-28 10:10:21.098839,-0.023460821882554148
2023-01-28 10:10:21.103839,-0.021708607673644933
2023-01-28 10:10:21.108839,-0.018647824223601037
2023-01-28 10:10:21.113839,-0.015049378387629896
2023-01-28 10:10:21.118839,-0.011715133252266155
2023-01-28 10:10:21.123839,-0.008870959281921373
2023-01-28 10:10:21.128839,-0.0062126415362099485
2023-01-28 10:10:21.133839,-0.0032454729080199436
2023-01-28 10:10:21.138839,0.0005063727970222847
2023-01-28 10:10:21.143839,0.005168716423213282
2023-01-28 10:10:21.148839,0.01001538339789916
2023-01-28 10:10:21.153839,0.013486742973327656
2023-01-28 10:10:21.158839,0.014028785625550606
2023-01-28 10:10:21.163839,0.010962486267089762
2023-01-28 10:10:21.168839,0.004661003950932527
2023-01-28 10:10:21.173839,-0.0037022433243690616
2023-01-28 10:10:21.178839,-0.012441580353252097
2023-01-28 10:10:21.183839,-0.019881527870893412
2023-01-28 10:10:21.188839,-0.025097256568735783
2023-01-28 10:10:21.193839,-0.02817551419138898
2023-01-28 10:10:21.198839,-0.029702622666308173
2023-01-28 10:10:21.203839,-0.03019491955637928
2023-01-28 10:10:21.208839,-0.03005522776289171
2023-01-28 10:10:21.213839,-0.02969006821513167
2023-01-28 10:10:21.218839,-0.02935139479563666
2023-01-28 10:10:21.223839,-0.028872689232230096
2023-01-28 10:10:21.228839,-0.027326861701943803
2023-01-28 10:10:21.233839,-0.022189419716596555
2023-01-28 10:10:21.238839,-0.00829254006521406
2023-01-28 10:10:21.243839,0.022021135315299038
2023-01-28 10:10:21.248839,0.07653151190104221
2023-01-28 10:10:21.253839,0.1591964662075041
2023-01-28 10:10:21.258839,0.2662910399870289
2023-01-28 10:10:21.263839,0.3843601644039153
2023-01-28 10:10:21.268839,0.491621600577762
2023-01-28 10:10:21.273839,0.5636304616928098
2023-01-28 10:10:21.278839,0.5816335813597414
2023-01-28 10:10:21.283839,0.5397341847419737
2023-01-28 10:10:21.288839,0.44728173569862517
2023-01-28 10:10:21.293839,0.3255569934844969
2023-01-28 10:10:21.298839,0.2004228766105316
2023-01-28 10:10:21.303839,0.0939504355192184
2023-01-28 10:10:21.308839,0.01834742527224602
2023-01-28 10:10:21.313839,-0.02545893192291255
2023-01-28 10:10:21.318839,-0.044692657185035525
2023-01-28 10:10:21.323839,-0.049523513764142935
2023-01-28 10:10:21.328839,-0.04863174715783745
2023-01-28 10:10:21.333839,-0.047047339379787424
2023-01-28 10:10:21.338839,-0.04627938603581146
2023-01-28 10:10:21.343839,-0.04579722881317127
2023-01-28 10:10:21.348839,-0.04456297436679438
2023-01-28 10:10:21.353839,-0.04185458272695539
2023-01-28 10:10:21.358839,-0.03761587060069388
2023-01-28 10:10:21.363839,-0.032695136964321074
2023-01-28 10:10:21.368839,-0.02861781669493758
2023-01-28 10:10:21.373839,-0.026636919006705236
2023-01-28 10:10:21.378839,-0.02688523922476483
2023-01-28 10:10:21.383839,-0.02853612229228013
2023-01-28 10:10:21.388839,-0.030530433473336064
2023-01-28 10:10:21.393839,-0.03187775611877442
2023-01-28 10:10:21.398839,-0.03163201719633084
2023-01-28 10:10:21.403839,-0.02920925617218005
2023-01-28 10:10:21.408839,-0.024742618155191375
2023-01-28 10:10:21.413839,-0.018751621246337866
2023-01-28 10:10:21.418839,-0.01155664563020863
2023-01-28 10:10:21.423839,-0.003389716148376389
2023-01-28 10:10:21.428839,0.005097642398818053
2023-01-28 10:10:21.433839,0.012957851402461558
2023-01-28 10:10:21.438839,0.0195878211458027
2023-01-28 10:10:21.443839,0.024954080581665025
2023-01-28 10:10:21.448839,0.029410962358264542
2023-01-28 10:10:21.453839,0.03377696126699442
2023-01-28 10:10:21.458839,0.0394030873096692
2023-01-28 10:10:21.463839,0.0475281476974487
2023-01-28 10:10:21.468839,0.0584362208659521
2023-01-28 10:10:21.473839,0.07149656862020483
2023-01-28 10:10:21.478839,0.085813209538813
2023-01-28 10:10:21.483839,0.1003932952880859
2023-01-28 10:10:21.488839,0.11392012813921183
2023-01-28 10:10:21.493839,0.12501081824302668
2023-01-28 10:10:21.498839,0.1327575426311204
2023-01-28 10:10:21.503839,0.13669452071189883
2023-01-28 10:10:21.508839,0.1364789508180507
2023-01-28 10:10:21.513839,0.1321508586406706
2023-01-28 10:10:21.518839,0.12455429676491288
2023-01-28 10:10:21.523839,0.11491378396749485
2023-01-28 10:10:21.528839,0.10399652934327985
2023-01-28 10:10:21.533839,0.09205123037099817
2023-01-28 10:10:21.538839,0.07932505436073459
2023-01-28 10:10:21.543839,0.06611149013042444
2023-01-28 10:10:21.548839,0.052495979419169864
2023-01-28 10:10:21.553839,0.03863314911723133
2023-01-28 10:10:21.558839,0.025129881527095988
2023-01-28 10:10:21.563839,0.012621283531188935
2023-01-28 10:10:21.568839,0.0011426955193661688
2023-01-28 10:10:21.573839,-0.009544095024466494
2023-01-28 10:10:21.578839,-0.0191992297541839
2023-01-28 10:10:21.583839,-0.027213891968131017
2023-01-28 10:10:21.588839,-0.03324412799345355
2023-01-28 10:10:21.593839,-0.03721475601196282
2023-01-28 10:10:21.598839,-0.039019438066779946
2023-01-28 10:10:21.603839,-0.03887355327606197
2023-01-28 10:10:21.608839,-0.0377041739313941
2023-01-28 10:10:21.613839,-0.03649353981018057
2023-01-28 10:10:21.618839,-0.03537740695490053
2023-01-28 10:10:21.623839,-0.03392120450735092
2023-01-28 10:10:21.628839,-0.031987450477641836
2023-01-28 10:10:21.633839,-0.029762189835309906
2023-01-28 10:10:21.638839,-0.027356631475291274
2023-01-28 10:10:21.643839,-0.02514640614390371
2023-01-28 10:10:21.648839,-0.024160925778335694
2023-01-28 10:10:21.653839,-0.0252906493842601
2023-01-28 10:10:21.658839,-0.028242491145267157
2023-01-28 10:10:21.663839,-0.03185371682047841
2023-01-28 10:10:21.668839,-0.03507026796939831
2023-01-28 10:10:21.673839,-0.036998391151428195
2023-01-28 10:10:21.678839,-0.0366067938786242
2023-01-28 10:10:21.683839,-0.033440392464399386
2023-01-28 10:10:21.688839,-0.028442608524836353
2023-01-28 10:10:21.693839,-0.0232712440192698
2023-01-28 10:10:21.698839,-0.01900991470410517
2023-01-28 10:10:21.703839,-0.01610716246068465
2023-01-28 10:10:21.708839,-0.014918710713366095
2023-01-28 10:10:21.713839,-0.015289783477783231
2023-01-28 10:10:21.718839,-0.01601532582365448
2023-01-28 10:10:21.723839,-0.015746554359793597
2023-01-28 10:10:21.728839,-0.014234244922335203
2023-01-28 10:10:21.733839,-0.011996230110525976
2023-01-28 10:10:21.738839,-0.00934642799735012
2023-01-28 10:10:21.743839,-0.006683270446956077
2023-01-28 10:10:21.748839,-0.005124643043703434
2023-01-28 10:10:21.753839,-0.005697607994079431
2023-01-28 10:10:21.758839,-0.008230327850279896
2023-01-28 10:10:21.763839,-0.01192410849034783
2023-01-28 10:10:21.768839,-0.016434994447628838
2023-01-28 10:10:21.773839,-0.021396081894636078
2023-01-28 10:10:21.778839,-0.025573938873904533
2023-01-28 10:10:21.783839,-0.02774278447031962
2023-01-28 10:10:21.788839,-0.027923658896456392
2023-01-28 10:10:21.793839,-0.026733081787824593
2023-01-28 10:10:21.798839,-0.024225917633340983
2023-01-28 10:10:21.803839,-0.020578702911734532
2023-01-28 10:10:21.808839,-0.0171490882582484
2023-01-28 10:10:21.813839,-0.015458067879080663
2023-01-28 10:10:21.818839,-0.015667096412297667
2023-01-28 10:10:21.823839,-0.017188986763358116
2023-01-28 10:10:21.828839,-0.01989177179529515
2023-01-28 10:10:21.833839,-0.023295283317566022
2023-01-28 10:10:21.838839,-0.025555167482789423
2023-01-28 10:10:21.843839,-0.02500216290354725
2023-01-28 10:10:21.848839,-0.022127300323010784
2023-01-28 10:10:21.853839,-0.018679499626159477
2023-01-28 10:10:21.858839,-0.015695096608466363
2023-01-28 10:10:21.863839,-0.013823310844600162
2023-01-28 10:10:21.868839,-0.014256066142265392
2023-01-28 10:10:21.873839,-0.017261108383536262
2023-01-28 10:10:21.878839,-0.020709870298688787
2023-01-28 10:10:21.883839,-0.02204517647624011
2023-01-28 10:10:21.888839,-0.020883663811883113
2023-01-28 10:10:21.893839,-0.01798232458531849
2023-01-28 10:10:21.898839,-0.013031570374945432
2023-01-28 10:10:21.903839,-0.005697607994079457
2023-01-28 10:10:21.908839,0.0024624206861922175
2023-01-28 10:10:21.913839,0.009544095024466572
2023-01-28 10:10:21.918839,0.015485485726099379
2023-01-28 10:10:21.923839,0.020314257591962776
2023-01-28 10:10:21.928839,0.021836232237209364
2023-01-28 10:10:21.933839,0.01803040504455557
2023-01-28 10:10:21.938839,0.010376741557579824
2023-01-28 10:10:21.943839,0.001875162124633666
2023-01-28 10:10:21.948839,-0.006629372657233706
2023-01-28 10:10:21.953839,-0.015049378387629856
2023-01-28 10:10:21.958839,-0.021187831193748115
2023-01-28 10:10:21.963839,-0.02334336563944808
2023-01-28 10:10:21.968839,-0.023922099609497743
2023-01-28 10:10:21.973839,-0.02608398720622051
2023-01-28 10:10:21.978839,-0.028713585374189738
2023-01-28 10:10:21.983839,-0.029473703354596967
2023-01-28 10:10:21.988839,-0.03040537047669435
2023-01-28 10:10:21.993839,-0.0343779735267162
2023-01-28 10:10:21.998839,-0.037906369650767886
2023-01-28 10:10:22.003839,-0.03408948704600331
2023-01-28 10:10:22.008839,-0.020113305579121596
2023-01-28 10:10:22.013839,0.006803472992032686
2023-01-28 10:10:22.018839,0.05823618772535469
2023-01-28 10:10:22.023839,0.14611840248107907
2023-01-28 10:10:22.028839,0.2626596951863285
2023-01-28 10:10:22.033839,0.3803694248199461
2023-01-28 10:10:22.038839,0.47665264976396554
2023-01-28 10:10:22.043839,0.5470184683799743
2023-01-28 10:10:22.048839,0.5882993807622591
2023-01-28 10:10:22.053839,0.5833677649497985
2023-01-28 10:10:22.058839,0.5171041735592936
2023-01-28 10:10:22.063839,0.4011645019054411
2023-01-28 10:10:22.068839,0.2693877330874139
2023-01-28 10:10:22.073839,0.15085439383983604
2023-01-28 10:10:22.078839,0.05732273278318983
2023-01-28 10:10:22.083839,-0.007644891738891639
2023-01-28 10:10:22.088839,-0.042472008384338115
2023-01-28 10:10:22.093839,-0.053009390830993576
2023-01-28 10:10:22.098839,-0.052584487651310866
2023-01-28 10:10:22.103839,-0.05103806778788557
2023-01-28 10:10:22.108839,-0.049220773101133715
2023-01-28 10:10:22.113839,-0.04591743275523178
2023-01-28 10:10:22.118839,-0.04314190524715953
2023-01-28 10:10:22.123839,-0.04197478294372552
2023-01-28 10:10:22.128839,-0.03969221223009203
2023-01-28 10:10:22.133839,-0.034666460007429144
2023-01-28 10:10:22.138839,-0.029490798352611966
2023-01-28 10:10:22.143839,-0.026492675766348815
2023-01-28 10:10:22.148839,-0.024401602708278056
2023-01-28 10:10:22.153839,-0.021876892074942412
2023-01-28 10:10:22.158839,-0.020216915818884424
2023-01-28 10:10:22.163839,-0.020073851570486908
2023-01-28 10:10:22.168839,-0.019203967032700064
2023-01-28 10:10:22.173839,-0.015986960381269472
2023-01-28 10:10:22.178839,-0.012001220452655363
2023-01-28 10:10:22.183839,-0.00894308090209957
2023-01-28 10:10:22.188839,-0.006008569652732996
2023-01-28 10:10:22.193839,-0.0023078918457031367
2023-01-28 10:10:22.198839,0.0011267379274268947
2023-01-28 10:10:22.203839,0.003822445869445829
2023-01-28 10:10:22.208839,0.007645245300299215
2023-01-28 10:10:22.213839,0.014087757095694537
2023-01-28 10:10:22.218839,0.02215423207420257
2023-01-28 10:10:22.223839,0.03065168857574463
2023-01-28 10:10:22.228839,0.040178978022440935
2023-01-28 10:10:22.233839,0.051158271729946185
2023-01-28 10:10:22.238839,0.06225665969256848
2023-01-28 10:10:22.243839,0.07253031432628626
2023-01-28 10:10:22.248839,0.08302057093860812
2023-01-28 10:10:22.253839,0.09457548707723615
2023-01-28 10:10:22.258839,0.10605533396848871
2023-01-28 10:10:22.263839,0.11616389453411104
2023-01-28 10:10:22.268839,0.12505793714075122
2023-01-28 10:10:22.273839,0.13267974555492396
2023-01-28 10:10:22.278839,0.13746135834115372
2023-01-28 10:10:22.283839,0.1382090747356414
2023-01-28 10:10:22.288839,0.13552308850305916
2023-01-28 10:10:22.293839,0.13001124560832966
2023-01-28 10:10:22.298839,0.12089694942293065
2023-01-28 10:10:22.303839,0.10777374356985088
2023-01-28 10:10:22.308839,0.09204664675123778
2023-01-28 10:10:22.313839,0.07531901448965063
2023-01-28 10:10:22.318839,0.05797107802882374
2023-01-28 10:10:22.323839,0.04053235054016112
2023-01-28 10:10:22.328839,0.02472838505431308
2023-01-28 10:10:22.333839,0.011779865249991377
2023-01-28 10:10:22.338839,0.0011183027953710816
2023-01-28 10:10:22.343839,-0.00802954100072381
2023-01-28 10:10:22.348839,-0.015255327653949227
2023-01-28 10:10:22.353839,-0.02024213597178455
2023-01-28 10:10:22.358839,-0.023824280598321146
2023-01-28 10:10:22.363839,-0.026540756225585927
2023-01-28 10:10:22.368839,-0.027554926046362158
2023-01-28 10:10:22.373839,-0.026204189285635882
2023-01-28 10:10:22.378839,-0.023336070991403814
2023-01-28 10:10:22.383839,-0.02009789273142808
2023-01-28 10:10:22.388839,-0.016785089953014802
2023-01-28 10:10:22.393839,-0.013895432464778335
2023-01-28 10:10:22.398839,-0.012844228756327142
2023-01-28 10:10:22.403839,-0.014400283806025878
2023-01-28 10:10:22.408839,-0.017575257605455454
2023-01-28 10:10:22.413839,-0.02105951309204095
2023-01-28 10:10:22.418839,-0.024565393458143556
2023-01-28 10:10:22.423839,-0.02788702771067608
2023-01-28 10:10:22.428839,-0.030031143088092963
2023-01-28 10:10:22.433839,-0.030387243255972814
2023-01-28 10:10:22.438839,-0.02960054531967556
2023-01-28 10:10:22.443839,-0.028319757431745536
2023-01-28 10:10:22.448839,-0.026232581999728527
2023-01-28 10:10:22.453839,-0.02322316169738765
2023-01-28 10:10:22.458839,-0.02024084236763988
2023-01-28 10:10:22.463839,-0.01803040504455564
2023-01-28 10:10:22.468839,-0.01610866540160136
2023-01-28 10:10:22.473839,-0.013895432464778404
2023-01-28 10:10:22.478839,-0.011755599010594113
2023-01-28 10:10:22.483839,-0.01009702682495106
2023-01-28 10:10:22.488839,-0.008623259199374853
2023-01-28 10:10:22.493839,-0.007380445953458369
2023-01-28 10:10:22.498839,-0.007391992839185424
2023-01-28 10:10:22.503839,-0.009279648773372173
