12.54
3.9
-6.67
-18.45
-30.28
-40.71
-48.36
-52.22
-51.96
-47.95
-41.17
-32.98
-24.74
-17.6
-12.33
-9.26
-8.36
-9.35
-11.81
-15.31
-19.48
-24.06
-28.96
-34.11
-39.44
-44.69
-49.45
-53.25
-55.74
-56.82
-56.73
-55.92
-54.86
-53.88
-52.99
-51.86
-49.88
-46.36
-40.69
-32.61
-22.34
-10.64
1.42
12.66
22.08
29.04
33.35
35.16
34.86
32.99
30.16
26.97
23.91
21.31
19.25
17.57
16
14.35
12.55
10.69
8.93
7.26
5.54
3.53
1.2
-1.14
-2.72
-2.66
-0.28
4.56
11.33
19.1
26.89
33.92
39.8
44.48
48.15
51.07
53.52
55.64
57.38
58.44
58.37
56.74
53.32
48.11
41.34
33.36
24.51
15.13
5.56
-3.9
-13.04
-21.84
-30.36
-38.61
-46.32
-52.94
-57.71
-60.08
-59.96
-57.84
-54.63
-51.27
-48.48
-46.51
-45.3
-44.64
-44.32
-44.14
-43.88
-43.29
-42.01
-39.76
-36.45
-32.25
-27.53
-22.82
-18.59
-15.23
-12.95
-11.8
-11.61
-12
-12.33
-11.8
-9.63
-5.32
1.27
9.82
19.66
29.89
39.45
47.2
52.12
53.43
50.79
44.46
35.3
24.58
13.71
3.97
-3.73
-8.95
-11.78
-12.77
-12.75
-12.69
-13.4
-15.42
-18.96
-23.95
-30.03
-36.68
-43.1
-48.41
-51.73
-52.57
-50.88
-47.21
-42.4
-37.24
-32.21
-27.39
-22.63
-17.8
-13.04
-8.76
-5.52
-3.79
-3.81
-5.51
-8.59
-12.56
-16.83
-20.65
-23.19
-23.73
-22.02
-18.52
-14.33
-10.8
-8.88
-8.57
-8.88
-8.28
-5.39
0.31
8.27
17.12
25.25
31.4
34.89
35.73
34.41
31.69
28.37
25.16
22.55
20.79
19.94
19.94
20.63
21.78
23.08
24.13
24.56
24.13
22.78
20.59
17.69
14.19
10.19
5.92
1.82
-1.46
-3.19
-2.74
0.13
5.17
11.65
18.58
24.94
29.91
33.03
34.17
33.54
31.45
28.32
24.53
20.45
16.45
12.77
9.57
6.88
4.53
2.35
0.19
-2.04
-4.38
-6.95
-9.95
-13.58
-17.8
-22.21
-26
-28.14
-27.77
-24.61
-19.07
-12.15
-5.07
1.15
5.92
9.11
10.91
11.59
11.39
10.48
8.96
6.97
4.66
2.25
-0.09
-2.25
-4.23
-6.14
-8.11
-10.34
-12.96
-16.05
-19.62
-23.56
-27.59
-31.21
-33.75
-34.54
-33.16
-29.58
-24.32
-18.26
-12.38
-7.49
-4
-1.92
-0.99
-0.93
-1.57
-2.89
-4.94
-7.73
-11.12
-14.8
-18.39
-21.53
-23.92
-25.31
-25.52
-24.48
-22.3
-19.34
-16.11
-13.05
-10.22
-7.22
-3.25
2.59
10.93
21.88
35.01
49.46
64.18
78.09
90.13
99.37
105.04
106.68
104.27
98.23
89.46
79.12
68.43
58.46
49.88
42.88
37.2
32.21
27.23
21.71
15.4
8.32
0.69
-7.13
-14.72
-21.53
-26.94
-30.35
-31.38
-30.03
-26.81
-22.6
-18.43
-15.1
-13.04
-12.2
-12.31
-13.03
-14.24
-15.98
-18.34
-21.29
-24.55
-27.64
-30.07
-31.55
-32.13
-32.11
-32
-32.29
-33.37
-35.43
-38.42
-42
-45.49
-48.03
-48.71
-46.94
-42.58
-36.08
-28.34
-20.37
-13.05
-6.94
-2.29
0.91
2.72
3.26
2.71
1.35
-0.43
-2.2
-3.56
-4.28
-4.33
-3.91
-3.34
-2.97
-3.21
-4.32
-6.44
-9.44
-12.85
-15.87
-17.53
-16.97
-13.73
-7.95
-0.35
8.01
16.01
22.82
27.97
31.41
33.34
34.08
33.88
32.92
31.34
29.22
26.72
24.09
21.57
19.34
17.39
15.51
13.37
10.61
6.98
2.48
-2.65
-7.88
-12.6
-16.16
-18.11
-18.26
-16.76
-14.14
-11.18
-8.83
-7.95
-9.07
-12.19
-16.74
-21.72
-26.22
-29.68
-32.2
-34.36
-36.8
-39.79
-42.99
-45.63
-46.86
-46.13
-43.21
-38.05
-30.53
-20.32
-7.05
9.37
28.46
49.05
69.54
88.3
104.06
116.14
124.51
129.54
131.92
132.45
132.03
131.46
131.28
131.5
131.53
130.38
126.94
120.52
111.16
99.63
86.99
74.08
61
47.15
31.53
13.31
-7.71
-30.85
-54.87
-78.24
-99.65
-118.13
-133.1
-144.25
-151.46
-154.93
-155.28
-153.58
-151.12
-148.94
-147.46
-146.29
-144.53
-141.16
-135.61
-127.93
-118.84
-109.3
-100.2
-92
-84.66
-77.74
-70.63
-62.77
-53.87
-44.04
-33.71
-23.6
-14.4
-6.53
0
5.65
11.15
17.16
23.96
31.25
38.21
43.87
47.5
48.9
48.38
46.48
43.62
40.03
35.93
31.87
28.75
27.59
29.02
33.23
40.19
50.35
64.85
85.16
111.73
142.79
173.93
199.31
214
216.16
207.92
194.27
180.81
171.47
167.54
168.17
171.79
177.13
183.25
188.47
189.5
181.71
160.84
125.29
77.69
24.43
-26.89
-70.41
-104.2
-130.3
-152.8
-175.11
-197.92
-218.85
-233.71
-238.46
-230.71
-210
-177.53
-135.62
-87.63
-38.08
7.27
42.02
60.38
58.83
37.35
0.05
-45.64
-90.63
-126.33
-146.75
-149.78
-137.53
-115.41
-90.45
-69.2
-55.95
-52.14
-56.45
-65.88
-77.04
-87.26
-94.75
-98.31
-96.59
-88
-71.55
-48.16
-21.76
1.2
13.85
11.97
-3.72
-27.38
-50.43
-65.14
-67.93
-60.4
-47.89
-36.51
-30.29
-30.07
-34.12
-39.77
-45.01
-48.99
-51.75
-53.42
-53.48
-50.85
-44.39
-33.71
-19.66
-4.23
10.19
21.81
30.05
35.63
39.77
43.38
46.45
48.22
47.73
44.5
38.89
31.88
24.5
17.38
10.56
3.81
-3.08
-10.09
-17.1
-24.12
-31.31
-38.79
-46.15
-52.36
-55.93
-55.63
-51.17
-43.52
-34.61
-26.55
-20.84
-17.86
-17.01
-17.41
-18.48
-20.35
-23.54
-28.38
-34.46
-40.6
-45.34
-47.81
-48.26
-47.93
-48.35
-50.36
-53.8
-57.65
-60.88
-62.95
-63.86
-63.46
-60.8
-54.1
-41.52
-22.4
1.86
28
52.31
72.34
88.18
102.23
117.53
135.68
155.55
173.66
185.88
189.5
184.36
172.7
157.93
143.39
131.51
123.75
120.83
122.77
128.74
136.94
144.73
149.48
149.44
144.31
135.17
123.85
112.29
102.1
94.48
90.2
89.37
91.32
94.5
96.82
96.27
91.61
82.8
71
58.15
46.28
37.08
31.32
28.72
28.01
27.1
23.4
14.23
-2.47
-27.45
-59.64
-95.99
-131.9
-162.29
-182.9
-191.53
-188.82
-177.96
-163.53
-149.88
-139.68
-133.5
-130.26
-128.47
-127.18
-126.48
-126.93
-128.66
-130.59
-130.33
-124.79
-111.36
-89.11
-59.37
-25.81
6.45
32.24
47.86
52.2
46.91
35.35
21.05
6.43
-7.66
-21.24
-34.06
-44.97
-52.09
-53.88
-50.26
-43.1
-35.47
-30.35
-29.25
-31.7
-35.78
-39.11
-39.99
-37.9
-33.3
-27.12
-20.23
-13.15
-6.04
1.26
9.26
18.5
29.08
39.81
47.93
49.75
42.43
25.83
3.4
-18.71
-34.24
-39.41
-34.33
-22.26
-7.43
7.12
20.54
33.42
46.39
58.89
69.35
76.02
78.04
75.89
71.04
65.26
60.04
56.27
54.03
52.68
51
47.63
41.62
32.72
21.37
8.38
-5.62
-20.37
-35.69
-50.94
-64.8
-75.4
-81.14
-81.53
-77.61
-71.61
-65.88
-62.02
-60.24
-59.74
-59.52
-59.19
-59.25
-60.84
-64.9
-71.6
-80.13
-89.04
-97
-103.22
-107.6
-110.42
-112.02
-112.43
-111.19
-107.34
-99.52
-86.12
-65.54
-36.66
0.68
44.94
92.61
138.35
176.05
200.43
208.68
201.53
183.04
159.29
136.42
118.82
108.3
104.35
105.22
108.96
114.13
119.77
125.13
129.38
131.62
131
127.1
120.11
110.91
100.93
91.71
84.4
79.3
75.84
73.06
70.35
68
67.23
69.61
76
85.84
96.97
106.26
110.74
108.64
99.99
86.45
70.62
55.04
41.4
30.04
20.02
9.71
-2.4
-16.86
-32.93
-48.85
-62.7
-73.27
-80.66
-86.1
-91.27
-97.4
-104.69
-112.29
-118.79
-122.92
-123.94
-121.66
-116.27
-108.08
-97.58
-85.52
-72.91
-60.81
-49.87
-40.05
-30.7
-21.11
-11.12
-1.45
6.63
12.01
14.43
14.63
13.87
13.15
12.62
11.54
8.82
3.63
-4.09
-13.73
-24.32
-34.85
-44.48
-52.5
-58.2
-60.95
-60.5
-57.16
-51.84
-45.77
-40.01
-35.12
-30.98
-27.16
-23.22
-19.12
-15.22
-12.03
-9.87
-8.59
-7.6
-6.12
-3.38
1.11
7.53
15.76
25.38
35.67
45.65
54.17
60.22
63.25
63.44
61.71
59.48
58.25
59.04
62.2
67.36
73.61
79.74
84.57
87.15
86.89
83.67
77.68
69.29
58.87
46.77
33.42
19.49
5.93
-6.18
-16.03
-23.34
-28.45
-32.04
-34.71
-36.73
-38.11
-38.85
-39.29
-39.94
-41.21
-42.95
-44.3
-44.02
-41.04
-34.99
-26.36
-16.34
-6.3
2.66
9.95
15.47
19.39
21.98
23.45
23.89
23.29
21.65
19.05
15.68
11.89
8.09
4.63
1.72
-0.6
-2.43
-3.89
-5.12
-6.27
-7.61
-9.55
-12.46
-16.48
-21.29
-26
-29.24
-29.53
-25.65
-17.14
-4.49
10.83
26.72
40.96
51.86
58.71
61.77
62.16
61.33
60.79
61.8
65.33
72.02
82.01
94.8
109.04
122.54
132.61
136.74
133.37
122.53
105.86
85.99
65.54
46.16
28.18
10.92
-6.28
-23.03
-37.34
-46.02
-45.95
-35.41
-14.95
12.77
43.93
74.74
102.45
125.55
143.75
157.55
168.15
177.16
186.26
196.53
207.6
217.23
221.76
217.08
200.11
169.87
127.83
77.47
23.66
-28.08
-72.39
-105.13
-124.47
-131.76
-131.36
-129.11
-130.07
-136.49
-147.1
-158.17
-165.63
-167.18
-163.18
-156.22
-149.62
-145.9
-145.97
-149.21
-154.21
-159.7
-165.08
-170.56
-176.88
-184.84
-194.81
-206.68
-220.02
-234.51
-250.17
-267.02
-284.39
-300.23
-311.18
-313.5
-304.59
-284.3
-255.17
-221.28
-186.61
-153.61
-122.89
-94.09
-66.96
-42.06
-20.7
-4.08
7.28
13.79
16.38
16.08
13.73
10.03
5.64
1.17
-2.95
-6.58
-9.86
-13.09
-16.47
-20.14
-24.22
-28.83
-34
-39.34
-44.06
-46.99
-47.18
-44.24
-38.66
-31.51
-23.92
-16.52
-9.13
-0.94
9.04
21.34
35.82
51.64
67.66
82.81
96.36
107.82
116.77
122.79
125.57
125.21
122.51
118.87
115.95
115.03
116.6
120.08
124.04
126.65
126.29
122.08
114.09
103.34
91.47
80.19
70.77
63.6
58.02
52.39
44.69
33.39
18.36
1.39
-14.18
-24.65
-27.59
-23.09
-13.77
-3.76
3.13
4.9
2.08
-2.97
-7.28
-8.83
-7.22
-3.38
1.23
5.52
9.22
12.67
16.41
20.59
24.86
28.63
31.59
33.99
36.53
39.76
43.5
46.52
47.06
43.65
35.9
24.83
12.43
0.84
-8.3
-14.4
-17.66
-18.78
-18.44
-17
-14.47
-10.62
-5.06
2.48
11.89
22.51
33.12
42.28
48.97
53.07
55.47
57.63
60.8
65.44
70.98
76.06
78.84
77.35
69.81
55.06
33.1
5.39
-25.26
-55.47
-82.52
-105.35
-124.66
-142.01
-158.27
-172.61
-182.54
-184.94
-177.66
-160.37
-134.57
-102.88
-68.16
-33.17
-0.56
27.14
47.72
59.94
64.12
62.23
57.29
52.22
48.85
47.53
47.5
47.68
47.3
46.17
44.52
42.73
41.16
40.07
39.67
40.02
40.87
41.65
41.62
40.31
37.9
35.4
34.32
35.96
40.51
46.69
51.92
53.29
48.62
37.26
20.3
0.11
-20.08
-36.8
-46.96
-48.79
-42.71
-31.73
-20.92
-15.51
-18.7
-29.98
-45.19
-58.42
-64.77
-62.49
-53.53
-42.14
-32.64
-27.52
-26.77
-28.44
-29.96
-29.31
-25.69
-19.49
-11.64
-2.71
7.58
20.34
36.72
56.81
79.02
100.3
117.31
127.94
132.12
131.58
128.63
124.88
120.85
116.65
113
111.53
113.72
119.14
124.28
123.15
109.82
81.35
39.64
-9.23
-57.43
-98.28
-128.25
-146.9
-155.6
-155.72
-147.79
-131.62
-107.39
-76.84
-43.8
-13.65
8.13
17.88
15.32
3.84
-10.77
-22.58
-27.93
-26.68
-21.64
-16.79
-15.21
-17.89
-23.83
-31.08
-37.99
-43.77
-48.51
-52.45
-55.46
-56.83
-55.82
-52.37
-47.47
-42.98
-40.6
-40.83
-42.59
-43.74
-42.27
-37.37
-29.85
-21.57
-14.38
-9.25
-6.17
-4.53
-3.83
-4.03
-5.38
-8
-11.63
-15.63
-19.3
-22.22
-24.34
-25.89
-27.11
-28.12
-28.83
-29.08
-28.85
-28.23
-27.21
-25.43
-21.98
-15.69
-5.77
7.53
22.61
36.99
48.25
54.99
57.43
57.08
56.04
55.99
57.59
60.32
62.99
64.33
63.68
61.36
58.5
56.52
56.53
59.02
63.94
71.16
80.67
92.02
103.38
111.19
111.42
101.97
84.98
66.96
55.97
57.11
69.07
84.06
91.63
84.24
61.13
28.37
-4.9
-31.36
-48.54
-58.49
-64.81
-69.67
-72.75
-72.45
-67.98
-60.67
-53.5
-49.4
-49.44
-52.19
-54.64
-53.86
-48.43
-38.87
-26.86
-14.25
-2.12
9.26
20.09
30.52
40.51
49.83
58.18
65.2
70.4
73.18
72.87
68.71
59.98
46.27
27.66
4.96
-20.17
-45.5
-68.58
-87.43
-101.06
-109.81
-115.04
-118.49
-121.39
-123.88
-125.07
-123.54
-118.17
-108.79
-96.28
-82.19
-68.12
-55.15
-43.67
-33.6
-24.75
-17.01
-10.16
-3.51
4.09
13.97
26.87
42.47
59.37
75.63
89.53
100.18
107.54
111.99
113.8
112.72
108.23
99.95
88.2
74.1
59.29
45.22
32.65
21.43
10.9
0.43
-10.21
-20.7
-30.53
-39.29
-46.93
-53.59
-59.28
-63.61
-65.71
-64.62
-59.85
-51.69
-41.39
-30.73
-21.47
-14.78
-11.07
-10.06
-11.05
-13.13
-15.21
-16
-14.21
-8.82
0.42
12.7
26.31
39.09
48.98
54.56
55.27
51.42
44
34.55
24.85
16.62
11.07
8.58
8.6
9.98
11.45
12.21
12.07
11.37
10.64
10.36
10.75
11.89
13.76
16.26
19.18
22.04
24.13
24.61
22.81
18.47
11.98
4.23
-3.7
-10.97
-17.22
-22.68
-27.93
-33.6
-40.04
-47.13
-54.38
-61.08
-66.58
-70.46
-72.57
-72.86
-71.29
-67.66
-61.67
-52.96
-41.44
-27.37
-11.53
4.92
20.67
34.57
45.85
54.13
59.41
61.82
61.59
58.93
54.13
47.57
39.78
31.36
22.87
14.77
7.38
0.92
-4.38
-8.25
-10.48
-11.06
-10.36
-9.13
-8.28
-8.45
-9.72
-11.33
-12.01
-10.4
-5.63
2.26
12.35
23.24
33.53
42.21
48.87
53.55
56.5
58.01
58.36
57.71
56.29
54.32
51.92
49.12
45.84
41.96
37.51
32.72
28.01
23.85
20.44
17.4
13.77
8.13
-0.92
-14.28
-31.92
-52.68
-74.36
-94.07
-108.85
-116.36
-115.55
-106.89
-92.21
-74.15
-55.39
-38.02
-23.18
-11.18
-1.75
5.47
10.86
14.78
17.75
20.41
23.34
26.78
30.38
33.37
34.71
33.75
30.53
25.86
21.02
17.22
15.22
15.09
16.39
18.48
20.74
22.6
23.55
23.17
21.28
18.3
15.37
14.17
16.39
23.06
34.11
48.38
64.11
79.65
94.02
107.08
119.2
130.79
141.87
151.96
160.23
165.78
167.88
166.2
161.04
153.37
144.75
136.84
130.72
126.32
122.26
116.26
106
90.04
68.31
41.98
12.96
-16.83
-45.97
-73.67
-99.75
-124.36
-147.72
-169.85
-190.25
-207.9
-221.61
-230.44
-234.22
-233.65
-229.98
-224.41
-217.69
-210
-201.45
-192.49
-184.19
-178.02
-175.18
-176.02
-179.74
-184.61
-188.56
-189.78
-187.35
-181.34
-172.62
-162.39
-151.69
-141.04
-130.53
-119.88
-108.54
-95.69
-80.27
-61.17
-37.83
-10.97
17
42.22
60.56
68.99
66.66
55.11
37.69
18.47
1.4
-10.22
-13.92
-8.36
6.4
28.68
55.35
82.53
106.68
125.54
138.68
147.22
153.03
157.78
162.17
165.68
166.81
163.84
155.64
142.29
125.19
106.61
88.98
74.18
63.19
56.02
52.02
50.19
49.41
48.61
46.84
43.47
38.36
31.97
25.25
19.26
14.72
11.68
9.47
7.13
3.93
-0.1
-4.01
-6.25
-5.29
-0.24
8.71
20.2
31.91
40.95
44.6
40.97
29.73
12.45
-7.64
-26.49
-40.57
-48.02
-49.2
-46.42
-42.88
-41.72
-45.13
-54.04
-67.97
-84.93
-101.75
-114.69
-120.51
-117.45
-105.74
-87.22
-64.62
-40.69
-17.87
1.48
14.91
20.13
15.9
3.16
-14.45
-31.37
-41.86
-42.16
-31.78
-13.4
8.43
29.17
45.77
57.13
63.76
66.75
67.05
65.12
61.21
55.81
49.84
44.57
41.06
39.76
40.3
41.75
42.9
42.79
40.86
37.07
31.78
25.61
19.15
12.8
6.6
0.27
-6.56
-14.14
-22.42
-30.99
-39.27
-46.53
-52.14
-55.55
-56.36
-54.45
-49.99
-43.51
-35.85
-27.98
-20.85
-15.17
-11.38
-9.57
-9.54
-10.69
-12.15
-12.95
-12.27
-9.76
-5.73
-1.09
2.98
5.44
5.75
4.02
0.87
-2.93
-6.83
-10.64
-14.57
-19.05
-24.55
-31.39
-39.62
-48.81
-57.97
-65.44
-69.29
-67.87
-60.48
-47.79
-31.7
-14.64
1.17
14.38
24.5
31.51
35.47
36.26
33.85
28.58
21.42
13.79
7.2
2.66
0.52
0.42
1.62
3.3
4.86
6.13
7.32
8.8
10.8
13.17
15.4
16.9
17.38
17.04
16.53
16.47
17.25
18.86
21.09
23.79
26.93
30.36
33.56
35.57
35.19
31.55
24.58
14.99
4.05
-6.97
-17.11
-25.8
-32.68
-37.55
-40.33
-41.29
-41.14
-40.92
-41.77
-44.57
-49.59
-56.54
-64.62
-72.86
-80.5
-87.16
-93.03
-98.71
-104.87
-111.86
-119.25
-125.79
-129.53
-128.42
-121.04
-107.17
-88.01
-65.85
-43.33
-22.59
-4.68
10.48
23.64
35.57
46.51
56.01
63.32
67.8
69.43
68.91
67.35
65.91
65.36
65.93
67.41
69.29
70.98
71.88
71.48
69.41
65.4
59.36
51.27
41.24
29.54
16.8
4.08
-7.16
-15.48
-19.79
-19.82
-16.16
-9.98
-2.63
4.77
11.43
16.92
21.04
23.78
25.4
26.39
27.48
29.35
32.48
36.9
42.29
47.99
53.29
57.61
60.62
62.25
62.66
62.1
60.77
58.87
56.5
53.76
50.66
47.16
43.16
38.62
33.77
29.17
25.56
23.52
23.17
24
25.14
25.74
25.44
24.4
23.17
22.18
21.57
21.05
20.17
18.52
15.96
12.57
8.65
4.52
0.55
-2.94
-5.73
-7.78
-9.34
-10.8
-12.56
-14.81
-17.45
-20.16
-22.59
-24.64
-26.59
-28.97
-32.37
-37.17
-43.35
-50.46
-57.62
-63.78
-67.83
-68.96
-66.83
-61.66
-54.16
-45.32
-36.1
-27.36
-19.82
-14.1
-10.62
-9.48
-10.26
-12.06
-13.7
-14.25
-13.31
-11.08
-8.18
-5.17
-2.36
0.31
3.05
6.05
9.32
12.79
16.33
19.88
23.3
26.31
28.46
29.24
28.36
25.92
22.57
19.36
17.4
17.54
20.14
24.96
31.3
38.2
44.64
49.74
52.77
53.27
51.12
46.58
40.32
33.33
26.68
21.37
18.15
17.38
18.99
22.45
26.85
31.06
33.93
34.67
32.98
29.16
23.93
18.11
12.37
7.08
2.43
-1.3
-3.66
-4.04
-1.94
2.74
9.59
17.82
26.53
35.07
43.08
50.4
56.84
61.98
65.23
65.95
63.73
58.47
50.46
40.24
28.62
16.65
5.56
-3.34
-8.95
-10.71
-8.84
-4.36
1.17
6.11
9.2
9.83
8.07
4.53
0.14
-4.06
-6.98
-7.69
-5.58
-0.68
6.27
13.85
20.33
24.24
24.73
21.83
16.25
8.91
0.65
-8.13
-17.47
-27.67
-38.97
-51.2
-63.5
-74.25
-81.42
-83.13
-78.56
-68.53
-55.48
-42.68
-33.09
-28.36
-28.5
-32.45
-38.81
-46.54
-54.99
-63.55
-71.21
-76.6
-78.43
-76.24
-70.7
-63.42
-56.31
-50.68
-46.87
-44.35
-42.25
-39.9
-37.17
-34.43
-32.25
-30.96
-30.39
-29.92
-28.78
-26.46
-22.97
-18.86
-14.94
-11.88
-9.8
-8.32
-6.72
-4.39
-1.14
2.61
6.06
8.4
9.33
9.22
9.12
10.28
13.66
19.48
27.12
35.33
42.78
48.47
52.01
53.53
53.43
52.02
49.45
45.72
40.89
35.26
29.37
23.89
19.4
16.27
14.53
13.93
14.05
14.37
14.37
13.63
11.85
8.88
4.77
-0.27
-5.9
-11.72
-17.19
-21.7
-24.58
-25.21
-23.15
-18.3
-11.01
-2.09
7.28
15.82
22.39
26.25
27.22
25.72
22.52
18.56
14.65
11.29
8.65
6.63
4.97
3.28
1.16
-1.8
-5.86
-11
-16.81
-22.71
-28.14
-32.96
-37.56
-42.64
-48.73
-55.63
-62.17
-66.49
-66.79
-62.13
-52.87
-40.47
-26.77
-13.12
0.01
12.87
25.79
38.59
50.35
59.81
66.03
68.93
69.31
68.32
66.89
65.2
62.79
58.96
53.37
46.28
38.53
31.05
24.5
19
14.13
9.15
3.34
-3.78
-12.25
-21.64
-31.18
-39.85
-46.62
-50.69
-51.59
-49.32
-44.3
-37.22
-28.97
-20.41
-12.3
-5.19
0.59
4.89
7.68
9.07
9.22
8.41
7.05
5.58
4.44
3.9
3.94
4.33
4.72
4.82
4.56
4.05
3.46
2.89
2.28
1.43
0.13
-1.76
-4.23
-7.05
-9.84
-12.07
-13.2
-12.82
-10.87
-7.75
-4.23
-1.18
0.78
1.56
1.48
1.05
0.5
-0.35
-2.02
-5
-9.47
-15.05
-20.96
-26.31
-30.38
-32.72
-33.23
-32.03
-29.48
-26.12
-22.62
-19.63
-17.63
-16.77
-16.91
-17.73
-18.97
-20.55
-22.56
-25.16
-28.47
-32.42
-36.67
-40.64
-43.51
-44.34
-42.37
-37.2
-29.08
-18.89
-7.87
2.76
12.18
20.06
26.53
31.82
36.07
39.23
41.18
41.89
41.54
40.5
39.18
37.97
37.2
37.1
37.75
39.04
40.66
42.13
43.03
43.13
42.45
41.13
39.22
36.57
32.78
27.46
20.36
11.54
1.31
-9.75
-20.9
-31.19
-39.57
-45.07
-47.1
-45.67
-41.45
-35.6
-29.38
-23.78
-19.34
-16.14
-14.03
-12.73
-11.99
-11.56
-11.19
-10.67
-9.8
-8.49
-6.67
-4.28
-1.25
2.61
7.47
13.39
20.18
27.28
33.8
38.75
41.26
40.97
38.21
33.98
29.63
26.35
24.67
24.32
24.37
23.78
21.92
18.89
15.44
12.43
10.33
8.84
6.92
3.27
-3.18
-12.84
-25.24
-39.2
-53.01
-64.77
-72.8
-75.88
-73.65
-66.65
-56.31
-44.52
-33.15
-23.55
-16.32
-11.43
-8.6
-7.5
-7.94
-9.64
-12
-14.11
-14.9
-13.53
-9.66
-3.47
4.59
13.95
23.96
33.82
42.5
48.96
52.46
52.89
50.78
47.03
42.46
37.54
32.37
26.98
21.53
16.38
12.03
8.92
7.25
6.9
7.34
7.61
6.4
2.6
-4.18
-13.05
-21.93
-28.22
-29.84
-26.11
-17.95
-7.38
3.39
12.66
19.53
23.72
25.24
24.25
21.08
16.38
11.09
6.17
2.3
-0.39
-2.15
-3.38
-4.29
-4.85
-4.89
-4.26
-2.85
-0.46
3.2
8.43
15.22
23.01
30.76
37.32
41.95
44.59
45.74
45.95
45.3
43.18
38.6
30.76
19.55
5.61
-9.83
-25.31
-39.35
-50.57
-57.75
-60.04
-57.19
-49.85
-39.5
-28.16
-17.88
-10.14
-5.63
-4.05
-4.44
-5.59
-6.4
-6.3
-5.3
-3.82
-2.38
-1.2
0
1.95
5.49
11.15
18.81
27.65
36.35
43.49
47.96
49.23
47.37
42.84
36.17
27.77
17.97
7.16
-3.98
-14.45
-23.18
-29.38
-32.81
-33.83
-33.11
-31.29
-28.69
-25.36
-21.27
-16.66
-12.08
-8.28
-6
-5.62
-7.14
-10.23
-14.4
-19.25
-24.51
-30.1
-35.98
-42.07
-48.14
-53.92
-59.1
-63.5
-67.1
-69.96
-72.15
-73.6
-74.23
-73.94
-72.86
-71.24
-69.41
-67.42
-64.89
-61.09
-55.2
-46.8
-36.22
-24.48
-13.04
-3.23
4.2
9.26
12.63
15.23
17.78
20.56
23.39
25.87
27.67
28.7
29.1
29.08
28.68
27.77
26.15
23.8
21.02
18.46
16.79
16.38
17.1
18.37
19.42
19.65
18.82
17.04
14.61
11.91
9.3
7.15
5.85
5.81
7.32
10.39
14.78
20.05
25.68
31.19
36.19
40.32
43.27
44.77
44.53
42.38
38.25
32.24
24.69
16.07
6.89
-2.44
-11.65
-20.57
-29.05
-36.89
-43.98
-50.37
-56.39
-62.5
-69.04
-75.89
-82.34
-87.23
-89.41
-88.15
-83.51
-76.29
-67.75
-59.19
-51.6
-45.36
-40.22
-35.37
-29.66
-21.94
-11.38
2.23
18.33
35.75
53.03
68.85
82.41
93.51
102.43
109.57
115.24
119.5
122.19
123.05
121.8
118.17
112.03
103.41
92.62
80.22
66.9
53.25
39.66
26.35
13.45
1.07
-10.75
-22.11
-33.32
-44.59
-55.77
-66.13
-74.6
-80.29
-82.99
-83.3
-82.35
-81.26
-80.66
-80.74
-81.42
-82.68
-84.6
-87.12
-89.77
-91.73
-92.01
-89.94
-85.32
-78.35
-69.39
-58.8
-46.91
-34.14
-21.05
-8.05
4.75
17.52
30.6
43.96
57.05
68.91
78.54
85.44
89.75
92.11
93.22
93.41
92.61
90.53
87.04
82.34
76.97
71.58
66.72
62.63
59.23
56.13
52.87
49.09
44.7
39.85
34.86
29.93
25.08
20.12
14.88
9.37
3.85
-1.34
-6.06
-10.44
-14.89
-19.83
-25.48
-31.86
-38.92
-46.61
-54.87
-63.41
-71.49
-77.98
-81.68
-81.74
-77.96
-70.73
-60.81
-48.95
-35.8
-21.95
-8.05
5.08
16.62
25.97
32.98
38.05
41.96
45.55
49.37
53.59
58
62.27
66.23
69.92
73.48
76.86
79.7
81.43
81.58
80.18
77.73
74.87
71.97
68.89
65.07
59.87
52.84
43.73
32.49
19.18
4.2
-11.5
-26.47
-39.16
-48.6
-54.88
-59.13
-62.8
-66.93
-71.66
-76.38
-80.14
-82.13
-81.76
-78.66
-72.62
-63.72
-52.57
-40.29
-28.21
-17.38
-8.14
-0.12
7.34
14.69
21.96
28.78
34.78
39.79
43.8
46.8
48.56
48.78
47.28
44.36
40.65
36.82
33.11
29.04
23.61
15.88
5.59
-6.57
-19.09
-30.35
-39.15
-45.09
-48.36
-49.44
-48.73
-46.51
-43.13
-39.21
-35.6
-33
-31.53
-30.49
-28.66
-24.79
-18.17
-8.81
2.79
16
30.25
44.93
59.06
71.31
80.18
84.6
84.43
80.45
74.04
66.57
58.91
51.37
43.99
36.76
29.87
23.56
18.01
13.16
8.79
4.64
0.56
-3.42
-7.15
-10.38
-12.91
-14.6
-15.49
-15.8
-15.86
-15.95
-16.21
-16.57
-16.91
-17.19
-17.56
-18.33
-19.79
-22.1
-25.24
-29.11
-33.69
-38.92
-44.62
-50.2
-54.76
-57.36
-57.48
-55.25
-51.41
-46.94
-42.71
-39.19
-36.54
-34.77
-33.8
-33.36
-32.91
-31.75
-29.27
-25.31
-20.32
-15.15
-10.68
-7.44
-5.42
-4.32
-3.79
-3.71
-4.13
-5.17
-6.83
-8.99
-11.45
-13.94
-16.26
-18.16
-19.39
-19.82
-19.44
-18.39
-16.98
-15.51
-14.21
-13.17
-12.25
-11.17
-9.51
-6.94
-3.27
1.34
6.32
10.86
14.09
15.33
14.3
11.16
6.52
1.21
-3.93
-8.3
-11.67
-14.09
-15.69
-16.39
-15.83
-13.52
-9.22
-3.16
3.92
11.18
18.03
24.44
30.66
36.75
42.13
45.53
45.52
41.34
33.54
24.1
15.77
11
10.97
15.16
21.57
27.61
31.02
30.71
26.94
21.12
15.25
11.19
10
11.66
15.12
18.82
21.41
22.28
21.78
20.83
20.26
20.18
19.85
18.07
13.94
7.49
-0.25
-7.57
-12.88
-15.41
-15.47
-14.21
-13.06
-13.06
-14.53
-17.19
-20.57
-24.52
-29.26
-35.06
-41.77
-48.45
-53.54
-55.43
-53.14
-46.68
-37.03
-25.74
-14.47
-4.79
1.99
4.88
3.56
-1.32
-8.11
-14.53
-18.49
-18.78
-15.42
-9.39
-2.01
5.61
12.86
19.47
25.21
29.68
32.35
32.79
30.95
27.25
22.51
17.62
13.3
9.84
7.08
4.64
2.15
-0.41
-2.68
-4.2
-4.69
-4.31
-3.74
-3.82
-5.15
-7.84
-11.4
-14.99
-17.78
-19.17
-19.08
-17.9
-16.52
-16.06
-17.6
-21.88
-29.11
-38.9
-50.28
-61.78
-71.6
-77.71
-78.32
-72.34
-59.87
-42.34
-22.13
-1.91
16.14
30.71
41.37
48.19
51.47
51.69
49.68
46.61
43.85
42.54
43.18
45.56
49.02
52.76
56.23
59.2
61.79
64.36
67.47
71.55
76.67
82.03
85.91
86.17
81.11
70.41
55.51
38.95
23.28
9.87
-1.45
-11.83
-22.34
-33.15
-43.33
-51.43
-56.17
-56.95
-53.88
-47.45
-38.3
-27.19
-15.12
-3.38
6.68
14.04
18.23
19.44
18.23
15.29
11.21
6.53
1.82
-2.33
-5.4
-7.13
-7.67
-7.44
-6.95
-6.59
-6.51
-6.68
-7.05
-7.8
-9.32
-12.2
-16.91
-23.62
-31.96
-41.09
-49.91
-57.3
-62.41
-64.73
-64.24
-61.35
-56.84
-51.68
-46.8
-42.78
-39.55
-36.32
-31.78
-24.58
-13.85
0.38
17.28
35.47
53.48
70.11
84.47
95.97
104.19
108.83
109.8
107.24
101.61
93.59
84.06
73.93
64.16
55.54
48.63
43.61
40.16
37.63
35.21
32.13
27.92
22.45
15.96
8.95
2.09
-4
-8.88
-12.39
-14.6
-15.65
-15.61
-14.46
-12.28
-9.45
-6.81
-5.42
-6.09
-8.96
-13.25
-17.57
-20.49
-21.11
-19.31
-15.58
-10.54
-4.54
2.46
10.61
19.73
28.96
36.93
42.12
43.51
40.91
35.08
27.41
19.49
12.66
7.74
4.92
3.8
3.6
3.39
2.38
0.14
-3.28
-7.42
-11.66
-15.55
-19.02
-22.37
-26.04
-30.35
-35.21
-40.18
-44.5
-47.38
-48.17
-46.51
-42.39
-36.08
-28.09
-19.08
-9.73
-0.7
7.45
14.29
19.48
22.82
24.24
23.86
22.01
19.21
16.11
13.31
11.27
10.08
9.56
9.24
8.66
7.52
5.78
3.7
1.64
-0.13
-1.55
-2.86
-4.43
-6.66
-9.74
-13.56
-17.67
-21.36
-23.87
-24.54
-23.11
-19.73
-14.98
-9.61
-4.35
0.31
4.13
7.03
8.95
9.78
9.4
7.79
5.18
1.94
-1.5
-4.81
-7.83
-10.61
-13.3
-16.02
-18.81
-21.59
-24.27
-26.75
-29
-31.04
-32.97
-34.9
-36.93
-39.06
-41.12
-42.78
-43.63
-43.17
-41
-36.92
-30.96
-23.49
-15.22
-7.01
0.25
5.94
9.86
12.15
13.15
13.18
12.43
10.93
8.85
6.56
4.61
3.62
3.89
5.33
7.47
9.68
11.52
12.8
13.6
14
13.93
13.02
10.76
6.72
0.8
-6.71
-15.06
-23.31
-30.49
-35.78
-38.7
-39.19
-37.57
-34.51
-30.79
-27.13
-23.87
-21.01
-18.19
-15.03
-11.38
-7.52
-4.02
-1.49
-0.19
0.11
0.06
0.41
1.64
3.67
5.98
7.88
8.92
9.14
9.06
9.3
10.33
12.08
14.07
15.65
16.27
15.71
14.03
11.4
7.95
3.86
-0.55
-4.62
-7.4
-8.06
-6.24
-2.38
2.44
6.96
10.28
12.2
13.11
13.57
13.86
13.78
12.84
10.72
7.55
4.04
1.12
-0.51
-0.76
-0.13
0.63
0.93
0.73
0.49
0.85
2.29
4.74
7.73
10.52
12.5
13.34
13.01
11.68
9.56
6.86
3.8
0.72
-1.89
-3.41
-3.17
-0.58
4.74
12.68
22.52
32.92
42.22
48.98
52.5
53.07
51.72
49.63
47.54
45.47
42.87
39.17
34.32
28.92
23.96
20.25
18.01
16.7
15.38
13.18
9.77
5.46
0.95
-3.08
-6.35
-9.01
-11.54
-14.31
-17.32
-20.12
-22.09
-22.82
-22.38
-21.38
-20.59
-20.61
-21.58
-23.3
-25.53
-28.25
-31.64
-35.78
-40.26
-44.1
-46.06
-45.23
-41.51
-35.71
-29.11
-22.86
-17.53
-13.08
-9.18
-5.64
-2.51
-0.05
1.62
2.64
3.4
4.36
5.79
7.67
9.76
11.73
13.32
14.46
15.25
15.93
16.71
17.7
18.77
19.49
19.33
17.78
14.66
10.12
4.73
-0.77
-5.62
-9.24
-11.36
-12.04
-11.72
-11
-10.54
-10.85
-12.15
-14.32
-16.95
-19.48
-21.29
-21.86
-20.82
-18.01
-13.58
-7.91
-1.56
4.88
10.93
16.3
20.84
24.53
27.37
29.37
30.51
30.8
30.29
29.1
27.38
25.38
23.44
21.94
21.18
21.31
22.21
23.48
24.64
25.27
25.16
24.35
23.07
21.66
20.53
20.2
21.26
24.23
29.26
35.97
43.32
49.99
54.77
56.99
56.61
53.93
49.17
42.18
32.59
20.1
5.01
-11.59
-28.07
-42.7
-54.19
-61.98
-66.21
-67.5
-66.63
-64.3
-61.06
-57.21
-52.89
-48.15
-43.06
-37.78
-32.55
-27.68
-23.31
-19.42
-15.82
-12.32
-8.95
-5.94
-3.74
-2.71
-3.04
-4.63
-7.16
-10.28
-13.61
-16.93
-20.07
-23.01
-25.72
-28.18
-30.35
-32.19
-33.72
-35.19
-36.91
-39.24
-42.31
-45.89
-49.34
-51.82
-52.59
-51.24
-47.8
-42.67
-36.39
-29.44
-22.21
-15
-8.19
-2.22
2.49
5.73
7.71
8.97
10.18
11.72
13.45
14.72
14.72
12.93
9.38
4.51
-1.08
-6.99
-13.03
-19.09
-24.81
-29.38
-31.5
-29.68
-22.71
-10.21
6.95
26.63
45.78
61.07
69.76
70.23
62.4
47.48
27.64
5.42
-16.75
-36.81
-53.27
-65.25
-72.51
-75.42
-74.83
-71.89
-67.77
-63.45
-59.46
-55.76
-51.66
-46.04
-37.6
-25.23
-8.43
12.41
35.9
59.76
81.37
98.4
109.6
115.17
116.59
115.92
114.9
114.45
114.56
114.8
114.82
114.69
114.62
114.58
114.04
112.1
107.93
101.29
92.63
82.9
72.99
63.4
54.09
44.76
35.17
25.39
15.76
6.79
-0.99
-7.18
-11.47
-13.78
-14.33
-13.75
-13.01
-13.07
-14.56
-17.49
-21.17
-24.56
-26.72
-27.18
-26.03
-23.72
-20.67
-17.14
-13.36
-9.82
-7.5
-7.77
-11.96
-20.81
-34.17
-51.03
-69.72
-88.26
-104.49
-116.23
-121.68
-119.97
-111.7
-99.11
-85.53
-74.26
-67.37
-65.19
-66.52
-69.54
-72.74
-75.33
-77.1
-78
-77.93
-76.74
-74.52
-71.69
-68.88
-66.53
-64.62
-62.59
-59.58
-54.81
-47.81
-38.54
-27.44
-15.34
-3.41
7.05
14.93
19.58
21.01
19.85
17.08
13.83
11.2
10.12
11.29
14.97
20.84
27.98
35
40.45
43.22
42.85
39.62
34.49
28.8
23.93
20.93
20.2
21.36
23.46
25.24
25.73
24.51
21.83
18.31
14.55
10.87
7.16
3.04
-1.86
-7.85
-14.99
-23.1
-31.85
-40.79
-49.33
-56.86
-62.73
-66.28
-66.94
-64.41
-58.72
-50.34
-40.17
-29.34
-18.83
-9.28
-0.78
6.95
14.27
21.31
27.96
33.93
38.99
43.1
46.37
48.9
50.59
51.19
50.47
48.46
45.54
42.31
39.23
36.44
33.67
30.54
26.81
22.67
18.64
15.26
12.78
11
9.39
7.43
5.08
2.84
1.75
2.93
7.11
14.35
24
35.02
46.28
56.85
65.98
73.04
77.5
79.07
77.98
75.03
71.25
67.38
63.31
58.12
50.68
40.47
28.2
15.63
4.74
-3.25
-8.36
-11.67
-14.45
-17.53
-20.96
-24.34
-27.44
-30.48
-34.03
-38.63
-44.3
-50.38
-55.81
-59.42
-60.31
-57.95
-52.37
-44.06
-34.03
-23.69
-14.59
-8.01
-4.5
-3.77
-4.73
-6.06
-6.74
-6.47
-5.75
-5.49
-6.49
-9.12
-13.22
-18.4
-24.33
-30.8
-37.64
-44.48
-50.63
-55.33
-58.13
-59.32
-60.01
-61.73
-65.88
-73.21
-83.62
-96.34
-110.36
-124.68
-138.5
-151.15
-162.05
-170.84
-177.35
-181.55
-183.26
-181.69
-175.29
-161.96
-139.98
-109.12
-71.24
-30.18
9.32
43.2
69.25
87.42
99.21
106.46
110.47
111.7
110.23
106.4
101.11
95.64
90.97
87.16
83.27
77.79
69.44
57.87
43.92
29.3
15.9
5.17
-2.19
-6.03
-6.43
-3.28
3.71
14.71
29.32
46.34
63.94
80.17
93.59
103.77
111.18
116.84
121.65
126
129.67
132.06
132.61
131.05
127.47
122.26
115.87
108.66
101
93.37
86.51
81.15
77.66
75.6
73.58
69.74
62.59
51.8
38.36
24.07
10.49
-1.68
-12.74
-23.23
-33.09
-41.18
-45.71
-45.26
-39.72
-30.59
-20.35
-11.44
-5.26
-1.84
-0.09
1.5
4.12
8.21
13.32
18.27
21.62
22.11
19.16
13.02
4.52
-5.34
-15.93
-27.11
-38.99
-51.48
-63.91
-75.01
-83.45
-88.35
-89.78
-88.67
-86.37
-84.01
-82.06
-80.2
-77.54
-73.07
-65.94
-55.7
-42.34
-26.2
-7.97
11.38
30.59
48.28
63.19
74.46
81.84
85.67
86.69
85.66
83.26
79.86
75.69
70.91
65.67
60.18
54.59
49.01
43.47
37.91
32.25
26.45
20.44
14.31
8.19
2.27
-3.3
-8.47
-13.38
-18.19
-23.15
-28.39
-34
-39.96
-46.12
-52.1
-57.24
-60.6
-61.26
-58.62
-52.73
-44.34
-34.67
-25.09
-16.58
-9.66
-4.27
-0.06
3.35
6.28
8.9
11.29
13.53
15.67
17.66
19.34
20.36
20.33
18.95
16.16
12.19
7.49
2.61
-2.02
-6.25
-10.19
-14.14
-18.34
-22.77
-27.04
-30.56
-32.86
-33.84
-34
-34.13
-35.01
-36.84
-39.13
-40.77
-40.56
-37.6
-31.68
-23.28
-13.27
-2.66
7.72
17.25
25.59
32.48
37.8
41.58
44.04
45.64
46.99
48.62
50.8
53.44
56.19
58.67
60.7
62.43
64.18
66.15
68.12
69.35
68.82
65.65
59.43
50.47
39.59
27.85
16.18
5.31
-4.22
-11.81
-16.85
-18.82
-17.63
-13.87
-8.72
-3.55
0.57
3.19
4.51
5.05
5.18
4.96
4.09
2.29
-0.43
-3.63
-6.64
-8.82
-9.87
-9.92
-9.34
-8.59
-8
-7.74
-7.83
-8.3
-9.24
-10.86
-13.37
-16.9
-21.41
-26.69
-32.43
-38.23
-43.65
-48.23
-51.5
-53.02
-52.51
-49.92
-45.57
-40.11
-34.37
-29.15
-25.01
-22.23
-20.78
-20.45
-20.88
-21.69
-22.49
-22.97
-22.95
-22.43
-21.57
-20.69
-20.14
-20.16
-20.77
-21.78
-22.89
-23.86
-24.57
-25.12
-25.74
-26.64
-27.85
-29.24
-30.5
-31.26
-31.16
-29.83
-26.98
-22.38
-16.01
-8.11
0.78
9.89
18.51
26.09
32.38
37.38
41.14
43.63
44.73
44.36
42.66
40.06
37.14
34.51
32.51
31.12
29.99
28.57
26.38
23.2
19.15
14.65
10.21
6.25
2.85
-0.22
-3.49
-7.55
-12.77
-19.19
-26.44
-33.76
-40.07
-44.26
-45.35
-42.88
-37.09
-28.99
-20.01
-11.59
-4.64
0.73
5.01
8.94
12.99
17.11
20.79
23.32
24.22
23.4
21.23
18.32
15.37
12.89
11.21
10.38
10.25
10.55
10.96
11.26
11.38
11.42
11.55
11.88
12.35
12.59
12.05
10.2
6.77
2.04
-3.07
-7.21
-8.93
-7.08
-1.18
8.56
21.31
35.81
50.6
64.12
74.87
81.67
84.02
82.31
77.75
71.9
65.94
60.18
54.03
46.5
36.94
25.59
13.5
2.08
-7.62
-15.27
-21.19
-26.03
-30.31
-34.27
-37.93
-41.29
-44.45
-47.51
-50.44
-53.03
-54.96
-56.1
-56.62
-57.04
-57.94
-59.59
-61.61
-62.95
-62.25
-58.44
-51.24
-41.44
-30.55
-20.2
-11.52
-4.78
0.5
5.07
9.47
13.69
17.21
19.39
19.8
18.49
15.99
13.21
11.03
10.09
10.5
11.88
13.51
14.7
14.93
13.99
11.8
8.26
3.27
-3.13
-10.56
-18.23
-25.08
-30.28
-33.52
-35.18
-36
-36.59
-37.01
-36.71
-34.79
-30.52
-23.67
-14.67
-4.44
5.82
14.87
21.54
24.97
24.72
20.91
14.27
5.91
-2.82
-10.77
-17.1
-21.4
-23.53
-23.49
-21.31
-17.03
-10.65
-2.31
7.67
18.63
29.54
39.11
46.07
49.55
49.48
46.66
42.5
38.49
35.7
34.43
34.32
34.63
34.71
34.17
32.91
30.93
28.17
24.54
20.08
15.1
10.23
6.17
3.43
2.1
1.84
2.12
2.62
3.44
5.06
8.07
12.7
18.6
24.82
30.17
33.72
35.16
34.88
33.79
32.85
32.67
33.33
34.39
35.11
34.73
32.73
28.93
23.44
16.59
8.76
0.31
-8.55
-17.72
-27.23
-37.03
-46.87
-56.15
-63.96
-69.24
-71.1
-69.09
-63.32
-54.47
-43.53
-31.53
-19.42
-7.92
2.35
10.91
17.4
21.59
23.36
22.79
20.05
15.5
9.74
3.53
-2.26
-6.87
-9.88
-11.32
-11.58
-11.19
-10.59
-9.98
-9.41
-8.92
-8.69
-8.99
-10.07
-12.03
-14.77
-18.03
-21.51
-24.96
-28.21
-30.96
-32.81
-33.16
-31.45
-27.26
-20.56
-11.61
-0.93
10.82
22.86
34.2
43.71
50.18
52.74
51.08
45.73
37.89
29.05
20.54
13.14
7.03
2.02
-2.22
-5.87
-8.99
-11.58
-13.75
-15.75
-17.87
-20.25
-22.71
-24.69
-25.55
-24.96
-23.22
-21.32
-20.49
-21.58
-24.53
-28.26
-31.04
-31.33
-28.33
-22.32
-14.48
-6.3
0.87
6.18
9.33
10.4
9.77
7.91
5.39
2.78
0.46
-1.49
-3.34
-5.68
-9.13
-14.07
-20.38
-27.42
-34.23
-39.95
-44.18
-47.14
-49.53
-52.2
-55.68
-60.03
-64.91
-69.92
-74.77
-79.36
-83.52
-86.75
-88.02
-86.02
-79.53
-67.97
-51.69
-31.93
-10.45
10.98
30.86
48.21
62.3
72.67
79.06
81.52
80.67
77.64
73.77
70.25
67.61
65.69
63.79
61.08
57.03
51.53
44.86
37.39
29.28
20.39
10.31
-1.43
-15
-30.04
-45.66
-60.59
-73.66
-84.22
-92.3
-98.49
-103.45
-107.43
-110.1
-110.76
-108.96
-104.88
-99.53
-94.36
-90.72
-89.15
-89.12
-88.93
-86.22
-78.46
-63.68
-41.01
-10.98
24.36
61.84
97.7
128.39
151.25
164.89
169.33
165.65
155.56
140.88
123.26
104.15
84.87
66.78
51.19
39.17
31.19
27.01
25.7
25.98
26.75
27.37
27.81
28.3
29.07
30.03
30.71
30.56
29.13
26.42
22.72
18.54
14.23
9.87
5.2
-0.09
-6.23
-13.12
-20.3
-27.13
-32.99
-37.53
-40.83
-43.33
-45.66
-48.24
-51.09
-53.66
-55.05
-54.35
-51.1
-45.49
-38.42
-31.1
-24.68
-19.86
-16.71
-14.76
-13.28
-11.53
-9.02
-5.68
-1.79
2.09
5.32
7.49
8.53
8.72
8.61
8.75
9.46
10.73
12.34
13.89
15.05
15.53
15.08
13.51
10.68
6.74
2.22
-1.93
-4.59
-4.79
-2.2
2.78
9.09
15.39
20.62
24.23
26.31
27.33
27.85
28.27
28.71
29.02
28.97
28.37
27.17
25.5
23.6
21.7
19.9
18.11
16.15
13.81
10.97
7.65
3.9
-0.27
-4.97
-10.29
-16.16
-22.15
-27.44
-31.04
-32.13
-30.42
-26.28
-20.63
-14.62
-9.19
-4.82
-1.59
0.74
2.32
3.19
3.21
2.25
0.34
-2.28
-5.18
-7.97
-10.38
-12.33
-13.88
-15.11
-16.11
-16.96
-17.82
-18.99
-20.74
-23.22
-26.34
-29.65
-32.52
-34.26
-34.28
-32.28
-28.21
-22.31
-15.01
-6.94
1.21
8.68
14.79
19.06
21.22
21.26
19.44
16.32
12.66
9.28
6.86
5.7
5.67
6.25
6.88
7.18
7.06
6.61
5.91
4.79
2.94
0.1
-3.69
-7.89
-11.67
-14.1
-14.43
-12.15
-6.92
1.46
12.94
26.74
40.93
52.35
57.24
52.42
36.64
11.4
-19.36
-50.54
-77.61
-98
-111.38
-119.03
-122.63
-123.28
-121.22
-116.18
-107.97
-96.82
-83.19
-67.26
-48.59
-26.19
0.92
32.84
68.32
104.56
137.92
164.81
182.59
190.17
187.94
177.39
160.39
138.84
114.42
88.83
63.88
41.42
22.98
9.23
-0.19
-6.48
-11
-14.62
-17.34
-18.5
-17.39
-13.81
-8.32
-1.98
4.14
9.36
13.48
16.54
18.48
19.05
17.94
15.06
10.89
6.46
3.07
1.77
2.91
5.87
9.31
11.61
11.61
8.97
4.26
-1.34
-6.56
-10.45
-12.53
-12.67
-10.94
-7.47
-2.48
3.67
10.45
17.34
23.98
30.33
36.69
43.4
50.62
58.19
65.51
71.89
76.77
79.99
81.81
82.75
83.23
83.32
82.71
80.85
77.31
72.03
65.38
57.95
50.21
42.2
33.57
23.82
12.74
0.68
-11.38
-22.13
-30.41
-35.58
-37.75
-37.55
-35.76
-33.03
-29.71
-25.9
-21.73
-17.46
-13.52
-10.32
-8.07
-6.7
-5.98
-5.71
-5.86
-6.6
-8.09
-10.28
-12.84
-15.31
-17.33
-18.79
-19.8
-20.51
-20.98
-21.17
-21.1
-20.93
-21.08
-21.98
-23.89
-26.69
-29.93
-32.94
-35.02
-35.55
-34.09
-30.49
-24.97
-18.25
-11.43
-5.61
-1.47
1.06
2.75
4.61
7.28
10.6
13.52
14.43
11.94
5.48
-4.19
-15.02
-24.14
-28.82
-27.42
-20.22
-9.39
1.65
9.55
12.27
9.74
3.58
-3.86
-10.7
-16.33
-21.36
-27.02
-34.23
-42.93
-52.02
-59.71
-64.23
-64.46
-60.3
-52.67
-43.17
-33.56
-25.18
-18.62
-13.7
-9.74
-5.82
-1.17
4.62
11.42
18.5
24.57
28.03
27.43
21.96
11.75
-2.09
-17.92
-34.06
-49.21
-62.59
-73.81
-82.75
-89.48
-94.28
-97.64
-100.11
-102.05
-103.44
-103.95
-103.13
-100.68
-96.59
-91.09
-84.42
-76.63
-67.58
-57.17
-45.64
-33.7
-22.37
-12.57
-4.78
1.14
5.92
10.61
16.39
24.32
35.02
48.15
62.01
73.26
77.78
72.27
56.18
32.74
8.42
-9.41
-15.34
-7.96
9.81
32.09
52.32
65.33
68.6
62.5
49.73
34.31
20.36
10.9
7.02
7.8
10.84
13.43
13.6
10.63
4.85
-2.93
-11.85
-21.23
-30.34
-38.31
-44.23
-47.46
-47.95
-46.28
-43.3
-39.68
-35.3
-29.3
-20.44
-8.06
7.28
23.42
37.2
45.59
46.85
41.31
31.19
19.66
9.65
2.91
-0.34
-0.94
-0.06
1.67
4.39
8.73
15.14
23.26
31.83
39.1
43.61
44.84
43.32
40.26
36.83
33.61
30.47
26.83
22.16
16.3
9.62
2.65
-4.17
-10.81
-17.69
-25.38
-34.28
-44.34
-55
-65.28
-74.05
-80.24
-83.08
-82.31
-78.38
-72.45
-66.09
-60.74
-57
-54.18
-50.44
-43.47
-31.39
-13.56
9.21
34.84
60.49
83.21
100.36
110.12
111.83
106.14
94.72
79.79
63.41
47.06
31.55
17.38
5.09
-4.67
-11.35
-15.06
-16.72
-17.85
-19.91
-23.59
-28.53
-33.55
-37.28
-38.79
-37.98
-35.48
-32.44
-30.11
-29.56
-31.47
-35.91
-42.26
-49.18
-54.94
-57.92
-57.19
-52.87
-46.05
-38.28
-30.92
-24.63
-19.35
-14.67
-10.23
-6.12
-2.69
-0.31
1.11
2.13
3.67
6.52
11.01
16.91
23.52
30.05
35.93
40.88
44.79
47.53
48.77
48.12
45.29
40.43
34.2
27.75
22.32
18.85
17.62
18.19
19.65
21.07
21.95
22.33
22.6
23.06
23.54
23.39
21.64
17.47
10.61
1.69
-7.87
-16.35
-22.31
-25.19
-25.51
-24.63
-24.1
-25
-27.49
-30.99
-34.6
-37.62
-39.84
-41.39
-42.3
-42.31
-40.86
-37.49
-32.12
-25.12
-16.92
-7.77
2.52
14.28
27.49
41.42
54.62
65.37
72.34
75.05
74.02
70.36
65.3
59.66
53.66
47.11
39.8
31.76
23.42
15.42
8.32
2.38
-2.54
-6.91
-11.27
-16.01
-21.22
-26.49
-31.07
-34.02
-34.55
-32.29
-27.39
-20.52
-12.49
-4.11
3.98
11.26
17.32
21.77
24.35
24.94
23.52
20.09
14.6
7.3
-0.88
-8.06
-11.82
-10.04
-2.1
10.61
24.92
37.07
44.14
45.08
40.73
33.08
24.22
15.68
8.29
2.49
-1.24
-2.37
-0.46
4.4
11.49
19.61
27.43
33.9
38.55
41.41
42.9
43.49
43.45
42.87
41.65
39.66
36.95
33.65
29.96
26.01
21.8
17.26
12.31
7.01
1.54
-3.91
-9.2
-14.44
-19.88
-25.87
-32.53
-39.59
-46.3
-51.51
-54.15
-53.52
-49.72
-43.53
-36.18
-28.83
-22.25
-16.73
-12.23
-8.53
-5.4
-2.53
0.55
4.38
9.37
15.63
22.85
30.45
37.85
44.71
50.86
56.14
60.19
62.42
62.26
59.41
54.09
46.91
38.56
29.58
20.3
10.99
2.09
-5.72
-11.79
-15.78
-17.97
-19.23
-20.6
-22.82
-26.07
-29.93
-33.73
-37.01
-39.74
-42.23
-44.91
-48.02
-51.51
-55.19
-58.9
-62.61
-66.29
-69.72
-72.34
-73.35
-72.03
-68.14
-62.04
-54.47
-46.19
-37.6
-28.65
-19.15
-9.02
1.4
11.48
20.58
28.31
34.63
39.7
43.69
46.55
48.13
48.32
47.13
44.66
41.08
36.5
31.02
24.77
17.97
10.87
3.78
-3.16
-9.92
-16.51
-22.96
-29.26
-35.37
-41.33
-47.17
-52.75
-57.57
-60.67
-60.8
-56.86
-48.42
-35.99
-20.81
-4.25
12.82
30.32
48.68
67.99
87.4
104.95
118.01
123.96
121.08
109.09
89.34
64.69
38.97
16.17
-0.58
-10.07
-13.55
-14.47
-17.46
-26.77
-44.8
-71.14
-102.46
-133.15
-156.6
-166.73
-159.56
-134.43
-94.44
-45.9
3.37
45.97
76.82
94.22
99.76
97.15
90.57
83.21
76.54
70.48
64.24
57.19
49.4
41.53
34.3
28.08
22.7
17.73
12.83
8.04
3.78
0.61
-1.06
-1.08
0.5
3.64
8.37
14.88
23.25
33.32
44.49
55.72
65.79
73.66
78.96
82.26
84.96
88.86
95.46
105.22
117.19
129.21
138.77
144.08
144.99
143.12
141.06
141.03
143.69
147.67
150.13
147.93
138.63
121.01
94.91
61.24
22
-19.46
-58.73
-91.32
-114.15
-126.77
-131.42
-131.77
-131.02
-130.59
-130
-127.97
-123.97
-118.96
-115.02
-114.28
-117.77
-125.16
-135.14
-146.22
-157.28
-167.55
-176.35
-182.9
-186.26
-185.72
-181.03
-172.42
-160.32
-144.74
-125.01
-99.97
-68.76
-31.83
8.35
47.42
80.05
101.5
108.96
102.23
83.66
57.48
28.85
2.99
-15.54
-23.56
-19.84
-5.53
15.88
39.37
59.72
73.06
77.93
75.47
68.57
60.52
53.65
48.7
45
41.28
36.57
30.79
24.75
19.6
16.25
14.96
15.27
16.42
17.67
18.62
19.23
19.62
19.77
19.45
18.24
15.82
12.27
8.17
4.41
1.9
1.08
1.72
3.06
4.11
4.16
3
0.95
-1.46
-3.79
-6
-8.44
-11.71
-16.31
-22.45
-29.8
-37.55
-44.54
-49.55
-51.69
-50.73
-47.11
-41.89
-36.37
-31.71
-28.64
-27.38
-27.75
-29.37
-31.92
-35.24
-39.28
-44.02
-49.32
-54.83
-60.08
-64.66
-68.36
-71.16
-73.07
-73.87
-73.1
-70.19
-64.91
-57.7
-49.75
-42.58
-37.47
-34.86
-34.24
-34.29
-33.46
-30.42
-24.37
-15.16
-3.24
10.4
24.32
36.88
46.64
52.83
55.48
55.26
53.05
49.39
44.35
37.68
29.36
19.82
10.1
1.39
-5.23
-9.04
-9.6
-6.74
-0.47
8.69
19.62
30.65
40.1
46.98
51.38
54.4
57.51
61.86
67.82
74.89
82.12
88.49
93.18
95.6
95.31
91.91
85.16
75.15
62.43
48.05
33.25
18.94
5.29
-8.35
-23.04
-39.46
-57.34
-75.26
-91.19
-103.31
-110.74
-113.67
-112.86
-108.96
-101.98
-91.41
-76.82
-58.56
-38.11
-17.87
-0.38
12.46
19.92
22.44
21.14
17.31
11.98
5.87
-0.4
-6
-9.96
-11.43
-10.17
-6.91
-3.14
-0.66
-0.79
-3.91
-9.32
-15.64
-21.38
-25.5
-27.62
-28.06
-27.52
-26.78
-26.44
-26.72
-27.49
-28.29
-28.49
-27.41
-24.61
-19.96
-13.8
-6.87
-0.16
5.43
9.35
11.64
12.97
14.37
16.89
21.1
26.86
33.42
39.7
44.75
48.01
49.37
49.02
47.23
44.19
40.08
35.17
29.87
24.6
19.63
14.86
9.85
4.06
-2.76
-10.33
-17.71
-23.56
-26.54
-25.78
-21.22
-13.62
-4.31
5.25
13.89
20.93
26.19
29.77
31.86
32.69
32.48
31.68
30.85
30.55
31.06
32.15
33.16
33.28
32
29.48
26.49
24.02
22.73
22.54
22.71
22.15
20.08
16.5
12.17
8.33
6.07
5.77
6.94
8.36
8.47
5.95
0.04
-9.21
-20.96
-33.88
-46.44
-57.29
-65.59
-71.08
-74
-74.94
-74.57
-73.52
-72.32
-71.3
-70.63
-70.14
-69.37
-67.69
-64.56
-59.84
-53.85
-47.27
-40.78
-34.72
-28.98
-23.27
-17.35
-11.29
-5.38
0.05
5.02
9.95
15.53
22.29
30.34
39.18
47.95
55.73
61.87
66.18
68.81
70.06
70.21
69.41
67.77
65.49
62.86
60.24
57.88
55.82
53.88
51.78
49.28
46.3
42.93
39.42
36.17
33.61
32.04
31.5
31.56
31.32
29.67
25.69
19.14
10.7
1.85
-5.68
-10.43
-11.83
-10.29
-6.89
-2.92
0.65
3.45
5.68
7.93
10.87
15.05
20.71
27.71
35.41
42.81
48.73
52.19
52.73
50.48
46.08
40.26
33.56
26.23
18.38
10.16
1.88
-6.08
-13.44
-20.11
-26.21
-31.85
-37.02
-41.43
-44.74
-46.67
-47.24
-46.8
-46
-45.59
-46.17
-47.96
-50.59
-53.17
-54.5
-53.51
-49.62
-42.94
-34.22
-24.53
-14.84
-5.78
2.39
9.69
16.18
21.85
26.61
30.42
33.31
35.35
36.53
36.78
35.92
33.84
30.53
26.08
20.6
14.12
6.65
-1.7
-10.65
-19.7
-28.22
-35.73
-41.89
-46.58
-49.76
-51.43
-51.59
-50.43
-48.41
-46.27
-44.89
-45.08
-47.33
-51.52
-56.87
-62.07
-65.48
-65.74
-62.13
-54.94
-45.29
-34.8
-24.93
-16.6
-10.03
-5
-1.17
1.7
3.72
5.04
6.04
7.3
9.4
12.65
16.88
21.47
25.69
28.91
30.97
32.17
33.11
34.38
36.26
38.63
40.95
42.56
42.81
41.26
37.83
32.73
26.57
20.12
14.29
9.88
7.46
7.14
8.6
11.03
13.43
14.9
14.95
13.75
12.01
10.69
10.58
11.88
14.12
16.37
17.81
18.17
17.94
18.13
19.7
22.94
27.33
31.78
35.21
37.15
37.88
38.25
39.09
40.77
43.04
45.2
46.44
46.19
44.21
40.61
35.79
30.25
24.57
19.14
13.96
8.49
1.75
-7.15
-18.34
-30.67
-41.82
-49.03
-50.27
-45.2
-35.23
-22.86
-10.47
0.62
10.37
19.49
28.7
38.15
47.37
55.55
61.96
65.98
67.11
65.07
59.99
52.7
44.76
37.99
33.73
32.03
31.31
28.6
20.53
4.86
-17.98
-44.34
-68.13
-82.99
-85.11
-75.09
-57.91
-40.59
-28.83
-24.38
-24.78
-25.51
-23.07
-17.05
-9.98
-5.27
-4.94
-8.79
-15.24
-23.29
-33.87
-49.49
-72.53
-103.11
-137.96
-170.85
-194.67
-203.86
-196.19
-173.29
-139.85
-102.04
-65.75
-35.25
-12.48
2.74
11.96
17.02
19.35
19.71
18.29
15.16
10.38
4.11
-3.42
-11.99
-21.21
-30.27
-37.7
-41.44
-39.52
-30.92
-16.39
1.45
18.92
32.6
40.59
43.01
41.45
38.02
34.24
30.62
26.93
22.89
18.69
15.09
12.97
12.8
14.49
17.45
20.98
24.55
28.01
31.48
35.17
39.14
43.12
46.46
48.2
47.33
43.13
35.46
24.95
12.91
0.91
-9.66
-18.05
-24.34
-29.31
-33.98
-39.28
-45.72
-53.29
-61.54
-69.6
-76.42
-80.98
-82.63
-81.47
-78.46
-75.18
-73.33
-74.07
-77.61
-83.15
-89.14
-93.79
-95.54
-93.42
-87.38
-78.22
-67.39
-56.32
-45.89
-36.13
-26.41
-16.19
-5.71
3.62
9.65
10.51
5.71
-2.99
-11.67
-15.61
-11.34
1.44
19.03
34.85
42.21
37.14
20.12
-4.54
-30.99
-54.25
-71.31
-80.4
-79.77
-67.39
-42.03
-4.87
39.79
85.66
126.68
158.83
180.45
191.08
190.42
178.33
156
126.88
96.24
69.25
48.45
32.75
18.59
2.53
-16.43
-36.17
-52.84
-63.12
-65.77
-61.94
-54.09
-44.6
-34.8
-24.83
-14.25
-2.77
9.26
20.72
30.07
36.05
38.21
37.23
34.69
32.44
31.88
33.5
36.85
40.92
44.76
47.83
50.14
52.02
53.81
55.64
57.42
59.03
60.41
61.62
62.55
62.74
61.35
57.4
50.32
40.34
28.6
16.82
6.73
-0.56
-4.78
-6.22
-5.29
-2.04
3.81
12.49
23.66
36.08
47.9
57.24
62.89
64.66
63.1
59.01
52.99
45.28
36.18
26.34
16.88
8.93
3.22
-0.19
-1.5
-0.55
3.5
11.81
24.79
41.3
58.54
72.95
81.74
83.96
80.64
73.83
65.44
56.31
46.4
35.39
23.46
11.45
0.45
-8.8
-16.25
-22.4
-27.84
-32.59
-35.91
-36.44
-32.79
-24.2
-11.06
5.06
21.89
37.11
49.08
57.21
61.91
64.25
65.47
66.56
67.94
69.4
70.27
69.76
67.41
63.42
58.67
54.4
51.69
51.07
52.53
55.71
60.13
65.04
69.29
71.33
69.85
64.64
57.04
49.3
43.05
37.63
29.67
14.32
-12.22
-50.45
-96.7
-144.35
-186.33
-217.59
-236.26
-243.23
-240.75
-230.89
-214.76
-192.73
-165.22
-133.45
-99.78
-67.39
-39.47
-18.5
-5.69
-0.96
-3.24
-10.68
-20.82
-30.54
-36.36
-35.22
-25.61
-8.4
13.14
34.28
50.55
59.18
59.91
54.73
46.62
38.09
30.22
22.69
14.73
6.26
-1.65
-7.67
-11.53
-15.18
-22.26
-36.52
-59.35
-88.63
-119.23
-145.05
-161.23
-165.42
-157.78
-140.28
-115.63
-86.44
-54.98
-23.2
6.63
31.54
47.89
52.08
42.13
19.12
-12.37
-45.44
-73.41
-92.4
-102.54
-107.19
-110.83
-116.63
-125.07
-133.84
-138.91
-136.17
-123.04
-100.09
-71.31
-42.97
-20.99
-8.22
-3.2
-1.13
3.26
12.76
26.43
40.61
51.55
57.83
60.96
64.07
69.62
77.82
86.54
92.69
94.22
91.26
86.05
81.57
79.89
81.05
83.13
83.3
79.13
69.71
55.86
39.73
23.82
10.16
-0.23
-7.32
-11.68
-13.94
-14.28
-12.43
-7.94
-0.7
8.59
18.51
27.28
33.44
36.43
36.7
35.49
34.26
34.11
35.49
38.15
41.54
45.03
48.15
50.62
52.13
52.24
50.47
46.53
40.72
34.06
28.06
24.17
23.21
25.14
29.25
34.65
40.85
47.87
56.06
65.66
76.4
87.52
97.98
106.78
113.17
116.61
116.68
113.09
105.82
95.35
82.76
69.51
57.07
46.39
37.62
30.17
23.09
15.56
7.26
-1.64
-10.55
-18.88
-26.29
-32.82
-38.81
-44.64
-50.53
-56.4
-62.01
-67.11
-71.58
-75.4
-78.48
-80.54
-81.15
-79.97
-76.98
-72.61
-67.53
-62.37
-57.42
-52.54
-47.36
-41.46
-34.7
-27.2
-19.33
-11.46
-3.9
3.24
10.03
16.66
23.41
30.54
38.2
46.25
54.26
61.46
66.84
69.45
68.66
64.32
56.78
46.8
35.35
23.52
12.34
2.79
-4.38
-8.85
-10.9
-11.36
-11.41
-12.13
-14.12
-17.21
-20.64
-23.34
-24.41
-23.31
-19.98
-14.78
-8.37
-1.62
4.39
8.51
9.8
7.74
2.42
-5.5
-14.89
-24.49
-33.14
-40.04
-44.85
-47.65
-48.96
-49.57
-50.42
-52.43
-56.3
-62.32
-70.13
-78.65
-86.1
-90.41
-89.79
-83.43
-71.9
-56.95
-40.95
-26.07
-13.63
-4.03
2.98
7.86
10.95
12.42
12.52
11.74
10.76
10.36
11.03
12.9
15.71
18.92
21.97
24.43
26.1
27.04
27.52
27.91
28.55
29.58
30.89
32.11
32.7
32.08
29.86
25.81
19.95
12.46
3.64
-6.06
-16.14
-26.05
-35.27
-43.43
-50.3
-55.81
-60.02
-63.07
-65.18
-66.59
-67.58
-68.38
-69.21
-70.24
-71.57
-73.22
-74.96
-76.33
-76.66
-75.22
-71.47
-65.18
-56.57
-46.2
-34.78
-23.07
-11.53
-0.32
10.82
22.42
34.93
48.42
62.3
75.35
86.14
93.57
97.41
98.38
97.95
97.61
98.32
100.09
102.15
103.4
103.1
101.36
99.21
98.29
100.13
105.47
113.86
123.82
133.18
139.56
140.77
135.02
121.21
99.28
70.61
38.19
6.14
-21.4
-41.48
-53.28
-57.97
-57.83
-54.98
-50.65
-45.25
-39.21
-33.59
-30.07
-29.94
-32.85
-36.32
-36.52
-30.09
-16.18
2.7
21.53
34.7
38.35
31.52
16.24
-3.86
-24.97
-44.46
-61.38
-76.25
-90.4
-104.93
-119.76
-133.16
-142.13
-143.46
-135.29
-118.39
-96.4
-75.04
-60.08
-55.12
-60
-70.7
-80.96
-84.79
-78.85
-63.68
-43.12
-22.47
-6.19
3.74
7.98
8.64
7.5
4.8
-0.7
-10.58
-25.04
-41.66
-55.57
-60.88
-53.04
-30.91
2.39
40.38
75.6
102.3
118.23
124.91
126.3
126.89
130.02
136.81
146.21
155.77
162.8
165.78
165.16
163.4
163.86
169.19
179.83
193.58
206.42
214.14
213.99
205.26
188.79
165.74
136.69
101.62
60.88
16.01
-29.83
-72.72
-109.17
-137.21
-156.57
-168.22
-173.48
-173.29
-168.22
-158.73
-145.54
-129.8
-112.85
-95.84
-79.69
-65.16
-53.08
-44.35
-39.7
-39.21
-42.04
-46.52
-50.71
-53.37
-54.54
-55.35
-57.15
-60.22
-63.17
-63.52
-58.97
-48.82
-34.5
-18.91
-5.11
4.71
9.54
9.02
2.98
-8.65
-25.33
-45.6
-67.14
-87.69
-105.98
-122.11
-137.1
-151.98
-166.96
-181.6
-195.25
-207.73
-219.4
-230.8
-242.03
-252.28
-260.07
-263.64
-261.51
-252.88
-237.61
-215.99
-188.59
-156.38
-121.16
-85.65
-52.86
-24.98
-2.3
16.95
35.41
54.99
75.56
95.12
111.23
122.7
130.31
136.21
142.4
149.47
156.44
161.69
164.41
165.4
166.86
171.24
180.13
193.63
209.94
225.41
234.77
231.85
211.13
169.85
110.08
39.62
-29.22
-82.91
-111.22
-111.23
-89.02
-57.89
-33.71
-28.83
-47.54
-84.9
-129.46
-168.28
-191.84
-196.46
-183.6
-157.26
-121.38
-78.92
-32.54
13.84
54.68
83.79
96.75
92.95
76.19
53.52
32.73
19.84
17.55
25.05
39.09
55.46
70.4
81.44
87.65
89.54
88.53
86.32
84.05
81.74
78.24
71.79
61.21
46.84
30.48
14.45
0.28
-12.04
-23.62
-35.41
-47
-56.41
-61.2
-60.06
-53.64
-44.22
-34.34
-25.43
-17.55
-9.99
-2.26
5.36
12.08
17.34
21.35
25.02
29.26
34.44
40.1
45.3
49.1
51.05
51.36
50.69
49.77
49.1
48.84
48.76
48.43
47.41
45.38
42.35
38.52
34.31
30.11
26.17
22.43
18.61
14.32
9.18
3.05
-4
-11.64
-19.31
-26.27
-31.81
-35.3
-36.38
-35.09
-31.81
-27.24
-22.12
-17.07
-12.41
-8.15
-4.13
-0.15
3.82
7.67
11.2
14.33
17.12
19.77
22.48
25.34
28.31
31.33
34.32
37.23
39.99
42.37
44.03
44.67
44.1
42.4
39.75
36.43
32.66
28.66
24.61
20.64
16.79
12.9
8.73
4.12
-0.73
-5.31
-9.06
-11.72
-13.58
-15.35
-17.75
-21.07
-25.02
-28.77
-31.35
-31.94
-30.15
-26.02
-20.04
-13.08
-6.22
-0.51
3.45
5.78
7.31
9.13
11.94
15.53
18.9
20.78
20.4
17.99
14.66
11.83
10.52
10.85
12.03
12.78
11.81
8.11
1.04
-9.8
-24.39
-41.83
-59.9
-75.24
-84.35
-85.01
-77.49
-64.63
-50.46
-38.18
-28.49
-19.53
-8.36
6.77
25.03
43.17
57.38
65.48
68
67.7
67.73
69.81
73.44
76.53
76.91
73.67
67.69
60.94
55.28
51.47
48.94
46.32
42.45
37.17
31.46
26.93
24.95
25.87
28.79
31.93
33.45
32.11
27.76
21.18
13.65
6.42
0.3
-4.48
-8.24
-11.71
-15.8
-21.31
-28.7
-37.78
-47.81
-57.63
-66.05
-72.14
-75.38
-75.63
-72.99
-67.69
-60.07
-50.72
-40.45
-30.14
-20.52
-12
-4.53
2.22
8.59
14.76
20.64
26.11
31.25
36.54
42.9
51.2
61.89
74.57
87.99
100.4
110.12
116.06
118.12
117.18
114.81
112.84
112.84
115.65
121.06
127.82
133.83
136.72
134.65
126.84
113.76
96.77
77.54
57.66
38.55
21.6
8.38
0.44
-1.09
4.2
15.95
33.28
54.99
79.31
103.38
122.94
132.55
126.76
102.04
58.7
1.56
-61.13
-120.35
-169.52
-206.71
-234.5
-257.76
-280.05
-301.11
-316.58
-320.45
-308.69
-281.91
-245.39
-206.43
-170.61
-139.48
-110.84
-81.32
-49.27
-16.05
14.86
40.05
58.31
71.16
81.76
92.96
105.96
120.08
133.58
144.83
153.13
158.81
162.8
166.28
170.44
176.46
185.53
198.47
215.29
234.64
253.75
268.83
276.02
272.23
255.68
225.94
183.73
130.9
70.72
8.15
-50.7
-99.86
-135.49
-157.36
-169.2
-177.11
-186.92
-201.5
-219.63
-236.87
-247.98
-249.49
-241
-224.5
-202.7
-177.54
-149.97
-121.07
-93.4
-71.21
-59.07
-59.45
-70.78
-87.38
-101.36
-105.58
-96.3
-74.08
-42.8
-7.56
27.25
59.34
88.46
115.28
139.83
160.3
173.28
175.07
163.78
141.02
111.7
82
56.54
36.33
18.84
0.09
-22.66
-49.35
-77.16
-102.18
-121.32
-133.33
-138.55
-137.9
-132.09
-121.19
-105.07
-83.96
-59.05
-33.04
-10.08
4.92
7.57
-4.21
-28.87
-61.17
-93.78
-120.22
-137.07
-144.91
-147.14
-147.51
-147.95
-147.85
-145.2
-138.71
-129.1
-118.98
-111.15
-106.63
-103.72
-98.7
-87.43
-67.31
-38.3
-2.95
34.29
68.44
95.23
112.13
118.93
117.53
111.24
103.49
96.74
91.88
88.34
84.72
79.48
71.14
58.5
40.76
18.3
-6.66
-30.08
-46.92
-53.06
-47.08
-31.27
-11.2
6.21
15.14
13.07
1.57
-14.38
-28.34
-34.77
-30.87
-17.18
3.13
25.88
47.51
66.04
81
92.75
101.63
107.68
111.02
112.31
112.95
114.77
119.32
127.13
137.42
148.3
157.48
162.82
162.83
156.83
145.03
128.27
107.89
85.48
62.58
40.44
19.66
0.02
-19.48
-40.34
-64.02
-91.44
-122.49
-155.93
-189.52
-220.39
-245.66
-263.07
-271.59
-271.72
-265.45
-255.69
-245.48
-236.94
-230.65
-225.58
-219.61
-210.35
-195.97
-175.7
-149.86
-119.7
-87.06
-53.9
-22
7.37
33.58
56.67
77.05
95.32
112.04
127.65
142.5
156.73
170.31
182.89
193.82
202.22
207.21
208.06
204.47
196.62
185.14
171
155.03
137.73
118.93
98
74.13
46.85
16.46
-15.79
-47.77
-76.9
-100.89
-118.48
-130.01
-137.46
-143.88
-152.18
-163.98
-178.83
-194.5
-207.89
-216.32
-218.45
-214.53
-206.12
-195.44
-184.8
-176.07
-170.16
-166.66
-163.67
-158.23
-147.24
-128.91
-103.76
-74.99
-47.68
-27.11
-16.91
-17.7
-26.83
-39.46
-50.5
-56.54
-56.88
-53.13
-47.76
-42.46
-37.22
-30.59
-20.85
-6.96
11.05
32.39
56.1
81.13
106.09
129.09
148.05
161.46
169.34
173.38
176.22
180.17
186.27
194.11
202.54
210.52
217.47
223.1
226.97
228.23
225.93
219.64
209.77
197.6
184.66
172.16
160.65
149.98
139.6
128.9
117.44
105.08
91.99
78.68
65.92
54.7
45.96
40.41
38.38
39.71
43.86
49.99
57.17
64.62
71.8
78.44
84.49
89.89
94.37
97.41
98.39
96.93
93
87.06
79.64
71.03
61.1
49.34
35.36
19.09
0.89
-18.82
-39.79
-61.92
-84.88
-107.68
-128.51
-145.28
-156.68
-163.08
-166.7
-170.67
-177.46
-187.37
-198.12
-205.62
-205.75
-196.17
-177.21
-151.65
-123.48
-96.38
-72.73
-53.21
-37.4
-24.42
-13.56
-4.56
2.57
7.8
11.27
13.39
14.68
15.61
16.3
16.58
16.09
14.56
12.12
9.42
7.56
7.72
10.68
16.62
25.09
35.2
45.8
55.64
63.46
68.13
68.89
65.55
58.69
49.52
39.63
30.65
23.87
20.04
19.31
21.17
24.59
28.22
30.82
31.58
30.46
28.14
25.75
24.4
24.8
27.05
30.63
34.6
37.86
39.44
38.79
35.83
30.94
24.86
18.32
11.88
5.79
-0.06
-5.94
-12.11
-18.55
-24.85
-30.22
-33.79
-34.89
-33.3
-29.33
-23.66
-17.08
-10.29
-3.78
2.14
7.22
11.3
14.27
16.1
16.99
17.21
17.19
17.36
18.07
19.48
21.45
23.48
24.74
24.26
21.24
15.31
6.69
-3.86
-15.27
-26.49
-36.74
-45.64
-53.27
-59.98
-66.29
-72.58
-78.89
-84.81
-89.48
-91.93
-91.38
-87.55
-80.78
-71.81
-61.49
-50.51
-39.28
-28.02
-16.89
-6.13
3.99
13.24
21.53
28.94
35.67
41.97
48.12
54.28
60.48
66.58
72.31
77.32
81.34
84.18
85.8
86.23
85.49
83.48
80.06
75.09
68.48
60.26
50.6
39.82
28.42
17.16
7
-1.07
-6.38
-8.81
-8.96
-8
-7.21
-7.54
-9.27
-12.06
-15.3
-18.47
-21.47
-24.53
-27.98
-31.89
-35.92
-39.39
-41.59
-42.06
-40.85
-38.46
-35.64
-33.13
-31.4
-30.62
-30.68
-31.3
-32.21
-33.29
-34.6
-36.32
-38.68
-41.77
-45.46
-49.45
-53.32
-56.66
-59.08
-60.25
-59.81
-57.4
-52.82
-46.23
-38.22
-29.7
-21.62
-14.61
-8.78
-3.87
0.5
4.4
7.64
9.88
10.99
11.26
11.28
11.59
12.23
12.72
12.21
10.09
6.35
1.73
-2.71
-6.03
-7.84
-8.46
-8.61
-9.03
-10.24
-12.38
-15.33
-18.79
-22.38
-25.54
-27.67
-28.08
-26.34
-22.42
-16.77
-10.21
-3.66
2.18
6.94
10.63
13.45
15.58
17.01
17.58
17.08
15.53
13.2
10.67
8.5
7.11
6.5
6.41
6.41
6.08
5.27
3.96
2.3
0.36
-1.8
-4.21
-6.85
-9.67
-12.62
-15.78
-19.34
-23.5
-28.37
-33.72
-38.92
-43.04
-45.15
-44.65
-41.53
-36.34
-29.94
-23.16
-16.6
-10.5
-4.9
0.15
4.55
8.08
10.52
11.84
12.17
11.81
11.11
10.35
9.74
9.37
9.24
9.24
9.24
9.03
8.5
7.54
6.19
4.49
2.52
0.29
-2.31
-5.44
-9.33
-14.19
-20.07
-26.79
-33.76
-40.1
-44.71
-46.66
-45.47
-41.29
-34.87
-27.23
-19.37
-11.98
-5.35
0.51
5.63
10.02
13.52
15.97
17.26
17.51
17.06
16.41
16.03
16.19
16.85
17.66
18.17
18.05
17.15
15.6
13.62
11.37
8.91
6.17
3.08
-0.44
-4.34
-8.64
-13.41
-18.7
-24.46
-30.3
-35.45
-38.93
-39.78
-37.45
-32.02
-24.19
-15.11
-5.97
2.33
9.31
14.94
19.39
22.87
25.41
26.99
27.56
27.21
26.21
24.93
23.74
22.84
22.29
21.93
21.55
20.87
19.63
17.69
15.01
11.69
7.98
4.15
0.43
-3.11
-6.57
-10.2
-14.34
-19.25
-24.93
-30.97
-36.54
-40.51
-41.7
-39.35
-33.37
-24.46
-13.89
-3.08
6.85
15.34
22.29
27.93
32.44
35.85
38.03
38.89
38.5
37.13
35.22
33.17
31.27
29.62
28.19
26.82
25.35
23.59
21.41
18.73
15.54
11.88
7.86
3.58
-0.8
-5.1
-9.2
-13.07
-16.91
-21.1
-26.02
-31.75
-37.86
-43.29
-46.67
-46.76
-42.95
-35.47
-25.33
-13.9
-2.48
8
17.16
24.98
31.64
37.33
42.15
46.15
49.29
51.53
52.87
53.26
52.72
51.26
48.92
45.77
41.97
37.72
33.24
28.71
24.13
19.35
14.13
8.29
1.83
-4.96
-11.65
-17.82
-23.3
-28.24
-33.03
-38.18
-44.08
-50.85
-58.18
-65.4
-71.48
-75.24
-75.61
-71.92
-64.06
-52.55
-38.39
-22.84
-7.11
7.83
21.31
32.92
42.53
50.17
56.11
60.72
64.46
67.71
70.63
73.14
74.91
75.54
74.67
72.2
68.26
63.2
57.42
51.23
44.77
38.03
30.99
23.77
16.67
10.14
4.61
0.27
-3.05
-5.82
-8.72
-12.38
-17.19
-23.19
-30
-36.86
-42.76
-46.63
-47.61
-45.26
-39.72
-31.68
-22.2
-12.41
-3.26
4.7
11.27
16.6
20.91
24.41
27.16
29.07
30.14
30.47
30.3
29.99
29.77
29.68
29.57
29.2
28.4
27.19
25.68
24
22.11
19.8
16.73
12.63
7.36
1.04
-5.99
-13.25
-20.31
-26.94
-33.24
-39.64
-46.73
-54.92
-64.06
-73.3
-81.2
-86.21
-87.15
-83.72
-76.49
-66.73
-55.98
-45.54
-36.24
-28.38
-21.91
-16.56
-12.11
-8.46
-5.66
-3.81
-2.95
-2.95
-3.49
-4.17
-4.59
-4.49
-3.78
-2.56
-1.01
0.6
2.03
3.06
3.51
3.24
2.19
0.42
-1.83
-4.2
-6.27
-7.72
-8.52
-9.03
-9.85
-11.55
-14.3
-17.62
-20.38
-21.22
-19.03
-13.38
-4.68
5.98
17.27
28.01
37.38
45
50.8
54.87
57.37
58.54
58.65
58.02
56.92
55.59
54.07
52.35
50.34
48.02
45.49
42.99
40.78
38.93
37.26
35.25
32.23
27.68
21.4
13.72
5.31
-3.07
-10.87
-18.02
-24.87
-31.98
-39.79
-48.28
-56.86
-64.33
-69.23
-70.23
-66.65
-58.84
-48.27
-37.36
-28.89
-25.33
-28.07
-36.91
-49.82
-63.36
-73.59
-77.2
-72.61
-60.39
-42.98
-23.73
-5.81
8.65
18.87
25.06
27.89
28.03
25.97
22.09
16.82
10.72
4.3
-2.08
-8.48
-15.22
-22.89
-31.96
-42.61
-54.53
-66.92
-78.56
-88.04
-93.88
-94.66
-89.24
-77.08
-58.54
-35.08
-9.17
16.3
38.68
56.23
68.44
75.83
79.66
81.46
82.7
84.57
87.72
92.07
96.67
99.95
100.24
96.39
88.3
76.85
63.41
49.17
34.71
20.12
5.48
-8.53
-20.51
-28.7
-31.77
-29.45
-22.82
-13.85
-4.71
2.87
7.84
9.57
7.67
1.95
-7.26
-18.64
-29.99
-38.76
-43.06
-42.46
-38.13
-32.33
-27.4
-25.02
-25.97
-30.4
-38.23
-49.34
-63.37
-79.41
-95.94
-111.16
-123.57
-132.39
-137.7
-140.12
-140.52
-139.6
-137.78
-135.12
-131.27
-125.49
-116.63
-103.42
-84.8
-60.45
-31.05
1.69
35.34
67.2
94.78
116.08
129.85
135.67
134.1
126.63
115.52
103.44
92.91
85.74
82.62
83.03
85.54
88.38
90.1
89.96
88.1
85.13
81.72
78.18
74.3
69.57
63.51
55.99
47.38
38.32
29.52
21.39
14.01
7.18
0.6
-5.9
-12.3
-18.41
-23.89
-28.43
-31.76
-33.73
-34.33
-33.76
-32.37
-30.63
-29.01
-27.79
-26.92
-25.93
-23.98
-20.09
-13.47
-3.74
8.87
23.49
38.92
53.94
67.66
79.69
90.09
99.07
106.81
113.25
118.24
121.54
122.93
122.04
118.31
111.01
99.51
83.77
64.65
43.92
23.88
6.58
-6.68
-15.7
-21.11
-24.02
-25.59
-26.8
-28.46
-31.13
-35.12
-40.44
-46.76
-53.56
-60.23
-66.27
-71.24
-74.74
-76.36
-75.64
-72.25
-66.12
-57.59
-47.38
-36.42
-25.61
-15.61
-6.77
0.81
7.24
12.64
17.11
20.68
23.4
25.44
27.07
28.61
30.25
31.99
33.64
34.95
35.85
36.49
37.24
38.41
40.02
41.74
42.97
43.14
41.97
39.71
36.96
34.49
32.89
32.38
32.69
33.14
32.77
30.48
25.29
16.53
4.11
-11.4
-28.92
-47.18
-65.19
-82.41
-98.82
-114.56
-129.58
-143.34
-154.87
-163.06
-167.07
-166.68
-162.38
-154.97
-145.17
-133.13
-118.25
-99.57
-76.31
-48.65
-18.13
12.53
40.1
61.92
76.67
84.6
87.19
86.31
83.62
80.11
76.23
72.21
68.27
64.71
61.78
59.5
57.57
55.52
52.9
49.45
45.29
40.77
36.42
32.65
29.68
27.4
25.47
23.39
20.75
17.37
13.35
9.12
5.11
1.68
-1.15
-3.67
-6.27
-9.27
-12.62
-15.78
-17.76
-17.43
-13.85
-6.63
3.89
16.7
30.43
43.76
55.75
66.02
74.66
82.02
88.45
94.16
99.14
103.23
106.21
107.94
108.44
107.97
106.91
105.64
104.33
102.8
100.63
97.28
92.34
85.64
77.28
67.55
56.83
45.57
34.32
23.65
14.02
5.54
-2.14
-9.8
-18.25
-27.91
-38.38
-48.5
-56.81
-62.2
-64.54
-64.78
-64.66
-65.96
-69.89
-76.75
-85.95
-96.33
-106.54
-115.27
-121.48
-124.52
-124.23
-121.09
-116
-110.01
-103.9
-97.93
-91.87
-85.32
-78.04
-70.14
-62.07
-54.26
-46.99
-40.25
-33.94
-27.98
-22.44
-17.42
-12.89
-8.66
-4.35
0.3
5.31
10.42
15.19
19.27
22.54
25.12
27.24
29.02
30.39
31.13
30.95
29.73
27.51
24.54
21.11
17.56
14.14
11.04
8.26
5.65
2.92
-0.27
-4.07
-8.25
-12.11
-14.67
-15.02
-12.75
-8.21
-2.48
3.08
7.32
9.66
10.18
9.42
8.02
6.45
4.92
3.45
2.06
0.75
-0.45
-1.63
-3
-4.77
-7.05
-9.67
-12.19
-14.1
-15.06
-15.04
-14.43
-13.83
-13.85
-14.82
-16.7
-19.15
-21.68
-23.84
-25.37
-26.26
-26.73
-27.16
-27.98
-29.55
-31.99
-35.11
-38.35
-40.86
-41.74
-40.27
-36.23
-29.97
-22.34
-14.41
-7.21
-1.41
2.81
5.69
7.71
9.39
11.08
12.89
14.69
16.24
17.28
17.64
17.31
16.43
15.16
13.61
11.76
9.42
6.34
2.41
-2.39
-7.89
-13.81
-19.9
-25.89
-31.6
-36.87
-41.62
-45.94
-49.97
-53.86
-57.51
-60.51
-62.17
-61.7
-58.6
-52.89
-45.18
-36.53
-28.08
-20.78
-15.19
-11.4
-9.13
-7.87
-7.03
-6.09
-4.69
-2.66
0.03
3.3
7.01
10.96
14.79
18.1
20.44
21.45
21.03
19.31
16.57
13.15
9.33
5.28
1.12
-3.11
-7.42
-11.87
-16.58
-21.68
-27.14
-32.75
-37.9
-41.8
-43.58
-42.6
-38.73
-32.39
-24.44
-15.87
-7.52
0.21
7.31
13.98
20.41
26.51
31.93
36.19
38.87
39.88
39.46
38.1
36.34
34.61
33.17
32.09
31.29
30.58
29.67
28.22
25.95
22.71
18.59
13.93
9.19
4.76
0.85
-2.68
-6.15
-10.04
-14.68
-20.13
-26.02
-31.66
-36.08
-38.34
-37.77
-34.2
-28
-19.93
-10.92
-1.7
7.29
15.92
24.24
32.21
39.62
46.05
51.05
54.3
55.8
55.9
55.12
53.97
52.72
51.24
49.22
46.33
42.48
37.92
33.15
28.62
24.52
20.61
16.33
11.1
4.57
-3.17
-11.61
-19.95
-27.48
-33.79
-38.93
-43.3
-47.54
-52.21
-57.6
-63.56
-69.5
-74.48
-77.41
-77.33
-73.69
-66.49
-56.27
-43.97
-30.64
-17.21
-4.36
7.54
18.32
27.87
36.05
42.66
47.57
50.75
52.36
52.75
52.36
51.58
50.62
49.57
48.38
46.98
45.36
43.58
41.68
39.63
37.39
34.89
32.11
29.06
25.78
22.26
18.49
14.54
10.54
6.68
3.12
-0.17
-3.3
-6.45
-9.78
-13.32
-17.14
-21.34
-26.07
-31.36
-36.93
-41.98
-45.32
-45.8
-42.71
-36.18
-27.14
-16.95
-6.85
2.42
10.7
18.18
25.03
31.17
36.28
39.94
42.02
42.74
42.57
42.09
41.68
41.47
41.37
41.22
40.9
40.4
39.75
39.01
38.13
37.08
35.79
34.27
32.56
30.68
28.66
26.47
24.12
21.64
19.07
16.42
13.6
10.5
7.07
3.38
-0.36
-3.91
-7.11
-10.01
-12.86
-16.03
-19.84
-24.37
-29.4
-34.28
-38.17
-40.14
-39.48
-35.9
-29.71
-21.68
-12.88
-4.33
3.31
9.78
15.24
20.02
24.36
28.3
31.64
34.09
35.45
35.76
35.26
34.3
33.18
32.05
30.92
29.81
28.75
27.86
27.26
26.91
26.64
26.08
24.85
22.71
19.66
16
12.24
8.98
6.65
5.33
4.71
4.23
3.3
1.54
-1.03
-4.06
-7.06
-9.63
-11.62
-13.17
-14.59
-16.26
-18.47
-21.32
-24.74
-28.39
-31.76
-34.18
-34.93
-33.5
-29.65
-23.62
-16.05
-7.88
-0.04
6.76
12.24
16.5
19.87
22.66
25.03
26.86
27.98
28.32
28.03
27.47
27.03
26.92
27.11
27.43
27.64
27.63
27.35
26.77
25.73
24
21.28
17.39
12.36
6.41
-0.05
-6.61
-12.92
-18.82
-24.33
-29.6
-34.8
-39.99
-45.09
-49.81
-53.84
-56.89
-58.86
-59.85
-60.17
-60.18
-60.27
-60.63
-61.23
-61.73
-61.61
-60.34
-57.54
-53.15
-47.4
-40.7
-33.57
-26.46
-19.77
-13.77
-8.58
-4.2
-0.53
2.54
5.04
6.96
8.31
9.17
9.77
10.32
10.95
11.6
12.09
12.21
11.91
11.39
11.06
11.36
12.58
14.72
17.38
19.93
21.7
22.25
21.57
20.01
18.15
16.48
15.21
14.31
13.54
12.67
11.48
9.76
7.27
3.79
-0.81
-6.48
-12.94
-19.78
-26.53
-32.71
-37.85
-41.56
-43.59
-43.95
-43.05
-41.52
-40.02
-38.94
-38.29
-37.68
-36.61
-34.77
-32.16
-29.16
-26.37
-24.29
-23.07
-22.43
-21.66
-20
-17.01
-12.74
-7.72
-2.72
1.66
5.18
7.9
10.03
11.68
12.8
13.32
13.29
12.94
12.57
12.38
12.32
12.08
11.37
10.05
8.29
6.47
5.01
4.21
4.02
4.16
4.15
3.47
1.69
-1.41
-5.68
-10.59
-15.25
-18.61
-19.82
-18.45
-14.74
-9.46
-3.65
1.75
6.2
9.59
12.14
14.23
16.18
18.15
20.13
21.92
23.28
23.99
24
23.45
22.65
21.95
21.56
21.52
21.67
21.81
21.78
21.54
21.11
20.45
19.43
17.87
15.7
13.02
10.16
7.57
5.57
4.19
3.11
1.78
-0.32
-3.39
-7.18
-11.12
-14.55
-17.04
-18.54
-19.4
-20.19
-21.55
-23.93
-27.5
-31.99
-36.75
-40.8
-43.08
-42.72
-39.37
-33.34
-25.55
-17.24
-9.56
-3.25
1.54
5.1
7.9
10.35
12.62
14.68
16.43
17.8
18.8
19.46
19.78
19.7
19.14
18.08
16.64
15
13.38
11.92
10.65
9.49
8.3
6.96
5.34
3.41
1.17
-1.29
-3.8
-6.15
-8.08
-9.39
-9.93
-9.72
-8.94
-7.9
-7.08
-6.93
-7.73
-9.51
-11.88
-14.18
-15.62
-15.57
-13.76
-10.37
-5.89
-0.94
3.96
8.5
12.62
16.37
19.79
22.85
25.31
26.83
26.97
25.44
22.2
17.6
12.27
6.97
2.27
-1.55
-4.56
-6.97
-8.98
-10.58
-11.64
-12.02
-11.71
-10.89
-9.85
-8.89
-8.16
-7.66
-7.17
-6.38
-5
-2.89
-0.28
2.31
4.19
4.76
3.76
1.36
-1.9
-5.26
-7.94
-9.21
-8.54
-5.67
-0.65
6.05
13.7
21.45
28.61
34.83
40.05
44.41
48.1
51.18
53.66
55.53
56.83
57.69
58.27
58.74
59.27
59.97
60.76
61.22
60.61
58
52.63
44.27
33.36
20.9
8.09
-4.01
-14.72
-23.66
-30.68
-35.74
-38.91
-40.51
-41.15
-41.6
-42.63
-44.7
-47.86
-51.63
-55.19
-57.55
-57.82
-55.51
-50.73
-44.19
-36.94
-30.02
-24.1
-19.34
-15.53
-12.26
-9.29
-6.53
-4.05
-1.98
-0.35
0.87
1.69
2.1
2.04
1.45
0.36
-1.1
-2.73
-4.32
-5.72
-6.89
-7.94
-9.12
-10.77
-13.17
-16.41
-20.3
-24.44
-28.38
-31.89
-35.05
-38.26
-42
-46.63
-52.16
-58.28
-64.37
-69.7
-73.55
-75.32
-74.66
-71.54
-66.28
-59.61
-52.41
-45.58
-39.74
-35.11
-31.58
-28.79
-26.37
-24.02
-21.51
-18.63
-15.05
-10.4
-4.33
3.26
12.09
21.58
31
39.74
47.48
54.23
60.11
65.18
69.21
71.8
72.44
70.73
66.49
59.73
50.56
39.06
25.37
9.68
-7.59
-25.72
-43.83
-61
-76.59
-90.24
-101.93
-111.72
-119.58
-125.28
-128.46
-128.76
-125.95
-119.97
-110.78
-98.3
-82.54
-63.73
-42.35
-18.91
6.26
33.03
61
89
114.94
136.33
151.33
159.59
162.38
161.81
159.66
156.55
151.96
145.02
135.42
123.78
111.22
98.74
86.81
75.49
65.02
56.05
49.43
45.56
43.91
42.94
40.79
36.19
29.26
21.62
15.83
14.39
18.7
28.46
41.74
55.62
67.25
74.7
77.4
75.99
71.74
66.04
60.18
55.48
53.28
54.52
58.86
64.01
66
60.62
45.47
21.39
-7.88
-37.59
-64.35
-87.5
-108.19
-126.99
-141.81
-148.02
-141.05
-119.98
-89.52
-58.82
-37.5
-31.1
-38.71
-53.86
-68.24
-75.75
-74.95
-68.66
-61.54
-57.18
-56.54
-58.03
-59.13
-57.99
-54.21
-48.74
-42.83
-37.21
-31.66
-25.32
-17.74
-9.65
-3.14
-1.13
-6.19
-19.37
-39.66
-64.1
-88.7
-109.71
-124.72
-133.22
-136.25
-135.26
-130.93
-122.5
-108.47
-88.03
-62.51
-35.54
-11.69
5.66
15.9
21.24
25.18
30.32
37
43.44
47.2
46.85
42.82
37.02
31.65
28.08
26.47
26.1
26.11
26.11
26.32
27.37
29.82
33.57
37.83
41.24
42.57
41.28
37.9
33.9
31.1
30.93
33.85
39.12
45.05
49.66
51.35
49.51
44.76
38.67
33.19
29.83
29.16
30.65
33.09
35.21
36.3
36.42
36.17
36.27
37.19
38.84
40.69
42.01
42.08
40.32
36.41
30.37
22.87
15.27
9.38
6.94
8.83
14.7
22.96
31.47
38.32
42.53
44.12
43.75
42.19
39.85
36.77
32.94
28.58
24.23
20.5
17.72
15.76
14.05
11.93
8.97
5.24
1.21
-2.4
-5.04
-6.52
-7.13
-7.41
-7.95
-9.13
-10.98
-13.25
-15.62
-17.85
-19.92
-21.93
-23.93
-25.8
-27.14
-27.38
-25.99
-22.7
-17.55
-10.98
-3.64
3.71
10.39
15.98
20.36
23.77
26.68
29.57
32.78
36.37
40.09
43.35
45.29
44.74
40.47
31.59
18.16
1.47
-16.05
-31.5
-42.54
-48.13
-48.81
-46
-40.92
-33.81
-24.11
-11.17
4.54
21.09
35.53
45.02
47.72
42.97
30.87
11.69
-14.19
-45.79
-80.72
-114.95
-143.6
-162.58
-170.11
-167.31
-157.21
-143.28
-128.09
-112.91
-98.2
-84.2
-71.27
-59.59
-48.77
-37.59
-24.53
-8.59
10.19
30.62
51
69.89
86.66
101.14
113.33
122.95
129.58
133.05
133.65
132.18
129.49
126.12
122.23
117.71
112.51
106.84
101.14
95.76
90.8
86.09
81.31
76.28
71.1
66.15
62.05
59.48
59.07
61.24
66.01
72.96
81.24
89.79
97.6
103.91
108.36
110.86
111.44
109.98
106.01
98.74
87.31
71.34
51.36
28.97
6.56
-13.46
-29.49
-41.24
-49.59
-56.03
-61.99
-68.52
-76.31
-85.96
-98.05
-112.84
-129.72
-146.9
-161.71
-171.34
-173.87
-168.88
-157.52
-141.94
-124.52
-107.27
-91.57
-78.14
-67.23
-58.65
-51.91
-46.23
-40.76
-34.81
-28.06
-20.65
-13.12
-6.18
-0.45
3.76
6.5
8.09
8.94
9.35
9.35
8.83
7.67
5.87
3.65
1.3
-1.02
-3.41
-6.13
-9.48
-13.55
-18.15
-22.87
-27.24
-30.86
-33.55
-35.28
-36.13
-36.3
-36.1
-36.05
-36.8
-38.97
-42.83
-48.09
-53.79
-58.54
-60.92
-59.92
-55.21
-47.2
-36.89
-25.58
-14.48
-4.51
3.88
10.78
16.74
22.56
29.04
36.64
45.3
54.46
63.14
70.23
74.69
75.9
73.81
69.17
63.4
58.29
55.32
54.96
56.28
57.09
54.85
47.91
36.45
22.66
9.78
0.65
-3.6
-4.02
-3.15
-3.72
-7.32
-13.95
-22.4
-31.11
-39.02
-45.8
-51.51
-56.22
-59.86
-62.26
-63.3
-62.79
-60.29
-55.16
-46.88
-35.54
-22.22
-8.63
3.62
13.8
22.39
30.53
39.14
48.05
55.9
60.76
61.05
56.15
46.51
33.32
18.01
2.02
-13.32
-26.89
-37.82
-45.63
-50.24
-51.94
-51.19
-48.62
-44.95
-40.92
-37.23
-34.3
-32.08
-30.15
-27.91
-24.92
-21.14
-16.93
-12.75
-8.97
-5.78
-3.23
-1.6
-1.39
-3.17
-7.06
-12.3
-17.28
-20.1
-19.36
-14.95
-8.13
-0.92
4.91
8.56
10.44
11.6
12.92
14.42
15.21
13.91
9.44
1.48
-9.46
-22.44
-36.54
-51.03
-65.17
-77.92
-87.73
-92.79
-91.76
-84.52
-72.44
-58.06
-44.13
-32.63
-24.14
-17.99
-12.94
-8.09
-3.25
1.07
4.15
5.62
5.66
4.83
3.84
3.37
3.95
6.07
10.14
16.39
24.66
34.31
44.27
53.26
60.19
64.46
66.07
65.47
63.34
60.24
56.56
52.41
47.76
42.52
36.68
30.29
23.62
17.06
11.11
6.29
2.92
1.1
0.68
1.33
2.82
4.94
7.5
10.18
12.4
13.56
13.16
11.16
7.96
4.24
0.65
-2.46
-5.17
-7.74
-10.45
-13.33
-16.18
-18.65
-20.35
-21
-20.53
-19.24
-17.84
-17.38
-18.91
-23.04
-29.46
-36.82
-43
-45.81
-43.74
-36.5
-25.06
-11.19
3.15
16.39
27.59
36.35
42.4
45.35
44.5
39.07
28.69
13.88
-3.65
-21.22
-35.84
-45.12
-47.98
-44.9
-37.63
-28.39
-19.36
-12.11
-7.63
-6.42
-8.49
-13.29
-19.56
-25.41
-28.58
-27.19
-20.35
-8.59
6.2
21.45
34.72
44.66
51.28
55.76
59.64
63.92
68.58
72.83
75.8
77.27
77.87
78.62
80.17
82.22
83.71
83.49
81.07
76.89
71.88
66.65
60.97
53.93
44.63
33.03
20.22
8.12
-1.39
-7.25
-9.49
-9.05
-7.24
-5.15
-3.41
-2.25
-1.73
-1.99
-3.29
-5.83
-9.52
-13.84
-17.86
-20.59
-21.4
-20.29
-17.9
-15.25
-13.42
-13.16
-14.75
-17.99
-22.3
-27.06
-31.84
-36.62
-41.83
-48.03
-55.5
-63.86
-72.02
-78.56
-82.22
-82.4
-79.26
-73.49
-65.96
-57.44
-48.61
-40.18
-33.03
-28.07
-26.07
-27.31
-31.42
-37.43
-43.95
-49.48
-52.74
-52.88
-49.7
-43.63
-35.54
-26.46
-17.15
-7.92
1.35
11.07
21.54
32.73
44.13
54.99
64.48
72.02
77.4
80.77
82.54
83.16
83.01
82.34
81.16
79.41
77
73.97
70.47
66.78
63.15
59.68
56.36
53.07
49.71
46.34
43.15
40.37
38.2
36.79
36.28
36.95
39.22
43.57
50.32
59.25
69.63
80.32
90.1
98.18
104.28
108.61
111.48
113.01
112.97
110.93
106.48
99.42
89.77
77.6
63
46.07
27.19
7.02
-13.45
-33.18
-51.44
-67.92
-82.72
-96.13
-108.44
-119.81
-130.25
-139.79
-148.45
-156.28
-163.2
-169.04
-173.45
-176.06
-176.56
-174.69
-170.22
-162.77
-151.87
-137
-118.06
-95.63
-71.23
-47.01
-25.28
-7.83
4.55
12.17
16.19
18.1
19.28
20.76
23.05
26.28
30.22
34.42
38.34
41.54
43.76
44.99
45.39
45.17
44.45
43.2
41.28
38.48
34.67
29.85
24.33
18.67
13.59
9.84
7.87
7.73
8.99
10.97
12.96
14.56
15.79
16.94
18.42
20.41
22.79
25.18
27.15
28.34
28.65
28.2
27.17
25.76
24.06
22.1
19.87
17.45
14.97
12.64
10.63
8.94
7.36
5.55
3.06
-0.4
-4.87
-10.05
-15.36
-20.09
-23.55
-25.27
-25.04
-22.99
-19.54
-15.28
-10.82
-6.59
-2.78
0.7
4.06
7.39
10.49
12.95
14.3
14.29
13.05
11.05
8.85
6.9
5.33
4.01
2.71
1.26
-0.35
-2.01
-3.6
-5.1
-6.63
-8.41
-10.7
-13.67
-17.33
-21.56
-26.1
-30.58
-34.58
-37.62
-39.28
-39.23
-37.3
-33.64
-28.65
-22.96
-17.23
-12.02
-7.64
-4.19
-1.67
-0.04
0.7
0.58
-0.22
-1.42
-2.63
-3.53
-4.04
-4.24
-4.26
-4.1
-3.53
-2.07
0.64
4.73
9.88
15.47
20.68
24.82
27.39
28.21
27.4
25.41
22.95
20.9
20.1
21.1
23.95
28.28
33.39
38.62
43.44
47.59
50.91
53.2
54.22
53.74
51.78
48.72
45.25
42.14
39.92
38.74
38.29
37.96
36.98
34.53
29.98
23.09
14.21
4.36
-5.02
-12.58
-17.55
-20.11
-21.21
-22.11
-23.81
-26.69
-30.55
-34.86
-39.05
-42.65
-45.25
-46.42
-45.75
-43.01
-38.27
-31.97
-24.79
-17.48
-10.73
-4.99
-0.56
2.51
4.33
5.11
5.17
4.79
4.18
3.46
2.59
1.49
0.09
-1.61
-3.49
-5.36
-7.03
-8.38
-9.47
-10.5
-11.76
-13.54
-16.03
-19.23
-23.01
-27.02
-30.78
-33.7
-35.14
-34.64
-32.05
-27.63
-22.05
-16.14
-10.62
-5.9
-1.96
1.4
4.41
7.05
9.09
10.25
10.42
9.75
8.61
7.43
6.48
5.77
5.15
4.39
3.32
1.95
0.38
-1.29
-3
-4.81
-6.84
-9.21
-12
-15.21
-18.82
-22.71
-26.57
-29.9
-32.08
-32.53
-30.93
-27.4
-22.51
-16.98
-11.5
-6.45
-1.9
2.21
5.85
8.82
10.78
11.45
10.81
9.24
7.37
5.9
5.32
5.78
7.07
8.75
10.41
11.78
12.84
13.69
14.44
15.12
15.69
16.01
15.84
14.84
12.46
8.14
1.53
-7.18
-17.1
-26.71
-34.24
-38.23
-37.98
-33.69
-26.3
-17.06
-7.14
2.64
11.81
20.04
27.02
32.42
35.91
37.37
36.99
35.2
32.56
29.57
26.58
23.76
21.18
18.81
16.54
14.17
11.42
8
3.78
-1.16
-6.48
-11.76
-16.68
-21.13
-25.33
-29.63
-34.28
-39.16
-43.65
-46.6
-46.65
-42.66
-34.23
-21.9
-7.12
8.1
21.81
32.63
40.03
44.33
46.33
46.95
46.9
46.53
45.88
44.85
43.22
40.74
37.05
31.75
24.52
15.34
4.67
-6.7
-17.81
-27.85
-36.31
-43.05
-48.11
-51.61
-53.71
-54.65
-54.84
-54.82
-55.13
-56.12
-57.83
-59.95
-61.97
-63.28
-63.21
-61.19
-56.79
-49.97
-41.14
-31.24
-21.4
-12.62
-5.44
0.22
4.79
8.74
12.27
15.26
17.4
18.54
18.76
18.42
17.89
17.41
16.98
16.49
15.84
15.02
14.11
13.12
11.98
10.5
8.59
6.34
4.01
1.98
0.49
-0.51
-1.34
-2.53
-4.49
-7.36
-10.81
-14.17
-16.52
-17.07
-15.38
-11.49
-5.97
0.36
6.57
11.94
16.09
18.98
20.78
21.76
22.16
22.13
21.81
21.25
20.55
19.77
18.99
18.27
17.67
17.24
16.96
16.72
16.35
15.62
14.36
12.51
10.16
7.52
4.88
2.41
0.18
-1.9
-4.03
-6.4
-9.16
-12.32
-15.71
-18.97
-21.57
-22.86
-22.35
-19.8
-15.43
-9.84
-3.87
1.74
6.53
10.45
13.76
16.8
19.68
22.31
24.4
25.67
26.02
25.57
24.57
23.27
21.83
20.27
18.56
16.67
14.56
12.25
9.73
6.96
3.91
0.59
-2.91
-6.45
-9.8
-12.77
-15.27
-17.33
-19.1
-20.71
-22.21
-23.35
-23.76
-22.95
-20.71
-17.1
-12.59
-7.81
-3.29
0.67
4.06
7
9.55
11.66
13.13
13.86
13.86
13.36
12.63
11.96
11.47
11.15
10.82
10.26
9.22
7.58
5.35
2.66
-0.22
-2.96
-5.31
-7.12
-8.46
-9.5
-10.5
-11.66
-13.15
-15.1
-17.57
-20.56
-23.91
-27.2
-29.84
-31.22
-30.89
-28.83
-25.43
-21.3
-17.01
-12.82
-8.65
-4.19
0.78
6.1
11.24
15.36
17.67
17.76
15.82
12.61
9.17
6.49
5.07
4.83
5.16
5.26
4.47
2.55
-0.26
-3.48
-6.49
-8.82
-10.24
-10.82
-10.73
-10.29
-9.78
-9.44
-9.38
-9.49
-9.43
-8.64
-6.47
-2.45
3.53
11.01
19.15
26.95
33.62
38.86
42.93
46.38
49.75
53.26
56.74
59.87
62.41
64.39
66.14
68.06
70.34
72.83
75.07
76.47
76.56
75.11
72.11
67.71
62.03
55.13
46.99
37.7
27.46
16.58
5.41
-5.75
-16.69
-27.24
-37.15
-45.99
-53.17
-57.97
-59.85
-58.65
-54.78
-49.16
-42.96
-37.25
-32.65
-29.3
-26.91
-25.05
-23.42
-21.98
-20.92
-20.47
-20.79
-21.85
-23.47
-25.32
-27.16
-28.87
-30.51
-32.28
-34.3
-36.47
-38.44
-39.64
-39.6
-38.17
-35.61
-32.55
-29.69
-27.65
-26.8
-27.31
-29.33
-32.99
-38.4
-45.36
-53.17
-60.61
-66.22
-68.76
-67.67
-63.29
-56.57
-48.73
-40.95
-34.28
-29.73
-28.29
-30.61
-36.63
-45.26
-54.47
-61.91
-65.7
-64.92
-59.64
-50.61
-38.82
-25.26
-11.09
2.3
13.3
20.48
23.03
21.14
15.95
9.31
3.25
-0.5
-0.84
2.48
8.91
17.29
26.29
34.76
42.08
48.15
53.18
57.36
60.63
62.72
63.35
62.45
60.27
57.28
53.99
50.67
47.37
43.97
40.43
36.95
33.92
31.78
30.79
30.88
31.72
32.81
33.76
34.25
34.13
33.27
31.51
28.66
24.52
19
12.19
4.35
-4.13
-12.73
-20.85
-27.89
-33.26
-36.43
-37.07
-35.15
-31.06
-25.62
-20
-15.47
-13.04
-13.11
-15.33
-18.62
-21.53
-22.75
-21.52
-17.91
-12.67
-6.95
-1.88
1.79
3.81
4.34
3.79
2.6
1.09
-0.6
-2.52
-4.76
-7.43
-10.51
-13.83
-17.04
-19.66
-21.18
-21.19
-19.49
-16.22
-11.77
-6.71
-1.67
2.87
6.64
9.54
11.6
12.84
13.27
12.86
11.68
9.91
7.81
5.76
4.05
2.91
2.33
2.15
2.07
1.68
0.61
-1.36
-4.24
-7.88
-12.01
-16.36
-20.79
-25.24
-29.75
-34.38
-39.16
-44.01
-48.73
-52.91
-56.03
-57.51
-56.95
-54.28
-49.87
-44.47
-38.96
-34.18
-30.57
-28.09
-26.28
-24.34
-21.51
-17.2
-11.31
-4.15
3.53
10.9
17.21
21.99
25.14
26.78
27.19
26.51
24.79
21.99
18.2
13.79
9.45
6.01
4.14
4.03
5.27
7.05
8.41
8.63
7.38
4.64
0.59
-4.52
-10.32
-16.23
-21.41
-25.01
-26.36
-25.39
-22.62
-18.98
-15.44
-12.53
-10.22
-8.03
-5.42
-2.13
1.62
5.27
8.19
10.01
10.78
10.88
10.8
10.89
11.25
11.73
12.09
12.19
11.97
11.54
11.01
10.42
9.63
8.37
6.24
2.85
-1.96
-8.09
-15.05
-22.11
-28.42
-33.16
-35.68
-35.6
-32.89
-27.84
-21.14
-13.62
-6.12
0.76
6.79
12.14
17.16
22.24
27.49
32.77
37.64
41.58
44.1
44.95
44.24
42.44
40.24
38.34
37.14
36.64
36.4
35.74
34.05
30.97
26.56
21.12
15.08
8.74
2.26
-4.29
-10.76
-16.85
-22.12
-26.13
-28.54
-29.13
-27.83
-24.54
-19.27
-12.13
-3.61
5.49
14.09
21.19
26.22
29.16
30.44
30.74
30.64
30.44
30.2
29.66
28.49
26.38
23.14
18.77
13.55
7.93
2.45
-2.44
-6.46
-9.59
-12.03
-14.14
-16.29
-18.81
-21.84
-25.32
-28.84
-31.84
-33.69
-34.03
-32.87
-30.68
-28.26
-26.38
-25.52
-25.51
-25.61
-24.66
-21.55
-15.57
-6.67
4.56
17.09
29.87
42.05
53.11
62.77
70.73
76.57
79.79
80.06
77.41
72.31
65.53
57.87
49.9
41.93
34.07
26.53
19.7
14.08
10.11
7.86
6.92
6.54
5.79
3.97
0.72
-4
-9.96
-16.81
-24.17
-31.6
-38.51
-44.26
-48.28
-50.14
-49.78
-47.47
-43.75
-39.27
-34.61
-30.19
-26.11
-22.23
-18.24
-13.72
-8.37
-2.09
4.93
12.26
19.42
26.08
32.22
38.17
44.42
51.42
59.32
67.79
76.05
82.9
87.12
87.78
84.59
78.01
69.18
59.54
50.4
42.5
35.88
30.05
24.48
19.1
14.57
12.11
12.97
17.7
25.74
35.46
44.86
52.43
57.87
62.25
67.44
75.04
85.43
97.42
108.66
116.76
120.45
120.27
118.39
117.59
120.02
125.99
133.72
139.81
140.44
132.72
115.53
89.58
56.98
20.5
-17.01
-52.9
-84.81
-110.85
-130.02
-142.4
-149.12
-151.51
-149.95
-143.23
-129.01
-105.56
-73.98
-39.24
-8.96
9.82
14.25
7.61
-2.01
-5.65
1.91
19.68
41.38
59.09
67.49
66.05
58.38
49.43
42.56
38.22
34.75
30.33
24.67
19.21
16.05
16.41
19.68
23.65
25.52
23.25
16.41
6.19
-5.16
-15.05
-21.27
-22.73
-19.98
-15.65
-14.22
