62.29
68.08
75.19
83.94
93.9
104.05
113.09
119.86
123.68
124.29
121.79
116.22
107.4
94.72
77.39
54.84
27.12
-4.81
-39.29
-74
-106.47
-134.3
-155.5
-168.57
-172.85
-168.84
-158.47
-144.87
-131.67
-121.75
-116.17
-113.77
-111.9
-107.73
-99.62
-87.71
-73.78
-60.27
-49.02
-40.5
-33.69
-26.77
-18.19
-7.67
3.39
12.33
16.3
13.64
4.87
-7.25
-18.95
-26.77
-28.96
-25.66
-18.33
-8.42
3.27
16.48
30.59
43.68
52.63
54.2
46.89
32.32
15.44
2.84
0.15
9.86
30.29
56.43
81.97
101.36
111.2
110.45
100.13
82.89
62.63
44.09
31.75
28.52
34.54
46.99
61.09
72.05
76.85
75.21
69.07
61.22
53.88
47.93
43.02
38.31
33.34
28.43
24.64
23.13
24.8
29.62
36.53
43.53
48.03
47.46
39.96
24.93
3.46
-21.74
-46.81
-67.5
-80.33
-83.58
-78.1
-67.55
-58.04
-56.89
-70.78
-103.25
-152.66
-211.44
-267.52
-307.61
-321.39
-304.82
-261.28
-200
-132.55
-69.14
-16.16
24.27
53.18
72.95
86.07
94.56
100.16
104.67
109.83
116.84
125.65
134.59
140.61
140.47
132.4
117.49
99.9
85.63
80.09
85.68
100.68
119.77
136.31
144.88
142.97
131.09
111.65
87.49
61.03
34.11
8.36
-14.65
-33.55
-47.69
-57.4
-63.92
-68.72
-72.68
-75.69
-76.67
-74.22
-67.38
-56.19
-41.87
-26.41
-11.96
-0.27
7.65
11.44
11.28
7.49
0.34
-9.81
-22.28
-35.78
-48.36
-57.87
-62.47
-61.35
-55.1
-45.71
-35.9
-28.06
-23.39
-21.39
-20.28
-17.99
-13.32
-6.49
0.85
6.54
8.85
7.26
2.65
-3.06
-7.74
-9.97
-9.55
-7.59
-5.92
-6.27
-9.47
-15.13
-21.97
-28.53
-33.99
-38.36
-42.06
-45.13
-46.76
-45.35
-39.3
-27.92
-11.95
6.51
24.63
39.66
49.6
53.63
52.18
46.92
40.38
35.34
34.01
37.21
44.1
52.47
59.66
63.41
62.6
57.22
48.05
36.27
23.19
10.32
-0.58
-7.55
-9.01
-4.38
5.3
17.48
28.7
35.69
36.41
30.72
20.32
8.06
-2.98
-10.45
-13.19
-11.16
-5.1
3.82
14.2
24.39
32.62
37.39
37.9
34.44
28.27
20.91
13.49
6.3
-0.94
-8.53
-16.36
-23.95
-30.87
-36.88
-41.81
-45.17
-45.88
-42.84
-35.81
-26.32
-17.46
-13.04
-16.02
-27.32
-45.58
-67.5
-88.49
-103.31
-107.01
-96.32
-71.23
-35.53
4.27
41.53
72.18
95.98
115.4
132.79
147.91
157.22
155.79
140.11
110.49
71.26
29.08
-9.49
-39.77
-59.66
-69.38
-70.99
-67.92
-64.31
-63.89
-68.86
-78.86
-90.98
-100.47
-102.55
-94.27
-75.81
-50.54
-23.83
-1
14.74
23.43
28.19
33.56
43.29
58.56
77.44
95.97
110.1
117.48
118.18
114.25
108.41
102.78
98.33
95.01
92.38
90.28
89.01
88.99
90.24
91.87
92.17
89.11
81.12
67.89
50.65
31.78
13.93
-1
-12.64
-22.17
-31.61
-42.85
-56.71
-72.7
-89.19
-104.18
-116.11
-124.53
-130.32
-135.36
-141.6
-150.09
-160.28
-170.05
-176.42
-176.56
-168.64
-152.34
-128.84
-100.6
-71.03
-44
-23.1
-10.63
-6.73
-9.28
-14.64
-19.28
-21.35
-21.42
-21.97
-25.89
-34.96
-49.02
-66.25
-84.32
-101.33
-116.36
-129.24
-140.1
-148.83
-155.03
-158.07
-157.26
-151.91
-141.42
-125.46
-104.4
-79.77
-54.22
-31.06
-13.19
-2.2
2.29
2.47
1.99
5.33
17.19
41.47
80.09
131.82
191.9
252.98
307.16
348.22
373.31
383.09
380.68
370.02
354.75
337.53
320.43
305.1
292.52
282.39
272.91
261.27
245.09
223.89
199.45
175.31
155.36
142.03
135.36
133.24
132.71
131.45
128.84
125.82
124.98
130.16
145.34
172.62
210.04
250.44
282.31
292.89
271.9
215.5
127.94
19.82
-95.83
-207.45
-307.17
-390.93
-453.34
-489.3
-495.96
-474.53
-430.83
-373.77
-312.33
-253.02
-199.06
-151.04
-109.04
-73.62
-45.25
-23.91
-9.66
-2.3
-0.67
-3
-7.63
-13.96
-22.64
-33.31
-44.15
-52.73
-56.33
-51.92
-37.71
-12.54
21.14
56.95
88.19
108.6
112.24
95.38
59.31
12.19
-32.16
-58.17
-64.16
-56.11
-45.46
-43.13
-59.24
-97.38
-153.44
-218.15
-280.46
-334.11
-375.95
-395.01
-383.62
-339.18
-264.76
-169.04
-72.9
15.11
88.62
143.25
176.6
188.31
179.22
154.05
120.98
89.17
66.59
54.03
46.67
36.29
13.8
-26.41
-83.51
-150.66
-217.51
-272.35
-306.98
-316.56
-299.81
-260
-204.2
-141.61
-81.89
-32.94
1.39
20.14
25.8
23.57
19.95
21.55
33.32
56.3
86.43
115.44
132.71
129.84
104.32
61.1
11.44
-30.67
-53.33
-50.45
-23.17
20.9
71.45
119.65
161.17
196.4
228.2
258.29
284.74
302.08
303.67
285.57
248.63
198.46
143.36
91.94
51.59
28
24.46
41.01
73.74
114.77
153.92
181.53
190.93
179.47
148.43
101.45
43.16
-21.04
-84.98
-141.94
-185.93
-213.42
-224.8
-223.56
-214.96
-204.61
-197.36
-196.86
-205.47
-223.67
-249.47
-277.98
-301.15
-310.01
-297.95
-263.52
-211
-148.57
-85.31
-26.46
21.72
54.77
70.99
71.41
58.29
34.39
3.1
-31.74
-66.48
-98.9
-127.97
-153.98
-177.72
-200.04
-221.97
-242.14
-257.89
-266.22
-265.2
-253.99
-233.32
-204.84
-171.23
-135.26
-99.01
-63.86
-30.41
1.13
31.43
57.55
77.87
91.49
98.5
100.1
98.04
94.22
90.06
86.43
83.52
81.6
80.67
80.96
83.23
88.51
97.81
111.62
129.8
151.45
175.55
200.69
225.49
248.86
270.09
288.93
305.7
321.27
336.75
353.02
369.35
382.96
389.55
384.78
366.25
334.76
294.2
250.09
207.92
171.15
140.78
116.02
95.43
77.78
62.26
48.15
34.89
22.55
11.57
2.8
-2.93
-5.43
-5.5
-5.05
-6.8
-12.76
-22.8
-35.13
-46.8
-55.03
-58.43
-57.53
-54.3
-51.5
-50.62
-50.62
-49.35
-44.52
-34.79
-20.38
-2.3
17.72
37.11
46.85
39.84
12.46
-32.62
-86.28
-136.49
-172.8
-186.63
-179.89
-157.56
-124.1
-83.68
-40.13
2.84
37.98
60.27
67.44
60.02
41.88
19.06
-3.15
-21.36
-34.47
-43.16
-48.48
-51.55
-53.73
-55.73
-57.64
-59.51
-61.36
-63.18
-65.06
-66.87
-68.71
-71.06
-74.07
-77.46
-80.79
-83.52
-85.22
-85.65
-84.62
-82.16
-78.62
-74.42
-69.92
-65.58
-61.68
-58.29
-55.23
-52.18
-48.97
-45.87
-43.27
-41.49
-40.39
-39.26
-37.07
-33
-26.91
-19.57
-12.35
-6.58
-2.89
-1.04
-0.12
0.87
2.61
5.38
9.31
14.72
22.24
32.55
45.76
61.06
76.63
90.08
99.29
103.09
101.62
96.08
88.07
78.87
69.15
58.95
48.16
36.93
25.9
15.89
7.48
0.61
-5.33
-11.12
-17.19
-23.32
-28.78
-32.86
-35.26
-36.27
-36.44
-36.13
-35.15
-32.88
-28.69
-22.51
-15.03
-7.5
-1.21
2.96
4.8
4.67
3.25
1.24
-0.84
-2.81
-4.68
-6.63
-8.79
-11.25
-13.96
-16.78
-19.48
-21.77
-23.34
-23.88
-23.14
-20.96
-17.44
-12.89
-7.89
-3.1
0.92
3.87
5.7
6.56
6.65
6.11
4.98
3.24
0.83
-2.15
-5.53
-9.02
-12.32
-15.11
-17.23
-18.64
-19.47
-20.02
-20.54
-21.15
-21.75
-22
-21.41
-19.51
-15.9
-10.46
-3.29
5.27
14.74
24.52
34.03
42.76
50.28
56.27
60.48
62.68
62.69
60.41
55.9
49.43
41.53
32.95
24.62
17.57
12.74
10.87
12.24
16.56
22.89
29.73
35.34
38.05
36.61
30.37
19.3
3.86
-15
-35.83
-56.69
-75.16
-88.59
-94.59
-91.52
-78.91
-57.45
-28.74
5
41.08
76.48
107.95
132.33
147.22
151.5
145.59
131.45
111.92
89.98
68.34
49.06
33.44
21.71
12.78
4.27
-6.87
-23.01
-44.71
-70.04
-95.19
-115.79
-128.36
-131.05
-123.51
-106.6
-82.33
-54.16
-27.19
-7.4
0.23
-6.08
-23.63
-46.03
-65.79
-77.48
-79.61
-74.37
-65.74
-57.01
-49.44
-42.58
-35.56
-28.27
-21.59
-16.61
-13.63
-11.71
-9.07
-3.97
4.38
15.44
27.61
38.97
47.77
52.65
52.51
46.63
34.93
18.37
-1.02
-20.49
-37.38
-49.84
-57.07
-59.18
-56.62
-49.93
-39.7
-26.86
-12.76
1.03
13.2
23.22
31.34
38.28
44.56
50.11
54.3
56.32
55.6
52.05
46.02
38.15
29.07
19.27
9.04
-1.36
-11.61
-21.3
-29.87
-36.73
-41.42
-43.73
-43.78
-42.01
-39.12
-35.96
-33.47
-32.37
-32.93
-34.63
-36.31
-36.31
-33.07
-25.57
-13.82
1.23
17.88
34.23
48.62
59.9
67.51
71.23
71.06
66.96
58.93
47.21
32.44
15.73
-1.48
-17.69
-31.65
-42.42
-49.29
-51.72
-49.42
-42.55
-31.92
-18.93
-5.3
7.43
18.15
26.44
32.43
36.64
39.81
42.71
45.87
49.34
52.56
54.44
53.77
49.73
42.29
32.32
21.33
11
2.63
-3.07
-6.13
-7.1
-6.88
-6.38
-6.28
-6.91
-8.35
-10.59
-13.66
-17.57
-22.12
-26.64
-29.88
-30.28
-26.32
-17.12
-2.74
15.74
36.31
56.31
72.81
83.32
86.57
83.14
75.44
66.85
60.46
57.7
57.73
58.16
56.74
52.82
47.95
44.74
44.82
47.07
47.24
39.24
17.54
-20.49
-73.17
-134.5
-195.37
-245.44
-275.33
-279.01
-255.48
-209.47
-150.28
-89.02
-35.12
5.89
32.82
47.37
52.05
49.1
40.76
30.2
21.68
19.55
26.04
39.56
54.96
65.54
66.1
55.43
36.52
14.95
-3.35
-14.39
-17.1
-13.46
-7.97
-6.66
-15.73
-39.85
-79.89
-131.55
-185.63
-230.42
-255.46
-255.32
-231.06
-189.12
-138.08
-85.26
-35.19
9.9
48.34
77.81
95.68
100.45
93.31
78.23
60.66
45.5
35.57
31.46
32.09
35.85
41.44
48.06
55.3
62.83
70.26
77
82.31
85.5
86.6
86.84
88.42
93.46
102.66
114.48
125.58
132.32
132.54
126.53
116.59
105.64
95.81
87.69
80.86
74.61
68.6
62.76
56.77
49.7
40.35
27.84
12.24
-5.35
-23.14
-39.4
-52.83
-62.85
-69.52
-73.3
-74.88
-75.03
-74.48
-73.88
-73.58
-73.42
-72.96
-71.6
-68.76
-64.28
-58.38
-51.67
-45.1
-39.75
-36.14
-34.43
-34.2
-34.4
-34.15
-32.85
-30.64
-28.59
-28.27
-30.59
-35.95
-43.76
-52.46
-60.53
-66.71
-70.49
-72.7
-74.96
-78.47
-84.42
-93.26
-101.51
-105.07
-99.3
-79.85
-44.82
0.79
52.64
105.39
153.23
191.49
217.22
230.56
235.16
235.51
234.81
233.93
230.32
220.2
200.96
172.33
136.74
97.83
57.28
14.61
-31.67
-83.05
-139.29
-197.9
-255.2
-307.48
-345.7
-362.88
-355.49
-324.69
-276.25
-217.67
-155.45
-93.97
-35.84
17.35
63.11
98.77
122.65
134.8
137.83
135.59
131.8
128.94
128.31
128.22
125.58
117.49
102.98
84.48
65.77
50.63
41.47
39.08
41.73
45.7
46.83
42.93
35.84
28.55
23.84
22.79
26.3
32.48
37.11
35.12
22.96
0.45
-32.29
-74.53
-124.59
-177.79
-221.35
-241.81
-231.62
-204.66
-172.13
-142.35
-115.44
-90.75
-64.83
-33.99
3.87
38.99
62.19
66.18
47.46
8.99
-40.44
-88.35
-123.46
-139.81
-137.78
-120.52
-90.14
-49.07
-1.3
45.54
81.12
95.28
82.31
44.47
-6.89
-53.96
-80.63
-78.23
-47.79
2.84
63.28
124.62
180.92
225.02
250.68
253.51
233.68
196.39
149.53
100.19
53.04
12.15
-23.06
-51.66
-71.57
-80.75
-78.37
-65.25
-43.54
-16.52
11.35
34.32
47.32
46.91
32.72
7.96
-21.55
-49.57
-71.69
-86.64
-95.52
-98.43
-92.95
-74.2
-37.45
17.84
85.24
151.56
200.88
220.79
208.45
172.03
127.59
92.96
80.79
94.19
126.2
163.18
190.2
196.21
176.44
132.31
70.34
-0.82
-72.81
-139.35
-196.87
-243.86
-279.74
-303.9
-315.64
-313.78
-297.53
-267.41
-225.5
-174.83
-118.18
-57.48
6.08
68.97
123.49
160.34
172.99
160.61
127.73
82.14
32.55
-11.36
-45.93
-69.46
-81.2
-81.19
-70.31
-50.96
-27.14
-4.92
9.03
9.64
-2.97
-22.74
-40.17
-46.96
-40.34
-24.42
-7.64
2.16
2.03
-4.07
-7.89
-1.52
18.73
51.35
91.15
131.76
167.05
191.18
198.82
185.25
148
89.16
16.78
-55.82
-113.35
-143.12
-139.5
-105.59
-52.47
4.74
51.92
80.4
88.86
81.92
66.43
47.39
25.97
-0.24
-34.32
-76.93
-124.86
-172.19
-213.49
-246.97
-274.81
-300.58
-325.31
-344.76
-350.36
-333.15
-289.06
-222.12
-143.61
-67.55
-4.98
39.97
70.32
92.96
114.6
139.03
166.88
197.09
228.19
258.56
285.81
306.8
318.44
319.56
312.48
302.5
295.36
293.96
296.36
296.25
286.2
260.9
219.19
163.98
100.38
34.02
-29.86
-86.2
-130.03
-157.13
-165.65
-157.19
-136.97
-112.37
-90.6
-76.73
-72.56
-76.93
-86.42
-96.97
-105
-108.5
-107.44
-103.29
-98.09
-93.38
-89.76
-86.91
-84.01
-79.96
-73.29
-62.3
-45.57
-22.92
3.65
30.37
52.95
68.59
77.04
80.21
80.08
76.86
68.35
51.26
24.12
-10.36
-44.82
-69.58
-76.61
-63.17
-33.06
4.54
38.78
61.08
67.59
59.6
41.6
18.84
-4.56
-26.02
-43.88
-56.47
-61.86
-58.62
-46.86
-28.66
-7.89
10.99
24.31
30.3
29.5
24.54
18.94
15.76
16.55
20.72
26.18
30.44
31.96
30.79
28.48
26.99
27.75
31.2
36.9
44.17
52.36
60.89
68.88
75
77.82
76.54
71.62
64.93
58.99
55.8
55.93
58.43
61.6
63.98
65.08
65.34
65.52
66.14
67.3
68.89
71.12
74.57
79.87
87.12
95.72
104.47
112.42
119.44
126.26
134.12
143.95
155.97
169.52
183.46
196.56
207.65
215.49
218.36
214.03
200.32
176.13
142.19
101.17
56.97
13.38
-27
-63.39
-96.42
-127.37
-157.16
-185.86
-212.68
-236.24
-255.22
-268.66
-276.46
-279.47
-279.66
-279.87
-283.75
-295.47
-318.92
-356.35
-406.43
-463.26
-516.95
-556.24
-572.14
-561.17
-526.24
-475.06
-416.87
-358.87
-304.64
-254.7
-208.24
-165.05
-126.04
-92.6
-65.38
-43.49
-24.61
-5.92
14.82
38.66
65.34
94.28
125.27
158.68
194.79
232.85
270.28
302.81
325.72
335.44
330.93
314.01
288.55
258.73
227.74
197.27
168.15
141.37
118.46
101.09
89.92
83.73
79.6
74.44
66.76
57.77
50.83
49.43
54.95
65.63
77.35
85.71
87.99
83.72
73.73
58.64
38.21
12.26
-17.74
-47.65
-71.49
-84.05
-83.6
-73.04
-58.4
-45.59
-37.39
-32.23
-25.46
-12.15
10.43
41.93
79.89
121.43
164.25
206.5
245.69
277.65
296.72
297.2
275.44
231.21
168.5
94.48
17.56
-54.66
-117.09
-167.48
-205.75
-232.65
-248.97
-255.47
-253.52
-245.5
-234.37
-222.4
-209.87
-194.6
-173.15
-143.08
-104.81
-62.21
-21.2
12.77
36.87
51.68
60.14
65.78
71.36
78.22
86.49
95.62
104.92
113.17
119.03
121.2
118.7
111.42
100.15
86.23
71
55.26
38.94
21.08
-0.09
-26.64
-60.27
-101.09
-146.34
-189.74
-222.39
-235.32
-222.98
-186.09
-132.21
-73.4
-21.93
13.89
31.93
35.73
31.83
26.65
24.41
26.6
32.91
42.32
53.87
66.77
80.1
92.7
103.3
111
115.6
117.78
118.84
120.17
122.72
126.59
130.89
134
134.31
130.99
124.48
116.48
109.29
104.7
103.02
102.73
101.14
95.62
85.04
70.42
54.6
40.84
31.31
25.89
22.13
16.01
3.49
-18.21
-49.83
-89.91
-135.47
-182.67
-227.61
-267.07
-299.25
-324.1
-343.19
-358.62
-371.35
-380.05
-380.83
-368.73
-340.09
-294.81
-236.9
-173.33
-111.35
-56.03
-9.2
30.18
64.43
95.73
125.24
153.02
178.3
199.88
216.4
226.65
230.02
226.63
217.3
203.17
185.45
165
142.62
119.37
96.61
75.8
57.92
43.09
30.71
19.94
10.25
1.77
-4.71
-8.24
-8.22
-5.03
-0.16
4.29
6.31
4.95
0.95
-3.11
-3.64
2.54
16.6
36.79
58.82
77.34
87.9
88.69
81.34
70.27
61.19
58.77
65.01
78.51
94.9
107.59
109.31
94.38
60.97
12.77
-40.96
-87.32
-113.53
-111.48
-81.81
-34.67
13.52
46.05
51.7
28.03
-19.19
-79.5
-138.99
-184.55
-208.09
-208.49
-189.79
-157.44
-115.84
-68.33
-18.82
27.67
65.49
90.34
101.4
101.66
95.92
88.34
80.73
71.77
58.32
36.38
3.38
-41.21
-95.93
-158.23
-225.03
-289.74
-344.77
-382.33
-396.97
-387.06
-355.45
-308.18
-252.14
-192.7
-133.25
-75.72
-21.16
25.28
56.91
68.99
61.66
39.99
13.37
-12.04
-33.24
-49.21
-59.83
-64.76
-63.94
-57.38
-45.56
-29.81
-11.9
6.88
26.03
45.69
66.96
91.45
120.59
154.52
191.23
226.22
253.6
267.89
265.67
247.41
217.44
182.44
149.06
121.97
102.92
91.47
86.14
85.25
87.39
91.26
95.38
97.86
96.83
91.21
81.49
69.81
59.76
55.04
57.88
67.63
80.23
89.2
88.04
73
45.12
10.03
-23.99
-49.28
-61.79
-62.51
-56.99
-52.9
-57.15
-73.1
-99.28
-129.68
-155.54
-168.21
-161.74
-134.75
-91.07
-38.68
12.6
54.02
80.16
90.17
87.37
77.21
65.14
54.63
46.59
39.98
33.15
25.05
15.65
5.38
-5.42
-17.15
-30.6
-46.31
-63.91
-82
-98.52
-111.32
-119.14
-121.78
-120.06
-115.27
-108.31
-99.35
-87.92
-73.39
-55.66
-35.6
-15.05
3.75
18.86
29.3
35.17
37.67
38.74
40.54
44.84
52.55
63.24
75.35
86.73
95.4
100.37
101.73
100.43
97.67
94.35
90.91
87.23
82.97
77.6
70.71
62.1
52.05
41.54
32.24
26.1
24.71
28.63
37.14
48.46
60.48
71.58
81.2
89.74
98.02
106.53
114.94
122.13
126.86
128.52
127.75
126.35
126.43
129.29
134.32
138.69
137.9
127.06
102.73
64.35
14.78
-40.44
-94.82
-142.92
-181.71
-210.89
-232.23
-248.44
-262.18
-275.14
-287.25
-296.15
-297.54
-286.59
-260.43
-220.4
-172.71
-126.64
-90.77
-69.37
-60.66
-58.14
-54.2
-43.75
-26.28
-5.25
14.26
28.16
34.97
35.87
33.55
30.75
29.18
29.07
29.81
30.67
31.67
33.63
37.67
44.17
52.17
59.5
63.66
63.05
57.72
49.26
39.94
31.79
25.83
21.9
19.06
16.06
11.89
6.16
-0.85
-8.43
-16
-23.64
-32.38
-43.75
-58.73
-76.63
-94.47
-107.55
-111.06
-101.87
-79.74
-47.58
-10.3
26.67
58.86
83.85
101.79
115.18
127.95
143.96
165.12
190.3
215.17
233.48
239.2
228.71
201.58
160.28
108.86
51.18
-9.9
-72.62
-135.19
-194.64
-246.69
-286.59
-311.04
-320
-317.47
-310.01
-303.92
-301.97
-301.86
-297.25
-280.96
-248.47
-199.88
-139.62
-74.25
-10.16
47.43
94.57
128.09
146.1
149.08
140.75
127.58
116.86
113.93
119.94
132.11
145.63
156.42
162.87
165.89
167.42
168.72
169.42
167.78
161.93
150.88
135.08
115.97
95.42
74.77
54.59
34.83
15.23
-4.02
-22.27
-38.65
-52.48
-63.69
-72.85
-80.81
-88.14
-94.7
-99.33
-100.27
-95.96
-85.8
-70.73
-53.13
-36.23
-23.14
-15.89
-14.9
-19.08
-26.55
-35.39
-44.3
-52.82
-61.18
-69.9
-79.33
-89.38
-99.46
-108.59
-115.69
-119.84
-120.34
-116.86
-109.39
-98.41
-84.91
-70.35
-56.26
-43.7
-32.92
-23.36
-14.11
-4.66
4.81
13.68
21.63
29.24
38.02
49.58
64.68
82.55
101.02
117.49
129.98
138.09
142.86
146.24
149.94
154.78
160.43
165.62
168.78
168.53
164.11
155.51
143.44
129.1
113.95
99.49
86.93
76.71
68.18
59.39
47.29
28.48
0.05
-39.01
-86.4
-135.63
-177.09
-200.88
-200.35
-175.4
-132.9
-84.64
-42.63
-14.97
-3.85
-6.63
-18.8
-36.41
-56.93
-78.12
-96.49
-106.9
-104.15
-85.58
-52.94
-12.41
27.62
59.63
79.77
88.63
90.29
89.82
90.75
94.07
98.4
101.32
100.86
96.72
90.14
82.92
76.48
70.89
65.41
58.87
50.72
41.33
31.85
23.69
17.85
14.6
13.58
14.13
15.64
17.87
20.83
24.7
29.62
35.59
42.52
50.13
58.06
65.83
73.06
79.51
85.17
90.28
95.11
99.72
103.75
106.3
106.12
101.67
91.27
73.11
45.66
8.1
-38.78
-92.2
-147.75
-200.23
-245.1
-280
-305.69
-325.25
-342.06
-357.21
-367.97
-368.59
-353.02
-318.48
-267.83
-209.53
-154.37
-111.1
-82.92
-66.82
-55.63
-41.53
-18.8
16.2
63.87
121.73
184.18
242.65
286.88
307.54
299.21
262.5
204.53
136.93
72.34
20.71
-12.92
-28.51
-29.62
-21.36
-8.94
3.07
11.09
12.87
7.93
-2.21
-14.43
-24.88
-30.14
-28.1
-18.7
-4.01
12.35
26.36
34.96
36.99
33.29
25.99
17.48
9.44
2.47
-3.7
-9.63
-15.49
-20.76
-24.19
-24.4
-20.28
-11.79
-0.17
12.16
22.36
28.16
28.71
24.78
18.26
11.22
5.04
0.17
-3.56
-6.32
-7.87
-7.64
-5.16
-0.56
5.29
11.08
15.61
18.29
19.17
18.89
18.18
17.39
16.37
14.63
11.67
7.48
2.64
-1.81
-4.74
-5.44
-3.91
-1.01
2.02
3.97
4.31
3.31
1.95
1.3
1.96
3.73
5.61
6.54
5.79
3.37
-0.03
-3.59
-6.88
-10.07
-13.73
-18.32
-23.73
-29.15
-33.32
-34.91
-33.07
-27.94
-20.3
-11.37
-2.47
5.49
11.96
16.5
18.8
18.66
15.73
10.17
2.56
-6.28
-15.34
-23.67
-30.74
-36.32
-40.52
-43.73
-46.29
-48.48
-50.28
-51.39
-51.29
-49.62
-46.31
-40.64
-33.24
-25.23
-17.82
-11.94
-7.82
-5.14
-3.25
-1.43
0.83
3.49
6.42
9.4
12.04
14.02
14.98
14.64
13
10.39
7.12
3.66
0.29
-3
-6.47
-10.13
-13.55
-15.9
-16.3
-14.37
-10.38
-5.17
0.18
4.9
8.68
11.6
13.91
15.77
17.11
17.92
18.3
18.41
18.42
18.39
18.21
17.67
16.63
15.03
12.97
10.74
8.56
6.62
5.07
4.02
3.59
3.83
4.64
5.74
6.65
6.79
5.73
3.46
0.4
-2.7
-5.08
-6.23
-6.14
-5.1
-3.66
-2.19
-0.87
0.23
1.07
1.57
1.66
1.37
0.91
0.62
0.84
1.67
2.85
3.88
4.29
3.82
2.44
0.21
-2.81
-6.42
-10.46
-14.86
-19.63
-24.77
-30.1
-35.21
-39.26
-41.07
-39
-31.97
-20.27
-5.49
10.17
24.81
37.34
47.47
55.19
61.19
65.47
67.08
64.63
57.51
46.55
33.87
22.29
14.4
13.54
21.56
37.88
59.68
83.33
105.79
125.18
140.67
151.96
160.69
168.11
174.28
178.39
179.77
178.13
172.64
161.14
130.22
74.14
-0.29
-75.91
-136.34
-173.99
-190.22
-191.35
-184.3
-174.03
-161.1
-144.96
-126.55
-108.8
-94.81
-85.79
-80.8
-77.48
-73.67
-67.44
-59.52
-53.84
-55.81
-69.59
-95.79
-131.04
-169.15
-203.15
-226.2
-233.87
-225.35
-203.39
-172.9
-139.39
-107.5
-79.71
-57.29
-40.26
-27.08
-16.47
-9.31
-8.83
-18.57
-39.14
-65.73
-88.42
-95.37
-78.16
-36.42
21.67
82.82
134.02
167.09
180.01
175.6
158.8
134.38
105.67
74.83
43.75
14.76
-9.26
-25.49
-32.06
-28.94
-18.46
-5.06
6.09
11.2
9.76
5.33
4.18
12.64
34.21
68.12
109.52
151.57
187.78
213.72
227.55
229.28
219.88
200.75
173.65
141.08
106.22
72.31
41.35
13.25
-14.03
-42.83
-73.7
-103.92
-127.93
-139.6
-135.09
-114.75
-82.93
-45.87
-8.94
24.87
54.68
80.28
100.82
114.73
120.83
119.71
114.03
107.5
103.04
101.23
100.06
95.68
84.05
62.59
31.27
-6.84
-45.93
-78.59
-97.76
-98.93
-81.89
-51.18
-14.75
18.62
42.23
53.12
52.06
41.95
26.04
6.74
-14.26
-35.2
-53.84
-67.64
-74.81
-75.18
-70.24
-62.47
-54.34
-47.46
-42.45
-39.2
-37.13
-35.4
-33
-28.86
-22.23
-12.86
-1.28
11.44
24.05
35.33
44.28
50.21
52.95
53.15
52.3
51.98
52.8
53.33
49.8
36.82
9.48
-34.09
-90.78
-151.95
-205.31
-238.47
-242.76
-215.94
-162.52
-91.92
-15.37
56.83
117.06
160.83
186.82
196.52
193.71
183.58
171.07
158.92
146.65
131.16
108.85
78.33
41.57
3.4
-30.55
-56.03
-71.46
-77.67
-76.99
-72.43
-67.31
-65.16
-69.12
-80.83
-99.62
-122.41
-144.66
-162.07
-171.67
-172.23
-163.7
-146.38
-120.68
-87.56
-49.29
-9.62
26.72
55.16
72.62
78
72.4
58.63
40.67
22.97
9.52
2.97
4.01
11.23
21.69
31.85
38.76
40.94
38.81
34.31
30.01
28.04
29.19
32.75
36.97
39.94
40.46
38.41
34.47
29.49
23.85
17.49
10.2
2.38
-4.69
-9.24
-9.85
-6.32
0.12
7.3
13.39
17.78
21.34
25.76
32.29
41
50.74
59.97
67.76
74.38
81.03
88.9
98.25
107.94
115.77
119.42
117.45
110.09
99.37
88.4
80.24
76.5
76.65
77.93
76.41
68.55
52.45
28.22
-2.6
-37.7
-74.5
-110.35
-142.72
-170.05
-192.68
-213.45
-236.51
-264.93
-297.71
-328.67
-348.01
-346.19
-318.18
-265.63
-196.13
-119.98
-46.68
17.39
69.17
107.82
133.74
148.03
152.6
150.12
143.83
136.62
130.31
125.45
121.54
117.76
113.45
108.42
102.96
97.8
93.97
92.53
94.21
98.93
105.55
111.92
115.45
114.02
106.95
95.45
82.26
70.68
63.05
59.82
59.25
58.1
52.92
41.24
22.32
-2.91
-32.3
-63.17
-92.86
-118.97
-139.39
-152.55
-157.69
-155.3
-147.12
-135.74
-123.8
-113.32
-105.31
-99.91
-96.61
-94.63
-92.9
-90.2
-85.22
-77.07
-65.63
-51.73
-36.98
-23.03
-11.06
-1.35
6.4
12.66
17.53
20.65
21.58
20.31
17.61
15
14.16
16.21
21.15
27.64
33.55
36.76
35.97
31.11
23.33
14.45
6.27
0.1
-3.52
-4.77
-4.31
-2.97
-1.41
0.08
1.54
3.1
4.6
5.44
4.63
1.43
-4.17
-11.12
-17.72
-22.45
-24.71
-25.23
-25.48
-26.73
-29.25
-32.19
-34.24
-34.61
-33.47
-31.66
-30.01
-28.69
-27.14
-24.65
-20.96
-16.42
-11.74
-7.44
-3.67
-0.39
2.27
3.9
4.02
2.37
-0.78
-4.7
-8.51
-11.39
-12.81
-12.59
-10.88
-8.4
-6.39
-6.22
-8.76
-13.69
-19.27
-22.94
-22.47
-16.95
-7.33
4.08
14.6
22.11
25.77
26.05
24.34
22.35
21.6
23.01
26.69
32.04
37.88
42.89
45.92
46.41
44.43
40.41
34.89
28.45
21.69
15.4
10.66
8.51
9.55
13.56
19.23
24.34
26.4
23.44
14.79
1.56
-13.7
-27.78
-38.07
-43.66
-45.56
-46.09
-47.52
-50.75
-54.79
-57.19
-55.52
-48.57
-37.04
-23.02
-8.99
3.26
12.97
20.09
24.63
26.22
24.3
18.65
9.98
-0.02
-9.14
-15.37
-17.62
-15.99
-11.63
-6.26
-1.57
1.35
2.48
2.85
4.12
7.84
14.64
23.96
34.42
44.52
53.33
60.8
67.16
72.38
75.78
76.23
72.87
65.77
56.09
45.67
36.1
27.99
20.7
12.93
3.44
-8.12
-20.94
-33.47
-44.03
-51.44
-55.29
-55.77
-53.39
-48.71
-42.45
-35.49
-29.01
-24.14
-21.63
-21.63
-23.57
-26.67
-30.25
-33.98
-37.79
-41.72
-45.72
-49.65
-53.3
-56.28
-58.19
-58.75
-57.96
-56.19
-54.13
-52.31
-50.85
-49.36
-47.11
-43.4
-37.94
-30.84
-22.52
-13.36
-3.59
6.74
17.51
28.39
38.91
48.53
56.81
63.44
68.24
71.13
72.18
71.53
69.33
65.62
60.42
53.68
45.61
36.76
28.04
20.42
14.6
10.7
8.18
6.15
3.81
0.8
-2.69
-6.19
-9.3
-11.98
-14.45
-16.9
-19.25
-21.16
-22.17
-22.11
-21.19
-19.93
-18.81
-18.13
-17.84
-17.72
-17.44
-16.69
-15.11
-12.46
-8.6
-3.64
1.91
7.39
12.21
16.13
19.32
22.2
25.11
28.1
30.95
33.26
34.82
35.56
35.55
34.92
33.7
32.01
30.06
28.17
26.64
25.53
24.54
23.02
20.21
15.48
8.78
0.62
-7.99
-15.81
-21.75
-25.27
-26.64
-26.71
-26.71
-27.47
-29.17
-31.24
-32.74
-32.95
-31.75
-29.56
-26.96
-24.37
-21.86
-19.41
-17.18
-15.56
-14.92
-15.31
-16.17
-16.58
-15.68
-13.27
-9.83
-6.32
-3.5
-1.63
-0.27
1.27
3.63
6.93
10.87
14.77
17.94
19.81
20.12
18.99
16.89
14.43
12.3
10.94
10.49
10.69
11.07
11.13
10.59
9.47
8.07
6.75
5.78
5.2
4.81
4.25
3.19
1.4
-1.25
-4.82
-9.27
-14.33
-19.42
-23.71
-26.47
-27.43
-27.06
-26.26
-25.87
-26.07
-26.24
-25.32
-22.49
-17.73
-11.68
-5.3
0.83
6.71
12.66
18.88
25.08
30.51
34.27
35.89
35.57
34.29
33.31
33.7
36.02
40.1
45.11
49.71
52.57
52.68
50.01
45.31
39.86
35.35
33.25
34.12
37.07
40.13
40.88
38.36
32.95
26.17
20.6
18.8
21.98
29.18
37.79
44.29
46.92
45.23
39.8
32.97
28.39
29.61
38.38
53.95
72.25
88.76
97.67
92.9
71.79
37.21
-2.64
-36.67
-53.83
-47.35
-14.18
41.83
103.03
146.71
155.93
129.7
80.57
32.03
-10.67
-46.25
-74.13
-93.47
-102.65
-98.87
-82.41
-59.6
-41.01
-37.29
-50.34
-74.26
-99.83
-118.26
-124.33
-117.89
-103.1
-85.58
-70.36
-58.07
-47.02
-35.09
-20.3
-1.58
20.34
43.22
64.01
79.92
90.45
95.98
96.84
93.23
85.57
74.4
60.81
46.45
33.08
22.59
15.63
11.19
6.94
1.57
-6.27
-17.3
-31.46
-47.97
-65.22
-81.61
-95.89
-107.39
-115.83
-121.32
-123.65
-121.94
-114.67
-100.18
-77.62
-47.82
-13.66
20.45
49.51
69.43
78.05
75.61
64.31
47.47
28.58
10.7
-3.9
-13.78
-18.25
-17.28
-11.62
-2.69
7.53
16.94
23.84
27.37
27.69
25.8
23.07
20.62
19.11
18.59
18.72
19.15
19.62
20.03
20.29
20.15
19.21
17.05
13.51
8.83
3.61
-1.51
-6.14
-10.31
-14.38
-18.75
-23.59
-28.76
-33.91
-38.63
-42.69
-45.97
-48.31
-49.53
-49.42
-47.95
-45.53
-42.75
-40.1
-37.79
-35.65
-33.28
-30.27
-26.32
-21.32
-15.59
-9.44
-2.98
3.68
10.29
16.39
21.52
25.59
28.99
31.71
34
36.25
38.5
39.91
38.85
33.62
23.46
9.01
-9.22
-29.65
-49.61
-66.09
-76.85
-81.16
-79.54
-73.07
-62.99
-52.87
-45.73
-43
-44.4
-49.06
-56.71
-67.57
-81.44
-97.44
-117.05
-140.79
-167.53
-194.56
-219.28
-240.95
-260.49
-279.67
-281.22
-255.93
-207.23
-148.67
-91.06
-36
19.89
78.91
139.33
195.67
238.46
263.2
270.12
263.33
249.01
232.19
215.86
201.39
189.24
177.44
164.88
152.02
138.72
126.33
115.16
104.51
93.65
82.6
70.89
59.04
48.29
40.24
35.83
34.29
33.65
32
28.19
21.4
11.52
-1.17
-16.01
-32.12
-48.79
-65.21
-80.22
-92.43
-100.83
-104.9
-104.72
-100.67
-93.05
-82.31
-68.99
-53.65
-36.92
-19.58
-2.45
13.6
27.66
39.02
47.19
52.12
54.43
55.3
56.12
57.81
60.41
62.88
63.4
60.23
52.34
39.97
24.49
7.99
-7.47
-20.25
-29.47
-34.89
-36.61
-34.86
-29.75
-21.46
-10.21
3.64
19.63
37.31
56.4
76.5
96.8
115.72
130.87
139.49
139.25
128.97
109.17
81.99
50.71
18.92
-10.12
-34.13
-52.11
-64.32
-72
-76.77
-79.94
-82.03
-82.75
-81.45
-77.74
-71.81
-64.42
-56.45
-48.39
-40.26
-31.77
-22.88
-14.01
-6.07
0.11
4.2
6.54
7.83
8.48
8.3
6.7
3.35
-1.34
-6.2
-9.83
-11.53
-11.8
-12.34
-15.38
-22.42
-33.65
-48.01
-63.89
-79.95
-95.49
-110.27
-124.06
-136.27
-145.29
-148.7
-144.06
-130.09
-107.26
-77.84
-45.3
-13.34
14.39
35.85
50.8
60.16
65.09
66.44
64.8
60.85
55.26
47.66
38.03
26.82
14.65
2.09
-10.67
-23.37
-35.49
-46.42
-56.74
-66.15
-73.29
-76.25
-73.47
-64.56
-50
-30.67
-1.02
37.48
76.67
106.52
121.48
122.01
111.57
94.6
74.94
55.01
34.9
14.76
-4.26
-21.98
-36
-44.81
-48.05
-46.42
-41.7
-36.75
-33.53
-32.38
-32.4
-32.14
-31.02
-29.26
-26
-21.81
-18.01
-15.44
-14.12
-13.58
-13.12
-12.62
-12.14
-11.75
-11.71
-12.45
-14.2
-16.81
-19.81
-22.36
-23.95
-24.41
-23.83
-22.34
-19.9
-16
-9.8
-0.58
12.21
27.86
44.58
60.16
72.93
82.23
88.53
93.14
97.62
103.71
111.79
120.7
128.37
133.46
135.4
134.74
132.64
130.23
128.39
126.41
122.45
114.61
102.88
87.54
69.42
49.6
25.37
-0.76
-21.46
-28.44
-18.52
5.56
34.53
58.44
71.13
73.13
70.75
71.88
83.75
107.02
139.93
175.59
206.15
224.89
228.49
216.71
191.09
154.11
104.9
52.52
3.97
-37.01
-75.4
-114.13
-154.18
-196.19
-241.42
-292.77
-340.87
-381.79
-412.53
-430.87
-435.35
-427.13
-410.29
-390.47
-372.2
-355.65
-339.34
-318.4
-287.25
-242.12
-183.84
-117.79
-51.48
8.2
57.56
93.98
117.33
129.06
131.7
128.23
121.79
115.56
112.29
113.97
120.08
129.08
139.09
148.57
156.87
164.08
170.76
177.26
183.12
186.64
186.32
181.86
174.5
166.27
158.16
148.79
134.4
110.33
73.33
23.31
-36.37
-100.24
-162.27
-217.18
-260.58
-289.04
-300.32
-293.94
-272
-239
-200.91
-163.28
-129.88
-102.08
-79.25
-59.79
-42.21
-25.81
-10.82
1.86
11.26
16.98
19.9
22.25
26.96
36.42
51.31
70.12
89.84
107.28
120.48
129.28
134.8
138.39
140.63
141.03
138.58
132.46
122.48
108.99
92.13
71.32
44.86
10.42
-34.39
-90.85
-158.12
-232.19
-305.71
-368.89
-411.84
-427.57
-414.34
-376.31
-321.82
-260.29
-198.99
-141.58
-88.2
-37.25
12.82
62.44
110.95
157.21
200.23
239.26
273.5
302.1
324.25
339.29
346.91
347.15
340.44
327.67
310.09
289.06
265.83
241.4
216.5
192.01
169.35
150.85
139.27
136.75
143.34
157.02
174.51
192.76
210.42
228.19
248.01
271.29
297.1
320.48
334.54
332.92
312.33
273.76
222.22
165
109.63
61.92
23.42
-6.23
-27.75
-41.39
-47.65
-48.14
-46.02
-45.76
-52.17
-71.69
-107.73
-158.82
-218.98
-280.25
-335.28
-378.69
-407.65
-421.82
-426.3
-426.19
-424.46
-421.42
-416.75
-411.21
-407.2
-408.16
-396.04
-362.12
-310.65
-256.18
-211.46
-181
-162.74
-151.21
-139.42
-120.11
-91.32
-53.92
-11.28
31.5
68.37
94.3
107.7
110.78
108.1
101.12
90.04
74.94
57.36
39.9
25.49
17.07
16.28
22.77
32.7
41.56
46.18
46.29
43.44
40.11
38.89
41.59
48.62
57.93
66.58
72.06
73.59
71.74
68.23
65.57
66.66
74.36
90.7
116.82
148.22
180.12
206.29
220.75
220.24
206.17
184.82
165.27
155.8
160.31
177.1
198.62
214.42
214.97
194.54
152.47
92.45
21
-54.35
-126.18
-188.86
-239.28
-277.37
-305.88
-329.52
-352.85
-378.08
-403.69
-424.56
-434.34
-428.2
-404.67
-366.05
-317
-262.77
-207.86
-155.7
-108.89
-69.45
-38.6
-16.08
0
13
26.61
43.92
66.73
95.4
128.67
163.44
195.07
218.38
229.19
225.98
210.59
187.51
161.89
137.62
116.4
98.32
83.07
71.09
63.33
60.31
61.02
62.91
63.07
59.84
53.85
47.79
44.91
47.3
54.62
64.23
72.4
75.79
72.84
64.15
51.95
39.1
27.89
19.28
13.18
9.06
6.72
6.46
8.7
13.16
18.45
22.29
22.41
17.59
8.12
-4.34
-17.47
-28.87
-36.62
-39.47
-37.04
-29.95
-20.19
-10.7
-4.55
-3.63
-7.98
-15.79
-24
-29.44
-29.71
-23.81
-12.14
3.85
21.99
39.63
54.04
62.93
65.06
60.79
52.15
42.58
35.89
35.09
41.16
52.53
65.63
76.17
80.85
78.45
70.11
58.35
45.92
35.06
27.16
22.83
21.81
22.87
23.5
19.77
7.23
-17.57
-54.65
-99.29
-142.26
-172.23
-179.29
-158.4
-111.21
-45.54
27.21
95.39
149.96
185.83
201.67
198.89
180.12
148.55
107.73
61.94
16.44
-23.14
-51.82
-66.7
-67.97
-59.02
-44.95
-30.71
-19.2
-10.76
-4.02
2.44
8.72
13.1
13.06
6.77
-5.47
-21.06
-36.02
-46.57
-50.65
-48.57
-42.57
-35.56
-29.72
-25.76
-23.1
-20.51
-17.07
-12.58
-7.55
-2.85
0.93
3.64
5.5
6.9
8.09
9.13
9.89
10.21
9.91
8.83
6.68
2.96
-2.86
-11.11
-21.63
-33.44
-44.9
-54.02
-58.96
-58.67
-53.14
-43.36
-31.01
-17.81
-5.18
6
15.24
22.22
26.68
28.59
28.41
27.21
26.58
28.04
32.34
39
46.36
52.22
54.79
53.55
49.49
44.73
41.79
42.72
48.73
59.9
75.07
91.71
106.16
114.38
113.42
102.82
85.29
65.99
50.37
41.9
40.5
42.77
43.84
39.55
27.95
9.45
-14.1
-40.66
-68.6
-96.7
-123.77
-148.49
-169.54
-186.02
-197.79
-205.41
-209.87
-212.08
-212.55
-211.28
-207.89
-201.68
-191.92
-178.2
-160.8
-140.88
-120.09
-100.05
-81.77
-65.25
-49.8
-34.58
-19.25
-4.23
9.59
21.36
30.72
37.89
43.44
47.9
51.52
54.33
56.29
57.33
57.37
56.26
53.84
50.12
45.44
40.56
36.38
33.62
32.46
32.49
32.89
32.82
31.77
29.6
26.54
22.97
19.4
16.35
14.44
14.17
15.7
18.74
22.63
26.7
30.7
34.88
39.75
45.51
51.73
57.42
61.54
63.54
63.78
63.24
63
63.5
64.36
64.51
62.72
58.1
50.33
39.89
27.81
15.43
3.92
-6.13
-14.93
-23.5
-33.17
-44.93
-58.64
-72.87
-85.2
-93.12
-95.13
-91.36
-83.53
-74.35
-66.67
-62.78
-63.87
-69.73
-78.67
-87.54
-92.19
-88.55
-74.24
-49.77
-18.57
14.24
43.9
67.58
84.78
96.42
103.43
105.83
102.91
94.26
80.6
63.94
46.77
31.11
17.93
7.33
-0.85
-6.43
-8.92
-7.96
-3.85
2.22
8.42
12.85
14.12
11.93
7.02
0.83
-5.12
-9.66
-12.33
-13.38
-13.41
-13.06
-12.66
-12.55
-12.93
-13.99
-15.78
-18.17
-20.78
-23.01
-24.2
-23.74
-21.83
-19.1
-16.28
-13.94
-12.33
-11.4
-10.85
-10.18
-8.72
-6.55
-3.93
-1.18
1.31
3.15
3.75
2.56
-0.71
-5.99
-13.9
-24.94
-39.2
-56.12
-74.72
-94.17
-114.21
-135.24
-151.87
-159.64
-156.03
-141.76
-119.98
-94.08
-66.71
-39.87
-15.1
6.59
24.22
37.91
49.1
60.02
72.75
88.24
105.9
124.56
142.53
157.28
166.72
169.67
166.02
156.74
143.44
128.16
113.11
100.23
90.46
83.91
80.05
77.96
76.67
75.39
73.19
69.7
64.89
58.81
51.7
43.86
35.59
27.08
18.54
10.14
2.28
-4.51
-9.76
-13.18
-14.76
-14.75
-13.49
-11.14
-7.72
-3.08
2.73
9.28
15.82
21.45
25.21
26.22
23.78
17.52
7.81
-3.92
-15.12
-22.62
-23.69
-17.24
-4.55
10.92
24.6
32.26
31.2
20.72
1.84
-23.24
-51.88
-81.25
-108.61
-131.31
-147.17
-154.64
-153.25
-143.6
-127.34
-106.9
-85.05
-64.39
-46.72
-32.64
-21.68
-12.94
-5.84
-0.59
1.82
0.45
-4.94
-13.56
-23.95
-34.85
-45.8
-57.06
-68.91
-81.12
-92.62
-102.06
-108.69
-112.65
-114.82
-115.67
-114.51
-109.34
-98.06
-79.84
-56.17
-30.48
-6.83
11.74
24.19
31.36
34.95
36.47
36.65
35.69
33.74
31.42
29.59
29.05
29.95
31.74
33.58
34.81
35.25
35.08
34.8
34.65
34.63
34.54
34.09
33.2
31.89
30.29
28.43
26.31
23.89
21.32
18.81
16.68
15.08
14.02
13.33
12.82
12.41
12.13
12.18
12.89
14.67
17.89
22.66
28.71
35.2
40.95
44.79
46.13
45.09
42.54
39.66
37.44
36.33
36.16
36.27
35.93
34.61
32.28
29.52
27.52
27.87
32.27
41.89
56.89
76.01
96.76
115.88
130.17
137.07
135.13
124.3
105.84
82.06
56.03
31.11
10.48
-3.45
-9.61
-8.41
-1.18
10.28
23.95
37.61
48.71
54.69
53.63
44.86
29.09
8.72
-13
-33.4
-51.31
-67.24
-82.1
-96
-107.89
-116.79
-121.51
-121.48
-117.59
-111.88
-107.31
-105.91
-108.22
-113.48
-121.5
-131.21
-141.2
-150.9
-160.86
-173.57
-191.75
-217.19
-249.78
-288.2
-326.58
-355.39
-364.8
-347.78
-304.39
-241.28
-170.25
-93.89
-22.33
33.62
70.13
89.82
107.73
135.29
176.13
227.1
278.33
316.74
333.25
326.14
299.62
261.25
217.27
171.8
126.66
81.87
35.9
-11.24
-55.69
-92.62
-117.79
-129.67
-128.4
-115.11
-91.91
-62.66
-31.83
-2.86
22.32
43.97
63.24
81.25
97.69
110.02
115.86
112.48
100.86
85.06
70.23
59.85
54.26
50.84
45.94
37.07
24.2
10.19
-1.05
-6.37
-4.53
4.14
16.98
31.73
46.47
59.37
69.03
74.23
74.07
68.56
58.94
47.71
38.03
32.39
31.44
33.98
37.39
38.76
36.13
29.01
18.25
5.52
-7.66
-20.47
-32.46
-43.3
-52.43
-58.88
-61.57
-59.65
-52.98
-42.44
-29.86
-17.4
-6.76
1.63
8.93
17.31
28.82
44.12
61.78
78.88
92.09
99.28
100.34
96.97
91.48
85.89
81.82
81
85.61
97.54
117.06
141.41
164.91
180.81
184.1
173.65
152.4
125.4
96.93
68.68
39.45
7.16
-29.06
-67.43
-104.08
-134.8
-157.05
-171.01
-179.11
-184.74
-190.3
-195.92
-199.75
-199.28
-193.29
-182.92
-171.33
-162.04
-156.93
-155.09
-153.56
-149.17
-140.54
-128.78
-116.75
-107.22
-101.2
-97.56
-93.99
-88.68
-81.52
-73.89
-67.52
-63.28
-60.74
-58.64
-55.69
-50.94
-43.71
-33.12
-17.76
3.66
30.79
60.41
87.07
105.28
112.58
111.21
107.03
107.29
116.99
136.28
159.97
179.87
188.5
181.99
161.07
129.18
91.34
52.47
16.35
-14.74
-39.62
-57.43
-67.7
-70.62
-68.61
-64.89
-62.46
-63.19
-67.53
-74.48
-81.72
-86.94
-81.47
-62.45
-34.16
-5.97
13.89
21.73
18.55
8.52
-3.37
-12.64
-17.64
-18.61
-16.89
-14.21
-12.37
-14.34
-19.63
-27.09
-35.03
-42.23
-47.15
-48.1
-44.05
-35.56
-25.05
-15.54
-9.66
-7.81
-8.51
-8.74
-5.09
3.55
14.97
24.48
27.45
21.24
6.75
-12.49
-31.9
-47.64
-57.71
-61.81
-60.61
-54.86
-45.43
-33.32
-20.09
-7.69
2.07
8.09
10.43
10.22
9.34
9.44
11.43
15.21
19.92
24.81
29.71
35.43
43.23
53.97
67.32
81.72
94.84
104.63
110.14
111.77
110.81
108.69
106.37
104.11
101.73
99.04
96.01
92.8
89.45
85.74
81.41
76.39
71.08
66.19
62.31
59.26
56.09
51.45
44.51
35.58
26.01
17.48
11.1
6.92
4.25
2.27
0.88
0.73
2.81
7.57
14.5
22.33
29.65
35.6
39.96
42.84
44.19
43.72
41.07
36.36
30.33
24.04
18.37
13.47
8.66
2.92
-4.41
-13.28
-22.91
-32.28
-40.66
-47.8
-53.82
-58.82
-62.57
-64.52
-64.28
-62.29
-60.3
-61.04
-67.15
-79.79
-97.63
-117.13
-133.86
-144.19
-146.46
-141.06
-129.4
-112.87
-92.35
-68.33
-41.59
-13.57
13.83
38.7
59.55
75.55
86.26
91.52
91.35
86.14
76.77
64.51
50.83
37.2
24.94
15.09
8.08
3.35
-0.88
-7.62
-20.03
-39.82
-65.77
-93.17
-114.84
-123.39
-114.11
-87.03
-47.22
-3.15
36.17
64
77.19
75.69
61.2
35.72
1.21
-39.94
-84.03
-126
-160.28
-182.34
-190.1
-184.48
-168.89
-147.95
-126.03
-106.14
-89.66
-76.35
-64.7
-52.67
-38.49
-21.51
-2.7
15.71
31.07
41.61
47.05
48.55
47.64
45.23
41.33
35.61
28.5
21.76
17.95
19.08
25.21
34.29
43.12
49.24
52.25
54.2
58.22
66.71
79.94
95.83
111.05
122.69
129.3
131.04
128.87
123.46
114.8
102.44
86.27
67.36
47.93
30.72
17.8
9.91
6.3
5.45
5.96
7.02
8.33
9.54
9.98
8.72
5.13
-0.69
-7.9
-15.35
-22.18
-28.24
-33.91
-39.28
-43.51
-44.62
-40.1
-28.1
-8.57
16.28
42.4
64.95
79.68
83.9
77.09
60.86
38.39
13.59
-9.86
-29.27
-43.26
-51.59
-54.72
-53.29
-47.87
-38.97
-27.3
-14.02
-0.56
11.68
21.68
28.98
33.61
35.85
36.02
34.47
31.56
27.73
23.41
19.02
14.95
11.67
9.64
9.41
11.32
15.31
20.92
27.24
33.32
38.38
42
44.09
44.78
44.25
42.76
40.6
38.15
35.71
33.44
31.29
29.1
26.83
24.68
22.99
21.88
21.03
19.55
16.13
9.3
-2.07
-18.36
-38.49
-59.69
-78.01
-89.52
-91.72
-84.8
-71.81
-57.48
-46.45
-41.72
-44.24
-53.46
-68.18
-86.26
-104.3
-118.12
-124.17
-121.35
-111.88
-100.58
-92.49
-90.17
-91.99
-93.12
-88.78
-77.39
-61.35
-45.37
-33.65
-28.06
-27.95
-30.76
-32.98
-31.67
-25.15
-12.92
5
28.44
56.94
86.46
110.46
123.33
123.52
113.77
98.03
79.52
60.44
42.31
28.44
19.09
15.06
17.23
25.86
40.09
58.25
78.33
98.76
115.02
124.9
128.44
126.85
121.29
112.33
100.15
84.95
67.25
47.85
28.17
9.96
-5.66
-18.48
-29.08
-38.27
-46.66
-54.57
-62.15
-69.05
-74.75
-78.96
-81.73
-83.4
-84.26
-84.32
-83.41
-81.37
-78.03
-73.51
-68.22
-62.69
-57.23
-51.9
-46.47
-40.67
-34.35
-27.39
-20.03
-12.9
-6.98
-3.15
-1.82
-2.57
-4.32
-5.54
-4.65
-0.89
5.3
12.43
18.75
22.98
24.65
24.07
22.27
20.89
21.06
22.9
25.33
27.05
27.24
25.9
23.43
20.88
19.99
21.75
25.99
31.18
35.91
39.93
44.24
49.77
57.91
70.15
86.76
106.66
126.78
143.78
154.61
156.26
144.76
112.42
59.11
-4.3
-59.94
-95.27
-108.05
-104.57
-94.66
-90.67
-96.22
-109.58
-127.14
-145.22
-163.49
-182.99
-204.63
-218.61
-218.49
-201.44
-169.37
-133.1
-95.61
-59.26
-25.8
4.97
32.1
52.75
64.71
67
60.19
46.73
27.82
3.79
-25.34
-59.38
-97.39
-135.28
-166.07
-181.94
-176.64
-149.48
-104.55
-48.53
12
72.11
129.81
184.67
235.63
279.91
312.06
326.64
321.01
297.07
260.51
218.92
178.8
143.58
113.71
87.6
63.7
41.96
23.82
11.07
4.69
4.18
7.68
12.94
17.99
21.75
24.2
26.15
28.83
33.28
39.67
47.11
53.8
57.68
57.18
52.17
44.08
35.22
27.8
22.85
20.02
18.07
15.77
12.14
7.03
0.92
-5.38
-11.16
-15.89
-19.21
-21.03
-21.44
-22.18
-25.52
-33.42
-46.23
-62.56
-79.72
-94.84
-106.18
-113.14
-117.99
-123.72
-132.41
-144.18
-157.5
-170.33
-180.89
-188.94
-194.89
-201.81
-212.8
-229.47
-250.74
-273.88
-295.88
-314.18
-327.23
-318.84
-276.83
-199.19
-98.95
1.73
82.19
130
149.29
148.97
140.28
131.36
126.91
127.58
132.75
140.87
150.23
159.83
168.57
176.35
181.75
183.44
181.04
175.88
170.32
166.68
166.53
169.77
176.44
186.08
198.97
216.31
240.05
271.91
312.4
360.3
412
462.56
505.68
535.11
545.97
536.04
506.26
460
401.83
335.55
263.36
185.63
101.98
12.49
-81.66
-178.18
-274.74
-369.24
-460.58
-548.13
-631.38
-709.78
-782.35
-847.19
-900.76
-937.92
-952.9
-941.53
-903.37
-842.46
-766.18
-682.35
-596.64
-511.44
-426.79
-342.55
-260.26
-183.32
-115.26
-57.99
-10.6
30.12
67.82
104.86
141.54
176.35
206.71
230.31
245.61
252.71
253.37
250.58
247.82
247.71
250.89
255.66
258.88
257.56
250.7
239.98
228.96
221.16
218.26
219.3
221.48
221.85
219.08
214.13
209.5
207.45
208.59
211.33
212.66
209.85
201.52
187.82
169.27
145.85
116.76
81.32
39.82
-6.39
-55.24
-104.63
-152
-193.62
-224.21
-238.38
-233.63
-213.17
-186.18
-164.54
-157.43
-166.58
-185.58
-203.05
-208.21
-195.28
-164.89
-122.43
-75.05
-29.39
9.77
39.65
59.26
69.35
71.86
69.63
65.77
63.04
63.58
68.42
77.12
87.31
95.07
96.06
87.45
69.42
45.75
22.53
5.66
-1.68
-0.33
5.27
8.84
5.14
-7.99
-28.53
-50.94
-68.04
-73.52
-63.93
-39.54
-4.21
36.1
75.17
108.49
134.41
154.05
169.98
184.67
199.06
212.29
222.44
227.72
227.85
224.31
219.88
217.22
218.05
222.74
230.51
239.64
247.16
248.97
240.3
217.56
179.96
132.11
84.31
49.72
38.9
54.65
90.05
131.09
163.29
175.92
166.7
141.37
109.75
80.46
57.59
40.82
27.81
17.85
9.05
-0.15
-11.35
-26.27
-46.82
-74.42
-108.78
-147.66
-185.62
-220.84
-253.51
-285.39
-318.86
-356.44
-400.37
-451.66
-510.38
-556.57
-574.18
-557.45
-514.91
-462.45
-413.9
-376.99
-353.84
-352.11
-363.95
-382.5
-400.64
-411.37
-409.14
-391.89
-362.4
-320.47
-272.38
-222.72
-177.08
-138.35
-106.64
-80.29
-57.47
-37.14
-18.63
-2.06
14.8
32.09
49.29
65.59
80.27
92.85
103.13
111.46
118.08
125
133.3
143.58
155.96
170.08
185.24
200.56
215.31
228.86
241.91
255.35
270.42
288.54
310.92
337.71
367.28
395.88
418.03
428.74
425.22
408.52
383.55
357.37
336.18
322.74
315.36
309.03
298.44
280.79
257.31
232.47
211.97
200.04
197.89
203.38
212.05
218.11
215.64
199.76
168.02
122.26
69.47
21.04
-10.61
-16.97
2.36
38.39
75.95
99.67
100.36
77.85
39.69
-3.59
-43.56
-76.61
-103.56
-126.81
-147.74
-165.33
-177.41
-182.52
-181.49
-177.6
-174.89
-176.58
-184.1
-197.74
-217.3
-243.07
-275.38
-313.4
-354
-391.71
-420.41
-434.47
-433.39
-419.79
-398.2
-373.16
-347.85
-323.72
-301.06
-279.66
-258.99
-238.15
-215.44
-188.95
-157.44
-121.01
-81.19
-40.33
-0.81
36.01
70.12
103.18
137.62
175.78
218.57
264.6
309.87
348.63
375.35
386.87
383.95
370.85
353.56
337.21
324.31
314.33
304.89
293.65
279.7
264.07
248.81
235.92
226.21
219.25
213.49
206.76
197.06
183.41
166.33
147.46
129.06
112.6
98.39
85.14
70.33
51.18
25.87
-5.94
-43.62
-85.31
-129.01
-172.14
-212.09
-246.98
-276.38
-301.34
-323.72
-345.18
-364.27
-376.25
-373.13
-347.35
-296.01
-223.34
-139.52
-56.95
14.3
71.04
109.12
127.24
127.51
114.24
91.27
60.59
28.3
-5.19
-37.63
-65.49
-84.7
-92.48
-88.64
-73.3
-46.28
-8.69
35.37
77.99
108.1
117.35
104.65
76.69
44.86
22.36
12.49
12.99
19.49
27.5
34.9
41.96
49.66
56.37
59.96
57.71
48.46
33.67
16.69
1.7
-8.09
-11.9
-11.44
-9.47
-9
-11.24
-15.53
-20.17
-23.25
-23.62
-21.39
-17.82
-14.47
-12.98
-14.02
-17.35
-22.23
-27.67
-32.83
-37.17
-40.52
-42.82
-44.3
-45.07
-45.13
-44.46
-42.94
-40.55
-37.47
-34.06
-30.66
-27.64
-25.13
-23.12
-21.63
-20.73
-20.51
-20.97
-21.78
-22.34
-22.03
-20.49
-17.75
-14.25
-10.53
-6.95
-3.62
-0.43
2.65
5.33
7.07
7.32
5.9
3.18
0.02
-2.66
-4.19
-4.45
-3.69
-2.34
-0.68
1.21
3.36
5.72
8.04
10
11.31
11.97
12.18
12.24
12.35
12.55
12.74
12.82
12.8
12.8
13.02
13.61
14.66
16.11
17.82
19.64
21.41
22.99
24.19
24.65
23.97
21.84
18.18
13.14
6.99
-0.03
-7.83
-16.32
-25.23
-33.93
-41.46
-46.84
-49.41
-49.04
-46.14
-41.4
-35.57
-29.36
-23.46
-18.56
-15.22
-13.72
-13.92
-15.21
-16.86
-18.24
-19.1
-19.52
-19.73
-19.88
-19.91
-19.63
-18.88
-17.73
-16.37
-14.92
-13.41
-11.68
-9.6
-7.25
-4.92
-3.02
-1.74
-0.92
-0.13
0.94
2.31
3.61
4.36
4.34
3.81
3.35
3.5
4.48
6.03
7.56
8.58
8.96
8.93
8.87
9.06
9.49
9.9
9.95
9.42
8.37
7.05
5.79
4.83
4.2
3.78
3.31
2.58
1.59
0.52
-0.43
-1.14
-1.71
-2.39
-3.47
-5.15
-7.42
-10.02
-12.61
-14.9
-16.69
-17.94
-18.75
-19.34
-19.9
-20.63
-21.55
-22.47
-23.03
-22.79
-21.37
-18.58
-14.49
-9.44
-3.95
1.41
6.19
10.23
13.67
16.92
20.45
24.4
28.38
31.38
32.1
29.4
22.86
13.02
1.28
-10.52
-20.64
-27.85
-31.65
-32.05
-29.45
-24.33
-17.21
-8.65
0.66
9.92
18.35
25.3
30.36
33.37
34.34
33.31
30.34
25.56
19.41
12.7
6.47
1.64
-1.33
-2.67
-3.08
-3.38
-4.13
-5.39
-6.9
-8.37
-9.78
-11.35
-13.29
-15.5
-17.51
-18.78
-19.08
-18.87
-19.07
-20.59
-23.66
-27.67
-31.45
-33.95
-34.89
-34.79
-34.59
-34.86
-35.35
-35.06
-32.88
-28.28
-21.55
-13.62
-5.26
3.27
12.44
22.91
34.92
47.71
59.66
68.78
73.56
73.59
69.48
62.4
53.36
42.83
30.73
16.95
1.97
-12.92
-25.81
-34.99
-39.59
-40.05
-37.81
-34.61
-31.95
-30.54
-30.4
-31.39
-33.57
-37.09
-41.96
-47.7
-53.25
-57.83
-61.13
-63.41
-65.4
-67.93
-71.12
-74.46
-76.91
-77.31
-75.53
-72.04
-67.34
-61.68
-55.21
-47.67
-39.13
-29.81
-19.95
-10.48
-1.96
6.19
15.29
26.56
40.78
57.16
73.79
92.95
113.07
129.55
137.58
134.8
119.41
94.34
62.67
26.67
-12.41
-50.94
-86.1
-115.01
-135.3
-145.77
-146.27
-138.3
-124.18
-106.28
-87.17
-69.02
-52.84
-38.72
-26.24
-14.51
-3.02
8.47
19.93
30.79
40.22
47.91
53.97
58.74
62.68
65.91
68.42
70.27
71.47
72.06
72.34
72.64
73.05
73.41
73.33
72.46
70.65
67.97
64.6
60.88
57.13
53.56
50.24
47.05
43.79
40.22
36.28
32.01
27.68
23.57
19.95
16.83
14.05
11.33
8.4
5.15
1.72
-1.56
-4.32
-6.22
-7.13
-7.11
-6.45
-5.52
-4.61
-3.86
-3.25
-2.72
-2.22
-1.86
-1.78
-2.13
-2.92
-4.01
-5.15
-6.13
-6.85
-7.3
-7.67
-8.08
-8.6
-9.15
-9.61
-9.9
-10.08
-10.37
-11.06
-12.42
-14.51
-17.13
-19.99
-22.79
-25.44
-28.09
-31.03
-34.49
-38.53
-42.92
-47.23
-51.07
-54.14
-56.37
-57.92
-59.07
-60.24
-61.84
-64.15
-67.13
-70.23
-72.26
-71.64
-66.82
-56.93
-42.27
-24.32
-5.36
12.43
27.68
40.1
50.33
59.34
67.81
75.89
83.24
89.4
94.04
97.14
98.82
99.13
97.98
95.29
90.98
85.21
78.35
70.83
63.02
55.12
47.11
38.9
30.43
21.78
13.11
4.66
-3.29
-10.36
-16.25
-20.68
-23.58
-25.12
-25.66
-25.59
-25.1
-24.19
-22.72
-20.61
-17.99
-15.12
-12.23
-9.41
-6.5
-3.33
0.07
3.39
6.17
8.11
9.33
10.39
12.09
15.12
19.73
25.6
32.09
38.52
44.51
50.05
55.46
61.14
67.37
74.21
81.53
89.08
96.55
103.5
109.3
113.01
113.45
109.44
100.12
85.38
66.04
43.67
20.26
-2.35
-22.94
-40.97
-56.51
-69.8
-80.94
-89.86
-96.31
-100.11
-101.28
-100.1
-96.9
-92.08
-86
-79.02
-71.58
-64.14
-57.08
-50.67
-45
-39.99
-35.61
-31.97
-29.36
-28.04
-28.06
-29.02
-30.17
-30.81
-30.61
-29.81
-28.87
-28.12
-27.3
-25.8
-22.97
-18.73
-13.79
-9.1
-5.07
-1.44
2.08
4.95
5.41
1.35
-7.88
-19.99
-29.44
-29.17
-13.7
18.3
62.93
112.57
159.01
196.28
222.06
237.13
243.63
243.23
236.63
224.12
206.53
185.71
163.69
141.04
115.71
83.38
39.47
-17.93
-86.38
-159.24
-227.55
-282.59
-318.3
-332.17
-325.36
-301.77
-266.67
-225.53
-183.2
-143.23
-107.65
-76.94
-50.41
-26.81
-4.96
15.77
34.77
49.96
58.17
56.14
42.15
17.28
-14.63
-48.18
-78.29
-101.68
-117.12
-124.61
-124.34
-116.4
-101.17
-80.02
-55.68
-31.66
-11.18
3.95
13.55
18.63
20.51
20.25
18.41
15.23
10.9
5.83
0.71
-3.66
-6.5
-7.3
-6.1
-3.59
-0.97
0.54
0.23
-1.83
-4.92
-8.2
-11.15
-13.69
-15.87
-17.6
-18.46
-17.82
-15.32
-11.03
-5.48
0.78
7.32
14.19
21.65
29.94
38.79
47.33
54.19
58.09
58.29
54.74
48.24
40.08
31.95
25.49
22.12
22.8
27.83
36.8
48.65
61.86
74.8
85.99
94.33
99.08
99.88
96.66
89.6
79.09
65.73
50.32
33.84
17.43
2.13
-11.27
-22.42
-31.32
-38.06
-42.55
-44.48
-43.57
-39.79
-33.64
-26
-17.63
-8.77
1.1
12.77
26.7
42.49
58.86
74.15
87.07
97.11
104.53
109.84
113.29
114.57
112.81
106.93
96.21
80.64
61.08
39.18
16.98
-3.52
-20.9
-34.6
-44.87
-52.45
-58.06
-62.1
-64.59
-65.52
-65.21
-64.48
-64.58
-66.67
-71.28
-78.09
-86.07
-93.9
-100.53
-105.42
-108.48
-109.92
-109.94
-108.63
-106.06
-102.43
-97.91
-92.21
-84.32
-72.64
-55.87
-34.11
-9.73
13.05
29.59
36.91
35
26.89
17.15
9.85
7.12
8.7
12.87
17.78
22.44
26.8
31.18
35.62
39.64
42.47
43.62
43.22
42.23
41.97
43.5
47.01
51.72
56.1
58.66
58.6
56.19
52.63
49.33
47.29
46.58
46.52
46.07
44.43
41.42
37.44
33.23
29.46
26.49
24.36
22.87
21.74
20.76
19.76
18.62
17.17
15.14
12.2
8.04
2.56
-4.05
-11.28
-18.4
-24.65
-29.46
-32.6
-34.23
-34.77
-34.64
-34.17
-33.39
-32.01
-29.59
-25.65
-20.05
-13.05
-5.31
2.33
9.09
14.47
18.19
20.12
20.14
18.08
13.9
7.71
-0.12
-8.99
-18.31
-27.66
-36.82
-45.68
-53.98
-61.22
-66.66
-69.63
-69.79
-67.36
-63.04
-57.73
-52.18
-46.92
-42.28
-38.4
-35.14
-31.79
-27.09
-19.52
-8.05
7.18
24.56
41.49
55.51
65.27
70.97
73.82
75.22
75.79
75.32
73.07
68.52
61.73
53.19
43.24
31.89
18.89
4.42
-10.46
-23.72
-32.96
-36.63
-34.86
-29.5
-23.35
-18.84
-17.05
-17.71
-19.82
-22.69
-26.49
-31.93
-39.58
-49.09
-59.4
-69.48
-79.14
-88.9
-99.05
-108.41
-113.86
-111.43
-98.28
-74.77
-44.79
-14.29
11.28
29.23
40.25
47.26
53.24
59.55
65.64
69.94
71.39
70.19
67.68
65.49
64.61
64.88
65.22
64.32
61.33
56.28
49.98
43.5
37.7
32.93
29.03
25.56
22.09
18.38
14.55
10.91
7.78
5.21
2.88
0.2
-3.36
-7.91
-12.97
-17.57
-20.67
-21.55
-20.08
-16.65
-11.94
-6.56
-0.81
5.2
11.46
17.88
24.18
29.98
34.89
38.71
41.48
43.57
45.56
48.08
51.49
55.82
60.7
65.57
69.94
73.49
76.1
77.64
77.85
76.17
71.92
64.59
54.11
40.94
25.98
10.32
-5.04
-19.35
-32.15
-43.31
-52.82
-60.85
-67.68
-73.67
-79.16
-84.38
-89.32
-93.66
-96.89
-98.41
-97.66
-94.36
-88.58
-80.82
-71.87
-62.54
-53.36
-44.37
-35.08
-24.72
-12.58
1.55
17.08
32.82
47.38
59.8
69.88
78.08
85.05
91.05
95.68
97.85
96.25
89.84
78.17
61.45
40.48
16.51
-8.79
-33.46
-55.52
-73.35
-86.04
-93.57
-96.53
-95.84
-92.46
-87.21
-80.74
-73.5
-65.87
-58.09
-50.38
-42.86
-35.72
-29.21
-23.61
-19.13
-15.86
-13.66
-12.17
-10.99
-9.78
-8.43
-7.11
-6.06
-5.4
-5
-4.55
-3.68
-2.25
-0.44
1.27
2.35
2.49
1.62
-0.13
-2.62
-5.82
-9.81
-14.53
-19.7
-24.59
-28.15
-29.29
-27.2
-21.73
-13.47
-3.62
6.36
15.19
22.1
26.91
29.89
31.52
32.3
32.57
32.47
31.99
30.98
29.2
26.46
22.65
17.82
12.11
5.75
-0.97
-7.68
-13.83
-18.76
-21.77
-22.37
-20.4
-16.06
-9.76
-2.02
6.66
15.82
24.95
33.46
40.78
46.47
50.26
52.12
52.15
50.53
47.45
43.16
37.97
32.26
26.41
20.64
14.99
9.24
3.1
-3.59
-10.68
-17.7
-23.97
-28.95
-32.44
-34.65
-36.08
-37.22
-38.2
-38.81
-38.65
-37.33
-34.82
-31.35
-27.28
-22.94
-18.54
-14.12
-9.78
-5.76
-2.29
0.43
2.4
3.87
5.21
6.69
8.45
10.36
12.2
13.74
14.92
15.81
16.63
17.6
18.86
20.39
21.94
23.19
23.75
23.35
21.92
19.61
16.75
13.68
10.58
7.43
3.98
0.02
-4.49
-9.19
-13.36
-16.14
-16.76
-14.87
-10.62
-4.65
2.21
9.13
15.54
21.04
25.35
28.29
29.82
30.07
29.38
28.16
26.69
24.94
22.69
19.61
15.71
11.41
7.48
4.69
3.41
3.43
4.13
4.84
5.19
5.19
5
4.55
3.3
0.45
-4.79
-12.73
-22.99
-34.84
-47.68
-61.24
-75.61
-90.86
-106.71
-122.54
-137.61
-151.29
-162.88
-171.18
-174.16
-169.32
-154.73
-130.25
-98.06
-62.06
-26.32
6.38
35.15
60.38
82.59
101.39
115.49
123.62
125.48
122.26
116.14
109.25
102.65
96.21
89.06
80.46
70.32
59.38
48.81
39.69
32.57
27.37
23.58
20.59
18.01
15.73
13.86
12.68
12.62
14.21
18.13
24.93
34.69
46.68
59.14
69.57
75.34
74.55
66.63
52.55
34.36
14.55
-4.8
-22.38
-37.65
-50.49
-60.61
-67.46
-70.22
-68.25
-61.59
-51.15
-38.57
-25.74
-14.32
-5.42
0.17
1.81
-0.88
-7.55
-16.61
-25.24
-30.13
-28.9
-21.2
-9.09
3.9
14.27
20.1
21.47
19.9
17.18
14.46
12.04
9.85
7.98
6.99
7.46
9.7
13.27
17.19
20.24
21.58
21.05
19.23
17.16
15.88
16.1
17.84
20.56
23.29
25.07
25.26
23.79
21.1
17.91
14.92
12.44
10.38
8.31
5.73
2.38
-1.75
-6.45
-11.39
-16.27
-20.82
-24.77
-27.9
-30
-30.96
-30.78
-29.61
-27.63
-24.93
-21.52
-17.33
-12.43
-7.09
-1.74
3.17
7.35
10.85
14.02
17.35
21.28
25.95
31.11
36.25
40.71
43.8
44.92
43.55
39.41
32.55
23.41
12.87
2.12
-7.67
-15.85
-22.49
-28.24
-33.79
-39.25
-44.01
-46.91
-46.85
-43.54
-37.79
-31.31
-25.94
-22.92
-22.33
-23.41
-25.08
-26.41
-26.92
-26.25
-23.81
-18.59
-9.39
4.56
22.87
43.66
63.89
80.19
89.96
92.12
87.29
77.25
64.31
50.56
37.59
26.47
17.81
12.1
9.6
10.21
13.26
17.68
22.21
25.94
28.65
30.78
33.19
36.67
41.4
46.77
51.58
54.42
53.92
49.13
39.58
25.31
6.81
-15.05
-39.19
-64.15
-88.08
-109.12
-125.47
-135.7
-138.47
-132.77
-118.07
-94.66
-63.45
-25.77
16.49
61.01
104.67
144.22
176.28
197.69
205.78
199.24
178.65
145.8
103.63
55.63
6.64
-37.59
-71.43
-92.09
-100.23
-99.87
-98.23
-99.6
-105.46
-111.48
-108.62
-87.02
-43.95
15.24
79.45
134.83
172.9
190.07
188.11
171.97
147.83
117.11
78.17
27.62
-37.78
-118.84
-212.91
-313.49
-412.5
-500.97
-575.26
-634.13
-661.34
-645.43
-585.34
-493.15
-388.11
-298.91
-226.9
-166.95
-112.68
-58.55
-2.32
52.67
101.41
140.31
168.78
190.7
208.48
224.04
238.71
250.94
258.19
258.94
253.2
241.67
225.87
204.28
175.28
138.97
96.33
49.89
3.6
-38.05
-71.11
-92.14
-100.47
-96.54
-81.33
-57.08
-27.02
5.07
35.38
60.9
80.55
94.44
104.19
112.25
120.44
129.33
138.29
146.09
151.71
154.87
155.36
152.87
146.77
136.25
121.03
101.96
81.01
60.73
43.29
29.9
20.7
15.08
12.09
10.7
9.78
8.28
5.46
1.34
-3.28
-7.2
-9.54
-10.24
-9.93
-9.22
-8.1
-5.81
-1.32
6.04
16.27
28.9
43.34
58.91
74.57
88.57
98.79
103.73
103.69
101.06
99.33
101.02
105.62
109.12
105.89
91.8
67.17
37.55
11.47
-3.45
-4.48
4.54
14.73
16.35
2.74
-27.47
-70.45
-119.13
-165.34
-201.15
-219.52
-215.56
-188.5
-143.72
-92.56
-49.05
-24.05
-20.15
-30.18
-41.3
-42.33
-30.15
-11.68
-0.17
-8.44
-42.83
-100.8
-172.26
-243.96
-303.46
-341.84
-353.98
-338.12
-295.19
-228.78
-144.76
-51.47
40.35
118.65
172.2
193.77
183.12
148.2
103.19
63.75
41.34
39.2
52.24
70.47
83.98
87.48
81.76
72.33
66.16
68.26
79.58
97.08
115.32
128.68
133.88
131.08
123.47
115.41
110.46
109.49
110.46
109.29
101.42
83.32
53.21
11.07
-40.9
-97.59
-150.95
-191.37
-210.71
-205.7
-179.67
-141.53
-102.19
-70.58
-51.35
-45.23
-50.79
-65.85
-87.22
-109.28
-123.96
-123.01
-101.84
-62.59
-13.9
32.75
67.7
85.91
87.35
75.01
53.28
27.67
4.89
-7.83
-4.99
13.86
42.29
68.4
79.26
66.22
28.92
-24.61
-80.85
-125.46
-147.63
-142.78
-112.71
-63.92
-4.84
56.88
115.33
166.21
206.01
230.64
235.63
217.51
175.9
114.82
42.47
-31.41
-98.67
-155.31
-201.65
-240.28
-272.81
-297.94
-312.03
-311.62
-296.4
-270.17
-239
-207.93
-178.01
-146.34
-108.85
-64
-14.76
32.46
71.16
98.08
113.97
122.44
126.86
128.3
125.75
117.79
104.55
88.48
73.45
62.42
56.03
52.1
47.12
38.2
24.52
7.38
-10.48
-26.21
-37.67
-43.73
-44.51
-41.36
-36.7
-33.31
-33.12
-35.9
-38.88
-37.67
-28.41
-9.96
15.28
42.35
66.21
84.08
96.34
105.58
114.36
123.54
131.78
136.79
137
132.85
126.54
120.87
117.6
116.72
116.76
115.94
113.38
109.51
105.63
102.98
102.03
102.28
102.74
102.62
101.79
100.77
100.37
101.24
103.75
108.01
114.12
122.14
131.98
142.98
153.86
162.88
168.45
169.82
167.59
163.52
159.55
156.59
153.48
146.94
132.65
106.98
68.86
20.4
-33.83
-88.5
-139.5
-185.14
-225.98
-263.85
-300.85
-338.71
-378.52
-420.3
-462.2
-499.97
-527.26
-537.51
-526.6
-495.07
-448.51
-395.75
-345.52
-303.55
-271.37
-247.22
-228.11
-211.63
-196.49
-181.87
-166.64
-148.84
-126.29
-97.47
-62.16
-21.21
23.8
71.38
120.09
168.04
212.57
250.32
278.13
294.28
299.19
295.37
286.27
274.99
263.42
252.21
241.46
231.24
221.76
212.94
204.01
193.62
180.57
164.63
146.97
129.76
115.14
104.33
96.92
91.22
85.07
76.84
66.14
53.77
41.24
30.08
21.28
15.09
11.14
8.64
6.78
4.88
2.54
-0.2
-2.99
-5.27
-6.53
-6.56
-5.62
-4.28
-3.19
-2.69
-2.6
-2.37
-1.25
1.38
5.77
11.75
18.56
24.95
29.22
29.48
24.13
12.5
-4.68
-25.21
-45.94
-63.81
-76.87
-84.99
-89.55
-92.66
-95.9
-99.53
-102.44
-102.83
-99.24
-91.25
-79.68
-65.97
-51.55
-37.25
-23.28
-9.6
3.69
15.98
26.37
33.96
38.47
40.5
41.3
41.97
42.64
42.21
38.84
31.22
19.63
6.41
-4.88
-10.92
-10.14
-3.37
6.68
16.67
23.85
26.73
25.13
19.71
11.43
1.33
-9.7
-20.8
-31.22
-40.13
-46.62
-49.83
-49.12
-44.47
-36.56
-26.82
-16.91
-8.19
-1.28
4.03
8.4
12.44
16.28
19.52
21.54
21.89
20.6
18.25
15.66
13.53
12.17
11.45
10.93
10.15
8.84
6.99
4.88
2.86
1.18
-0.03
-0.87
-1.56
-2.3
-3.19
-4.16
-4.95
-5.19
-4.57
-2.98
-0.55
2.34
5.23
7.67
9.44
10.6
11.47
12.52
14.17
16.58
19.59
22.8
25.7
27.96
29.49
30.5
31.38
32.47
33.95
35.72
37.52
38.95
39.69
39.62
38.86
37.8
36.87
36.36
36.15
35.67
34
30.13
23.32
13.39
0.81
-13.37
-27.76
-40.9
-51.62
-59.27
-63.89
-66.22
-67.32
-68.2
-69.29
-70.34
-70.6
-69.3
-66.09
-61.19
-55.23
-48.8
-42.11
-34.88
-26.72
-17.38
-7.02
3.76
14.11
22.94
28.75
29.48
22.87
7.33
-16.71
-46.15
-75.74
-99.71
-114.06
-118.09
-114.51
-107.77
-101.81
-98.27
-95.95
-91.71
-82.08
-64.56
-38.4
-4.54
34.94
77.18
118.86
156.36
185.93
204.18
208.78
199.23
177.52
148.03
116.45
88.19
66.74
52.75
44.33
38.31
31.91
23.75
14.13
4.39
-4.03
-10.16
-13.88
-15.61
-15.94
-15.37
-14.27
-12.9
-11.67
-11.05
-11.42
-12.93
-15.49
-18.75
-22.33
-25.99
-29.55
-32.93
-35.94
-38.28
-39.61
-39.72
-38.62
-36.44
-33.35
-29.37
-24.43
-18.38
-11.17
-2.88
6.19
15.65
25.01
33.7
41.15
46.93
50.82
52.89
53.36
52.47
50.3
46.82
41.86
35.29
27.04
17.15
5.87
-6.46
-19.36
-32.2
-44.3
-55.09
-64.25
-71.86
-78.11
-82.83
-85.31
-84.39
-78.91
-68.31
-53.16
-35.17
-16.73
-0.04
13.68
24.43
33.09
40.9
48.91
57.64
66.8
75.5
82.85
88.38
92.18
94.72
96.41
97.12
95.94
91
80.2
62.3
37.67
8.11
-23.88
-56.24
-88.13
-117.57
-141.88
-158.44
-165.86
-164.38
-155.73
-142.08
-124.98
-104.49
-79.18
-47.74
-10.64
28.63
65.09
93.48
109.89
113.51
106.82
94.32
79.95
65.59
51.02
35.18
17.55
-1.07
-18.62
-32.86
-41.88
-44.64
-41.07
-31.62
-16.93
1.79
22.43
41.97
57.09
65.43
66.37
61.43
53.64
46.29
41.68
40.52
42.26
45.62
49.34
52.4
54.01
53.58
50.77
45.62
38.59
30.59
22.62
15.54
9.7
4.92
0.65
-3.89
-9.36
-16.1
-23.88
-31.86
-38.8
-43.63
-45.84
-45.83
-44.69
-43.79
-44.18
-46.23
-49.61
-53.66
-57.88
-62.07
-66.35
-70.79
-75.25
-79.19
-81.92
-82.76
-81.25
-77.21
-70.69
-62.02
-51.76
-40.6
-29.38
-18.92
-9.94
-2.91
2
4.93
6.31
6.7
6.67
6.61
6.63
6.51
6.05
5.15
4.04
3.18
2.94
3.46
4.45
5.49
6.17
6.42
6.44
6.49
6.74
7.01
6.96
6.23
4.75
2.79
0.88
-0.45
-0.87
-0.41
0.65
1.91
3.05
3.98
4.89
6.11
7.94
10.43
13.27
15.85
17.59
18.09
17.28
15.41
12.94
10.32
7.91
5.89
4.27
2.99
1.91
0.85
-0.34
-1.72
-3.19
-4.49
-5.3
-5.41
-4.78
-3.66
-2.38
-1.11
0.23
1.91
4.3
7.52
11.32
15.16
18.24
19.82
19.38
16.67
11.84
5.48
-1.53
-8.21
-13.71
-17.58
-19.73
-20.34
-19.71
-18.14
-15.88
-13.21
-10.5
-8.12
-6.28
-5.03
-4.22
-3.66
-3.22
-2.85
-2.52
-2.15
-1.55
-0.55
0.97
3.02
5.49
8.26
11.24
14.36
17.75
21.58
26.09
31.39
37.32
43.29
48.27
51.03
50.43
45.81
37.28
25.55
11.77
-2.85
-17.25
-30.63
-42.3
-51.68
-58.29
-61.81
-62.25
-59.88
-55.11
-48.36
-39.93
-30.04
-18.91
-6.93
5.3
17.05
27.71
36.95
44.72
51.22
56.65
60.99
63.99
65.22
64.29
61.09
55.84
49.02
41.21
32.9
24.35
15.65
6.77
-2.26
-11.33
-20.24
-28.79
-36.72
-43.76
-49.56
-53.68
-55.68
-55.25
-52.43
-47.56
-41.27
-34.23
-27.03
-20.05
-13.62
-8.02
-3.62
-0.72
0.55
0.34
-1
-3.1
-5.72
-8.87
-12.63
-17.04
-21.82
-26.41
-30.18
-32.69
-33.84
-34.01
-33.82
-33.94
-34.74
-36.2
-38
-39.65
-40.71
-40.86
-39.97
-38.03
-35.07
-31.18
-26.52
-21.35
-15.92
-10.42
-4.97
0.36
5.48
10.24
14.48
18.13
21.26
24.05
26.58
28.61
29.69
29.15
26.43
21.22
13.58
3.95
-7.01
-18.61
-30.33
-41.85
-53.1
-63.98
-74.14
-82.67
-88.12
-88.79
-83.4
-71.73
-54.84
-34.97
-14.73
3.78
19.41
32.1
42.38
50.91
58.04
63.86
68.24
71.2
72.99
73.94
74.31
74.02
72.73
69.93
65.35
59.04
51.49
43.46
35.7
28.76
22.88
18.15
14.68
12.7
12.33
13.49
15.63
17.89
19.44
19.7
18.45
15.58
10.84
3.78
-5.93
-18.03
-31.36
-44.1
-54.51
-61.69
-65.88
-68.07
-69.25
-69.7
-68.92
-66.13
-60.89
-53.65
-45.45
-37.44
-30.18
-23.56
-17.05
-10.33
-3.64
2.37
7.09
10.49
13.17
15.93
19.2
22.68
25.39
26.25
24.81
21.64
18.07
15.41
14.26
14.23
14.24
13.25
10.97
7.89
4.98
2.97
2
1.71
1.61
1.55
1.89
3.22
6.02
10.21
15.2
20.14
24.31
27.3
29.11
29.97
30.13
29.78
29.04
28.03
26.93
25.98
25.36
25.14
25.26
25.47
25.42
24.7
22.9
19.62
14.73
8.36
1.04
-6.41
-13.17
-18.46
-21.85
-23.19
-22.74
-21.04
-18.85
-17
-16.15
-16.53
-17.85
-19.45
-20.52
-20.51
-19.34
-17.34
-15.19
-13.63
-13.21
-14.12
-16.12
-18.46
-20.25
-20.58
-18.78
-14.62
-8.47
-1.1
6.56
13.72
20.04
25.44
30.24
35
40.26
46.08
52.13
57.84
62.75
66.89
70.28
73.06
75.37
77.21
78
77.11
73.78
67.1
56.06
38.91
14.34
-17.48
-54.26
-92.47
-128.09
-158.5
-183.55
-200.78
-208.55
-205.73
-191.56
-165.48
-127.87
-80.24
-26.19
28.86
79.25
119.79
147.42
161.71
167.21
166.62
162.57
157.35
152.63
149.19
146.17
141.89
134.78
123.86
108.56
89.29
67.02
42.28
17.6
-4.25
-20.9
-31.15
-35.5
-36.2
-35.94
-36.91
-40.05
-44.92
-50.66
-56.45
-61.85
-66.68
-71
-74.65
-77.6
-80.1
-82.62
-85.79
-89.76
-93.77
-96.27
-95.5
-90.12
-79.8
-65.36
-48.47
-31.22
-15.43
-2.18
8.43
17.07
24.78
32.29
39.62
45.97
50.07
50.92
48.27
42.91
36.23
29.72
24.35
20.45
17.74
15.69
13.92
12.32
11.05
10.36
10.33
10.78
11.37
11.71
11.54
10.85
9.83
8.73
7.7
6.69
5.48
3.75
1.27
-2.04
-5.95
-10.1
-13.97
-16.98
-18.67
-18.7
-16.99
-13.84
-9.83
-5.73
-2.3
0
1.15
1.54
1.82
2.61
4.2
6.44
8.93
11.17
12.83
13.91
14.66
15.32
15.97
16.28
15.61
13.39
9.4
4.07
-1.64
-6.6
-9.96
-11.46
-11.38
-10.27
-8.58
-6.48
-3.94
-0.85
2.99
8.08
15.2
25.04
37.74
52.34
66.59
77.55
82.7
80.91
72.92
60.86
47.18
33.58
20.51
7.12
-8.13
-26.52
-48.43
-73.09
-98.65
-122.62
-142.36
-155.76
-161.62
-159.83
-151.21
-137.28
-119.77
-100.26
-79.92
-59.52
-39.61
-20.59
-2.78
13.58
28.24
41.13
52.17
61.21
67.96
72.08
73.39
72.14
68.97
64.66
59.91
55.19
50.54
45.68
40.14
33.5
25.57
16.52
6.91
-2.33
-10.04
-15.18
-17.1
-15.82
-12.03
-6.89
-1.55
3.18
7.08
10.32
13.24
16.07
18.77
21.15
22.93
23.83
23.74
22.68
20.73
18.08
14.99
11.66
8.28
4.86
1.27
-2.64
-6.9
-11.34
-15.53
-18.99
-21.4
-22.61
-22.69
-21.69
-19.64
-16.54
-12.47
-7.76
-2.99
1.1
3.88
5.05
4.69
3.19
0.99
-1.48
-3.9
-6.05
-7.7
-8.7
-8.98
-8.68
-8.05
-7.45
-7.14
-7.19
-7.55
-8.06
-8.55
-9
-9.38
-9.66
-9.73
-9.45
-8.72
-7.61
-6.34
-5.18
-4.4
-4.13
-4.34
-4.94
-5.76
-6.66
-7.49
-8.13
-8.5
-8.57
-8.39
-8.08
-7.67
-7.16
-6.44
-5.38
-3.88
-2
0.07
2.07
3.77
5
5.74
6.06
6.07
5.93
5.73
5.53
5.32
5.15
5
4.98
5.15
5.54
6.12
6.74
7.26
7.55
7.6
7.4
7.06
6.64
6.23
5.93
5.86
6.05
6.42
6.76
6.77
6.25
5.18
3.81
2.51
1.63
1.34
1.55
1.98
2.3
2.35
2.1
1.63
1.11
0.57
0.08
-0.34
-0.61
-0.65
-0.38
0.17
0.84
1.47
1.86
1.94
1.79
1.55
1.39
1.44
1.7
2.03
2.28
2.21
1.72
0.83
-0.29
-1.33
-2.02
-2.18
-1.87
-1.31
-0.83
-0.64
-0.78
-1
-0.97
-0.39
0.82
2.45
4.15
5.59
6.57
7.08
7.16
6.86
6.1
4.82
3.07
1.09
-0.77
-2.17
-2.96
-3.23
-3.23
-3.24
-3.37
-3.56
-3.63
-3.46
-3.06
-2.6
-2.32
-2.39
-2.86
-3.63
-4.57
-5.52
-6.37
-7.14
-7.9
-8.82
-10.08
-11.71
-13.57
-15.45
-17.03
-18.11
-18.66
-18.66
-18.13
-17
-15.14
-12.51
-9.26
-5.76
-2.39
0.53
3
5.17
7.28
9.46
11.64
13.6
15.14
16.13
16.57
16.61
16.37
15.99
15.52
15
14.39
13.68
12.81
11.72
10.38
8.8
7.06
5.29
3.7
2.42
1.52
0.95
0.66
0.57
0.66
0.92
1.33
1.85
2.44
3.09
3.73
4.28
4.54
4.26
3.14
1.03
-2.01
-5.76
-9.93
-14.3
-18.82
-23.45
-28.1
-32.55
-36.37
-39.08
-40.18
-39.26
-36.13
-30.8
-23.58
-15.04
-5.88
3.1
11.19
17.87
22.84
26.07
27.72
28.11
27.57
26.43
24.89
23.01
20.77
18.16
15.29
12.38
9.77
7.7
6.29
5.57
5.5
6.09
7.51
9.98
13.66
18.52
24.25
30.24
35.74
39.97
42.3
42.19
39.24
33.13
23.65
10.86
-5.01
-23.44
-43.83
-65.5
-87.73
-109.45
-129.07
-144.51
-153.57
-154.53
-146.82
-131.2
-109.55
-84.28
-57.78
-32.02
-8.6
11.22
26.51
36.84
42.56
44.75
44.99
44.79
45.11
46.17
47.58
48.77
49.34
49.28
48.87
48.49
48.37
48.48
48.48
47.91
46.38
43.66
39.7
34.64
28.75
22.36
15.89
9.71
4.13
-0.67
-4.59
-7.48
-9.21
-9.59
-8.56
-6.3
-3.29
-0.13
2.59
4.63
6.14
7.49
9.03
10.84
12.68
14.14
14.81
14.46
13.07
10.79
7.74
4.08
-0.1
-4.57
-9.02
-13.07
-16.42
-18.92
-20.66
-21.93
-22.98
-23.97
-24.9
-25.61
-25.88
-25.53
-24.53
-22.95
-20.97
-18.75
-16.44
-14.12
-11.86
-9.75
-7.94
-6.56
-5.66
-5.16
-4.77
-4.17
-3.11
-1.56
0.26
2.05
3.5
4.55
5.26
5.82
6.32
6.77
7.03
6.96
6.52
5.81
5.02
4.37
4.01
3.9
3.92
3.82
3.4
2.59
1.41
-0.02
-1.61
-3.31
-5.16
-7.24
-9.54
-11.98
-14.26
-16.02
-16.84
-16.52
-15.04
-12.65
-9.76
-6.76
-3.95
-1.45
0.75
2.69
4.31
5.54
6.25
6.4
6.07
5.5
4.99
4.82
5.15
5.96
7.08
8.2
9.04
9.43
9.34
8.95
8.52
8.26
8.2
8.2
8.01
7.46
6.57
5.52
4.58
3.97
3.72
3.67
3.56
3.06
2.01
0.44
-1.33
-2.81
-3.45
-2.79
-0.74
2.43
5.98
8.95
10.38
9.57
6.3
0.89
-5.8
-12.58
-18.21
-21.84
-23.23
-22.77
-21.15
-18.87
-15.77
-10.92
-3.06
8.7
24.18
41.87
59.33
74.02
84.14
89.1
89.3
85.64
78.87
69.4
57.41
43.23
27.6
11.61
-3.53
-16.97
-28.35
-37.89
-46.1
-53.53
-60.54
-67.14
-73.09
-77.96
-81.4
-83.19
-83.45
-82.53
-80.97
-79.26
-77.63
-75.92
-73.66
-70.24
-65.15
-58.29
-49.95
-40.73
-31.36
-22.35
-13.95
-6.19
0.95
7.44
13.2
18.21
22.59
26.59
30.44
34.2
37.65
40.35
41.83
41.82
40.33
37.59
33.84
29.22
23.81
17.71
11.15
4.45
-2.08
-8.18
-13.77
-18.82
-23.25
-26.93
-29.62
-31.08
-31.23
-30.12
-27.92
-24.81
-21.01
-16.8
-12.47
-8.43
-4.94
-2.14
-0.02
1.53
2.64
3.35
3.71
3.81
3.81
3.89
4.17
4.54
4.75
4.5
3.56
1.96
-0.06
-2.16
-3.97
-5.31
-6.04
-6.04
-5.12
-2.96
0.76
6.11
12.75
19.86
26.35
31.21
33.87
34.4
33.43
31.87
30.58
30.02
30.21
30.86
31.6
32.21
32.75
33.5
34.74
36.56
38.71
40.65
41.75
41.53
39.92
37.16
33.69
29.86
25.73
21.07
15.46
8.56
0.33
-8.92
-18.46
-27.34
-34.69
-39.82
-42.29
-41.9
-38.6
-32.6
-24.64
-16.04
-8.5
-3.55
-1.81
-2.6
-4.14
-4.4
-2.15
2.38
7.65
11.64
12.87
11.02
6.86
1.36
-5.11
-12.99
-23.04
-35.47
-49.37
-62.75
-73.34
-79.49
-80.72
-77.45
-70.41
-60.13
-47
-31.76
-15.9
-1.52
9.59
17.06
22.47
28.8
38.88
53.85
72.46
91.56
107.52
117.73
121.33
119.09
112.52
102.92
91.09
77.5
62.73
47.69
33.63
21.54
11.69
3.46
-4.38
-13.04
-23.07
-34.01
-44.6
-53.23
-58.53
-59.93
-57.73
-52.79
-46.09
-38.38
-30.1
-21.55
-13.02
-4.86
2.41
8.29
12.39
14.7
15.58
15.61
15.49
15.83
17.28
20.05
23.83
27.84
31.3
33.73
35.13
36.04
37.11
39.38
43.43
49.21
56.12
63.41
70.41
76.53
81.32
84.03
84.43
82.16
76.66
67.28
53.62
35.76
14.28
-9.44
-37.36
-67.76
-95.72
-114.96
-121.31
-114.72
-98.84
-79.05
-58.81
-40.71
-25.51
-13.23
-3.66
3.55
9.06
14.14
18.25
22.15
26.37
31.54
37.53
43.44
47.94
49.94
49.05
45.82
41.77
38.31
36.63
36.74
37.5
37.06
33.86
27.33
18.24
8.46
-0.32
-7.22
-12.69
-18.19
-25.38
-35.44
-48.66
-64.42
-81.25
-97.39
-110.86
-119.84
-123.04
-120.17
-112.3
-101.61
-90.76
-81.91
-76.13
-73.19
-72.17
-72.18
-73.01
-75.08
-79.05
-85.16
-92.76
-100.07
-104.31
-102.29
-91.22
-69.45
-37.22
2.98
46.59
87.63
120.16
139.74
144.53
135.67
116.77
92.67
68.2
47.06
31.32
21.57
17.27
17.28
20.16
24.46
28.73
31.81
33.09
32.53
30.7
28.43
26.35
24.69
23.17
21.25
18.49
14.85
10.78
7.11
4.72
4.06
5.03
6.98
9.02
10.42
10.89
10.6
10.04
9.77
10.13
11.16
12.67
14.44
16.25
17.97
19.51
20.83
21.98
23.15
24.55
26.32
28.3
30.1
31.14
30.84
28.91
25.43
20.83
15.8
10.98
6.92
3.94
2.17
1.51
1.72
2.42
3.14
3.49
3.19
2.18
0.6
-1.19
-2.86
-4.14
-4.85
-4.92
-4.38
-3.28
-1.82
-0.31
0.91
1.56
1.57
1.08
0.41
-0.18
-0.64
-1.11
-1.83
-2.9
-4.21
-5.49
-6.46
-7.03
-7.22
-7.14
-6.82
-6.21
-5.24
-3.92
-2.34
-0.63
1.07
2.77
4.44
6.09
7.66
9.08
10.28
11.23
11.88
12.13
11.92
11.21
10.13
8.89
7.7
6.6
5.42
3.78
1.33
-2.02
-5.98
-10.02
-13.62
-16.51
-18.81
-20.84
-22.86
-24.84
-26.4
-27.09
-26.67
-25.29
-23.48
-21.83
-20.69
-19.97
-19.27
-18.09
-16.13
-13.43
-10.29
-7.08
-4.05
-1.28
1.3
3.77
6.14
8.29
9.98
10.89
10.69
9.08
5.8
0.62
-6.54
-15.52
-25.79
-36.3
-45.72
-52.74
-56.52
-57.06
-55.22
-52.32
-49.71
-48.18
-47.71
-47.61
-46.94
-44.85
-40.99
-35.55
-29.18
-22.82
-17.36
-13.37
-10.98
-9.8
-9.18
-8.41
-6.95
-4.55
-1.29
2.6
6.73
10.67
13.95
16.17
17.21
17.46
17.89
19.72
24
30.91
39.46
47.72
53.44
55.04
52.31
46.47
39.59
33.8
30.49
30.02
31.84
34.87
37.92
39.91
40.13
38.57
36.42
35.89
39.35
47.84
59.68
70.4
74.07
65.76
43.83
10.84
-27.4
-64.31
-95.01
-117.73
-133.49
-144.74
-153.66
-161.06
-166.26
-167.51
-162.78
-150.46
-130.01
-102.28
-69.34
-34.14
0.12
30.53
54.83
71.64
80.61
82.31
78.16
70.17
60.64
51.66
44.72
40.4
38.45
38
37.95
37.32
35.64
33.02
30.07
27.67
26.48
26.68
27.77
28.78
28.66
26.73
22.99
18.09
13.06
8.82
5.79
3.76
1.97
-0.39
-3.8
-8.16
-12.88
-17.2
-20.58
-22.93
-24.58
-26.06
-27.71
-29.44
-30.72
-30.76
-28.99
-25.3
-20.08
-14.04
-7.91
-2.15
3.24
8.49
13.89
19.54
25.25
30.76
35.83
40.39
44.46
48.01
50.91
52.93
53.88
53.73
52.65
50.77
48.08
44.39
39.4
33.08
25.78
18.31
11.58
6.26
2.42
-0.42
-3.19
-6.75
-11.47
-16.97
-22.29
-26.36
-28.59
-29.23
-29.38
-30.67
-34.68
-42.22
-52.98
-65.37
-76.86
-84.6
-86.24
-80.6
-68.14
-50.84
-31.6
-13.5
1.11
10.96
15.94
16.82
14.86
11.52
8.15
5.85
5.24
6.43
9.01
12.26
15.28
17.29
17.76
16.56
14.05
10.89
7.99
6.2
6.05
7.61
10.46
13.81
16.77
18.63
18.91
17.55
14.82
11.17
7.11
3.06
-0.74
-4.21
-7.34
-10.19
-12.78
-15.06
-16.97
-18.39
-19.16
-19.1
-18.07
-16.08
-13.33
-10.16
-6.95
-3.97
-1.25
1.34
3.92
6.46
8.81
10.73
12.06
12.74
12.78
12.3
11.32
9.88
8.08
6.16
4.33
2.8
1.59
0.61
-0.23
-0.88
-1.15
-0.79
0.37
2.21
4.36
6.3
7.56
7.89
7.32
6.03
4.23
2.02
-0.59
-3.57
-6.77
-9.97
-12.85
-15.24
-17.05
-18.34
-19.22
-19.73
-19.89
-19.66
-18.99
-17.82
-16.19
-14.22
-12.19
-10.36
-8.91
-7.83
-6.88
-5.78
-4.35
-2.67
-0.94
0.57
1.74
2.64
3.42
4.13
4.75
5.2
5.48
5.72
6.09
6.72
7.59
8.51
9.22
9.52
9.31
8.67
7.77
6.8
5.91
5.15
4.4
3.49
2.26
0.72
-0.91
-2.31
-3.19
-3.45
-3.29
-2.98
-2.74
-2.6
-2.49
-2.39
-2.4
-2.8
-3.79
-5.33
-7.06
-8.45
-9.09
-8.9
-8.15
-7.31
-6.81
-6.92
-7.7
-9.08
-10.88
-12.93
-14.96
-16.61
-17.56
-17.63
-16.89
-15.58
-13.98
-12.24
-10.41
-8.41
-6.23
-4
-1.99
-0.4
0.68
1.35
1.78
2.07
2.14
1.8
0.8
-0.92
-3.17
-5.58
-7.69
-9.25
-10.24
-10.91
-11.6
-12.51
-13.58
-14.49
-14.84
-14.28
-12.68
-10.15
-6.91
-3.23
0.61
4.38
7.87
10.77
12.93
14.24
14.85
15.01
15.08
15.28
15.74
16.4
17.01
17.35
17.22
16.52
15.28
13.66
11.88
10.23
8.9
8.03
7.58
7.39
7.25
6.91
6.22
5.07
3.44
1.43
-0.84
-3.12
-5.25
-7.11
-8.78
-10.4
-12.12
-13.92
-15.48
-16.36
-16.05
-14.35
-11.36
-7.45
-3.12
1.26
5.5
9.58
13.55
17.44
21.22
24.93
28.55
32.08
35.48
38.57
41.16
43.04
44.11
44.33
43.74
42.34
40.17
37.29
33.92
30.43
27.17
24.39
22.1
20.04
17.89
15.41
12.62
9.65
6.69
3.74
0.63
-2.88
-6.86
-11.12
-15.19
-18.59
-21.08
-22.7
-23.8
-24.79
-25.91
-27.17
-28.37
-29.26
-29.67
-29.58
-29
-27.93
-26.25
-23.87
-20.8
-17.25
-13.62
-10.39
-7.94
-6.37
-5.44
-4.67
-3.55
-1.73
0.83
3.86
6.92
9.55
11.46
12.63
13.3
13.87
14.77
16.39
18.94
22.42
26.53
30.73
34.31
36.6
37.17
35.97
33.32
29.74
25.75
21.7
17.72
13.83
10.04
6.45
3.25
0.62
-1.23
-2.12
-1.86
-0.33
2.39
5.98
9.85
13.28
15.65
16.59
16.08
14.26
11.31
7.35
2.42
-3.25
-9.27
-15.05
-19.91
-23.34
-25.09
-25.27
-24.21
-22.42
-20.3
-18.19
-16.28
-14.59
-13.1
-11.67
-10.17
-8.46
-6.51
-4.36
-2.16
-0.07
1.73
3.23
4.53
5.82
7.23
8.79
10.39
11.88
13.11
13.95
14.28
14.05
13.23
11.9
10.27
8.68
7.43
6.67
6.31
6.07
5.64
4.92
3.99
3.09
2.41
1.97
1.65
1.25
0.62
-0.27
-1.36
-2.57
-3.94
-5.52
-7.35
-9.24
-10.8
-11.51
-11
-9.19
-6.41
-3.19
-0.1
2.48
4.41
5.76
6.55
6.75
6.31
5.23
3.62
1.76
-0.12
-1.83
-3.28
-4.45
-5.26
-5.64
-5.46
-4.7
-3.47
-1.94
-0.31
1.32
2.9
4.48
6.1
7.76
9.35
10.75
11.86
12.55
12.76
12.43
11.59
10.36
8.97
7.67
6.62
5.82
5.06
4.06
2.57
0.57
-1.71
-4
-6.04
-7.83
-9.52
-11.34
-13.41
-15.61
-17.71
-19.39
-20.44
-20.75
-20.3
-19.09
-17.09
-14.34
-10.93
-7.06
-3.12
0.51
3.58
6.02
7.96
9.63
11.2
12.68
13.94
14.72
14.82
14.17
12.84
11.01
8.91
6.86
5.18
4.18
4.05
4.74
5.97
7.34
8.46
9.11
9.31
9.19
8.91
8.55
8.06
7.33
6.31
5.02
3.54
2.02
0.49
-1.01
-2.47
-3.85
-5.04
-5.92
-6.44
-6.64
-6.67
-6.73
-6.87
-7.03
-7.06
-6.8
-6.19
-5.33
-4.36
-3.41
-2.53
-1.67
-0.74
0.25
1.22
1.99
2.44
2.51
2.31
1.96
1.57
1.18
0.77
0.37
0.1
0.15
0.65
1.6
2.82
3.96
4.75
5.04
4.93
4.55
4
3.22
2.08
0.57
-1.15
-2.63
-3.33
-2.83
-1.02
1.91
5.54
9.44
13.3
16.95
20.27
23.15
25.36
26.71
27.07
26.38
24.75
22.35
19.35
15.85
11.9
7.48
2.73
-2.07
-6.43
-9.75
-11.5
-11.38
-9.38
-5.76
-0.91
4.8
11
17.29
23.12
27.95
31.32
33.19
33.86
33.92
33.96
34.3
34.86
35.24
34.86
33.23
30.09
25.47
19.79
13.75
8.3
4.33
2.34
2.33
3.72
5.64
7.24
8.09
8.09
7.46
6.31
4.36
1.06
-4.3
-12.1
-22.21
-33.79
-45.48
-55.69
-62.95
-66.53
-66.63
-64.51
-62.05
-61.1
-62.82
-67.34
-73.87
-81.14
-88.16
-94.43
-100.11
-105.56
-110.9
-115.83
-119.5
-120.82
-118.67
-112.26
-101.22
-85.77
-66.49
-44.18
-19.71
6.2
32.93
60.08
87.33
114.49
141.2
166.84
190.32
210.01
224.08
230.98
229.89
220.89
205
183.8
159.21
133.31
108.16
85.61
66.94
52.45
41.35
32.02
22.59
11.67
-1.2
-15.7
-31
-46.28
-60.93
-74.41
-86.22
-95.69
-102.19
-105.32
-105.13
-102.14
-97.15
-90.98
-84.29
-77.46
-70.62
-63.72
-56.59
-49.01
-40.87
-32.32
-23.88
-16.42
-11.05
-8.85
-10.59
-16.37
-25.57
-36.9
-48.59
-58.84
-66.1
-69.4
-68.42
-63.37
-54.86
-43.64
-30.59
-16.79
-3.52
7.79
15.65
18.8
16.61
9.35
-1.62
-14.01
-25.16
-32.74
-35.45
-33.3
-27.57
-20.21
-13.2
-7.95
-5.06
-4.34
-5.07
-6.35
-7.23
-6.93
-4.8
-0.47
6.01
14.07
22.53
29.73
33.93
33.79
28.95
20.17
8.98
-2.75
-13.46
-22.16
-28.65
-33.28
-36.72
-39.52
-41.85
-43.45
-43.69
-41.82
-37.4
-30.5
-21.78
-12.27
-3.1
4.82
10.89
14.9
16.9
17.2
16.35
15.03
13.94
13.55
13.99
15.08
16.39
17.43
17.88
17.61
16.77
15.63
14.45
13.42
12.58
11.95
11.41
10.82
10.03
8.86
7.26
5.28
3.15
1.16
-0.34
-1.13
-1.17
-0.53
0.61
2.05
3.58
4.97
5.93
6.11
5.22
3.23
0.44
-2.52
-4.97
-6.39
-6.61
-5.85
-4.46
-2.73
-0.69
1.8
4.73
7.72
10.05
10.89
9.75
6.77
2.73
-1.27
-4.3
-5.86
-6.01
-5.16
-3.88
-2.62
-1.64
-1.09
-1.02
-1.39
-2.14
-3.15
-4.29
-5.45
-6.55
-7.44
-7.97
-7.96
-7.37
-6.26
-4.9
-3.54
-2.38
-1.45
-0.59
0.3
1.21
1.97
2.29
1.97
1.03
-0.19
-1.24
-1.61
-1.01
0.59
2.95
5.63
8.14
10.03
11.04
11.12
10.43
9.27
7.97
6.81
5.88
5.12
4.4
3.63
2.77
1.87
0.95
-0.02
-1.21
-2.8
-4.78
-6.92
-8.76
-9.78
-9.67
-8.45
-6.52
-4.42
-2.62
-1.29
-0.31
0.54
1.44
2.34
3.04
3.27
2.87
1.9
0.58
-0.77
-1.94
-2.82
-3.44
-3.89
-4.28
-4.57
-4.63
-4.31
-3.57
-2.52
-1.46
-0.7
-0.43
-0.63
-1.04
-1.33
-1.32
-1.07
-0.86
-0.98
-1.57
-2.47
-3.38
-3.92
-3.95
-3.52
-2.85
-2.09
-1.28
-0.4
0.59
1.55
2.23
2.37
1.84
0.77
-0.56
-1.86
-2.94
-3.79
-4.47
-5.04
-5.52
-5.88
-6.09
-6.16
-6.06
-5.78
-5.32
-4.73
-4.12
-3.65
-3.46
-3.6
-4.02
-4.62
-5.33
-6.17
-7.17
-8.4
-9.73
-11
-11.99
-12.57
-12.67
-12.33
-11.6
-10.51
-9.09
-7.4
-5.56
-3.81
-2.34
-1.29
-0.63
-0.18
0.26
0.83
1.62
2.65
3.89
5.33
6.92
8.6
10.3
11.93
13.43
14.75
15.87
16.76
17.36
17.61
17.49
17.06
16.46
15.89
15.46
15.16
14.9
14.54
14
13.29
12.55
11.93
11.52
11.29
11.04
10.59
9.81
8.78
7.72
6.92
6.51
6.44
6.51
6.53
6.36
6
5.52
4.97
4.37
3.66
2.8
1.84
0.96
0.35
0.11
0.25
0.63
1.07
1.43
1.65
1.77
1.83
1.92
2.04
2.16
2.12
1.75
0.92
-0.37
-1.96
-3.59
-4.98
-5.96
-6.51
-6.82
-7.14
-7.69
-8.52
-9.54
-10.58
-11.46
-12.08
-12.43
-12.55
-12.42
-12
-11.24
-10.17
-8.9
-7.63
-6.48
-5.44
-4.37
-3.11
-1.59
0.03
1.41
2.17
2.14
1.41
0.3
-0.76
-1.47
-1.72
-1.57
-1.15
-0.55
0.2
1.06
1.99
2.84
3.51
3.91
4.08
4.15
4.26
4.46
4.67
4.77
4.63
4.27
3.79
3.33
2.98
2.73
2.5
2.23
1.87
1.49
1.23
1.18
1.36
1.69
2.04
2.34
2.59
2.89
3.36
4.08
5.01
6.04
6.96
7.59
7.86
7.82
7.66
7.6
7.74
8.07
8.39
8.39
7.84
6.77
5.4
4.04
2.88
1.92
1
0.02
-1
-1.93
-2.61
-3.03
-3.39
-3.89
-4.66
-5.61
-6.5
-7.13
-7.46
-7.71
-8.13
-8.88
-9.97
-11.2
-12.35
-13.29
-13.97
-14.49
-14.93
-15.25
-15.34
-15.06
-14.33
-13.22
-11.98
-10.84
-9.96
-9.39
-8.98
-8.6
-8.14
-7.55
-6.87
-6.17
-5.5
-4.88
-4.34
-3.88
-3.55
-3.42
-3.48
-3.77
-4.24
-4.86
-5.52
-6.01
-6.13
-5.64
-4.42
-2.51
-0.15
2.19
4.07
5.13
5.28
4.7
3.76
2.85
2.23
1.93
1.86
1.93
2.09
2.43
2.98
3.71
4.43
4.9
4.94
4.58
3.97
3.28
2.63
1.99
1.34
0.72
0.29
0.33
1.13
2.78
5.2
8.04
10.94
13.59
15.8
17.49
18.62
19.19
19.17
18.57
17.43
15.86
13.98
11.94
9.83
7.7
5.54
3.3
0.94
-1.5
-3.94
-6.22
-8.15
-9.6
-10.52
-10.96
-11.01
-10.73
-10.08
-9.03
-7.55
-5.71
-3.65
-1.53
0.46
2.17
3.51
4.39
4.73
4.5
3.7
2.43
0.78
-1.07
-2.99
-4.76
-6.24
-7.27
-7.78
-7.8
-7.43
-6.84
-6.17
-5.52
-4.9
-4.3
-3.7
-3.09
-2.5
-2.05
-1.89
-2.21
-3.13
-4.64
-6.58
-8.61
-10.29
-11.29
-11.51
-11.09
-10.37
-9.69
-9.23
-8.95
-8.7
-8.34
-7.89
-7.47
-7.2
-7.1
-7.05
-6.92
-6.61
-6.07
-5.36
-4.48
-3.43
-2.19
-0.83
0.54
1.72
2.58
3.1
3.32
3.26
2.92
2.31
1.44
0.42
-0.61
-1.56
-2.45
-3.34
-4.28
-5.15
-5.67
-5.49
-4.36
-2.21
0.72
4.09
7.51
10.74
13.69
16.36
18.73
20.66
21.88
22.04
20.9
18.39
14.69
10.17
5.26
0.41
-3.95
-7.46
-9.9
-11.22
-11.59
-11.33
-10.78
-10.25
-9.94
-9.99
-10.55
-11.74
-13.56
-15.85
-18.16
-19.96
-20.76
-20.33
-18.77
-16.37
-13.47
-10.29
-6.92
-3.37
0.34
4.11
7.77
11.13
14.07
16.44
18.15
19.11
19.24
18.58
17.23
15.4
13.35
11.33
9.55
8.1
7.01
6.23
5.7
5.27
4.85
4.27
3.47
2.46
1.37
0.4
-0.27
-0.59
-0.69
-0.81
-1.22
-2.07
-3.31
-4.79
-6.32
-7.76
-9.01
-10.06
-10.8
-11.08
-10.77
-9.77
-8.18
-6.22
-4.17
-2.23
-0.53
1
2.44
3.85
5.13
6.03
6.27
5.79
4.79
3.76
3.2
3.33
4.03
4.87
5.35
5.19
4.43
3.3
2.12
1.05
0.05
-1.03
-2.31
-3.82
-5.53
-7.29
-8.95
-10.35
-11.34
-11.84
-11.79
-11.24
-10.26
-8.96
-7.47
-5.95
-4.59
-3.59
-3.1
-3.19
-3.78
-4.7
-5.76
-6.83
-7.83
-8.61
-9.05
-8.96
-8.18
-6.67
-4.54
-2.02
0.56
2.89
4.77
6.18
7.13
7.72
8.08
8.33
8.62
9.04
9.6
10.18
10.59
10.61
10.12
9.16
7.95
6.77
5.84
5.3
5.13
5.31
5.8
6.56
7.53
8.63
9.64
10.34
10.6
10.41
9.86
9.15
8.47
7.88
7.43
7.13
6.99
7.08
7.46
8.11
8.94
9.83
10.61
11.19
11.53
11.67
11.61
11.37
10.9
10.13
8.97
7.36
5.35
3.09
0.81
-1.22
-2.75
-3.6
-3.75
-3.27
-2.37
-1.28
-0.19
0.8
1.74
2.73
3.91
5.36
7.01
8.72
10.24
11.38
11.93
