-5.25
-7.06
-11.47
-17.18
-22.55
-26.26
-27.65
-26.85
-24.5
-21.48
-18.66
-16.71
-15.97
-16.38
-17.37
-18.09
-17.8
-16.17
-13.52
-10.67
-8.66
-8.31
-10.03
-13.65
-18.28
-22.45
-24.49
-23.03
-17.71
-9.51
-0.61
6.51
10
9.52
6.12
1.73
-1.88
-3.64
-3.28
-1.02
2.83
7.99
14.07
20.38
26.06
30.3
32.8
33.9
34.38
35.06
36.38
38.21
39.98
41.04
40.99
39.87
38.07
36.04
34.07
31.99
29.29
25.13
18.85
10.21
-0.28
-11.23
-20.63
-26.24
-26.28
-20.06
-8.42
6.29
20.76
31.93
38.12
39.7
38.82
38.2
39.73
43.47
47.74
50.17
49.06
44.27
37.13
29.49
22.64
16.78
11.31
5.58
-0.45
-6.11
-10.43
-12.92
-13.82
-14.06
-14.77
-16.62
-19.59
-22.99
-25.87
-27.53
-27.77
-27.02
-25.92
-25.08
-24.68
-24.43
-23.75
-22.13
-19.39
-15.81
-11.92
-8.21
-4.95
-2.15
0.24
2.09
3.05
2.77
1.19
-1.25
-3.8
-5.71
-6.62
-6.73
-6.6
-6.75
-7.37
-8.18
-8.66
-8.37
-7.15
-5.24
-3.08
-1.07
0.6
2.02
3.36
4.72
6.01
6.94
7.23
6.78
5.84
4.84
4.12
3.69
3.11
1.78
-0.68
-4.17
-8.12
-11.71
-14.27
-15.48
-15.34
-14.08
-12
-9.44
-6.67
-3.9
-1.15
1.7
4.88
8.5
12.4
16.14
19.23
21.34
22.45
22.79
22.62
21.98
20.73
18.6
15.5
11.73
8
5.21
4.11
4.9
7.15
9.95
12.32
13.65
13.94
13.64
13.32
13.24
13.25
12.94
12.03
10.62
9.15
8.06
7.39
6.71
5.25
2.41
-1.92
-7.29
-12.94
-18.23
-22.84
-26.87
-30.65
-34.49
-38.6
-42.92
-47.12
-50.6
-52.66
-52.74
-50.67
-46.69
-41.35
-35.18
-28.42
-21.09
-13.27
-5.37
1.77
7.17
10.19
10.9
10.05
8.7
7.71
7.44
7.77
8.43
9.37
10.94
13.67
17.89
23.33
28.94
33.16
34.58
32.49
27.24
20.01
12.3
5.25
-0.66
-5.53
-9.69
-13.32
-16.38
-18.66
-20
-20.48
-20.39
-20.13
-20.18
-20.97
-22.78
-25.65
-29.29
-33.19
-36.76
-39.62
-41.59
-42.74
-43.16
-42.99
-42.48
-42.16
-42.74
-44.86
-48.61
-53.24
-57.18
-58.57
-55.94
-48.71
-37.42
-23.39
-8.17
6.85
20.65
32.55
42.05
48.74
52.44
53.35
52.15
49.84
47.37
45.24
43.29
40.94
37.68
33.63
29.64
26.97
26.66
28.88
32.78
36.8
39.3
39.18
36.19
30.88
24.32
17.78
12.32
8.58
6.66
6.2
6.5
6.85
6.82
6.39
5.8
5.37
5.15
4.99
4.58
3.75
2.53
1.18
0.04
-0.75
-1.27
-1.84
-2.82
-4.43
-6.56
-8.83
-10.74
-11.89
-12.2
-11.92
-11.47
-11.26
-11.49
-12.16
-13.1
-14.15
-15.13
-15.88
-16.08
-15.4
-13.52
-10.41
-6.29
-1.64
3.04
7.33
10.86
13.29
14.28
13.67
11.64
8.86
6.19
4.34
3.48
3.22
2.92
2.18
1.12
0.34
0.5
1.87
4.18
6.78
9.03
10.65
11.74
12.59
13.41
14.18
14.71
14.73
14.13
12.85
10.86
8.05
4.41
0.1
-4.41
-8.34
-10.95
-11.78
-10.87
-8.8
-6.41
-4.53
-3.63
-3.66
-4.2
-4.71
-4.9
-4.89
-5.09
-5.87
-7.24
-8.8
-9.94
-10.31
-10.08
-9.9
-10.43
-11.78
-13.39
-14.24
-13.6
-11.51
-8.92
-7.21
-7.4
-9.56
-12.75
-15.45
-16.36
-15.08
-12.23
-9.08
-6.91
-6.33
-7.08
-8.35
-9.34
-9.78
-9.98
-10.48
-11.51
-12.71
-13.23
-12.26
-9.59
-5.73
-1.69
1.57
3.58
4.51
4.91
5.44
6.51
8.2
10.36
12.75
15.15
17.32
18.88
19.3
18.03
14.71
9.55
3.43
-2.28
-6.13
-7.22
-5.67
-2.49
0.77
2.8
3.04
1.82
-0.09
-1.9
-3.22
-3.98
-4.23
-3.88
-2.69
-0.56
2.24
4.97
6.72
6.82
5.34
3.08
1.23
0.76
1.86
3.85
5.46
5.49
3.35
-0.65
-5.42
-9.55
-11.86
-11.84
-9.78
-6.62
-3.43
-1.01
0.4
1.09
1.69
2.81
4.77
7.46
10.33
12.6
13.56
12.83
10.53
7.24
3.73
0.6
-1.96
-4.23
-6.63
-9.37
-12.19
-14.45
-15.52
-15.13
-13.46
-10.85
-7.55
-3.56
1.08
5.93
10.07
12.46
12.51
10.45
7.22
3.93
1.12
-1.37
-4.19
-7.77
-11.93
-15.93
-18.91
-20.42
-20.56
-19.63
-17.78
-14.82
-10.43
-4.7
1.63
7.25
10.89
11.86
10.4
7.46
4.04
0.74
-2.46
-5.76
-8.98
-11.21
-11.2
-7.99
-1.7
6.44
14.61
21.31
26.05
29.28
31.74
33.73
34.82
34.26
31.59
27.23
22.22
17.69
14.1
10.99
7.41
2.62
-3.29
-9.31
-14.01
-16.39
-16.41
-15
-13.62
-13.45
-14.88
-17.41
-20.03
-21.74
-22.07
-21.19
-19.65
-18.11
-16.91
-16.08
-15.36
-14.42
-13.03
-11.04
-8.47
-5.47
-2.33
0.55
2.77
4.09
4.62
4.73
4.95
5.76
7.39
9.8
12.8
16.15
19.57
22.71
25.06
26.01
25.04
22.01
17.23
11.5
5.71
0.65
-3.19
-5.63
-6.7
-6.56
-5.49
-3.87
-2.29
-1.37
-1.66
-3.37
-6.2
-9.25
-11.3
-11.25
-8.82
-4.78
-0.71
1.75
1.89
0.36
-1.24
-1.32
0.66
3.94
7.04
8.85
9.31
9.31
9.83
11.02
11.9
11.06
7.63
2.03
-4.3
-9.8
-13.68
-16.27
-18.45
-20.76
-22.78
-23.29
-21.05
-15.65
-7.92
0.4
7.44
12.01
14.02
14.27
13.92
13.89
14.49
15.38
15.89
15.41
13.74
11.14
8.07
4.86
1.54
-2.17
-6.53
-11.52
-16.59
-20.87
-23.46
-23.85
-22.06
-18.59
-14.17
-9.48
-5.02
-1.12
1.97
4.04
5.02
5.04
4.5
3.95
4.01
5.13
7.34
10.26
13.15
15.2
15.85
15.01
12.97
10.27
7.3
4.1
0.42
-4
-9.07
-14.11
-17.91
-19.12
-16.85
-11.11
-2.99
5.69
13.03
17.7
19.45
19.08
17.92
17.16
17.21
17.58
17.31
15.6
12.36
8.29
4.36
1.16
-1.44
-4.21
-7.94
-12.93
-18.78
-24.67
-29.67
-33.04
-34.13
-32.34
-27.18
-18.65
-7.63
4.03
14.04
20.49
22.67
21.3
18.16
15.22
13.82
14.25
15.87
17.56
18.25
17.2
14.24
9.53
3.52
-3.31
-10.56
-17.84
-24.46
-29.16
-30.21
-25.97
-15.79
-0.87
15.73
29.97
38.46
39.91
35.71
29.12
23.59
21.05
21.23
22.29
22.21
20.05
16.29
12.14
8.46
5.16
1.36
-3.92
-10.91
-18.86
-26.39
-32.18
-35.36
-35.56
-32.64
-26.5
-17.26
-5.61
6.95
18.48
27.27
32.73
35.7
37.99
41.41
46.69
52.97
58.25
60.5
59
55.21
52.41
54.45
63.71
79.45
97.33
110.53
111.8
95.77
60.68
9.16
-52.01
-113.02
-163.05
-192.67
-196.4
-174.09
-130.84
-75.18
-16.03
40.03
90.13
134.41
173.84
208.02
234.28
248.83
248.82
234.44
209.5
180.07
151.99
128.63
109.58
91.49
70.17
42.54
7.7
-33.3
-78.33
-124.56
-168.42
-205.68
-232.25
-245.7
-246.97
-240.56
-233
-229.82
-232.69
-238.6
-241.72
-236.93
-223.09
-203.96
-186.4
-176.95
-178.79
-190.55
-207.28
-222.86
-232.2
-232.32
-222.41
-202.71
-173.68
-135.74
-89.72
-37.51
17.58
71.29
119.29
158.31
187.04
206.19
217.93
224.82
228.8
230.26
227.93
219.5
202.87
177.72
146.36
113.57
85.23
66.14
58.18
59.58
65.76
71.3
72.09
66.64
56.03
42.78
29.35
17.16
6.36
-3.6
-13.19
-22.26
-29.91
-34.95
-36.81
-36.07
-34.55
-34.54
-37.71
-44.25
-52.63
-60.39
-65.27
-66.21
-63.57
-58.66
-52.84
-46.97
-41.29
-35.75
-30.28
-24.78
-18.87
-11.67
-2.1
10.51
25.75
42.04
57.3
69.96
79.73
87.43
93.92
98.99
100.97
97.63
87.68
71.94
53.39
35.84
22.1
12.73
6.08
-0.56
-9.45
-21.41
-35.67
-50.49
-64.16
-75.72
-85.12
-93.07
-100.44
-107.76
-114.87
-121.01
-125.15
-126.61
-125.26
-121.31
-114.8
-105.28
-92.08
-74.93
-54.69
-33.33
-13.25
3.85
17.59
28.82
38.83
48.41
57.44
65.03
70.02
71.52
69.2
63.4
54.96
45.12
35.26
26.58
19.89
15.5
13.42
13.59
16.1
21
28.06
36.5
45.1
52.49
57.68
60.39
60.99
60.19
58.69
56.86
54.78
52.39
49.63
46.57
43.3
39.8
35.84
31.03
25.03
17.84
9.92
2.04
-5.02
-10.79
-15.22
-18.55
-20.93
-22.22
-22.04
-20.07
-16.45
-11.93
-7.71
-5.02
-4.53
-6.24
-9.66
-14.38
-20.3
-27.79
-37.13
-48.07
-59.71
-70.8
-80.51
-88.82
-96.39
-103.66
-109.98
-113.41
-111.63
-103.47
-90.08
-74.87
-62.17
-55.04
-53.8
-55.83
-56.95
-53.56
-44.29
-30.4
-14.65
0.31
13.13
24.02
33.94
43.61
52.86
60.87
66.99
71.45
75.44
80.46
87.23
95.15
102.39
106.95
107.73
105.14
100.85
96.81
94.25
93.23
92.8
91.64
88.77
83.92
77.41
69.86
61.9
53.92
46.12
38.5
30.89
23.06
14.85
6.29
-2.35
-10.6
-18.07
-24.57
-30.12
-34.73
-38.2
-40.07
-39.84
-37.44
-33.46
-29.03
-25.44
-23.54
-23.37
-24.25
-25.17
-25.22
-23.98
-21.5
-18.18
-14.46
-10.61
-6.66
-2.51
1.94
6.51
10.77
14.08
15.88
16.04
14.97
13.43
12.18
11.57
11.38
10.97
9.65
7.12
3.72
0.27
-2.25
-3.23
-2.71
-1.46
-0.61
-1.11
-3.26
-6.58
-10.05
-12.56
-13.49
-12.88
-11.35
-9.68
-8.45
-7.76
-7.37
-6.92
-6.23
-5.48
-5.07
-5.34
-6.24
-7.21
-7.37
-5.9
-2.48
2.48
7.96
12.8
16.16
17.85
18.24
17.99
17.55
16.99
15.96
13.99
10.82
6.61
2.05
-1.82
-4.02
-4.01
-2.03
1.02
3.8
5.07
4.17
1.14
-3.3
-8.13
-12.36
-15.27
-16.54
-16.24
-14.85
-13.08
-11.74
-11.41
-12.15
-13.45
-14.39
-14.01
-11.79
-7.91
-3.13
1.6
5.55
8.59
11.05
13.45
16.14
18.97
21.37
22.4
21.19
17.24
10.7
2.43
-6.12
-13.29
-17.75
-19.01
-17.7
-15.37
-13.9
-14.64
-17.82
-22.43
-26.75
-29.3
-29.48
-27.78
-25.39
-23.38
-22.21
-21.54
-20.64
-18.75
-15.42
-10.52
-4.1
3.59
12.02
20.3
27.39
32.43
35.19
36.14
36.2
36.12
36.22
36.28
35.85
34.53
32.1
28.51
23.69
17.69
10.82
3.79
-2.44
-7.07
-9.99
-11.89
-13.89
-16.93
-21.18
-25.9
-29.94
-32.31
-32.79
-31.83
-30.15
-28.12
-25.54
-21.82
-16.57
-10.16
-3.76
1.19
3.74
3.98
3.07
2.64
3.95
7.24
11.58
15.33
16.84
15.25
10.78
4.62
-1.57
-6.39
-9.2
-10.24
-10.35
-10.53
-11.42
-13.08
-15.05
-16.71
-17.54
-17.4
-16.42
-14.87
-13
-10.93
-8.71
-6.24
-3.4
-0
4.09
8.93
14.34
20.06
25.78
31.28
36.26
40.19
42.18
41.14
36.23
27.53
16.33
4.87
-4.59
-10.69
-13.61
-14.76
-15.85
-17.9
-20.65
-22.95
-23.52
-21.76
-18.06
-13.46
-9.03
-5.33
-2.39
0.13
2.39
4.23
5.32
5.55
5.33
5.57
7.26
10.84
15.86
21.16
25.39
27.68
28.02
27.11
25.95
25.33
25.57
26.47
27.4
27.46
25.69
21.35
14.36
5.65
-3.04
-9.73
-13.21
-13.69
-12.75
-12.46
-14.26
-18.09
-22.57
-25.87
-26.81
-25.48
-23.05
-20.83
-19.5
-18.79
-17.86
-16.04
-13.32
-10.4
-8.13
-6.99
-6.81
-6.98
-6.95
-6.61
-6.34
-6.63
-7.56
-8.65
-8.95
-7.66
-4.52
-0.01
4.85
9.08
12.07
13.85
14.96
16.07
17.73
20.17
23.29
26.73
29.72
31.2
30.05
25.56
17.95
8.56
-0.57
-7.59
-11.69
-13.42
-14.23
-15.47
-17.6
-19.97
-21.35
-20.81
-18.24
-14.42
-10.5
-7.49
-5.91
-5.9
-7.36
-10.07
-13.73
-17.87
-21.88
-25.16
-27.25
-27.9
-26.94
-24.26
-19.76
-13.55
-6.06
1.89
9.43
15.95
21.48
26.47
31.28
35.47
37.6
35.84
29.12
18.17
5.65
-4.91
-10.91
-12.06
-10.33
-8.66
-8.98
-11.09
-12.97
-12.31
-8.13
-1.48
5.25
9.79
11.28
10.44
8.8
7.49
6.5
4.85
1.5
-3.75
-9.8
-14.76
-16.83
-15.23
-10.58
-4.55
0.9
4.41
5.65
5.25
4.32
3.85
4.37
5.88
8.05
10.27
11.87
12.1
10.44
6.74
1.55
-3.89
-8.08
-9.7
-8.21
-3.99
1.73
7.27
10.92
11.49
8.58
2.75
-4.7
-12.06
-17.88
-21.46
-23
-23.28
-23.07
-22.63
-21.68
-19.78
-16.95
-13.83
-11.45
-10.6
-11.31
-12.88
-14.33
-14.99
-14.68
-13.78
-12.77
-11.9
-11.07
-9.9
-7.93
-4.87
-0.68
4.28
9.23
13.14
15.03
14.46
11.79
8.07
4.62
2.39
1.61
1.86
2.51
3.16
3.84
4.81
6.2
7.88
9.41
10.23
9.91
8.36
5.89
3.1
0.71
-0.68
-0.89
-0.3
0.35
0.4
-0.35
-1.39
-1.88
-1.2
0.53
2.51
3.7
3.63
2.79
2.35
3.43
6.31
10.15
13.49
15.01
14.42
12.53
10.75
10.24
11.31
13.33
15.18
16.02
15.7
14.82
14.38
15.16
17.37
20.64
24.25
27.36
29.19
28.96
26.03
20.1
11.54
1.56
-8.08
-15.75
-20.63
-23.06
-24.16
-24.99
-25.76
-25.77
-23.99
-20.08
-14.96
-10.48
-8.43
-9.32
-12.02
-14.28
-14.04
-10.51
-4.64
1.49
5.86
7.53
7.01
5.76
5.34
6.47
8.72
10.84
11.38
9.54
5.55
0.62
-3.59
-5.73
-5.36
-3.14
-0.48
1.06
0.67
-1.49
-4.35
-6.56
-7.09
-5.63
-2.45
1.98
7.27
12.94
18.13
21.42
21.17
16.39
7.47
-3.56
-13.81
-20.73
-23.36
-22.57
-20.34
-18.5
-17.64
-16.99
-15.17
-11.31
-5.78
-0.07
4
5.36
4.21
1.88
0.06
-0.06
1.61
4.38
7.44
10.51
13.92
18.05
22.58
26.27
27.4
24.81
18.75
10.95
3.78
-0.98
-2.89
-2.81
-2.09
-1.7
-1.93
-2.57
-3.55
-5.05
-7.31
-10.18
-12.89
-14.35
-13.76
-11.06
-6.83
-2.05
2.47
6.29
9.13
10.65
10.49
8.42
4.78
0.56
-2.91
-4.55
-4.08
-2.25
-0.44
0.06
-1.3
-4.03
-6.85
-8.35
-7.65
-4.79
-0.54
4.05
8.12
11.22
13.16
13.84
13.11
10.88
7.35
3.06
-1.21
-4.75
-7.21
-8.56
-8.94
-8.42
-6.92
-4.35
-1.02
2.41
5.08
6.38
6.27
5.28
4.16
3.35
2.85
2.23
1
-1.04
-3.67
-6.31
-8.23
-8.81
-7.65
-4.61
0.06
5.75
11.44
15.91
18.15
17.65
14.72
10.33
5.73
1.98
-0.43
-1.65
-2.26
-2.79
-3.4
-3.74
-3.25
-1.53
1.26
4.4
6.94
8.23
8.29
7.7
7.17
7.03
6.97
6.33
4.62
1.91
-1.24
-4.24
-6.89
-9.5
-12.57
-16.3
-20.26
-23.63
-25.65
-26.07
-25.3
-24.02
-22.73
-21.41
-19.64
-17.02
-13.56
-9.83
-6.72
-4.87
-4.24
-4.1
-3.52
-1.99
0.14
1.77
1.68
-0.75
-5.07
-10
-14.07
-16.36
-16.92
-16.51
-16.12
-16.27
-16.92
-17.6
-17.87
-17.65
-17.21
-16.9
-16.79
-16.42
-14.91
-11.31
-5.11
3.37
12.95
21.96
28.87
32.8
33.67
32.05
28.67
24.18
19.15
14.21
10.23
8.05
8.13
10.13
12.94
15.19
15.9
14.99
13.25
11.84
11.59
12.68
14.59
16.65
18.39
19.73
20.98
22.62
24.97
27.87
30.44
31.26
28.86
22.5
12.76
1.59
-8.48
-15.42
-18.68
-19.2
-18.7
-18.54
-18.98
-19.27
-18.48
-16.3
-13.33
-10.68
-9.17
-8.81
-8.9
-8.62
-7.54
-5.88
-4.25
-3.08
-2.19
-0.82
2.14
7.52
15.33
24.43
32.65
37.45
36.94
30.77
20.42
8.61
-1.84
-9.25
-13.54
-15.8
-17.2
-18.13
-18.05
-16.28
-12.9
-9.18
-6.98
-7.61
-10.92
-15.26
-18.45
-18.97
-16.62
-12.47
-7.96
-4.05
-0.78
2.39
6.14
10.75
15.89
20.65
23.82
24.19
21.01
14.39
5.45
-3.91
-11.63
-16.38
-17.93
-17.14
-15.24
-13.18
-11.27
-9.34
-7.26
-5.18
-3.52
-2.61
-2.45
-2.72
-3.05
-3.35
-3.76
-4.55
-5.81
-7.26
-8.3
-8.38
-7.14
-4.56
-0.94
3.3
7.87
12.67
17.75
23.04
28.02
31.66
32.63
29.91
23.39
14.12
4
-4.99
-11.49
-15.2
-16.64
-16.62
-15.79
-14.43
-12.71
-10.89
-9.29
-8.14
-7.29
-6.25
-4.57
-2.2
0.38
2.42
3.34
3.13
2.29
1.49
1.13
1.19
1.42
1.76
2.56
4.41
7.68
12.07
16.64
20.31
22.56
23.65
24.29
24.83
24.74
22.7
17.5
9.03
-1.24
-10.81
-17.42
-20.24
-20.1
-18.82
-17.92
-17.85
-18.07
-17.78
-16.76
-15.48
-14.64
-14.49
-14.6
-14.22
-12.86
-10.58
-7.89
-5.19
-2.39
1.03
5.69
11.69
18.45
24.76
29.23
30.73
28.72
23.42
15.73
6.98
-1.44
-8.42
-13.35
-16.04
-16.64
-15.51
-13.11
-9.99
-6.75
-3.98
-2.08
-1.13
-0.97
-1.26
-1.72
-2.15
-2.5
-2.77
-2.98
-3.01
-2.56
-1.13
1.78
6.28
11.62
16.26
18.29
16.41
10.7
2.65
-5.56
-12.12
-16.37
-18.74
-20.12
-20.98
-21.08
-19.84
-16.98
-13.04
-9.13
-6.26
-4.71
-3.92
-2.87
-0.88
2.05
5.38
8.49
11.16
13.7
16.66
20.28
24.08
26.89
27.32
24.4
18.19
9.86
1.2
-6.04
-10.89
-13.39
-14.24
-14.2
-13.62
-12.39
-10.29
-7.5
-4.75
-3.02
-2.91
-4.22
-5.95
-6.85
-6.06
-3.46
0.43
4.8
8.85
11.89
13.21
12.07
7.98
1.12
-7.39
-15.7
-21.88
-24.68
-24.07
-21.04
-17.05
-13.3
-10.38
-8.33
-6.97
-6.11
-5.63
-5.3
-4.62
-2.97
0.1
4.67
10.33
16.33
21.92
26.54
29.87
31.69
31.74
29.79
25.81
20.19
13.72
7.41
2.11
-1.8
-4.44
-6.23
-7.63
-8.79
-9.63
-9.92
-9.56
-8.67
-7.58
-6.59
-5.86
-5.31
-4.8
-4.22
-3.48
-2.51
-1.16
0.8
3.52
6.82
10.14
12.56
13.14
11.25
6.87
0.62
-6.39
-12.93
-17.92
-20.72
-21.16
-19.58
-16.74
-13.55
-10.92
-9.36
-8.77
-8.51
-7.58
-5.06
-0.54
5.68
12.59
18.79
22.91
24.07
22.2
18
12.65
7.36
3.04
0.03
-1.72
-2.5
-2.67
-2.57
-2.62
-3.25
-4.79
-7.12
-9.62
-11.16
-10.66
-7.6
-2.38
3.82
9.48
13.32
14.79
14.08
11.85
8.77
5.31
1.66
-2.1
-5.75
-8.8
-10.69
-10.91
-9.2
-5.64
-0.72
4.7
9.41
12.16
12.03
8.85
3.42
-2.7
-7.81
-10.75
-11.35
-10.3
-8.65
-7.22
-6.31
-5.85
-5.72
-5.98
-6.77
-8.02
-9.25
-9.59
-8.29
-5.06
-0.28
5.13
10.21
14.54
18.39
22.41
26.89
31.19
33.77
32.92
27.92
19.69
10.57
3.11
-1.24
-2.78
-3.04
-3.52
-4.54
-5.14
-3.87
-0.06
5.57
11.27
15.31
16.97
16.87
16.44
17.14
19.87
24.6
30.6
36.82
42.16
46
48.47
50.48
53.13
56.91
60.98
63.39
62.07
56.21
47.11
37.66
31.01
28.95
31.29
36.32
42
47.06
51.08
53.94
54.91
52.41
44.52
30.02
9.16
-16.08
-42.67
-67.38
-87.71
-102.58
-112.23
-118
-121.59
-124.55
-127.72
-131.18
-134.48
-137.03
-138.39
-138.33
-136.57
-132.46
-125.15
-114
-99.36
-83.05
-68.07
-57.57
-53.58
-56.08
-62.98
-70.93
-76.6
-77.69
-73.44
-64.54
-52.73
-40.29
-29.55
-22.34
-19.43
-20.23
-22.84
-24.71
-23.6
-18.29
-8.9
3.35
16.72
29.61
40.95
50.41
58.2
64.65
69.86
73.5
75.06
74.23
71.34
67.84
66.13
69.14
79.15
96.93
121.18
148.72
175.42
197.69
213.65
223.72
230.32
236.57
244.54
254.04
262.64
267.16
265.81
259.34
250.69
242.97
237.05
230.49
218.53
196.78
164.16
124.05
82.97
47.59
22
6.48
-1.61
-5.94
-9.58
-14.38
-21.51
-32.07
-47.09
-66.94
-90.85
-116.71
-141.61
-162.81
-178.51
-188.09
-191.79
-190.21
-183.91
-173.36
-159.16
-142.29
-124.11
-105.98
-88.86
-73.19
-58.98
-46.29
-35.58
-27.68
-23.33
-22.67
-24.79
-28.05
-30.68
-31.6
-30.74
-28.64
-25.59
-21.03
-13.58
-1.95
14.06
32.8
51.2
65.72
73.66
73.73
66.15
52.07
33.21
11.78
-9.3
-26.27
-35.03
-32.23
-16.76
9.31
41.01
72.26
98.43
118.48
135.27
153.69
177.5
206.53
236
258.38
266.99
259.12
237.16
207.08
175.27
145.69
118.75
92.27
63.52
31.06
-4.59
-41.57
-77.93
-112.75
-146.45
-180.47
-216.41
-255.36
-297.77
-343.93
-394.39
-449.77
-509.64
-571.12
-628.2
-672.74
-696.97
-696.39
-671.58
-627.89
-573.2
-514.95
-458.08
-404.52
-354.13
-306.11
-259.91
-215.31
-171.95
-129.08
-85.56
-40.25
7.57
57.73
108.89
158.54
203.55
241.03
269.24
287.9
297.81
299.89
294.52
281.59
261.34
235.45
207.34
181.46
161.65
149.67
144.54
143.14
141.63
136.97
127.91
115.03
100.31
86.21
74.64
66.27
60.4
55.4
49.69
42.63
34.8
27.42
21.22
15.69
9.2
-0.01
-12.52
-27.11
-41.17
-52.12
-58.76
-61.89
-63.78
-66.92
-72.78
-81.31
-91.31
-101.25
-109.93
-116.67
-121.1
-122.97
-122.2
-119.21
-115.05
-111.32
-109.56
-110.48
-113.56
-117.02
-118.43
-115.47
-106.85
-92.72
-74.52
-54.21
-33.22
-11.52
12.71
42.25
79.14
122.78
168.97
210.79
241.05
255.16
252.9
238.16
216.82
194.15
172.93
153.33
134.13
114.32
94.13
74.92
58.48
45.9
37.05
30.55
24.33
16.19
4.55
-10.73
-28
-43.71
-53.18
-51.73
-36.16
-5.91
36.5
85.99
136.11
180.69
215.13
237.06
246.28
244.07
232.3
212.6
186.12
153.61
115.85
74.26
31.14
-10.45
-47.29
-76.91
-98.12
-111.13
-117.01
-116.92
-111.42
-100.6
-84.78
-65.22
-44.66
-26.79
-15.14
-11.67
-15.9
-25.1
-35.23
-42.52
-44.65
-41.36
-34.24
-25.9
-19.1
-15.82
-16.85
-21.75
-29.06
-36.62
-42.02
-43.05
-38.13
-26.92
-10.67
7.76
24.39
35.25
37.71
31.55
19.3
5.44
-5.37
-10.1
-8.66
-3.68
1
2.32
-0.61
-6.41
-12.55
-17.09
-19.67
-21.44
-23.99
-28.09
-33.08
-37.28
-39.07
-37.89
-34.49
-30.37
-26.82
-24.18
-21.81
-18.61
-13.78
-7.39
-0.42
5.69
9.68
11.16
10.82
10.12
10.74
13.79
19.37
26.56
33.86
39.78
43.32
44.17
42.65
39.48
35.61
32.01
29.43
28.15
27.94
28.14
28.05
27.3
26.04
24.78
23.91
23.38
22.67
21.19
18.73
15.63
12.71
10.76
10.19
10.98
12.86
15.39
18.09
20.32
21.36
20.58
17.87
13.82
9.65
6.63
5.45
5.85
6.81
7.18
6.33
4.4
2.14
0.28
-0.98
-2.1
-3.84
-6.72
-10.58
-14.56
-17.59
-19.01
-18.98
-18.38
-18.26
-19.15
-20.69
-21.85
-21.55
-19.46
-16.3
-13.45
-12.14
-12.78
-14.73
-16.78
-17.83
-17.48
-16.08
-14.32
-12.74
-11.34
-9.76
-7.55
-4.62
-1.38
1.47
3.27
3.83
3.44
2.71
2.21
2.22
2.66
3.21
3.56
3.53
3.09
2.3
1.13
-0.45
-2.34
-4.23
-5.63
-5.97
-5
-2.85
-0.09
2.59
4.57
5.57
5.56
4.75
3.41
1.81
0.18
-1.29
-2.48
-3.42
-4.33
-5.55
-7.33
-9.58
-11.8
-13.26
-13.46
-12.49
-11.05
-10.18
-10.62
-12.38
-14.63
-16.12
-15.77
-13.23
-9.03
-4.17
0.35
4.02
6.92
9.51
12.18
15.05
17.86
20.23
21.94
23.07
23.91
24.76
25.61
26.15
25.9
24.58
22.37
19.93
18.14
17.69
18.73
20.83
23.14
24.84
25.38
24.7
23.17
21.28
19.47
18.01
17.06
16.7
16.98
17.76
18.65
18.97
17.91
14.87
9.78
3.24
-3.64
-9.66
-13.89
-16.01
-16.25
-15.24
-13.66
-12.05
-10.68
-9.53
-8.47
-7.41
-6.47
-5.92
-5.95
-6.46
-6.98
-6.85
-5.58
-3.26
-0.61
1.25
1.32
-0.77
-4.56
-8.89
-12.45
-14.23
-13.88
-11.73
-8.62
-5.5
-3.16
-1.98
-1.82
-2.18
-2.4
-1.91
-0.51
1.61
3.97
5.95
7.09
7.24
6.56
5.52
4.7
4.62
5.62
7.72
10.61
13.74
16.41
18.03
18.24
17.12
15.15
13.06
11.65
11.52
12.97
15.93
19.93
24.19
27.75
29.62
29.02
25.6
19.5
11.34
2.09
-7.22
-15.68
-22.6
-27.57
-30.48
-31.52
-31.23
-30.43
-29.96
-30.39
-31.69
-33.24
-34.04
-33.23
-30.56
-26.59
-22.45
-19.34
-17.94
-18.11
-19.11
-20.01
-20.26
-19.85
-19.21
-18.78
-18.73
-18.74
-18.31
-17.11
-15.29
-13.57
-12.82
-13.61
-15.85
-18.78
-21.32
-22.57
-22.21
-20.57
-18.44
-16.66
-15.91
-16.52
-18.55
-21.75
-25.65
-29.52
-32.5
-33.85
-33.16
-30.61
-26.91
-23.03
-19.81
-17.58
-16.16
-15.05
-13.89
-12.65
-11.64
-11.11
-10.98
-10.74
-9.68
-7.27
-3.44
1.36
6.5
11.4
15.85
19.92
23.78
27.43
30.62
32.94
33.96
33.41
31.22
27.57
22.84
17.56
12.26
7.37
3.13
-0.39
-3.18
-5.21
-6.36
-6.56
-5.83
-4.37
-2.55
-0.77
0.69
1.72
2.46
3.12
3.9
4.89
6.03
7.11
7.9
8.24
8.02
7.29
6.14
4.68
2.92
0.78
-1.82
-4.83
-7.97
-10.73
-12.66
-13.53
-13.48
-12.9
-12.08
-11.04
-9.42
-6.83
-3.11
1.34
5.77
9.41
11.89
13.45
14.72
16.27
18.22
20.09
21.12
20.73
18.93
16.34
13.97
12.74
13.07
14.73
17.05
19.21
20.63
21.13
20.85
20
18.68
16.73
13.93
10.22
5.98
2.05
-0.57
-1.2
0.09
2.39
4.37
4.87
3.51
0.89
-1.8
-3.44
-3.63
-2.95
-2.53
-3.5
-6.25
-10.25
-14.19
-16.56
-16.35
-13.4
-8.48
-2.94
1.87
5.17
6.88
7.56
7.97
8.65
9.66
10.68
11.15
10.66
9.11
6.8
4.32
2.24
0.91
0.31
0.08
-0.24
-0.95
-1.87
-2.53
-2.36
-1.15
0.76
2.64
3.8
3.97
3.51
3.1
3.26
3.97
4.63
4.47
3.06
0.6
-2.18
-4.45
-5.72
-6.14
-6.32
-7
-8.61
-11.07
-13.95
-16.77
-19.26
-21.5
-23.59
-25.45
-26.61
-26.47
-24.64
-21.29
-17.22
-13.44
-10.73
-9.2
-8.3
-7.21
-5.28
-2.45
0.77
3.6
5.39
5.88
5.32
4.25
3.33
3.05
3.54
4.58
5.7
6.37
6.3
5.57
4.57
3.79
3.55
3.77
4.05
3.85
2.87
1.24
-0.53
-1.83
-2.3
-1.98
-1.27
-0.64
-0.39
-0.51
-0.78
-1
-1.22
-1.8
-3.25
-5.89
-9.59
-13.67
-17.09
-18.9
-18.59
-16.23
-12.43
-8.03
-3.78
-0.18
2.58
4.55
5.92
6.9
7.69
8.41
9.03
9.4
9.31
8.66
7.58
6.43
5.62
5.3
5.32
5.21
4.5
3
0.98
-0.94
-2.07
-2.07
-1.16
-0
0.62
0.26
-0.96
-2.49
-3.72
-4.43
-4.94
-5.89
-7.8
-10.67
-13.86
-16.41
-17.6
-17.28
-15.91
-14.13
-12.27
-10.21
-7.5
-3.75
0.89
5.76
9.93
12.71
13.99
14.33
14.61
15.55
17.29
19.35
20.9
21.17
19.88
17.32
14.19
11.26
9.02
7.6
6.81
6.44
6.41
6.73
7.4
8.28
9
9.19
8.67
7.61
6.49
5.79
5.79
6.3
6.79
6.65
5.54
3.59
1.28
-0.76
-2.14
-2.84
-3.1
-3.28
-3.63
-4.34
-5.47
-7.01
-8.73
-10.14
-10.51
-9.18
-5.95
-1.3
3.62
7.54
9.62
9.92
9.29
8.89
9.49
11.05
12.77
13.67
13.21
11.63
9.9
9.13
9.93
12.06
14.57
16.26
16.35
14.79
12.21
9.62
7.91
7.49
8.17
9.36
10.31
10.43
9.51
7.67
5.27
2.69
0.22
-1.99
-3.89
-5.49
-6.85
-8.13
-9.5
-11.03
-12.54
-13.58
-13.63
-12.4
-10.1
-7.51
-5.74
-5.72
-7.77
-11.35
-15.19
-17.75
-17.85
-15.18
-10.37
-4.75
0.29
3.84
5.72
6.4
6.54
6.65
6.86
7.16
7.61
8.55
10.4
13.28
16.7
19.62
20.9
19.91
16.92
12.97
9.36
6.91
5.64
4.88
3.74
1.71
-1.05
-3.84
-5.83
-6.49
-5.81
-4.24
-2.45
-1.06
-0.47
-0.8
-1.96
-3.7
-5.65
-7.43
-8.77
-9.57
-9.94
-10.18
-10.76
-12.18
-14.75
-18.49
-22.92
-27.24
-30.57
-32.23
-31.98
-30.03
-26.89
-23.14
-19.29
-15.71
-12.64
-10.14
-8.14
-6.44
-4.77
-2.87
-0.52
2.3
5.49
8.85
12.12
14.99
17.08
18.06
17.7
15.98
13.23
9.99
6.97
4.78
3.83
4.2
5.57
7.39
9.06
10.1
10.38
10.11
9.71
9.63
10.14
11.18
12.48
13.58
14.06
13.71
12.56
10.81
8.76
6.69
4.7
2.86
1.18
-0.27
-1.33
-1.85
-1.78
-1.31
-0.81
-0.79
-1.67
-3.55
-6.02
-8.36
-9.81
-9.93
-8.82
-7.02
-5.17
-3.69
-2.49
-1.12
0.94
3.96
7.72
11.56
14.56
15.97
15.45
13.24
10.09
6.94
4.6
3.43
3.31
3.77
4.33
4.77
5.14
5.62
6.36
7.3
8.27
9.03
9.5
9.72
9.77
9.71
9.48
9.01
8.26
7.31
6.29
5.34
4.52
3.8
3.13
2.51
2
1.73
1.72
1.89
2.06
1.96
1.34
0.04
-2.01
-4.76
-8
-11.34
-14.29
-16.29
-16.91
-15.98
-13.69
-10.61
-7.45
-4.85
-3.18
-2.44
-2.32
-2.39
-2.18
-1.38
0.11
2.22
4.69
7.17
9.29
10.7
11.2
10.75
9.56
8.03
6.65
5.83
5.8
6.52
7.68
8.79
9.38
9.14
8.08
6.51
4.94
3.88
3.64
4.24
5.4
6.71
7.77
8.36
8.47
8.25
7.84
7.3
6.43
4.98
2.75
-0.14
-3.2
-5.72
-7.07
-7.07
-6.19
-5.35
-5.45
-6.9
-9.37
-12.05
-14.11
-15.14
-15.35
-15.34
-15.68
-16.54
-17.62
-18.37
-18.43
-17.76
-16.71
-15.67
-14.84
-14.07
-13
-11.31
-9
-6.37
-3.99
-2.38
-1.81
-2.13
-2.93
-3.65
-3.88
-3.44
-2.41
-1.04
0.34
1.45
2.07
2.07
1.46
0.4
-0.69
-1.31
-0.98
0.5
2.9
5.57
7.72
8.76
8.56
7.5
6.17
5.1
4.4
3.84
3.05
1.84
0.33
-1.13
-2.14
-2.57
-2.58
-2.59
-3.08
-4.32
-6.23
-8.35
-10.03
-10.64
-9.88
-7.85
-5.02
-2.04
0.6
2.64
4.09
5.08
5.75
6.13
6.18
5.96
5.6
5.29
5.15
5.13
5.08
4.76
4.02
2.79
1.19
-0.58
-2.21
-3.46
-4.11
-4.13
-3.58
-2.64
-1.54
-0.45
0.51
1.32
1.95
2.4
2.71
2.93
3.2
3.65
4.35
5.17
5.85
6.06
5.58
4.39
2.65
0.6
-1.58
-3.72
-5.72
-7.45
-8.83
-9.93
-11.01
-12.43
-14.46
-17.03
-19.65
-21.53
-21.9
-20.39
-17.15
-12.81
-8.2
-3.92
-0.24
2.95
5.92
8.82
11.59
13.95
15.59
16.35
16.31
15.73
14.91
14.02
13.1
12.2
11.38
10.89
11
11.93
13.62
15.75
17.74
19.01
19.17
18.15
16.23
13.92
11.7
9.84
8.31
6.89
5.38
3.79
2.34
1.32
0.87
0.9
1.02
0.78
-0.19
-1.99
-4.46
-7.21
-9.8
-11.92
-13.48
-14.54
-15.2
-15.51
-15.37
-14.6
-13.18
-11.31
-9.4
-7.96
-7.28
-7.32
-7.7
-7.85
-7.34
-6.09
-4.39
-2.75
-1.63
-1.25
-1.49
-1.99
-2.43
-2.6
-2.57
-2.49
-2.49
-2.5
-2.3
-1.65
-0.53
0.83
1.97
2.5
2.3
1.58
0.73
0.17
0.09
0.39
0.77
0.84
0.31
-0.87
-2.52
-4.29
-5.74
-6.59
-6.77
-6.56
-6.44
-6.95
-8.31
-10.37
-12.62
-14.45
-15.44
-15.49
-14.8
-13.73
-12.55
-11.36
-10.03
-8.4
-6.36
-3.99
-1.5
0.84
2.78
4.25
5.28
5.99
6.51
6.85
6.97
6.77
6.22
5.42
4.49
3.65
3.06
2.86
3.11
3.8
4.85
6.07
7.2
8.01
8.35
8.19
7.64
6.84
5.95
5.1
4.4
3.96
3.81
3.91
4.15
4.32
4.23
3.77
2.97
1.93
0.75
-0.5
-1.79
-3.15
-4.59
-6.05
-7.44
-8.63
-9.47
-9.87
-9.79
-9.24
-8.21
-6.71
-4.79
-2.51
-0.07
2.25
4.17
5.48
6.15
6.34
6.32
6.31
6.41
6.48
6.4
6.07
5.6
5.25
5.29
5.92
7.07
8.53
9.92
10.87
11.12
10.58
9.38
7.83
6.34
5.26
4.74
4.68
4.8
4.8
4.52
3.99
3.38
2.84
2.33
1.68
0.65
-0.85
-2.75
-4.81
-6.8
-8.69
-10.6
-12.68
-14.89
-16.94
-18.35
-18.68
-17.76
-15.76
-13.1
-10.26
-7.63
-5.36
-3.43
-1.72
-0.08
1.59
3.31
4.98
6.43
7.46
7.98
8.03
7.8
7.49
7.25
7.02
6.69
6.13
5.38
4.65
4.29
4.58
5.62
7.21
8.91
10.23
10.82
10.56
9.64
8.42
7.28
6.44
5.9
5.42
4.73
3.62
2.08
0.27
-1.59
-3.25
-4.58
-5.59
-6.45
-7.32
-8.34
-9.5
-10.73
-11.95
-13.11
-14.19
-15.07
-15.53
-15.26
-14.03
-11.87
-9.15
-6.41
-4.19
-2.7
-1.79
-1.07
-0.15
1.08
2.47
3.71
4.63
5.24
5.72
6.23
6.8
7.24
7.3
6.88
6.12
5.43
5.23
5.78
7.01
8.56
9.96
10.77
10.76
9.92
8.42
6.54
4.64
3.08
2.15
1.99
2.51
3.44
4.42
5.05
5.06
4.33
2.91
0.97
-1.2
-3.27
-4.98
-6.22
-7.06
-7.78
-8.73
-10.2
-12.18
-14.31
-16.03
-16.79
-16.36
-14.9
-12.84
-10.66
-8.62
-6.71
-4.74
-2.55
-0.16
2.17
4.14
5.55
6.4
6.92
7.32
7.78
8.27
8.69
8.89
8.78
8.4
7.87
7.38
7.1
7.09
7.27
7.48
7.53
7.31
6.83
6.12
5.26
4.28
3.17
1.97
0.74
-0.4
-1.33
-2.05
-2.67
-3.37
-4.3
-5.41
-6.49
-7.28
-7.66
-7.75
-7.88
-8.38
-9.44
-11.02
-12.87
-14.64
-15.94
-16.42
-15.84
-14.09
-11.27
-7.72
-3.95
-0.46
2.41
4.59
6.21
7.51
8.6
9.53
10.24
10.73
11.08
11.43
11.85
12.32
12.72
12.87
12.73
12.35
11.93
11.66
11.68
12.01
12.56
13.2
13.77
14.12
14.1
13.62
12.72
11.57
10.48
9.7
9.42
9.58
10.03
10.58
11.13
11.69
12.32
13.07
13.86
14.49
14.72
14.36
13.47
12.31
11.21
10.28
9.2
7.35
4.07
-0.83
-6.86
-12.95
-17.95
-21.14
-22.53
-22.64
-22.01
-20.89
-19.15
-16.6
-13.4
-10.12
-7.49
-5.97
-5.44
-5.32
-4.88
-3.66
-1.7
0.62
2.78
4.48
5.75
6.89
8.17
9.71
11.18
11.98
11.4
9.17
5.7
2.08
-0.39
-0.85
0.66
3.37
6.3
9.01
11.88
15.62
20.48
25.69
29.65
30.9
29.15
25.58
22.08
19.97
19.03
17.53
13.34
5.26
-6.23
-19.26
-31.55
-41.43
-48.2
-51.68
-51.78
-48.4
-41.86
-33.35
-25
-19.08
-16.91
-17.94
-19.98
-20.23
-16.89
-10.15
-2.25
3.67
5.01
0.97
-7.26
-17.24
-26.44
-33.23
-37.14
-38.61
-38.3
-36.61
-33.66
-29.54
-24.76
-20.21
-16.92
-15.5
-15.93
-17.47
-19.14
-20.19
-20.41
-20.09
-19.61
-19.04
-17.94
-15.66
-11.76
-6.49
-0.74
4.31
7.81
9.6
10.17
10.25
10.34
10.45
10.2
9.21
7.41
5.11
2.75
0.65
-1.14
-2.71
-3.99
-4.53
-3.48
0.01
6.39
15.37
25.95
36.72
46.34
53.92
59.15
62.18
63.35
62.96
61.18
58.04
53.63
48.17
42.04
35.67
29.29
22.88
16.08
8.36
-0.61
-10.77
-21.51
-31.9
-41.01
-48.32
-53.83
-57.97
-61.35
-64.53
-67.93
-71.76
-76.03
-80.5
-84.7
-88.1
-90.24
-91.01
-90.5
-88.84
-85.91
-81.3
-74.51
-65.43
-54.67
-43.66
-34.26
-28.14
-26.32
-28.92
-35.22
-43.77
-52.44
-58.58
-59.46
-53.11
-39.34
-20.23
0.27
17.8
29.28
34.16
34.38
33.04
32.75
34.36
37.04
39.28
40.39
41.19
43.83
50.69
63.1
80.67
101.41
122.68
142.28
159.1
173.08
184.64
193.9
200.37
203.17
201.6
195.87
187.16
177.28
167.75
159.03
150.22
139.37
124.46
104.47
80.13
53.86
28.96
8.27
-6.95
-17.3
-24.64
-30.88
-36.89
-42.11
-45.22
-45.18
-42.1
-37.43
-33.26
-31.46
-32.87
-37.27
-43.61
-50.72
-57.67
-63.97
-69.4
-73.79
-76.86
-78.23
-77.61
-74.94
-70.58
-65.17
-59.41
-53.84
-48.6
-43.5
-38.2
-32.46
-26.28
-19.94
-13.74
-7.88
-2.38
2.83
7.7
11.92
14.99
16.51
16.54
15.77
15.44
16.82
20.69
26.87
34.23
41.19
46.34
49.08
49.81
49.75
50.44
53.37
59.59
69.45
82.21
95.69
106.27
109.69
102.34
82.75
52.34
15.09
-23.94
-60.12
-90.31
-112.83
-126.7
-130.95
-124.6
-107.2
-79.52
-43.88
-4.05
35.41
69.82
95.12
108.63
109.52
98.79
78.83
52.52
22.36
-9.76
-42.22
-73.07
-99.8
-119.77
-131.41
-135.13
-133.64
-131.07
-131.48
-137.39
-148.83
-163.36
-176.67
-183.94
-181.37
-167.62
-144.36
-115.85
-87.37
-63.36
-46
-34.97
-28.34
-23.93
-20.32
-16.99
-13.82
-10.43
-5.92
0.78
10.24
22.07
35.07
47.81
59.15
68.59
76.01
81.47
84.88
86.07
84.89
81.41
75.96
68.98
60.96
52.38
43.72
35.55
28.57
23.46
20.68
20.16
21.2
22.62
23.11
21.72
18.15
12.86
6.81
1.07
-3.45
-6.19
-6.77
-4.94
-0.62
5.85
13.54
20.9
26.22
28.18
26.46
21.9
16.14
11
7.62
5.95
4.86
2.73
-1.68
-8.42
-16.19
-22.93
-26.76
-26.93
-24.15
-20.19
-16.99
-15.86
-17.1
-20.18
-24.16
-28.17
-31.44
-33.33
-33.39
-31.45
-27.91
-23.73
-20.19
-18.37
-18.61
-20.36
-22.45
-23.66
-23.33
-21.53
-18.96
-16.57
-15.16
-15.12
-16.39
-18.53
-20.8
-22.39
-22.6
-21.07
-17.92
-13.63
-8.81
-3.99
0.55
4.78
8.67
12.1
14.85
16.73
17.8
18.38
18.9
19.64
20.53
21.28
21.55
21.24
20.59
20.05
19.96
20.32
20.69
20.41
19.01
16.49
13.31
10.19
7.71
6.04
4.98
4.2
3.49
2.88
2.52
2.45
2.51
2.37
1.75
0.6
-0.81
-1.98
-2.4
-1.78
-0.24
1.8
3.64
4.62
4.32
2.82
0.6
-1.67
-3.46
-4.6
-5.27
-5.76
-6.25
-6.68
-6.81
-6.47
-5.65
-4.6
-3.65
-3.07
-2.89
-2.88
-2.72
-2.16
-1.18
-0
1.09
1.92
2.53
3.15
4
5.07
6.1
6.73
6.7
6.07
5.15
4.31
3.76
3.44
3.18
2.86
2.5
2.22
2.09
2.04
1.92
1.63
1.21
0.81
0.59
0.6
0.75
0.91
0.98
0.96
0.94
0.96
1
0.94
0.68
0.16
-0.59
-1.49
-2.47
-3.37
-3.97
-4.03
-3.29
-1.69
0.55
2.99
5.03
6.21
6.4
5.88
5.19
4.85
5.14
5.93
6.85
7.55
7.86
7.9
7.93
8.14
8.54
8.9
8.94
8.5
7.62
6.51
5.44
4.64
4.23
4.26
4.69
5.39
6.23
7.03
7.69
8.19
8.55
8.76
8.84
8.89
9.13
9.85
11.06
12.31
12.63
10.84
6.1
-1.46
-10.71
-19.82
-27.02
-31.25
-32.45
-31.23
-28.35
-24.26
-19.05
-12.82
-5.92
0.82
6.43
10.16
11.94
12.36
12.37
12.79
13.92
15.46
16.76
17.27
16.87
15.88
14.74
13.71
12.62
11.02
8.58
5.4
2.07
-0.61
-2.06
-2.24
-1.6
-0.76
-0.12
0.34
0.88
1.68
2.64
3.26
2.94
1.2
-2.01
-6.32
-11.04
-15.32
-18.42
-19.87
-19.57
-17.81
-15.16
-12.31
-9.89
-8.31
-7.71
-8.02
-8.97
-10.21
-11.32
-11.91
-11.7
-10.67
-9.02
-7.19
-5.63
-4.67
-4.34
-4.38
-4.36
-3.87
-2.66
-0.79
1.39
3.39
4.8
5.4
5.34
5.03
5
5.67
7.12
9
10.57
10.93
9.37
5.71
0.42
-5.46
-10.71
-14.38
-16.1
-16.16
-15.2
-13.83
-12.4
-10.87
-9.12
-7.14
-5.2
-3.76
-3.17
-3.47
-4.4
-5.51
-6.54
-7.57
-8.93
-10.99
-13.82
-17.11
-20.24
-22.57
-23.7
-23.57
-22.44
-20.67
-18.54
-16.17
-13.61
-10.91
-8.23
-5.74
-3.49
-1.38
0.75
3.02
5.29
7.22
8.43
8.74
8.37
7.8
7.61
8.09
9.18
10.46
11.53
12.16
12.41
12.49
12.53
12.39
11.78
10.4
8.18
5.38
2.48
-0.07
-1.95
-3.08
-3.56
-3.55
-3.22
-2.74
-2.25
-1.87
-1.66
-1.62
-1.68
-1.71
-1.58
-1.2
-0.6
0.08
0.66
0.99
1.08
1.13
1.47
2.37
3.9
5.86
7.81
9.24
9.78
9.3
8.01
6.33
4.74
3.59
3.04
3.06
3.53
4.3
5.22
6.19
7.01
7.46
7.34
6.6
5.47
4.38
3.8
3.96
4.74
5.71
6.37
6.45
5.98
5.26
4.69
4.54
4.87
5.5
6.09
6.3
5.92
4.94
3.52
1.98
0.6
-0.48
-1.23
-1.77
-2.23
-2.66
-3.08
-3.45
-3.76
-4.07
-4.46
-4.96
-5.46
-5.68
-5.27
-3.99
-1.79
1.04
4.02
6.6
8.34
9.07
8.98
8.46
7.97
7.84
8.13
8.68
9.23
9.58
9.66
9.51
9.19
8.63
7.66
6.12
4.06
1.85
0.19
-0.21
1.02
3.62
6.67
8.96
9.57
8.23
5.5
2.41
-0.1
-1.64
-2.42
-2.94
-3.6
-4.38
-4.9
-4.75
-3.83
-2.44
-1.09
-0.13
0.35
0.58
0.79
1.06
1.19
0.87
-0.12
-1.73
-3.58
-5.12
-5.84
-5.47
-4.09
-2.04
0.18
2.16
3.63
4.53
5
5.31
5.74
6.43
7.33
8.2
8.81
8.98
8.7
8.12
7.37
6.46
5.27
3.66
1.64
-0.52
-2.42
-3.69
-4.21
-4.2
-4.07
-4.17
-4.55
-4.88
-4.63
-3.32
-0.86
2.38
5.63
8.11
9.29
9.12
7.95
6.29
4.55
2.93
1.41
-0.06
-1.48
-2.76
-3.77
-4.54
-5.18
-5.86
-6.77
-8.01
-9.61
-11.53
-13.52
-15.21
-16.14
-16
-14.74
-12.67
-10.37
-8.35
-6.86
-5.81
-4.83
-3.6
-1.99
-0.19
1.38
2.32
2.41
1.73
0.62
-0.45
-1.14
-1.29
-1.07
-0.81
-0.83
-1.31
-2.18
-3.18
-4.06
-4.67
-5.02
-5.2
-5.32
-5.37
-5.29
-5
-4.45
-3.73
-3.07
-2.72
-2.88
-3.57
-4.63
-5.79
-6.81
-7.61
-8.26
-8.84
-9.43
-9.98
-10.39
-10.57
-10.54
-10.32
-10
-9.61
-9.09
-8.31
-7.18
-5.65
-3.82
-1.85
0.06
1.73
3.06
4.09
4.91
5.62
6.26
6.7
6.73
6.17
4.99
3.46
1.99
0.98
0.63
0.82
1.15
1.23
0.85
0.04
-1.1
-2.61
-4.72
-7.68
-11.43
-15.33
-18.36
-19.49
-18.25
-15.03
-10.87
-6.97
-4.14
-2.64
-2.31
-2.98
-4.75
-7.88
-12.5
-18.25
-24.27
-29.5
-33.2
-35.35
-36.69
-38.3
-41.02
-45.04
-49.77
-54.18
-57.26
-58.42
-57.65
-55.43
-52.48
-49.44
-46.69
-44.31
-42.29
-40.74
-39.92
-39.93
-40.28
-39.71
-36.47
-29.29
-18.24
-5.15
7.06
15.83
20.49
22.66
25.47
31.91
43.1
57.86
73.48
87.25
97.59
104.21
107.38
107.09
102.88
94.52
82.92
70.5
60.35
54.77
53.8
54.99
54.6
49.5
38.99
25.1
11.59
2.15
-1.06
2.05
9.88
20.01
29.72
36.53
38.58
35
26.29
14.48
2.45
-7.24
-13.57
-17.45
-21.09
-26.71
-35.07
-44.93
-53.47
-57.56
-54.89
-44.73
-27.85
-6.13
17.97
41.76
62.59
78.08
86.78
88.57
84.98
78.83
73.3
70.71
71.48
74.05
75.55
73.31
66.24
55.32
43.02
32.04
24.06
19.45
17.63
17.97
20.45
25.56
33.9
45.78
61.22
79.98
101.59
124.84
147.21
164.89
173.55
169.97
153.74
128.1
99.57
76.29
65.6
71.56
93.41
125.51
158.94
184.5
195.64
190.46
171.37
143.03
109.69
73.34
33.52
-11.27
-61.65
-116.18
-170.95
-220.44
-259.23
-283.84
-294.45
-295.7
-296.1
-305.45
-331.34
-375.59
-432.85
-492.2
-541.13
-570.3
-576.59
-563.26
-537.35
-506.08
-474.17
-443.29
-413.28
-383.97
-356.36
-332.29
-313.14
-298.49
-285.71
-270.9
-250.53
-222.93
-188.8
-150.84
-112.45
-76.24
-43.16
-12.34
18.3
50.99
87.22
127.37
170.96
217.09
264.64
312.1
357.11
396.37
426.21
443.79
448.29
441.31
426.41
407.63
388.14
369.4
351.28
332.85
313.22
292.17
270.15
248.07
227.01
207.97
191.73
178.7
168.81
161.55
156.18
151.96
148.26
144.58
140.43
135.38
129.43
123.47
119.39
119.52
125.44
136.59
149.59
158.9
158.53
144.28
115.19
73.83
25.52
-23.17
-65.92
-97.87
-116.41
-121.43
-115.06
-100.82
-82.51
-63.18
-44.71
-28.29
-15.3
-8.05
-9.69
-23.01
-48.68
-84.26
-124.24
-161.54
-189.72
-204.98
-207.08
-199.08
-185.57
-170.62
-156.22
-142.26
-127.67
-111.96
-96.25
-83
-74.65
-72.04
-73.58
-75.62
-73.88
-65.23
-48.89
-26.64
-1.83
22.09
42.76
59.38
72.48
83.39
93.31
102.55
110.38
115.17
115.35
110.54
102.33
94.21
90.44
94.06
104.99
119.21
129.57
128.53
111.36
78.49
35.59
-8.62
-45.8
-70.92
-83.43
-86.44
-84.47
-81.35
-78.94
-77.5
-76.76
-76.97
-79.34
-85.2
-94.84
-106.43
-116.11
-119.33
-113.02
-97.33
-75.96
-54.76
-39.1
-31.47
-30.75
-33.38
-35.69
-35.9
-34.68
-33.93
-35
-37.49
-39.26
-37.78
-31.82
-22.1
-10.87
-0.5
8
15.32
23.22
33.16
45.23
57.87
68.69
75.66
77.92
75.92
70.73
63.33
54.18
43.35
30.93
17.49
4.05
-7.99
-17.09
-21.83
-21.08
-14.47
-2.73
12.25
27.74
40.83
49.43
52.83
51.7
47.59
41.98
35.59
28.14
18.83
6.94
-7.41
-22.81
-36.89
-47
-51.06
-48.04
-38.21
-23.33
-6.48
8.13
16.02
13.72
0.26
-22.08
-48.2
-71.76
-87.31
-91.94
-85.81
-71.34
-51.68
-29.73
-7.77
12.22
28.06
37.6
39.42
33.66
22.29
8.53
-4.1
-12.99
-17.08
-16.5
-11.98
-4.05
7.1
21.3
37.96
55.77
72.92
87.74
99.28
107.59
113.42
117.7
120.87
122.51
121.48
116.63
107.46
94.63
80.06
66.03
54.17
44.77
36.78
28.69
19.75
10.78
3.91
1.45
4.41
11.59
19.75
24.89
23.95
16.01
2.38
-14.25
-31.2
-46.8
-60.71
-73.4
-85.37
-96.61
-106.56
-114.48
-119.99
-123.4
-125.8
-128.63
-133.29
-140.49
-149.62
-158.31
-162.68
-158.3
-141.79
-112.48
-73.13
-29.15
13.31
49.6
77.99
99.36
115.59
127.66
134.7
134.57
125.72
108.81
87.12
65.49
48.34
38.1
34.84
36.95
42.32
49.1
55.81
60.99
62.98
60.11
51.3
36.56
16.91
-5.9
-30
-53.95
-76.63
-96.75
-112.72
-122.72
-125.54
-121.41
-112.4
-101.93
-93.77
-90.8
-93.92
-101.99
-112.22
-121.06
-125.12
-121.86
-110.17
-90.61
-65.6
-38.9
-14.61
4.13
16.22
22.71
25.97
28.02
29.36
28.83
24.45
14.89
0.99
-13.97
-25.39
-29.15
-23.49
-9.71
8.44
26.51
40.97
50.27
54.72
55.62
54.56
53.08
52.96
56.48
66.11
83.77
109.84
142.84
179.56
216.1
248.93
275.38
293.86
303.73
305.36
300.25
291.04
281.04
273.14
268.58
266.2
262.8
254.33
237.65
211.8
178.2
139.9
100.34
62.1
26.34
-7.18
-39.65
-72.62
-107.25
-143.86
-181.82
-219.3
-253.5
-281.05
-298.87
-305.25
-300.63
-287.84
-271.84
-258.86
-255.11
-265.09
-289.95
-326.32
-366.43
-399.85
-416.36
-409.14
-376.77
-323.39
-257.1
-187.18
-121.66
-65.79
-21.87
10.11
31.53
44.39
50.71
51.82
48.15
39.75
26.81
10.55
-6.68
-22.11
-33.58
-40.28
-42.59
-41.31
-36.9
-29.34
-18.39
-4.05
13.48
34.24
59.03
89.21
125.81
168.14
213.07
255.5
290.05
313.08
323.93
324.8
319.23
310.36
299.68
286.73
269.97
247.82
219.5
185.53
147.14
105.39
60.53
11.85
-41.53
-99.37
-159.16
-215.84
-262.75
-293.57
-304.57
-295.92
-271.35
-236.58
-197.18
-157.07
-118.14
-81.25
-47.53
-19.03
1.66
12.64
13.97
8.14
-0.77
-8.6
-12.64
-12.34
-8.73
-3.34
2.66
8.66
14.21
18.2
19.16
15.65
7.21
-5.25
-19.88
-34.97
-49.87
-65.18
-82
-100.81
-120.67
-139.29
-153.68
-161.2
-160.13
-150.01
-131.61
-106.74
-77.81
-47.4
-17.77
9.33
32.69
51.35
64.53
71.73
73.09
69.78
63.94
58.08
54.38
53.83
56.2
60.63
66.37
73.45
82.69
95.03
110.79
129.12
147.94
164.55
176.41
182.1
181.74
176.94
170.21
164.11
160.35
159.21
159.34
158.21
153.15
142.47
126.25
106.22
85.17
65.68
49.21
35.7
23.8
11.66
-2.29
-18.45
-36.17
-54
-70.35
-84.14
-95.12
-104.18
-113.1
-124.13
-139.06
-158.5
-181.2
-204.08
-222.77
-232.7
-230.56
-215.39
-189
-155.38
-119.67
-86.52
-59.16
-38.94
-25.4
-16.79
-10.76
-5.12
1.43
8.81
15.74
20.01
19.23
11.91
-1.86
-19.96
-38.62
-53.59
-61.34
-60.3
-51.21
-36.59
-19.51
-2.29
14.3
31.02
49.36
70.42
94.06
118.58
141.25
159.26
170.36
173.51
168.95
157.95
142.49
124.67
106.25
88.3
71.11
54.29
37.12
18.98
-0.6
-21.64
-43.86
-66.87
-90.05
-112.4
-132.47
-148.65
-159.83
-166.01
-168.34
-168.58
-168.18
-167.52
-165.75
-161.33
-152.87
-139.74
-122.21
-101.02
-76.92
-50.43
-22.14
6.84
34.61
58.84
77.43
89.35
95.1
96.53
96.32
97.22
101.13
108.75
119.77
133.21
148.14
164.01
180.62
197.34
212.5
222.95
224.5
213.04
185.98
143.51
89.06
28.71
-30.29
-81.34
-120.07
-144.96
-157.07
-159.27
-155.02
-147.44
-138.83
-130.65
-123.82
-118.99
-116.58
-116.5
-117.88
-119.13
-118.32
-113.83
-104.9
-91.8
-75.5
-57.23
-37.86
-17.81
2.79
23.66
43.93
62.18
76.87
86.9
92.23
93.9
93.66
93.2
93.34
93.85
93.74
92.01
88.34
83.36
78.28
74.18
71.28
68.73
64.87
58.07
47.45
33.24
16.89
0.75
-12.52
-20.79
-23.31
-21.27
-17.59
-15.97
-19.42
-28.81
-42.54
-57.17
-68.95
-75.38
-75.98
-72.09
-65.85
-59.13
-53.01
-47.7
-43.01
-38.71
-34.58
-30.32
-25.76
-21
-16.76
-14.26
-14.93
-19.6
-27.88
-38.03
-47.4
-53.43
-54.45
-50.31
-42.15
-31.87
-21.42
-12.33
-5.49
-1.23
0.64
0.88
0.71
1.57
4.73
10.78
19.4
29.5
39.61
48.55
56.08
62.85
70.17
79.27
90.68
104.02
118.1
131.37
142.39
150.16
154.13
154.15
150.32
142.99
132.91
121.28
109.7
99.9
93.21
90.16
90.29
92.23
94.08
93.79
89.56
80.04
64.65
43.67
18.27
-9.46
-36.88
-61.29
-80.56
-93.75
-101.34
-105.01
-107.33
-110.83
-117.29
-127
-138.69
-149.79
-157.25
-158.71
-153.28
-141.86
-126.84
-111.51
-99.2
-92.38
-92.07
-97.47
-106.22
-115.15
-121.29
-122.8
-119.42
-112.27
-103.01
-93.26
-84.1
-76.01
-69.14
-63.34
-58.04
-52.26
-44.81
-34.99
-23.5
-12.46
-4.75
-2.44
-5.81
-12.9
-20.28
-24.4
-22.76
-14.47
0.15
20.06
44.1
70.9
98.57
124.48
145.65
159.43
164.45
161.1
151.25
137.56
122.64
108.35
95.55
84.36
74.49
65.57
57.39
49.9
42.92
36.36
30.08
23.98
18.08
12.47
7.22
2.36
-2.35
-7.24
-12.53
-18.23
-24.01
-29.36
-33.93
-37.67
-40.76
-43.42
-45.55
-46.62
-45.92
-42.9
-37.51
-30.35
-22.37
-14.58
-7.76
-2.38
1.44
3.65
4.38
4.02
2.9
1.36
-0.39
-2.46
-5.02
-8.23
-11.94
-15.65
-18.67
-20.42
-20.65
-19.53
-17.48
-14.77
-11.32
-6.77
-0.84
6.17
13.27
19.04
22.36
23.19
22.95
24.18
29.65
41.34
59.57
82.89
108.56
133.35
154.42
169.88
178.99
181.99
179.76
173.48
164.19
152.58
138.78
122.53
103.59
82.23
59.66
37.91
18.96
3.82
-8.06
-18.61
-30.16
-44.18
-60.63
-78.2
-95.09
-109.85
-121.91
-131.59
-139.86
-147.9
-156.72
-166.73
-177.58
-188.09
-196.46
-200.71
-199.19
-191.1
-176.52
-156.44
-132.54
-106.84
-81.63
-59.03
-40.59
-26.99
-18.16
-13.54
-12.67
-15.23
-20.75
-28.19
-36.04
-42.52
-46.19
-46.32
-42.72
-35.28
-23.48
-6.24
17.52
47.95
83.57
121.15
156.47
185.53
205.78
216.69
219.46
216.33
209.8
202
194.49
188.37
184.33
182.64
183.16
185.33
188.35
191.35
193.46
193.7
190.87
183.61
170.75
151.77
127.11
98.12
66.55
33.87
0.74
-33.12
-68.86
-108.1
-152.38
-202.46
-257.27
-313.49
-365.55
-406.71
-430.71
-433.54
-414.52
-376.45
-324.81
-266.41
-208.02
-155.12
-111.21
-77.56
-53.5
-37.21
-26.6
-19.91
-15.68
-12.61
-8.97
-3.01
6.19
18.01
30.19
39.73
44.32
43.52
38.77
32.39
26.03
19.8
12.57
3.2
-8.13
-19.25
-26.65
-26.81
-17.66
0.79
26.7
57.38
90.25
123.54
156.18
187.46
216.61
242.71
264.75
281.95
294.11
301.31
304.11
303.4
300.16
295.36
289.55
282.57
273.54
261.21
244.67
223.8
199.38
172.65
144.62
115.58
85.16
52.91
18.75
-16.66
-52.26
-87.31
-121.96
-157.48
-196.26
-241.28
-295.17
-358.63
-428.89
-499.01
-558.95
-598.31
-610.01
-592.91
-552.24
-497.16
-437.11
-378.49
-323.46
-271.02
-219.16
-166.61
-113.18
-59.14
-4.57
50.45
104.93
156.25
200.46
233.53
252.85
258.34
252.36
238.52
220.25
199.95
178.82
157.46
136.66
117.88
103.27
95.11
94.79
102.14
115.1
130.12
143.21
151.26
152.95
148.87
141.19
132.59
125.29
120.44
117.55
114.34
107.1
91.66
64.66
25.16
-24.4
-78.49
-129.87
-171.75
-199.61
-212.27
-211.73
-202.18
-188.54
-175.19
-165.02
-158.68
-154.55
-149.17
-138.81
-121.26
-97.35
-71.2
-48.76
-35.42
-33.49
-41.33
-53.89
-65.03
-69.92
-66.46
-55.27
-38.76
-19.85
-1.03
15.89
29.81
40.25
47.26
51.39
53.54
54.78
56.18
58.7
62.85
68.56
74.99
80.59
83.61
82.81
77.98
70.14
61.02
52.27
44.8
38.5
32.61
26.37
19.53
12.57
6.32
1.6
-1.32
-2.64
-2.86
-2.35
-1.12
1.04
4.33
8.48
12.7
15.89
17.17
16.24
13.57
10.09
6.79
4.49
3.6
4.29
6.48
9.85
13.63
16.74
18.02
16.57
12.17
5.38
-2.7
-10.88
-18.37
-25.15
-31.84
-39.42
-48.61
-59.44
-70.92
-81.24
-88.19
-89.93
-85.65
-76.05
-63.24
-50.29
-40.31
-35.57
-36.8
-43.01
-51.79
-60.15
-65.57
-66.93
-64.95
-62.04
-61.5
-66.35
-78
-95.44
-115.04
-131.44
-138.96
-133.17
-112.21
-77.32
-32.51
16.44
63.41
103.3
132.9
151.33
159.63
160.13
155.65
148.99
142.7
139.04
139.79
145.84
156.72
170.26
183.14
191.91
194.21
189.53
178.93
164.15
146.54
126.67
104.65
80.98
57.12
35.37
17.93
5.96
-1.02
-4.73
-7.21
-9.81
-12.73
-15.27
-16.63
-16.64
-15.93
-15.61
-16.6
-19.15
-22.72
-26.35
-29.15
-30.72
-31.21
-31.11
-30.95
-30.98
-31.16
-31.2
-30.86
-30.09
-29.08
-28.2
-27.83
-28.14
-29.01
-30
-30.41
-29.48
-26.55
-21.34
-14.12
-5.77
2.41
9.04
13.12
14.57
14.31
14.06
15.59
19.92
26.77
34.62
41.35
45.07
44.86
40.98
34.64
27.35
20.36
14.28
9.13
4.63
0.58
-2.97
-5.81
-7.81
-9.18
-10.4
-11.93
-13.85
-15.72
-16.89
-16.86
-15.81
-14.52
-13.94
-14.53
-15.93
-17.09
-16.89
-14.83
-11.36
-7.58
-4.7
-3.33
-3.28
-3.78
-4.05
-3.73
-3.06
-2.69
-3.24
-4.91
-7.27
-9.54
-10.9
-10.85
-9.26
-6.23
-1.96
3.37
9.45
15.62
20.68
23.08
21.45
15.22
5.17
-6.67
-17.63
-25.37
-28.71
-27.89
-24.18
-19.1
-13.8
-8.75
-3.94
0.68
4.85
8.09
9.94
10.3
9.49
8.09
6.59
5.23
4.09
3.24
3.03
4.23
7.78
14.4
24.09
35.78
47.42
56.56
61.08
59.85
53.03
41.85
28.2
14.08
1.23
-9.16
-16.6
-21.41
-24.63
-27.73
-32.01
-38.03
-45.32
-52.63
-58.58
-62.3
-63.73
-63.45
-62.24
-60.52
-58.28
-55.25
-51.21
-46.4
-41.88
-39.39
-40.82
-47.14
-57.41
-68.36
-75.14
-73.12
-60.07
-37.51
-10.51
14.2
30.83
36.65
32.58
22.22
10.09
-0.1
-6.2
-7.67
-5.11
0.23
6.72
12.55
16.03
16.07
12.49
6.42
0.02
-4.17
-4.18
0.61
9.14
19.02
27.47
32.34
32.87
29.85
25.15
20.89
18.69
19.31
22.68
28.23
35.21
42.77
49.85
55.08
56.95
54.22
46.63
35.23
22.26
10.4
1.68
-3.34
-5.67
-7.26
-9.9
-14.25
-19.6
-24.34
-26.96
-26.95
-25.02
-22.76
-21.8
-23.11
-26.78
-32.21
-38.44
-44.34
-48.53
-49.41
-45.5
-36.07
-21.9
-5.5
9.5
19.62
22.92
19.79
12.69
5.05
-0.16
-1.43
1
5.58
10.32
13.61
14.75
14.11
12.8
12.1
12.84
15.11
18.32
21.6
24.25
26.04
27.13
27.78
28.14
28.24
28.21
28.55
30.11
33.72
39.68
47.39
55.46
62.24
66.58
68.26
67.88
66.4
64.4
61.81
58.01
52.38
44.86
36.24
27.9
21.2
16.94
14.96
14.35
13.93
12.67
9.97
5.56
-0.66
-8.66
-18.32
-29.32
-41.09
-52.9
-64.1
-74.24
-83.12
-90.69
-96.89
-101.48
-104.11
-104.48
-102.5
-98.36
-92.32
-84.59
-75.2
-64.16
-51.81
-39.05
-27.36
-18.47
-13.66
-13.2
-16.14
-20.69
-24.91
-27.38
-27.41
-25
-20.47
-14.35
-7.36
-0.47
5.3
9.23
11.36
12.57
14.24
17.5
22.63
28.8
34.46
38.11
39.09
37.8
35.44
33.34
32.43
32.94
34.53
36.59
38.61
40.35
41.87
43.37
45.01
46.68
47.91
47.88
45.61
40.23
31.42
19.53
5.67
-8.71
-22.2
-33.72
-42.67
-48.75
-51.92
-52.32
-50.36
-46.64
-41.91
-36.83
-31.87
-27.27
-23.14
-19.54
-16.59
-14.33
-12.74
-11.6
-10.67
-9.68
-8.42
-6.74
-4.41
-1.07
3.79
10.62
19.52
29.81
39.99
47.89
51.36
49.11
41.42
30.16
18.04
7.49
-0.4
-6.14
-11.37
-17.79
-26.28
-36.52
-47.27
-57
-64.32
-68.15
-67.74
-62.71
-53.29
-40.6
-26.62
-13.81
-4.31
0.87
2.05
0.68
-1.47
-2.99
-3.3
-2.53
-1.17
0.44
2.34
4.89
8.48
13.15
18.35
23.09
26.3
27.33
26.24
23.77
20.89
18.38
16.56
15.36
14.56
14.18
14.46
15.78
18.24
21.61
25.25
28.39
30.31
30.48
28.49
24
16.66
6.32
-6.84
-22.1
-38.12
-53.18
-65.52
-73.73
-77
-75.18
-68.56
-57.76
-43.62
-27.33
-10.53
4.77
16.6
23.64
25.59
23.31
18.34
12.2
5.9
-0.27
-6.51
-12.96
-19.33
-24.72
-27.84
-27.46
-22.94
-14.58
-3.76
7.35
16.41
21.59
22.22
18.87
12.95
6.03
-0.72
-6.71
-11.59
-14.9
-15.8
-13.43
-7.43
1.63
12.19
22.28
30.3
35.66
38.85
41.03
43.26
46.01
49.02
51.53
52.76
52.28
50.14
46.76
42.7
38.37
33.99
29.71
25.64
21.9
18.49
15.29
12.12
8.93
5.96
3.65
2.44
2.51
3.6
5.24
6.94
8.51
9.99
11.48
12.83
13.68
13.64
12.64
11.08
9.66
9.01
9.22
9.87
10.23
9.71
8.1
5.77
3.3
1.28
0.01
-0.53
-0.54
-0.25
0.3
1.1
2.17
3.37
4.38
4.81
4.38
3.08
1.17
-0.91
-2.78
-4.28
-5.5
-6.75
-8.23
-10.02
-11.91
-13.63
-14.92
-15.69
-15.98
-15.9
-15.51
-14.84
-13.91
-12.85
-11.9
-11.3
-11.15
-11.36
-11.58
-11.41
-10.55
-8.93
-6.81
-4.64
-2.91
-1.97
-1.92
-2.61
-3.7
-4.79
-5.57
-5.85
-5.66
-5.19
-4.7
-4.39
-4.38
-4.58
-4.78
-4.71
-4.09
-2.86
-1.08
1.06
3.39
5.88
8.61
11.72
15.23
18.98
22.59
25.58
27.47
27.85
26.42
23.11
18.21
12.37
6.55
1.78
-1.17
-2.02
-1.02
1.17
3.8
6.28
8.31
9.96
11.56
13.54
16.25
19.68
23.47
26.94
29.32
30.14
29.41
27.62
25.44
23.34
21.36
19.22
16.66
13.77
11.24
9.97
10.7
13.35
16.96
19.92
20.66
18.33
13.03
5.62
-2.95
-12.11
-21.82
-32.16
-42.83
-52.78
-60.48
-64.68
-65.18
-63.14
-60.69
-60.1
-62.85
-69.22
-78.52
-89.66
-101.59
-113.49
-124.46
-133.19
-137.92
-136.95
-129.36
-115.61
-97.55
-77.82
-58.81
-41.89
-27.23
-14.26
-2.35
8.61
18.23
26.02
31.88
36.35
40.44
45.07
50.72
57.24
64
70.13
74.72
76.92
76.08
71.93
64.86
55.99
46.98
39.5
34.62
32.52
32.56
33.73
35.1
36.12
36.55
36.21
34.87
32.22
28.14
22.89
17.21
12.06
8.29
6.32
6.01
6.84
8.05
8.99
9.24
8.6
7.13
5.02
2.6
0.23
-1.69
-2.83
-3.06
-2.48
-1.43
-0.29
0.55
0.94
0.88
0.6
0.37
0.36
0.56
0.73
0.53
-0.29
-1.73
-3.47
-4.98
-5.77
-5.63
-4.73
-3.54
-2.49
-1.77
-1.24
-0.54
0.64
2.41
4.65
7.16
9.64
11.76
13.04
12.95
11.01
7.13
1.74
-4.12
-9.13
-12.15
-12.69
-11.15
-8.52
-6
-4.38
-3.82
-3.88
-3.94
-3.66
-3.19
-3.06
-3.85
-5.77
-8.47
-11.19
-13.11
-13.78
-13.27
-12.02
-10.64
-9.52
-8.83
-8.42
-7.99
-7.25
-5.97
-4.12
-1.85
0.4
2.01
2.31
0.91
-2.08
-5.93
-9.32
-10.9
-9.68
-5.45
1.12
8.44
14.31
16.38
12.95
3.9
-8.76
-21.09
-28.45
-27.28
-16.65
1.23
21.93
40.52
53.37
59.06
58.28
52.88
44.77
35.42
25.71
16.25
7.54
0.05
-5.93
-10.46
-14.04
-17.36
-20.91
-24.49
-27.17
-27.56
-24.66
-18.55
-10.62
-3.08
2.07
3.96
3.09
0.91
-1.14
-2.37
-2.94
-3.41
-4.09
-4.67
-4.4
-2.6
0.83
5.25
9.54
12.53
13.45
12.18
9.15
5.12
0.87
-3.03
-6.26
-8.67
-10.17
-10.63
-9.87
-7.87
-4.86
-1.43
1.57
3.3
3.3
1.68
-0.91
-3.5
-5.27
-5.81
-5.28
-4.2
-3.14
-2.5
-2.35
-2.52
-2.73
-2.81
-2.73
-2.51
-2.22
-1.88
-1.56
-1.39
-1.6
-2.39
-3.76
-5.47
-7.09
-8.3
-9
-9.44
-9.99
-10.98
-12.48
-14.34
-16.28
-18.11
-19.75
-21.21
-22.44
-23.31
-23.67
-23.48
-22.88
-22.23
-22.03
-22.7
-24.51
-27.35
-30.84
-34.34
-37.22
-39.06
-39.74
-39.5
-38.7
-37.63
-36.17
-33.88
-30.09
-24.17
-15.68
-4.37
9.8
26.66
45.6
65.45
84.43
100.56
112.22
118.63
120.11
117.7
112.66
105.92
97.9
88.67
78.32
67.23
56.05
45.48
36.08
28.13
21.65
16.45
12.22
8.6
5.26
2.04
-0.99
-3.59
-5.54
-6.81
-7.66
-8.54
-9.91
-12
-14.72
-17.73
-20.58
-22.96
-24.75
-26.03
-26.98
-27.72
-28.27
-28.55
-28.47
-28.07
-27.6
-27.45
-27.91
-29
-30.29
-31.04
-30.57
-28.53
-25.13
-21.02
-16.96
-13.52
-10.86
-8.74
-6.78
-4.71
-2.53
-0.39
1.51
3.17
4.77
6.53
8.52
10.46
11.82
12.06
10.97
8.77
6.05
3.41
1.2
-0.59
-2.06
-3.17
-3.51
-2.48
0.39
5.13
11.23
17.8
23.93
28.93
32.43
34.29
34.44
32.85
29.56
24.8
19
12.72
6.61
1.18
-3.23
-6.53
-8.84
-10.46
-11.75
-12.93
-14.09
-15.11
-15.85
-16.28
-16.53
-16.84
-17.42
-18.21
-18.92
-19.09
-18.35
-16.62
-14.17
-11.52
-9.23
-7.7
-7.13
-7.54
-8.81
-10.77
-13.13
-15.49
-17.38
-18.33
-18.1
-16.81
-14.91
-13.04
-11.73
-11.18
-11.24
-11.49
-11.51
-11
-9.87
-8.21
-6.23
-4.24
-2.61
-1.69
-1.65
-2.38
-3.48
-4.43
-4.79
-4.43
-3.64
-2.87
-2.51
-2.69
-3.2
-3.65
-3.67
-3.09
-1.98
-0.58
0.82
2.01
2.96
3.77
4.6
5.55
6.61
7.69
8.63
9.27
9.5
9.22
8.37
7.04
5.46
4.04
3.24
3.41
4.58
6.45
8.35
9.59
9.69
8.57
6.59
4.37
2.51
1.31
0.64
0.01
-1.14
-3.19
-6.1
-9.36
-12.23
-13.99
-14.24
-13.02
-10.8
-8.21
-5.91
-4.35
-3.71
-4.01
-5.17
-7.03
-9.37
-11.84
-14.03
-15.55
-16.24
-16.25
-15.93
-15.69
-15.72
-15.94
-16.1
-15.95
-15.42
-14.67
-13.86
-13.12
-12.39
-11.5
-10.25
-8.51
-6.24
-3.51
-0.46
2.71
5.87
9.04
12.46
16.5
21.45
27.24
33.36
38.93
42.97
44.81
44.22
41.48
37.12
31.75
25.92
20.03
14.35
9.13
4.58
0.94
-1.59
-2.88
-2.99
-2.24
-1.09
-0.09
0.35
0.1
-0.7
-1.74
-2.67
-3.35
-3.78
-4.08
-4.33
-4.49
-4.47
-4.15
-3.56
-2.88
-2.31
-2.04
-2.06
-2.21
-2.32
-2.29
-2.16
-2.08
-2.19
-2.52
-3
-3.54
-4.05
-4.46
-4.66
-4.45
-3.62
-2.03
0.23
2.76
4.95
6.19
6.07
4.57
2.15
-0.53
-2.75
-4.01
-4.24
-3.71
-2.94
-2.46
-2.58
-3.38
-4.75
-6.46
-8.27
-9.94
-11.28
-12.14
-12.4
-12.05
-11.13
-9.79
-8.3
-6.91
-5.82
-5.04
-4.24
-2.91
-0.5
3.29
8.26
13.75
18.79
22.39
23.92
23.21
20.66
16.99
13.12
9.83
7.56
6.32
5.77
5.43
5.03
4.63
4.59
5.33
7.03
9.49
12.18
14.51
16.05
16.55
15.87
13.95
10.72
6.37
1.41
-3.31
-6.86
-8.63
-8.59
-7.38
-5.97
-5.28
-5.75
-7.27
-9.37
-11.52
-13.5
-15.44
-17.68
-20.47
-23.69
-26.85
-29.2
-30.09
-29.22
-26.71
-23.1
-19.12
-15.57
-13.14
-12.26
-13
-15.01
-17.49
-19.5
-20.22
-19.35
-17.28
-15.03
-13.86
-14.8
-18.19
-23.54
-29.6
-34.59
-36.63
-34.11
-26.15
-12.93
4.13
22.51
39.14
51.08
56.45
54.89
47.64
37.05
25.67
15.49
7.58
2.21
-0.72
-1.31
0.37
4.11
9.19
14.37
18.1
19.19
17.2
12.66
6.89
1.36
-2.78
-4.97
-5.28
-4.16
-2.13
0.31
2.63
4.21
4.35
2.5
-1.32
-6.36
-11.13
-13.96
-13.63
-9.96
-3.92
2.71
8.08
10.83
10.54
7.7
3.42
-0.94
-4.22
-5.79
-5.7
-4.55
-3.13
-1.96
-1.04
-0.01
1.49
3.44
5.3
6.39
6.22
4.91
3.1
1.63
1.12
1.73
3.35
5.73
8.71
12.19
16.01
19.84
23.21
25.68
27.04
27.39
27
26.21
25.28
24.36
23.52
22.81
22.3
22.07
22.23
22.85
23.96
25.47
27.05
28.14
27.95
25.8
21.3
14.67
6.64
-1.84
-10.13
-18.29
-26.96
-36.91
-48.4
-60.65
-72.02
-80.46
-84.32
-82.92
-76.68
-66.81
-54.75
-41.65
-28.18
-14.69
-1.49
10.98
22.03
31.01
37.48
41.36
42.95
42.77
41.45
39.5
37.16
34.54
31.65
28.62
25.73
23.41
22.08
22.04
23.18
24.87
26.09
25.61
22.44
16.17
6.94
-4.82
-18.73
-34.61
-52.28
-71
-89.25
-104.83
-115.56
-120.18
-118.96
-113.55
-106.26
-99.05
-92.9
-87.58
-81.97
-74.49
-63.49
-47.47
-25.59
1.89
33.2
65.17
93.92
116.11
129.96
135.59
134.68
129.44
121.72
112.63
102.73
92.51
82.66
74.05
67.31
62.53
59.16
56.36
53.35
49.73
45.56
41.13
36.75
32.65
28.97
25.88
23.75
23.24
25.26
30.78
40.4
53.82
69.33
83.71
92.53
91.15
76.06
46.34
4.6
-43.13
-88.86
-124.79
-145.45
-148.9
-136.63
-112.5
-81.28
-47.41
-14.32
15.76
41.56
62.56
78.69
90.09
96.98
99.79
99.41
97.33
95.37
94.93
96.09
97.27
95.86
89.64
77.85
61.51
42.61
22.85
3.04
-16.64
-35.6
-52.15
-63.92
-69.08
-67.7
-61.8
-54.14
-46.38
-38.08
-27.26
-12.45
5.45
22.78
34.61
37.5
31.42
19.85
7.92
-0.1
-2.51
0.08
6.3
15.81
29.95
50.77
79.24
113.67
149.39
180.11
200.16
206.58
199.96
183.81
162.9
141.24
120.91
101.89
82.89
62.34
39.46
14.63
-10.66
-34.52
-55.39
-72.63
-86.93
-100.22
-115.07
-133.65
-156.42
-181.3
-203.8
-218.62
-222.04
-213.89
-198.17
-181.38
-169.79
-166.65
-170.97
-178.53
-184.24
-184.73
-179.74
-171.49
-162.85
-155.42
-148.59
-139.8
-125.66
-103.57
-73
-36.04
2.79
37.43
61.77
71.4
65.02
44.98
16.92
-11.94
-34.77
-47.23
-48.7
-42.29
-33.89
-30.43
-37.88
-59.5
-94.64
-138.46
-182.99
-219.18
-239.25
-238.77
-217.41
-178.25
-125.92
-64.92
0.98
67.9
130.85
183.47
219.48
235.27
231.98
215.53
194.17
174.79
160.11
148.22
134.86
116.8
94.39
71.72
54.59
47.42
51.04
62.3
75.47
84.5
84.87
74.67
54.44
26.58
-5.46
-38
-67.63
-91.7
-108.75
-118.67
-122.55
-122.14
-119.18
-114.77
-109.3
-102.78
-95.32
-87.35
-79.46
-71.74
-63.3
-52.36
-36.94
-16.02
9.65
37.39
63.25
83.13
93.81
93.68
82.9
63.21
37.57
9.58
-17.1
-39.48
-55.78
-65.73
-70.38
-71.51
-70.79
-69.15
-66.67
-62.87
-57.31
-49.89
-40.79
-30.05
-17.21
-1.44
17.82
40.05
63.17
83.81
98.52
105.01
103.09
94.48
81.8
67.24
51.68
34.76
15.69
-5.66
-28.22
-49.87
-68.3
-81.94
-90.44
-94.37
-94.62
-91.71
-85.58
-75.91
-62.65
-46.36
-28.1
-8.97
10.36
29.78
49.39
68.93
87.33
102.77
113.28
117.39
114.76
106.25
93.63
78.98
64.09
50.11
37.59
26.65
17.33
9.63
3.49
-1.46
-5.83
-10.29
-15.17
-20.14
-24.23
-26.24
-25.29
-21.15
-14.35
-5.81
3.56
13.15
22.5
31.05
37.92
42
42.28
38.22
29.92
18.18
4.23
-10.42
-24.33
-36.27
-45.53
-51.85
-55.37
-56.31
-54.68
-50.32
-43.21
-34.02
-24.37
-16.67
-13.27
-15.47
-22.83
-33.31
-44.05
-52.52
-57.44
-58.88
-57.83
-55.42
-52.28
-48.41
-43.25
-36.16
-26.66
-14.84
-1.49
11.89
23.39
31.27
34.52
33.25
28.44
21.28
12.54
2.24
-9.9
-23.82
-38.4
-51.62
-61.29
-66.09
-66.3
-63.7
-60.74
-59.39
-60.31
-62.71
-64.81
-64.72
-61.25
-54.31
-44.72
-33.61
-21.75
-9.09
5.02
21.24
39.44
58.24
75.27
87.93
94.28
93.75
87.09
75.79
61.57
45.82
29.7
14.39
1.41
-7.48
-10.59
-6.97
3.16
18.39
36.5
55.03
71.94
85.85
96.14
102.74
106.01
106.78
106.28
105.99
107.2
110.4
114.88
118.86
120.17
117.23
109.63
98.28
84.79
70.72
57.16
44.54
33.13
23.18
15.08
9.04
4.74
1.25
-2.57
-7.57
-13.77
-20.36
-26.13
-30.08
-31.91
-32.06
-31.32
-30.38
-29.59
-28.96
-28.56
-28.7
-29.98
-33.06
-38.28
-45.55
-54.38
-64.06
-73.75
-82.46
-88.89
-91.48
-88.73
-79.96
-65.91
-48.9
-32.19
-18.77
-10.11
-5.64
-3.27
-0.76
2.93
6.99
9.39
8.2
3.02
-4.58
-11.9
-16.58
-18.02
-17.57
-17.72
-20.46
-26.1
-33.09
-38.94
-41.62
-40.68
-37.27
-33.34
-30.46
-28.89
-27.59
-24.91
-19.69
-12.06
-3.45
4.11
9.06
11.23
11.92
13.28
17.16
24.03
32.61
40.45
45.12
45.48
42.25
37.68
34.32
33.73
35.72
38.48
39.51
36.9
30.15
20.32
9.38
-0.72
-8.77
-14.54
-18.41
-20.75
-21.59
-20.62
-17.51
-12.37
-5.82
1.14
7.6
12.96
17.1
20.13
22.24
23.51
23.99
23.81
23.28
22.74
22.4
22.09
21.25
19.17
15.43
10.29
4.76
0.23
-2.17
-2.15
-0.41
1.71
2.88
2.42
0.47
-2.31
-5.22
-7.8
-9.85
-11.18
-11.48
-10.66
-9.09
-7.77
-7.93
-10.28
-14.35
-18.6
-21.06
-20.4
-16.65
-11.15
-5.85
-2.42
-1.48
-2.65
-4.87
-6.92
-7.92
-7.47
-5.72
-3.23
-0.76
1.09
2.15
2.77
3.53
4.89
6.81
8.8
10.26
10.86
10.87
10.9
11.5
12.69
13.95
14.43
13.49
11
7.35
3.16
-1.09
-5.2
-9.09
-12.43
-14.38
-13.8
-9.87
-2.82
5.8
13.51
18.04
18.44
15.5
11.25
7.78
6.09
5.7
5.28
3.69
0.8
-2.39
-4.51
-4.7
-3.16
-0.95
0.61
0.74
-0.52
-2.42
-4.08
-5.03
-5.37
-5.7
-6.65
-8.41
-10.6
-12.39
-13.04
-12.29
-10.55
-8.57
-7.02
-6.05
-5.34
-4.31
-2.54
-0.07
2.66
4.98
6.28
6.19
4.71
2.34
-0.04
-1.3
-0.47
2.72
7.5
12.2
14.88
14.3
10.6
5.27
0.51
-2.01
-1.91
-0.29
1.01
0.48
-2.16
-5.8
-8.51
-8.61
-5.56
-0.25
5.48
9.69
11.3
10.37
7.86
4.98
2.46
0.34
-1.76
-4.13
-6.55
-8.32
-8.67
-7.3
-4.7
-1.92
-0.1
0.12
-1.21
-3.43
-5.77
-7.67
-9.02
-10.03
-10.9
-11.64
-11.94
-11.36
-9.54
-6.41
-2.34
1.99
5.77
8.39
9.64
9.78
9.41
9.13
9.25
9.56
9.51
8.53
6.48
3.84
1.62
0.8
1.81
4.18
6.78
8.35
8.13
6.19
3.18
-0.09
-3.14
-5.88
-8.41
-10.62
-12.16
-12.56
-11.59
-9.42
-6.47
-3.09
0.61
4.67
8.94
12.8
15.21
15.22
12.52
7.66
1.86
-3.52
-7.44
-9.38
-9.17
-6.93
-2.93
2.13
7.19
11.06
12.83
12.3
10.09
7.18
4.45
2.31
0.63
-0.95
-2.71
-4.74
-6.87
-8.81
-10.18
-10.66
-10.05
-8.49
-6.48
-4.76
-3.94
-4.17
-4.99
-5.6
-5.31
-3.99
-2.1
-0.43
0.38
0.24
-0.4
-0.87
-0.61
0.44
1.9
3.05
3.18
1.86
-0.92
-4.73
-8.88
-12.56
-15.14
-16.22
-15.58
-13.15
-9.01
-3.57
2.23
7
9.28
8.18
3.94
-2.11
-8.11
-12.59
-15.14
-16.29
-16.98
-17.64
-17.89
-16.77
-13.61
-8.59
-2.94
1.7
4.1
4.04
2.45
0.91
0.95
3.54
8.88
16.55
25.74
35.51
44.96
53.26
59.73
63.85
65.31
64.02
60.08
53.69
45.12
34.71
22.94
10.49
-1.82
-13.34
-23.87
-33.94
-44.55
-56.53
-69.81
-82.88
-93.2
-98.19
-96.67
-89.73
-80.48
-72.7
-68.88
-68.79
-69.57
-67.26
-59.16
-45.57
-29.99
-17.5
-12.23
-15.12
-23.19
-30.57
-30.91
-19.94
2.69
32.8
62.5
82.38
84.58
65.91
29.97
-13.31
-50.49
-69.07
-61.65
-28.71
21.72
76.94
124.15
155.14
169.27
173.58
179.71
198.62
235.4
286.69
341.97
388.36
416.35
423.41
413.74
394.49
371.28
345.75
316.33
281.15
240.86
199.15
160.9
129.21
103.45
79.2
50.69
13.69
-32.47
-84.9
-138.64
-189.09
-233.76
-272.49
-306.57
-337.28
-364.92
-388.4
-405.4
-412.69
-406.75
-384.79
-346.13
-293.58
-233.53
-174.47
-124.36
-87.59
-63.83
-48.97
-37.7
-25.9
-11.61
5.67
25.66
47.18
67.6
83.06
90.23
88.8
82.61
78.22
81.14
92.11
105.88
113.63
107.54
84.82
48.99
7.76
-30.46
-59.6
-77.26
-84.34
-83.98
-80.78
-79.84
-85.39
-99.54
-121.46
-147.83
-174.02
-195.69
-209.75
-215.02
-212.33
-204.22
-194.26
-185.78
-180.37
-177
-172.36
-162.74
-146.26
-124.07
-99.58
-76.27
-55.32
-34.95
-11.87
16.01
47.42
77.69
100.87
112.5
111.47
99.88
81.47
59.8
37.41
16.12
-2.27
-15.73
-22.66
-22.96
-18.57
-12.89
-9.19
-9.15
-12.23
-16.3
-19.03
-19.11
-16.5
-11.97
-6.19
0.7
8.95
18.56
28.83
38.27
45.18
48.38
47.85
44.61
40.25
36.05
32.34
28.54
23.67
17.32
10.23
4.2
0.82
0.05
-0.45
-4.58
-15.67
-33.96
-55.5
-73.03
-78.59
-66.44
-34.8
13.82
73.58
136.55
193.97
237.19
258.78
254.04
222.77
170.4
107.74
48.87
7.44
-7.42
6.01
41.43
86.69
128.04
154.63
161.69
151.03
128.92
102.84
78.49
58.61
43.33
31.17
20.06
8.01
-6.46
-23.89
-43.78
-64.24
-82.34
-94.74
-99.35
-96.66
-90.78
-89.14
-100.58
-132.1
-185.33
-254.86
-328.47
-391.75
-433.15
-447.98
-439.21
-415.06
-384.74
-354.83
-327.91
-301.94
-273.76
-240.99
-202.77
-159.43
-111.68
-60.11
-5.22
51.91
111.62
173.51
236.52
299.46
361.69
423.77
487.4
554.12
623.27
693.36
759.04
812.93
848.35
862.08
855.67
834.76
806.51
759.87
687.17
584.53
455.82
313.03
171.69
44.75
-61.09
-145.2
-210.53
-258.26
-289.53
-305.61
-308.59
-302.05
-290.61
-278.92
-271.15
-270.13
-274.87
-282.85
-290.36
-293.39
-288.75
-275.09
-253.39
-227.09
-200.82
-177.63
-159.06
-144.8
-133.56
-124.4
-117.57
-113.26
-112.33
-115
-119.7
-124.01
-125.49
-122.68
-115.57
-105.36
-93.81
-82.6
-72.7
-64.01
-55.85
-47.31
-37.72
-26.89
-15.12
-3
8.79
19.91
30.41
40.58
50.58
60.21
68.81
75.45
79.34
80.04
77.77
73.25
67.51
61.48
55.78
50.63
45.89
41.32
36.63
31.82
27.05
22.65
18.9
15.97
13.86
12.44
11.57
11.11
10.93
10.91
10.92
10.87
10.74
10.58
10.44
10.32
10.06
9.49
8.45
6.92
5.02
2.93
0.79
-1.31
-3.39
-5.45
-7.52
-9.62
-11.75
-13.94
-16.18
-18.44
-20.54
-22.28
-23.48
-24.12
-24.36
-24.52
-24.91
-25.71
-26.85
-28.08
-29.07
-29.52
-29.27
-28.28
-26.59
-24.24
-21.26
-17.7
-13.71
-9.48
-5.29
-1.41
1.95
4.68
6.72
8.08
8.77
8.8
8.14
6.9
5.35
3.92
3.14
3.44
4.97
7.5
10.59
13.74
16.56
18.97
21.04
22.88
24.53
25.9
26.86
27.25
26.93
25.71
23.38
19.75
14.81
8.81
2.31
-4.05
-9.76
-14.6
-18.7
-22.38
-25.97
-29.66
-33.41
-37.04
-40.26
-42.79
-44.42
-45.07
-44.85
-43.96
-42.66
-41.19
-39.75
-38.63
-38.17
-38.76
-40.66
-43.75
-47.43
-50.78
-52.86
-53.17
-51.74
-49.06
-45.68
-41.87
-37.52
-32.54
-27.21
-22.49
-19.8
-20.38
-24.65
-31.86
-40.31
-48.08
-53.79
-57.19
-59.1
-60.86
-63.71
-68.18
-74.02
-80.44
-86.55
-91.71
-95.6
-98.04
-98.73
-97.1
-92.46
-84.35
-72.95
-59.16
-44.38
-30.01
-16.96
-5.49
4.64
13.84
22.45
30.53
38.07
45.18
52.04
58.87
65.61
71.9
77.17
81.12
83.92
86.44
89.9
95.25
102.52
110.54
117.32
120.9
120.27
115.48
107.71
98.56
89.35
80.64
72.26
63.87
55.38
47.42
40.33
34.33
29.33
24.96
20.8
16.6
12.5
8.86
6.5
4.98
3.45
0.96
-3.08
-8.64
-15.06
-21.31
-26.54
-29.82
-32.43
-36.58
-44.6
-58.04
-77.05
-100.54
-126.72
-154.02
-174.27
-181.69
-173.49
-151.19
-120.03
-86.53
-56.17
-32.03
-18.23
-11.67
-8.75
-5.92
-0.57
8.37
20.28
33.13
45.71
55.78
62.36
64.07
60.49
52.36
41.47
30.28
21.28
16.24
15.49
18.61
23.35
27.17
28.28
26.24
21.96
17.12
13.37
11.51
11.89
13.68
15.63
16.57
15.76
13
8.61
3.24
-2.4
-7.32
-10.87
-12.67
-12.71
-11.38
-9.36
-7.32
-5.74
-4.75
-4
-3.01
-1.39
0.91
3.62
6.23
8.2
9.19
9.2
8.57
7.87
7.64
8.21
9.58
11.44
13.38
15.04
16.21
16.78
16.67
15.69
13.62
10.31
5.93
0.92
-4.14
-8.78
-12.84
-16.48
-19.93
-23.28
-26.25
-28.37
-29.18
-28.68
-27.37
-26.22
-26.19
-27.76
-30.67
-33.95
-36.35
-36.87
-35.2
-31.75
-27.46
-23.21
-19.37
-15.6
-11.02
-4.72
3.65
13.56
23.71
32.5
38.75
42.16
43.31
43.18
42.62
41.88
40.62
38.36
34.94
30.77
26.67
23.46
21.6
21.03
21.33
21.99
22.61
22.91
22.67
21.67
19.79
17.14
14.12
11.29
9.16
7.94
7.5
7.44
7.37
7.05
6.47
5.77
5.13
4.73
4.7
5.1
5.86
6.74
7.36
7.34
6.51
5.01
3.29
1.94
1.41
1.79
2.88
4.31
5.83
7.37
9.05
10.91
12.87
14.62
15.82
16.26
15.94
15
13.62
11.84
9.58
6.71
3.14
-1.06
-5.65
-10.3
-14.6
-18.21
-20.86
-22.51
-23.31
-23.57
-23.55
-23.38
-22.94
-21.96
-20.25
-17.88
-15.17
-12.51
-10.05
-7.57
-4.47
-0.12
5.72
12.69
19.78
25.69
29.35
30.24
28.56
25.1
20.89
16.82
13.47
11.04
9.51
8.78
8.79
9.5
10.79
12.3
13.53
13.88
12.92
10.5
6.8
2.23
-2.77
-7.78
-12.48
-16.58
-19.88
-22.23
-23.55
-23.84
-23.02
-21
-17.7
-13.33
-8.54
-4.38
-2.07
-2.39
-5.37
-10.06
-14.93
-18.41
-19.51
-18.03
-14.5
-9.76
-4.65
0.25
4.62
8.29
11.2
13.32
14.77
15.8
16.65
17.5
18.3
18.87
19.03
18.72
18.08
17.36
16.82
16.55
16.48
16.49
16.47
16.36
16.17
15.87
15.38
14.59
13.48
12.17
10.94
10.14
9.98
10.43
11.17
11.66
11.38
9.98
7.49
4.2
0.6
-2.93
-6.18
-9.13
-11.85
-14.32
-16.43
-17.97
-18.81
-18.89
-18.28
-17.05
-15.25
-12.9
-10.04
-6.73
-3.18
0.4
3.74
6.61
8.83
10.31
11.08
11.29
11.15
10.89
10.7
10.7
10.97
11.55
12.51
13.8
15.28
16.63
17.47
17.54
16.79
15.47
13.98
12.7
11.81
11.24
10.72
9.97
8.81
7.2
5.26
3.17
1.06
-0.98
-2.88
-4.59
-6.1
-7.44
-8.78
-10.38
-12.56
-15.52
-19.27
-23.58
-28.04
-32.16
-35.53
-37.81
-38.78
-38.33
-36.45
-33.19
-28.61
-22.68
-15.3
-6.48
3.54
14.09
24.1
32.32
37.8
40.25
40.23
38.94
37.73
37.47
38.28
39.55
40.31
39.94
38.57
37.28
37.66
41.12
48.05
57.54
67.55
75.72
80.3
80.86
78.38
74.67
71.59
70.34
71.18
73.65
76.93
80.05
81.95
81.59
78.18
71.6
62.63
52.84
43.78
35.97
28.19
17.64
1.2
-22.68
-52.52
-83.64
-109.67
-124.97
-126.87
-116.59
-98.35
-77.33
-57.61
-41.12
-27.89
-17.2
-8.57
-2.11
1.93
3.93
5.13
7.25
11.62
18.55
27.1
35.68
42.75
47.5
49.93
50.64
50.43
49.89
49.31
48.67
47.75
46.13
43.33
38.91
32.73
25.14
17.03
9.47
3.22
-1.7
-5.96
-10.45
-15.71
-21.56
-27.27
-32.13
-35.89
-38.96
-41.99
-45.38
-48.89
-51.8
-53.41
-53.42
-52.11
-50.01
-47.51
-44.63
-41.24
-37.35
-33.31
-29.72
-27.04
-25.25
-23.88
-22.25
-20
-17.33
-14.93
-13.63
-13.9
-15.69
-18.53
-21.86
-25.36
-29.03
-32.95
-37.06
-40.96
-44.05
-45.79
-45.92
-44.55
-42.04
-38.79
-35.11
-31.2
-27.26
-23.51
-20.22
-17.51
-15.2
-12.9
-10.17
-6.85
-3.25
-0.07
1.95
2.3
0.99
-1.57
-4.82
-8.31
-11.86
-15.35
-18.62
-21.26
-22.79
-22.83
-21.35
-18.7
-15.38
-11.79
-8.07
-4.07
0.5
5.79
11.71
17.85
23.58
28.27
31.39
32.76
32.63
31.64
30.59
30.09
30.2
30.32
29.45
26.68
21.72
15.2
8.47
3.05
-0.01
-0.58
0.54
2.12
3.04
2.78
1.5
-0.24
-1.9
-3.3
-4.58
-6.12
-8.16
-10.71
-13.54
-16.36
-18.92
-21.06
-22.67
-23.62
-23.71
-22.75
-20.64
-17.38
-13.1
-8.08
-2.69
2.57
7.11
10.3
11.5
10.24
6.38
0.32
-6.96
-14.02
-19.29
-21.57
-20.43
-16.35
-10.54
-4.46
0.61
3.93
5.29
4.88
3.12
0.51
-2.39
-4.98
-6.72
-7.26
-6.53
-4.67
-2.01
1.13
4.53
8.08
11.79
15.58
19.35
22.89
25.92
28.16
29.36
29.43
28.52
27.05
25.7
25.17
25.87
27.68
29.88
31.34
31.06
28.61
24.38
19.33
14.51
10.4
6.63
2.24
-3.83
-12.06
-21.98
-32.28
-41.29
-47.57
-50.33
-49.55
-45.79
-39.91
-32.75
-25.1
-17.65
-11.03
-5.82
-2.4
-0.81
-0.64
-1.14
-1.46
-0.97
0.45
2.33
3.9
4.47
3.86
2.46
1.1
0.66
1.63
3.89
6.82
9.57
11.51
12.57
13.21
14.16
15.93
18.47
21.11
22.8
22.6
19.96
14.95
8.13
0.37
-7.36
-14.11
-19.07
-21.71
-21.99
-20.52
-18.31
-16.51
-15.92
-16.68
-18.39
-20.47
-22.47
-24.29
-26
-27.63
-28.96
-29.55
-28.96
-27
-23.78
-19.68
-15.11
-10.41
-5.72
-1.06
3.66
8.54
13.69
19.18
24.88
30.41
35
37.69
37.52
33.89
26.86
17.25
6.6
-3.2
-10.34
-13.6
-12.72
-8.44
-2.32
3.78
8.28
10.31
9.87
7.7
4.89
2.41
0.85
0.33
0.58
1.15
1.53
1.25
-0.12
-2.88
-7.04
-12.23
-17.61
-22.08
-24.66
-24.9
-23.03
-19.86
-16.44
-13.59
-11.56
-10.08
-8.53
-6.26
-2.89
1.64
7.05
12.92
18.83
24.39
29.42
33.79
37.46
40.34
42.24
42.79
41.44
37.67
31.17
22.1
11.19
-0.2
-10.45
-18.03
-21.97
-22.15
-19.35
-14.95
-10.44
-6.91
-4.76
-3.75
-3.28
-2.84
-2.39
-2.27
-3.01
-4.77
-7.1
-8.92
-9
-6.52
-1.64
4.5
10.1
13.38
13.22
9.5
3.08
-4.54
-11.82
-17.59
-21.33
-23.17
-23.6
-23.21
-22.43
-21.44
-20.22
-18.66
-16.74
-14.56
-12.26
-9.96
-7.62
-5.05
-2.07
1.33
4.86
7.99
10.11
10.82
10.11
8.43
6.51
5.07
4.59
5.12
6.38
7.91
9.3
10.44
11.53
13.1
15.68
19.59
24.61
29.92
34.16
35.75
33.35
26.35
15.21
1.53
-12.29
-23.68
-30.69
-32.6
-30.08
-24.89
-19.24
-15.02
-13.33
-14.26
-17.08
-20.64
-23.79
-25.77
-26.37
-25.9
-25.02
-24.4
-24.52
-25.44
-26.87
-28.24
-28.89
-28.15
-25.47
-20.52
-13.34
-4.49
4.91
13.34
19.26
21.57
19.94
15.03
8.3
1.52
-3.7
-6.47
-6.77
-5.28
-3.01
-0.88
0.63
1.46
1.84
2.08
2.33
2.58
2.71
2.61
2.24
1.73
1.25
0.99
1.04
1.35
1.74
1.93
1.7
0.99
-0.14
-1.55
-3.07
-4.64
-6.34
-8.23
-10.38
-12.72
-15.09
-17.29
-19.16
-20.65
-21.85
-22.93
-24.13
-25.58
-27.24
-28.86
-29.96
-29.98
-28.35
-24.66
-18.78
-10.89
-1.51
8.52
18.22
26.61
32.94
36.88
38.55
38.5
37.5
36.38
35.81
36.22
37.79
40.43
43.81
47.43
50.68
53.08
54.32
54.36
53.41
51.82
49.89
47.76
45.43
42.79
39.73
36.24
32.45
28.6
24.97
21.84
19.31
17.31
15.62
13.95
12.12
10.15
8.25
6.64
5.45
4.64
4.01
3.41
2.76
2.07
1.31
0.25
-1.51
-4.47
-9
-15.18
-22.69
-30.92
-39.06
-46.28
-51.77
-54.77
-54.66
-51.04
-43.93
-33.84
-21.8
-9.21
2.51
12.25
19.45
24.14
26.8
28.13
28.78
29.24
29.83
30.79
32.34
34.73
38.15
42.62
47.92
53.51
58.54
62.15
63.61
62.66
59.63
55.36
50.92
47.28
44.89
43.42
41.86
38.7
32.62
22.99
10.29
-4.04
-18.2
-30.76
-41.17
-49.82
-57.56
-65.03
-72.04
-77.56
-80.03
-78.06
-71.13
-60.03
-46.82
-34.34
-25.34
-21.53
-22.95
-27.77
-32.95
-35.28
-32.68
-24.97
-14.11
-3.48
3.16
2.85
-5.67
-21.62
-42.39
-64.15
-82.91
-95.47
-100.23
-97.54
-89.56
-79.63
-71.39
-67.69
-69.88
-77.31
-87.61
-97.25
-102.71
-101.57
-93.26
-79.24
-62.43
-46.27
-33.7
-26.48
-24.98
-28.42
-35.23
-43.39
-50.82
-55.81
-57.53
-56.44
-54.29
-53.69
-57.1
-65.87
-79.75
-96.71
-113.58
-126.84
-133.66
-132.74
-124.81
-112.6
-100.01
-90.67
-86.39
-86.05
-85.76
-80.21
-64.59
-36.26
4.66
55.57
112.34
170.22
224.48
270.93
306.45
329.44
340.06
339.94
331.55
317.38
299.45
279.28
258.13
237.35
218.06
200.85
185.32
170.28
154.35
136.6
116.87
95.6
73.48
51.32
30.07
11.01
-4.39
-15.02
-21.11
-24.65
-28.91
-36.84
-49.37
-64.51
-78.31
-87
-89.29
-87.14
-84.85
-86.8
-95.34
-110.14
-128.9
-148.89
-168.05
-185.17
-199.16
-208.21
-209.78
-201.48
-182.26
-153.39
-118.3
-81.63
-47.78
-19.5
2.69
20.18
35.28
50
65.16
80.07
93.01
102.04
105.73
103.68
96.41
85.02
70.7
54.45
37.08
19.46
2.77
-11.43
-21.57
-26.78
-27.4
-24.98
-21.69
-19.28
-18.44
-18.74
-19.27
-19.54
-19.94
-21.49
-25.01
-30.45
-36.7
-42.19
-45.81
-47.53
-48.19
-48.83
-49.78
-50.38
-49.28
-45.3
-38.24
-29.12
-19.86
-12.47
-8.42
-8.27
-12.04
-19.48
-30.4
-44.61
-61.63
-80.33
-98.9
-115.07
-126.52
-131.36
-128.52
-118.01
-101.11
-80
-56.85
-32.69
-6.87
22.45
56.69
95.1
134
167.69
190.79
200.57
198.01
186.9
171.67
155.26
138.4
120.38
100.79
80.67
62.44
48.64
40.65
38.02
38.81
40.76
42.27
42.76
42.53
42.1
41.63
40.99
39.98
38.7
37.6
37.2
37.71
38.91
40.3
41.37
41.97
42.24
42.5
43.06
44.21
46.25
49.55
54.3
60.31
66.75
72.32
75.71
76.11
73.55
68.75
62.7
56.05
48.78
40.34
29.94
17.16
2.26
-13.73
-29.25
-42.76
-53.14
-60.11
-64.18
-66.53
-68.5
-71.26
-75.44
-80.99
-87.23
-93.04
-97.05
-97.87
-94.45
-86.41
-74.26
-59.41
-43.89
-29.71
-18.27
-9.96
-4.14
0.4
4.85
9.7
14.49
17.98
18.75
16
10.03
2.45
-4.28
-7.66
-5.96
1.29
13.16
27.67
42.3
54.6
62.59
65.16
62.19
54.45
43.24
30.06
16.29
3.05
-8.77
-18.5
-25.78
-30.72
-33.92
-36.29
-38.63
-41.23
-43.73
-45.47
-45.92
-45.11
-43.7
-42.63
-42.71
-44.21
-46.89
-50.08
-53
-54.93
-55.31
-53.81
-50.29
-44.86
-37.9
-29.96
-21.65
-13.49
-5.74
1.62
8.8
16.04
23.48
31.19
39.13
47.14
54.88
61.64
66.45
68.31
66.64
61.49
53.47
43.44
32.22
20.52
9.08
-1.11
-9.01
-13.83
-15.61
-15.3
-14.35
-13.97
-14.53
-15.48
-15.87
-15.17
-13.63
-12.07
-11.24
-11.27
-11.51
-10.99
-9.21
-6.47
-3.92
-2.91
-4.33
-8.04
-13.02
-17.87
-21.48
-23.53
-24.41
-24.81
-25.07
-24.95
-23.78
-20.94
-16.49
-11.29
-6.78
-4.34
-4.49
-6.68
-9.44
-11.13
-10.75
-8.36
-4.95
-1.81
0.25
1.26
2.01
3.48
6.3
10.35
14.9
19.08
22.31
24.46
25.73
26.36
26.34
25.5
23.66
20.85
17.29
13.3
8.95
4.04
-1.76
-8.58
-16.22
-24.08
-31.5
-38.06
-43.72
-48.69
-53.22
-57.35
-61
-63.94
-65.82
-66.06
-63.8
-58.01
-47.91
-33.51
-15.95
2.67
19.81
33.31
41.88
45.34
44.3
39.78
32.83
24.45
15.66
7.56
1.34
-1.98
-1.78
1.88
8.22
15.88
23.32
29.16
32.44
32.71
30.11
25.33
19.43
13.7
9.26
6.71
5.93
6.06
5.89
4.4
1.3
-2.8
-6.65
-8.89
-8.74
-6.25
-2.31
1.87
5.22
7.21
7.86
7.58
6.86
6.03
5.29
4.81
4.81
5.53
7.03
9
10.77
11.46
10.24
6.74
1.26
-5.25
-11.41
-15.92
-18.07
-18.05
-17.07
-16.94
-19.51
-25.95
-36.27
-49.16
-62.15
-72.04
-75.64
-70.64
-56.31
-34.03
-6.96
20.63
44.69
62.42
72.93
77.02
76.5
73.33
69.03
64.55
60.45
57.06
54.58
52.95
51.83
50.59
48.57
45.35
40.9
35.73
30.72
26.81
24.68
24.36
25.24
26.27
26.37
24.98
22.26
19.06
16.47
15.24
15.5
16.68
17.94
18.52
18.05
16.58
14.36
11.7
8.87
6.16
3.89
2.45
2.05
2.6
3.72
4.97
6.11
7.27
8.89
11.44
15.08
19.55
24.28
28.63
32.16
34.63
35.98
36.21
35.39
33.58
30.9
27.45
23.26
18.32
12.65
6.42
-0.11
-6.65
-13.06
-19.39
-25.81
-32.38
-38.76
-44.22
-47.87
-49.06
-47.83
-44.93
-41.48
-38.55
-36.67
-35.78
-35.41
-35
-34.28
-33.26
-32.1
-30.95
-29.78
-28.47
-26.92
-25.11
-23.15
-21.16
-19.25
-17.56
-16.26
-15.62
-15.92
-17.31
-19.64
-22.38
-24.79
-26.07
-25.7
-23.58
-20.06
-15.72
-11.13
-6.58
-2.03
2.85
8.35
14.41
20.55
25.84
29.31
30.34
28.99
25.96
22.4
19.31
17.31
16.45
16.43
16.85
17.49
18.33
19.34
20.4
21.18
21.37
20.87
19.88
18.82
18.08
17.77
17.65
17.31
16.42
14.89
12.93
10.79
8.58
6.16
3.24
-0.33
-4.4
-8.52
-12.16
-15.08
-17.47
-19.83
-22.73
-26.44
-30.82
-35.4
-39.63
-43.08
-45.53
-46.85
-46.89
-45.5
-42.61
-38.45
-33.56
-28.72
-24.73
-22.11
-20.91
-20.72
-20.83
-20.37
-18.64
-15.23
-10.16
-3.96
2.38
7.65
10.72
11.04
8.99
5.9
3.58
3.6
6.62
12.06
18.39
23.84
27.08
27.66
25.91
22.63
18.62
14.45
10.46
6.82
3.46
0.13
-3.64
-8.32
-14.08
-20.56
-26.94
-32.25
-35.8
-37.53
-37.9
-37.61
-37.17
-36.66
-35.87
-34.54
-32.62
-30.29
-27.89
-25.63
-23.53
-21.35
-18.79
-15.55
-11.46
-6.5
-0.8
5.37
11.62
17.46
22.38
26.03
28.29
29.39
29.82
30.29
31.47
33.83
37.5
42.26
47.72
53.51
59.48
65.7
72.39
79.7
87.53
95.48
102.88
109.08
113.72
116.97
119.45
122.09
125.7
130.75
137.2
144.69
152.55
159.77
164.98
166.53
162.83
152.94
136.92
115.71
90.56
62.4
31.64
-1.45
-36.03
-70.16
-101.08
-126.13
-143.89
-154.76
-160.6
-163.62
-165.28
-165.64
-163.74
-158.41
-149.21
-136.77
-122.6
-108.45
-95.78
-85.43
-77.77
-72.84
-70.51
-70.35
-71.46
-72.45
-71.82
-68.55
-62.63
-55.16
-47.89
-42.42
-39.38
-38.21
-37.42
-35.32
-30.83
-23.93
-15.67
-7.68
-1.53
1.83
2.23
0.14
-3.58
-8.04
-12.37
-15.81
-17.74
-17.84
-16.25
-13.57
-10.8
-8.86
-8.35
-9.23
-11
-13.03
-14.85
-16.44
-18.06
-19.99
-22.27
-24.58
-26.4
-27.23
-26.84
-25.26
-22.64
-19.09
-14.6
-9.19
-3.1
3.14
8.83
13.38
16.56
18.54
19.62
19.93
19.29
17.31
13.82
9.12
3.98
-0.67
-4.16
-6.29
-7.33
-7.7
-7.62
-7.01
-5.6
-3.24
-0.06
3.47
6.78
9.46
11.44
12.87
14.02
14.96
15.58
15.73
15.33
14.65
14.16
14.26
14.97
15.77
15.79
14.22
10.82
6.16
1.33
-2.56
-4.94
-6.06
-6.76
-7.97
-10.2
-13.25
-16.43
-18.89
-20.07
-19.8
-18.19
-15.48
-11.83
-7.48
-2.8
1.65
5.21
7.41
8.14
7.71
6.64
5.39
4.2
3.11
2.1
1.2
0.53
0.16
0.04
0.04
0.12
0.44
1.32
3.04
5.56
8.45
11.04
12.73
13.28
12.87
11.95
11.01
10.38
10.17
10.33
10.67
10.93
10.85
10.24
9.07
7.45
5.64
3.81
2.02
0.2
-1.69
-3.53
-5.11
-6.29
-7.21
-8.27
-9.9
-12.26
-15.06
-17.6
-19.16
-19.29
-17.96
-15.49
-12.24
-8.45
-4.26
0.2
4.61
8.47
11.26
12.72
12.92
12.26
11.23
10.22
9.4
8.79
8.32
7.97
7.74
7.63
7.67
7.96
8.65
9.88
11.58
13.45
15.01
15.85
15.94
15.67
15.7
16.58
18.41
20.76
22.93
24.28
24.56
23.86
22.48
20.68
18.54
16.04
13.1
9.69
5.89
1.95
-1.75
-4.73
-6.63
-7.4
-7.46
