2023-01-27 13:54:40.002721,0.0009616216411814164
2023-01-27 13:54:40.007721,0.00868241537117474
2023-01-27 13:54:40.012721,0.009039243683218883
2023-01-27 13:54:40.017721,0.011165839737258257
2023-01-27 13:54:40.022721,0.017814040184020927
2023-01-27 13:54:40.027721,0.024108620149433487
2023-01-27 13:54:40.032721,0.027670662850141515
2023-01-27 13:54:40.037721,0.03189014655048675
2023-01-27 13:54:40.042721,0.03901779651641842
2023-01-27 13:54:40.047721,0.046939516429355496
2023-01-27 13:54:40.052721,0.05428354069590561
2023-01-27 13:54:40.057721,0.0631669684042806
2023-01-27 13:54:40.062721,0.07488628476858127
2023-01-27 13:54:40.067721,0.0872995362967268
2023-01-27 13:54:40.072721,0.09849409759044642
2023-01-27 13:54:40.077721,0.10939048483865739
2023-01-27 13:54:40.082721,0.12082775682210917
2023-01-27 13:54:40.087721,0.13132536505335593
2023-01-27 13:54:40.092721,0.13965150713920588
2023-01-27 13:54:40.097721,0.14678263729135793
2023-01-27 13:54:40.102721,0.15342673659324635
2023-01-27 13:54:40.107721,0.1580300461894936
2023-01-27 13:54:40.112721,0.15898010134696955
2023-01-27 13:54:40.117721,0.1565926391792352
2023-01-27 13:54:40.122721,0.15131115913391108
2023-01-27 13:54:40.127721,0.1420786516832143
2023-01-27 13:54:40.132721,0.12823224067687974
2023-01-27 13:54:40.137721,0.11120501296964794
2023-01-27 13:54:40.142721,0.0927484035491943
2023-01-27 13:54:40.147721,0.07313304977591627
2023-01-27 13:54:40.152721,0.05260070413351051
2023-01-27 13:54:40.157721,0.032909568907454965
2023-01-27 13:54:40.162721,0.01577059552073469
2023-01-27 13:54:40.167721,0.001127523877333464
2023-01-27 13:54:40.172721,-0.011491378769278514
2023-01-27 13:54:40.177721,-0.021271430499296133
2023-01-27 13:54:40.182721,-0.027382176369428635
2023-01-27 13:54:40.187721,-0.03081764395258755
2023-01-27 13:54:40.192721,-0.033344231545925106
2023-01-27 13:54:40.197721,-0.03542607005291513
2023-01-27 13:54:40.202721,-0.03656566143035878
2023-01-27 13:54:40.207721,-0.03689172119272692
2023-01-27 13:54:40.212721,-0.0370224341750144
2023-01-27 13:54:40.217721,-0.03695828350768639
2023-01-27 13:54:40.222721,-0.03634929656982419
2023-01-27 13:54:40.227721,-0.03540717334124179
2023-01-27 13:54:40.232721,-0.03457029908895486
2023-01-27 13:54:40.237721,-0.03376626653862801
2023-01-27 13:54:40.242721,-0.03286341950297351
2023-01-27 13:54:40.247721,-0.03228975685679099
2023-01-27 13:54:40.252721,-0.032382607460021876
2023-01-27 13:54:40.257721,-0.03267356233906267
2023-01-27 13:54:40.262721,-0.032550893723964566
2023-01-27 13:54:40.267721,-0.03204832008540928
2023-01-27 13:54:40.272721,-0.03132482618093486
2023-01-27 13:54:40.277721,-0.030069677173784025
2023-01-27 13:54:40.282721,-0.02817551419138897
2023-01-27 13:54:40.287721,-0.026352048487409133
2023-01-27 13:54:40.292721,-0.025314688682556062
2023-01-27 13:54:40.297721,-0.02493108341376802
2023-01-27 13:54:40.302721,-0.02480983734130849
2023-01-27 13:54:40.307721,-0.025071603752033225
2023-01-27 13:54:40.312721,-0.025843581184744776
2023-01-27 13:54:40.317721,-0.02664205585790625
2023-01-27 13:54:40.322721,-0.02699752710759631
2023-01-27 13:54:40.327721,-0.027138470705768056
2023-01-27 13:54:40.332721,-0.02740621566772459
2023-01-27 13:54:40.337721,-0.027587306066832032
2023-01-27 13:54:40.342721,-0.027478337287902773
2023-01-27 13:54:40.347721,-0.027500581108733536
2023-01-27 13:54:40.352721,-0.02805531024932863
2023-01-27 13:54:40.357721,-0.028811017638363818
2023-01-27 13:54:40.362721,-0.029281377792358322
2023-01-27 13:54:40.367721,-0.02957441291781947
2023-01-27 13:54:40.372721,-0.029954513534903512
2023-01-27 13:54:40.377721,-0.0302394094737031
2023-01-27 13:54:40.382721,-0.030291080474853477
2023-01-27 13:54:40.387721,-0.030560664625724786
2023-01-27 13:54:40.392721,-0.031469069421291344
2023-01-27 13:54:40.397721,-0.03271622018227443
2023-01-27 13:54:40.402721,-0.03380100056529037
2023-01-27 13:54:40.407721,-0.03471386735200152
2023-01-27 13:54:40.412721,-0.03550788015127177
2023-01-27 13:54:40.417721,-0.03570961130438265
2023-01-27 13:54:40.422721,-0.0348107032477855
2023-01-27 13:54:40.427721,-0.032892821468212215
2023-01-27 13:54:40.432721,-0.030170878395438146
2023-01-27 13:54:40.437721,-0.02639473559614342
2023-01-27 13:54:40.442721,-0.021323960274457904
2023-01-27 13:54:40.447721,-0.01536978319349582
2023-01-27 13:54:40.452721,-0.009207527153193956
2023-01-27 13:54:40.457721,-0.003221416874705189
2023-01-27 13:54:40.462721,0.002091526985168381
2023-01-27 13:54:40.467721,0.005664461026769762
2023-01-27 13:54:40.472721,0.006490945816039963
2023-01-27 13:54:40.477721,0.004415702991915092
2023-01-27 13:54:40.482721,-0.00014424324035638847
2023-01-27 13:54:40.487721,-0.006769836756305589
2023-01-27 13:54:40.492721,-0.014784932136535606
2023-01-27 13:54:40.497721,-0.02295063084145562
2023-01-27 13:54:40.502721,-0.03012279793620098
2023-01-27 13:54:40.507721,-0.03596474055115877
2023-01-27 13:54:40.512721,-0.04058043286204326
2023-01-27 13:54:40.517721,-0.04389508276944865
2023-01-27 13:54:40.522721,-0.04591743275523177
2023-01-27 13:54:40.527721,-0.047153647298207015
2023-01-27 13:54:40.532721,-0.04817724227905266
2023-01-27 13:54:40.537721,-0.04917052823824404
2023-01-27 13:54:40.542721,-0.050388973206281586
2023-01-27 13:54:40.547721,-0.05254292187806137
2023-01-27 13:54:40.552721,-0.05589425563812248
2023-01-27 13:54:40.557721,-0.05897186231252218
2023-01-27 13:54:40.562721,-0.05839447304606428
2023-01-27 13:54:40.567721,-0.04961911621806798
2023-01-27 13:54:40.572721,-0.02798318862915026
2023-01-27 13:54:40.577721,0.009360392884092903
2023-01-27 13:54:40.582721,0.06053408235311504
2023-01-27 13:54:40.587721,0.11726289533703692
2023-01-27 13:54:40.592721,0.16660094261169428
2023-01-27 13:54:40.597721,0.1952871722878812
2023-01-27 13:54:40.602721,0.19431969523429865
2023-01-27 13:54:40.607721,0.16232156224630775
2023-01-27 13:54:40.612721,0.1068121194839477
2023-01-27 13:54:40.617721,0.042027730484081434
2023-01-27 13:54:40.622721,-0.0165879726409912
2023-01-27 13:54:40.627721,-0.058109457125712416
2023-01-27 13:54:40.632721,-0.07875680923461909
2023-01-27 13:54:40.637721,-0.08118597270617674
2023-01-27 13:54:40.642721,-0.07212162017822256
2023-01-27 13:54:40.647721,-0.05926737232173258
2023-01-27 13:54:40.652721,-0.04817724227905266
2023-01-27 13:54:40.657721,-0.04077543132604738
2023-01-27 13:54:40.662721,-0.03642141819000236
2023-01-27 13:54:40.667721,-0.03386063968339449
2023-01-27 13:54:40.672721,-0.03204604238271707
2023-01-27 13:54:40.677721,-0.030127419765611733
2023-01-27 13:54:40.682721,-0.027766823768615688
2023-01-27 13:54:40.687721,-0.025358361306376868
2023-01-27 13:54:40.692721,-0.023367404937744037
2023-01-27 13:54:40.697721,-0.021687107734877517
2023-01-27 13:54:40.702721,-0.020073851570486995
2023-01-27 13:54:40.707721,-0.018759694489790823
2023-01-27 13:54:40.712721,-0.01803040504455556
2023-01-27 13:54:40.717721,-0.01757281105826321
2023-01-27 13:54:40.722721,-0.016828378662466992
2023-01-27 13:54:40.727721,-0.01562515111247301
2023-01-27 13:54:40.732721,-0.013895432464778385
2023-01-27 13:54:40.737721,-0.011202523902654717
2023-01-27 13:54:40.742721,-0.00721216201782217
2023-01-27 13:54:40.747721,-0.002278543563094904
2023-01-27 13:54:40.752721,0.0030771892052142945
2023-01-27 13:54:40.757721,0.00893898796190096
2023-01-27 13:54:40.762721,0.01567443273961543
2023-01-27 13:54:40.767721,0.023274033036433082
2023-01-27 13:54:40.772721,0.03166139125823965
2023-01-27 13:54:40.777721,0.041217044593491514
2023-01-27 13:54:40.782721,0.052240096032619344
2023-01-27 13:54:40.787721,0.06421797377350225
2023-01-27 13:54:40.792721,0.07630467414855946
2023-01-27 13:54:40.797721,0.08814664326266913
2023-01-27 13:54:40.802721,0.09957592189311978
2023-01-27 13:54:40.807721,0.10999103881167123
2023-01-27 13:54:40.812721,0.11888047307729716
2023-01-27 13:54:40.817721,0.12653494004511034
2023-01-27 13:54:40.822721,0.13335287570953355
2023-01-27 13:54:40.827721,0.13878695029116853
2023-01-27 13:54:40.832721,0.14179110527038566
2023-01-27 13:54:40.837721,0.1418214722025433
2023-01-27 13:54:40.842721,0.13844947516918174
2023-01-27 13:54:40.847721,0.1305920554697519
2023-01-27 13:54:40.852721,0.11746208369731895
2023-01-27 13:54:40.857721,0.10001117415365167
2023-01-27 13:54:40.862721,0.08017520606517786
2023-01-27 13:54:40.867721,0.05901466496611836
2023-01-27 13:54:40.872721,0.037070512771606334
2023-01-27 13:54:40.877721,0.016254718646843785
2023-01-27 13:54:40.882721,-0.0006731351604684832
2023-01-27 13:54:40.887721,-0.013068607160886174
2023-01-27 13:54:40.892721,-0.023151040077209407
2023-01-27 13:54:40.897721,-0.0329484388456855
2023-01-27 13:54:40.902721,-0.041878622025251284
2023-01-27 13:54:40.907721,-0.0483042739859707
2023-01-27 13:54:40.912721,-0.05216797441244121
2023-01-27 13:54:40.917721,-0.054763761771661736
2023-01-27 13:54:40.922721,-0.05678375810384745
2023-01-27 13:54:40.927721,-0.05803027697140918
2023-01-27 13:54:40.932721,-0.05865892022848122
2023-01-27 13:54:40.937721,-0.059393427618602515
2023-01-27 13:54:40.942721,-0.06051003932952881
2023-01-27 13:54:40.947721,-0.061553709452101646
2023-01-27 13:54:40.952721,-0.06212075799703581
2023-01-27 13:54:40.957721,-0.06220653223418051
2023-01-27 13:54:40.962721,-0.06176014989614479
2023-01-27 13:54:40.967721,-0.06056711042405795
2023-01-27 13:54:40.972721,-0.05870699882507324
2023-01-27 13:54:40.977721,-0.056652328595368735
2023-01-27 13:54:40.982721,-0.05481243133544919
2023-01-27 13:54:40.987721,-0.05331838790411482
2023-01-27 13:54:40.992721,-0.0522400960326194
2023-01-27 13:54:40.997721,-0.051622426010103147
2023-01-27 13:54:41.002721,-0.051254432648420264
2023-01-27 13:54:41.007721,-0.050723788379064015
2023-01-27 13:54:41.012721,-0.04978796094655992
2023-01-27 13:54:41.017721,-0.04851748684568438
2023-01-27 13:54:41.022721,-0.047119460999965536
2023-01-27 13:54:41.027721,-0.04584904989717767
2023-01-27 13:54:41.032721,-0.04505197331309303
2023-01-27 13:54:41.037721,-0.04502602366685892
2023-01-27 13:54:41.042721,-0.04577318951487539
2023-01-27 13:54:41.047721,-0.047005661304299375
2023-01-27 13:54:41.052721,-0.0483695678412914
2023-01-27 13:54:41.057721,-0.0495556746179408
2023-01-27 13:54:41.062721,-0.05029281228780739
2023-01-27 13:54:41.067721,-0.05044039742541148
2023-01-27 13:54:41.072721,-0.050100486725568716
2023-01-27 13:54:41.077721,-0.049534596602501674
2023-01-27 13:54:41.082721,-0.04899462312459936
2023-01-27 13:54:41.087721,-0.04869346085014388
2023-01-27 13:54:41.092721,-0.04882633686065665
2023-01-27 13:54:41.097721,-0.04946595692516709
2023-01-27 13:54:41.102721,-0.05046109482645975
2023-01-27 13:54:41.107721,-0.05152745304591443
2023-01-27 13:54:41.112721,-0.052408378571271765
2023-01-27 13:54:41.117721,-0.052919831417936276
2023-01-27 13:54:41.122721,-0.05296131223440168
2023-01-27 13:54:41.127721,-0.05259197566756667
2023-01-27 13:54:41.132721,-0.05202373117208481
2023-01-27 13:54:41.137721,-0.05143909651509155
2023-01-27 13:54:41.142721,-0.050845742225646896
2023-01-27 13:54:41.147721,-0.05013216707993017
2023-01-27 13:54:41.152721,-0.04916290566325178
2023-01-27 13:54:41.157721,-0.04776058164199358
2023-01-27 13:54:41.162721,-0.04570106789469709
2023-01-27 13:54:41.167721,-0.042815523977363684
2023-01-27 13:54:41.172721,-0.039041839540004696
2023-01-27 13:54:41.177721,-0.034354523396758756
2023-01-27 13:54:41.182721,-0.028776526451110767
2023-01-27 13:54:41.187721,-0.022558050814829825
2023-01-27 13:54:41.192721,-0.016275446861982266
2023-01-27 13:54:41.197721,-0.01068775949400704
2023-01-27 13:54:41.202721,-0.006539027206599716
2023-01-27 13:54:41.207721,-0.004471588690135491
2023-01-27 13:54:41.212721,-0.0049283108673989105
2023-01-27 13:54:41.217721,-0.007969409691995395
2023-01-27 13:54:41.222721,-0.013198256492614689
2023-01-27 13:54:41.227721,-0.019905309649662417
2023-01-27 13:54:41.232721,-0.02723793312907208
2023-01-27 13:54:41.237721,-0.03426876622661697
2023-01-27 13:54:41.242721,-0.04012366384267803
2023-01-27 13:54:41.247721,-0.04424714352119187
2023-01-27 13:54:41.252721,-0.04656652733683582
2023-01-27 13:54:41.257721,-0.04738516446717967
2023-01-27 13:54:41.262721,-0.047191582620143835
2023-01-27 13:54:41.267721,-0.04659103858888939
2023-01-27 13:54:41.272721,-0.04627804085612295
2023-01-27 13:54:41.277721,-0.046923702208608926
2023-01-27 13:54:41.282721,-0.04901866242289541
2023-01-27 13:54:41.287721,-0.052626097412674246
2023-01-27 13:54:41.292721,-0.056831836700439384
2023-01-27 13:54:41.297721,-0.059008862859212134
2023-01-27 13:54:41.302721,-0.054620109498500824
2023-01-27 13:54:41.307721,-0.03828780750356197
2023-01-27 13:54:41.312721,-0.006082256790250535
2023-01-27 13:54:41.317721,0.0418401134029738
2023-01-27 13:54:41.322721,0.09947975724935523
2023-01-27 13:54:41.327721,0.155300547959649
2023-01-27 13:54:41.332721,0.19520919024944297
2023-01-27 13:54:41.337721,0.2074910846749095
2023-01-27 13:54:41.342721,0.1875402629375456
2023-01-27 13:54:41.347721,0.13996273589122563
2023-01-27 13:54:41.352721,0.07697781175374971
2023-01-27 13:54:41.357721,0.013934376275589603
2023-01-27 13:54:41.362721,-0.0360367707908153
2023-01-27 13:54:41.367721,-0.06601935097361104
2023-01-27 13:54:41.372721,-0.07640083879232397
2023-01-27 13:54:41.377721,-0.07290191198202141
2023-01-27 13:54:41.382721,-0.0629862174391746
2023-01-27 13:54:41.387721,-0.05272883677418652
2023-01-27 13:54:41.392721,-0.0453885421156883
2023-01-27 13:54:41.397721,-0.04156935624191376
2023-01-27 13:54:41.402721,-0.040219824761152184
2023-01-27 13:54:41.407721,-0.03983619538554408
2023-01-27 13:54:41.412721,-0.039378404617309494
2023-01-27 13:54:41.417721,-0.03850820961672535
2023-01-27 13:54:41.422721,-0.037238799035549115
2023-01-27 13:54:41.427721,-0.03560026475994704
2023-01-27 13:54:41.432721,-0.0336807966232299
2023-01-27 13:54:41.437721,-0.03170537661551618
2023-01-27 13:54:41.442721,-0.029810270294547
2023-01-27 13:54:41.447721,-0.027843132374812795
2023-01-27 13:54:41.452721,-0.025579135864973006
2023-01-27 13:54:41.457721,-0.02299164320889244
2023-01-27 13:54:41.462721,-0.020073851570487033
2023-01-27 13:54:41.467721,-0.01658256478103307
2023-01-27 13:54:41.472721,-0.012332797050476012
2023-01-27 13:54:41.477721,-0.0076140818180698774
2023-01-27 13:54:41.482721,-0.002836783882230501
2023-01-27 13:54:41.487721,0.0021771030782761873
2023-01-27 13:54:41.492721,0.007957419380545618
2023-01-27 13:54:41.497721,0.014381448248362978
2023-01-27 13:54:41.502721,0.02065082453191277
2023-01-27 13:54:41.507721,0.026633809920679104
2023-01-27 13:54:41.512721,0.03353655338287353
2023-01-27 13:54:41.517721,0.042592793571316026
2023-01-27 13:54:41.522721,0.05353828519582743
2023-01-27 13:54:41.527721,0.0650757335160975
2023-01-27 13:54:41.532721,0.07649700343608846
2023-01-27 13:54:41.537721,0.08803374832932824
2023-01-27 13:54:41.542721,0.09979228675365437
2023-01-27 13:54:41.547721,0.11127048784671459
2023-01-27 13:54:41.552721,0.12205382436513901
2023-01-27 13:54:41.557721,0.13217268014980502
2023-01-27 13:54:41.562721,0.14143049716949455
2023-01-27 13:54:41.567721,0.148949049485499
2023-01-27 13:54:41.572721,0.15369117259979237
2023-01-27 13:54:41.577721,0.1549602538674482
2023-01-27 13:54:41.582721,0.15212854743003837
2023-01-27 13:54:41.587721,0.14442195993737736
2023-01-27 13:54:41.592721,0.13145367801189414
2023-01-27 13:54:41.597721,0.11373803211635793
2023-01-27 13:54:41.602721,0.09243588149547569
2023-01-27 13:54:41.607721,0.06892212458910879
2023-01-27 13:54:41.612721,0.044835608452558476
2023-01-27 13:54:41.617721,0.02208924845318241
2023-01-27 13:54:41.622721,0.00228385138325388
2023-01-27 13:54:41.627721,-0.01385999361868033
2023-01-27 13:54:41.632721,-0.026348432525992303
2023-01-27 13:54:41.637721,-0.03548271623590601
2023-01-27 13:54:41.642721,-0.04180650040507301
2023-01-27 13:54:41.647721,-0.04611872257002794
2023-01-27 13:54:41.652721,-0.0490907840430736
2023-01-27 13:54:41.657721,-0.05094949935276995
2023-01-27 13:54:41.662721,-0.05175928398966782
2023-01-27 13:54:41.667721,-0.05182521653157437
2023-01-27 13:54:41.672721,-0.05156695842742908
2023-01-27 13:54:41.677721,-0.05119666101953743
2023-01-27 13:54:41.682721,-0.05079766362905498
2023-01-27 13:54:41.687721,-0.05053685848814702
2023-01-27 13:54:41.692721,-0.05050917714834213
2023-01-27 13:54:41.697721,-0.05052839521727445
2023-01-27 13:54:41.702721,-0.05036493390798559
2023-01-27 13:54:41.707721,-0.05008030655405685
2023-01-27 13:54:41.712721,-0.049884121865034076
2023-01-27 13:54:41.717721,-0.04979524695225947
2023-01-27 13:54:41.722721,-0.04969179630279539
2023-01-27 13:54:41.727721,-0.04955900640132017
2023-01-27 13:54:41.732721,-0.049427352845668716
2023-01-27 13:54:41.737721,-0.04918680674549968
2023-01-27 13:54:41.742721,-0.048730175942182465
2023-01-27 13:54:41.747721,-0.04819655486553595
2023-01-27 13:54:41.752721,-0.04784067720174776
2023-01-27 13:54:41.757721,-0.04774565086827552
2023-01-27 13:54:41.762721,-0.04786471650004379
2023-01-27 13:54:41.767721,-0.04821787321382002
2023-01-27 13:54:41.772721,-0.048802297562360666
2023-01-27 13:54:41.777721,-0.049403720884790475
2023-01-27 13:54:41.782721,-0.04973987862467763
2023-01-27 13:54:41.787721,-0.04973828107497863
2023-01-27 13:54:41.792721,-0.049499474465847015
2023-01-27 13:54:41.797721,-0.04910301878376765
2023-01-27 13:54:41.802721,-0.04865805432200432
2023-01-27 13:54:41.807721,-0.048424788306687234
2023-01-27 13:54:41.812721,-0.04863401502370829
2023-01-27 13:54:41.817721,-0.04923545880992852
2023-01-27 13:54:41.822721,-0.05000432580709443
2023-01-27 13:54:41.827721,-0.050804830971839555
2023-01-27 13:54:41.832721,-0.05156695842742916
2023-01-27 13:54:41.837721,-0.05212586010605231
2023-01-27 13:54:41.842721,-0.05231221765279758
2023-01-27 13:54:41.847721,-0.052123571653675344
2023-01-27 13:54:41.852721,-0.05161504074931137
2023-01-27 13:54:41.857721,-0.05072907508724186
2023-01-27 13:54:41.862721,-0.049451392143964636
2023-01-27 13:54:41.867721,-0.04804144947172139
2023-01-27 13:54:41.872721,-0.046879053115844706
2023-01-27 13:54:41.877721,-0.04613400592675752
2023-01-27 13:54:41.882721,-0.04574915021657939
2023-01-27 13:54:41.887721,-0.0456170184408612
2023-01-27 13:54:41.892721,-0.04553278535604473
2023-01-27 13:54:41.897721,-0.04505829482569752
2023-01-27 13:54:41.902721,-0.0436816625297069
2023-01-27 13:54:41.907721,-0.04109062780257335
2023-01-27 13:54:41.912721,-0.03714263439178464
2023-01-27 13:54:41.917721,-0.0317150546443812
2023-01-27 13:54:41.922721,-0.02488195896148679
2023-01-27 13:54:41.927721,-0.01724167990588041
2023-01-27 13:54:41.932721,-0.009880661964416493
2023-01-27 13:54:41.937721,-0.00402075846809213
2023-01-27 13:54:41.942721,-0.0007692973013034816
2023-01-27 13:54:41.947721,-0.0009537174909418695
2023-01-27 13:54:41.952721,-0.004784067627042475
2023-01-27 13:54:41.957721,-0.011586691321454333
2023-01-27 13:54:41.962721,-0.020049810409545787
2023-01-27 13:54:41.967721,-0.02879002165069959
2023-01-27 13:54:41.972721,-0.03668586537241931
2023-01-27 13:54:41.977721,-0.042945214592551594
2023-01-27 13:54:41.982721,-0.047239661216735764
2023-01-27 13:54:41.987721,-0.049816371721953516
2023-01-27 13:54:41.992721,-0.051254432648420244
2023-01-27 13:54:41.997721,-0.05205696769059977
2023-01-27 13:54:42.002721,-0.052576661109924296
2023-01-27 13:54:42.007721,-0.05324057063594328
2023-01-27 13:54:42.012721,-0.05462010949850078
2023-01-27 13:54:42.017721,-0.057234714531556236
2023-01-27 13:54:42.022721,-0.06125529855489731
2023-01-27 13:54:42.027721,-0.06598105141786452
2023-01-27 13:54:42.032721,-0.06899635493755338
2023-01-27 13:54:42.037721,-0.06568869415606811
2023-01-27 13:54:42.042721,-0.05014856904745102
2023-01-27 13:54:42.047721,-0.017588520994626048
2023-01-27 13:54:42.052721,0.03271917626261712
2023-01-27 13:54:42.057721,0.09533950554876211
2023-01-27 13:54:42.062721,0.15859544277191157
2023-01-27 13:54:42.067721,0.20729517083972365
2023-01-27 13:54:42.072721,0.22785624861717224
2023-01-27 13:54:42.077721,0.21367622203372968
2023-01-27 13:54:42.082721,0.1679712533950805
2023-01-27 13:54:42.087721,0.10266679418951925
2023-01-27 13:54:42.092721,0.0340173654258251
2023-01-27 13:54:42.097721,-0.023081162581947912
2023-01-27 13:54:42.102721,-0.05978882312774646
2023-01-27 13:54:42.107721,-0.07511918242236798
2023-01-27 13:54:42.112721,-0.07430931180715558
2023-01-27 13:54:42.117721,-0.06514645245521695
2023-01-27 13:54:42.122721,-0.054499905556440305
2023-01-27 13:54:42.127721,-0.04645500811094595
2023-01-27 13:54:42.132721,-0.042119026184081955
2023-01-27 13:54:42.137721,-0.040566743715599755
2023-01-27 13:54:42.142721,-0.040243864059448194
2023-01-27 13:54:42.147721,-0.040016549354477855
2023-01-27 13:54:42.152721,-0.03937840461730947
2023-01-27 13:54:42.157721,-0.03814116349027358
2023-01-27 13:54:42.162721,-0.036253135651349994
2023-01-27 13:54:42.167721,-0.033838150314703844
2023-01-27 13:54:42.172721,-0.031132500618696164
2023-01-27 13:54:42.177721,-0.02831728755101228
2023-01-27 13:54:42.182721,-0.025507014244794766
2023-01-27 13:54:42.187721,-0.022829230908284547
2023-01-27 13:54:42.192721,-0.02033829689025869
2023-01-27 13:54:42.197721,-0.017882268620929963
2023-01-27 13:54:42.202721,-0.015217661857604866
2023-01-27 13:54:42.207721,-0.012235341585504931
2023-01-27 13:54:42.212721,-0.008943080902099592
2023-01-27 13:54:42.217721,-0.005284360380202947
2023-01-27 13:54:42.222721,-0.0011299054604023244
2023-01-27 13:54:42.227721,0.003610193093946641
2023-01-27 13:54:42.232721,0.009039243683218949
2023-01-27 13:54:42.237721,0.015397141726890969
2023-01-27 13:54:42.242721,0.022958716377615908
2023-01-27 13:54:42.247721,0.03182634972998213
2023-01-27 13:54:42.252721,0.04195074364542958
2023-01-27 13:54:42.257721,0.05328656842960993
2023-01-27 13:54:42.262721,0.06575088202953328
2023-01-27 13:54:42.267721,0.07906461117233698
2023-01-27 13:54:42.272721,0.09279648959636679
2023-01-27 13:54:42.277721,0.10652380762903124
2023-01-27 13:54:42.282721,0.11979401111602778
2023-01-27 13:54:42.287721,0.13198485110476435
2023-01-27 13:54:42.292721,0.14239212870597825
2023-01-27 13:54:42.297721,0.15044649211246483
2023-01-27 13:54:42.302721,0.15571057796478263
2023-01-27 13:54:42.307721,0.15773226690801223
2023-01-27 13:54:42.312721,0.15609523653984053
2023-01-27 13:54:42.317721,0.1505986861915953
2023-01-27 13:54:42.322721,0.14123818278312678
2023-01-27 13:54:42.327721,0.12807355646156324
2023-01-27 13:54:42.332721,0.11133174598217008
2023-01-27 13:54:42.337721,0.09165597624698395
2023-01-27 13:54:42.342721,0.07010221481323234
2023-01-27 13:54:42.347721,0.04788977499665345
2023-01-27 13:54:42.352721,0.02625226974487297
2023-01-27 13:54:42.357721,0.006400321360943489
2023-01-27 13:54:42.362721,-0.010673999786376915
2023-01-27 13:54:42.367721,-0.024469880926453365
2023-01-27 13:54:42.372721,-0.034978985786437905
2023-01-27 13:54:42.377721,-0.04245174636471468
2023-01-27 13:54:42.382721,-0.047287743538617984
2023-01-27 13:54:42.387721,-0.050078383924356394
2023-01-27 13:54:42.392721,-0.051518879830837194
2023-01-27 13:54:42.397721,-0.05219655269193219
2023-01-27 13:54:42.402721,-0.05252858251333227
2023-01-27 13:54:42.407721,-0.052831630503364264
2023-01-27 13:54:42.412721,-0.0532738380134105
2023-01-27 13:54:42.417721,-0.05377000008122597
2023-01-27 13:54:42.422721,-0.05409121513366694
2023-01-27 13:54:42.427721,-0.054106161983327315
2023-01-27 13:54:42.432721,-0.05382677167654032
2023-01-27 13:54:42.437721,-0.05327830768704932
2023-01-27 13:54:42.442721,-0.0524805001914501
2023-01-27 13:54:42.447721,-0.051524234800813744
2023-01-27 13:54:42.452721,-0.05050917714834211
2023-01-27 13:54:42.457721,-0.04942601711100351
2023-01-27 13:54:42.462721,-0.04824936389923089
2023-01-27 13:54:42.467721,-0.04712074449784334
2023-01-27 13:54:42.472721,-0.04627804085612287
2023-01-27 13:54:42.477721,-0.04580525185337749
2023-01-27 13:54:42.482721,-0.04558086395263674
2023-01-27 13:54:42.487721,-0.04544332929959954
2023-01-27 13:54:42.492721,-0.045268338173627826
2023-01-27 13:54:42.497721,-0.04493413604045632
2023-01-27 13:54:42.502721,-0.04440287873148911
2023-01-27 13:54:42.507721,-0.0438468722387495
2023-01-27 13:54:42.512721,-0.043537419289350454
2023-01-27 13:54:42.517721,-0.04358548550657
2023-01-27 13:54:42.522721,-0.043898027390241595
2023-01-27 13:54:42.527721,-0.0443548212551026
2023-01-27 13:54:42.532721,-0.04488369077444069
2023-01-27 13:54:42.537721,-0.04539221771100704
2023-01-27 13:54:42.542721,-0.04579722881317131
2023-01-27 13:54:42.547721,-0.04613060637754976
2023-01-27 13:54:42.552721,-0.046470366418361594
2023-01-27 13:54:42.557721,-0.046759785553853316
2023-01-27 13:54:42.562721,-0.04683097451925272
2023-01-27 13:54:42.567721,-0.04661762757309502
2023-01-27 13:54:42.572721,-0.046229958534240674
2023-01-27 13:54:42.577721,-0.045836847115999925
2023-01-27 13:54:42.582721,-0.04560490697622286
2023-01-27 13:54:42.587721,-0.04572613874331398
2023-01-27 13:54:42.592721,-0.0463261231780052
2023-01-27 13:54:42.597721,-0.04729248444000465
2023-01-27 13:54:42.602721,-0.04829744622111318
2023-01-27 13:54:42.607721,-0.04901329181796338
2023-01-27 13:54:42.612721,-0.04923502728343
2023-01-27 13:54:42.617721,-0.04884146014938748
2023-01-27 13:54:42.622721,-0.04779259487986558
2023-01-27 13:54:42.627721,-0.04618642291388737
2023-01-27 13:54:42.632721,-0.04418651387095449
2023-01-27 13:54:42.637721,-0.041829512718908245
2023-01-27 13:54:42.642721,-0.03894567489624018
2023-01-27 13:54:42.647721,-0.03525790771788482
2023-01-27 13:54:42.652721,-0.030507445335388097
2023-01-27 13:54:42.657721,-0.024559413785900805
2023-01-27 13:54:42.662721,-0.017573636025190312
2023-01-27 13:54:42.667721,-0.010186229460729506
2023-01-27 13:54:42.672721,-0.0035099189262837124
2023-01-27 13:54:42.677721,0.001122293046044973
2023-01-27 13:54:42.682721,0.002572337863966766
2023-01-27 13:54:42.687721,0.0003022839414556036
2023-01-27 13:54:42.692721,-0.005433162208646559
2023-01-27 13:54:42.697721,-0.013706828934112538
2023-01-27 13:54:42.702721,-0.023175081238150493
2023-01-27 13:54:42.707721,-0.03227468605006804
2023-01-27 13:54:42.712721,-0.039546690881252164
2023-01-27 13:54:42.717721,-0.04426653547583639
2023-01-27 13:54:42.722721,-0.0468309745192527
2023-01-27 13:54:42.727721,-0.048175856577860714
2023-01-27 13:54:42.732721,-0.04873017594218245
2023-01-27 13:54:42.737721,-0.04833722441875998
2023-01-27 13:54:42.742721,-0.04731178283691399
2023-01-27 13:54:42.747721,-0.046965408027352946
2023-01-27 13:54:42.752721,-0.048585932701826
2023-01-27 13:54:42.757721,-0.05224091533745523
2023-01-27 13:54:42.762721,-0.05702416226267809
2023-01-27 13:54:42.767721,-0.061907084140131
2023-01-27 13:54:42.772721,-0.06522198766469946
2023-01-27 13:54:42.777721,-0.06308305714862772
2023-01-27 13:54:42.782721,-0.04930714890360828
2023-01-27 13:54:42.787721,-0.0181291980990101
2023-01-27 13:54:42.792721,0.03197392076253889
2023-01-27 13:54:42.797721,0.09588662118729452
2023-01-27 13:54:42.802721,0.16200920939445482
2023-01-27 13:54:42.807721,0.2149358875923175
2023-01-27 13:54:42.812721,0.24023711681365958
2023-01-27 13:54:42.817721,0.22993900909538062
2023-01-27 13:54:42.822721,0.18607378005981437
2023-01-27 13:54:42.827721,0.12016693177015585
2023-01-27 13:54:42.832721,0.04885037988424299
2023-01-27 13:54:42.837721,-0.012146264799241246
2023-01-27 13:54:42.842721,-0.05296131223440168
2023-01-27 13:54:42.847721,-0.0716748045759653
2023-01-27 13:54:42.852721,-0.07301112264394755
2023-01-27 13:54:42.857721,-0.06477948849709203
2023-01-27 13:54:42.862721,-0.054163336753845145
2023-01-27 13:54:42.867721,-0.045558979860978906
2023-01-27 13:54:42.872721,-0.040315985679626395
2023-01-27 13:54:42.877721,-0.0377296495726133
2023-01-27 13:54:42.882721,-0.036421418190002386
2023-01-27 13:54:42.887721,-0.03538010635445433
2023-01-27 13:54:42.892721,-0.034257769584655644
2023-01-27 13:54:42.897721,-0.033079870470441204
2023-01-27 13:54:42.902721,-0.03190179914236057
2023-01-27 13:54:42.907721,-0.030698738466356013
2023-01-27 13:54:42.912721,-0.029353499412536562
2023-01-27 13:54:42.917721,-0.027629543494466655
2023-01-27 13:54:42.922721,-0.025242567062377864
2023-01-27 13:54:42.927721,-0.022045259716823827
2023-01-27 13:54:42.932721,-0.018126567825674983
2023-01-27 13:54:42.937721,-0.013745082989973753
2023-01-27 13:54:42.942721,-0.00923156738281249
2023-01-27 13:54:42.947721,-0.004908447500470245
2023-01-27 13:54:42.952721,-0.0009375810623167903
2023-01-27 13:54:42.957721,0.002837176126871872
2023-01-27 13:54:42.962721,0.00685155391693111
2023-01-27 13:54:42.967721,0.011600181794329121
2023-01-27 13:54:42.972721,0.017453432083129765
2023-01-27 13:54:42.977721,0.0245833334728269
2023-01-27 13:54:42.982721,0.032911501824855756
2023-01-27 13:54:42.987721,0.042126399462258615
2023-01-27 13:54:42.992721,0.05187948793172827
2023-01-27 13:54:42.997721,0.062015724479099844
2023-01-27 13:54:43.002721,0.07257839292287818
2023-01-27 13:54:43.007721,0.08362270748815365
2023-01-27 13:54:43.012721,0.09508033841848369
2023-01-27 13:54:43.017721,0.10671809100230414
2023-01-27 13:54:43.022721,0.11808713525533668
2023-01-27 13:54:43.027721,0.12854096021253228
2023-01-27 13:54:43.032721,0.13743977248668665
2023-01-27 13:54:43.037721,0.14435110389504374
2023-01-27 13:54:43.042721,0.14897923171520222
2023-01-27 13:54:43.047721,0.15094361746445364
2023-01-27 13:54:43.052721,0.14972448348999015
2023-01-27 13:54:43.057721,0.1447795785904892
2023-01-27 13:54:43.062721,0.13563673198223103
2023-01-27 13:54:43.067721,0.1220153869515215
2023-01-27 13:54:43.072721,0.10411958396434776
2023-01-27 13:54:43.077721,0.08288767385840633
2023-01-27 13:54:43.082721,0.05986094474792478
2023-01-27 13:54:43.087721,0.03676842699110702
2023-01-27 13:54:43.092721,0.015193621627986393
2023-01-27 13:54:43.097721,-0.003617998961213615
2023-01-27 13:54:43.102721,-0.018967986106872507
2023-01-27 13:54:43.107721,-0.03081894545372669
2023-01-27 13:54:43.112721,-0.03959476947784422
2023-01-27 13:54:43.117721,-0.04584137629510142
2023-01-27 13:54:43.122721,-0.05010048672556868
2023-01-27 13:54:43.127721,-0.05294457304228874
2023-01-27 13:54:43.132721,-0.05488455295562742
2023-01-27 13:54:43.137721,-0.05621246853721556
2023-01-27 13:54:43.142721,-0.05704820156097408
2023-01-27 13:54:43.147721,-0.05749962635084989
2023-01-27 13:54:43.152721,-0.057649217545986106
2023-01-27 13:54:43.157721,-0.057458792003860386
2023-01-27 13:54:43.162721,-0.05687991902232166
2023-01-27 13:54:43.167721,-0.056048665730830914
2023-01-27 13:54:43.172721,-0.055221121758222504
2023-01-27 13:54:43.177721,-0.05453292364280542
2023-01-27 13:54:43.182721,-0.053946971893310505
2023-01-27 13:54:43.187721,-0.05338235177310191
2023-01-27 13:54:43.192721,-0.05274494737386694
2023-01-27 13:54:43.197721,-0.051898123022087704
2023-01-27 13:54:43.202721,-0.05079766362905497
2023-01-27 13:54:43.207721,-0.04964205039429824
2023-01-27 13:54:43.212721,-0.048730175942182444
2023-01-27 13:54:43.217721,-0.04817912470322116
2023-01-27 13:54:43.222721,-0.047888755798339774
2023-01-27 13:54:43.227721,-0.047699609340477914
2023-01-27 13:54:43.232721,-0.047431986778974464
2023-01-27 13:54:43.237721,-0.046875194576227894
2023-01-27 13:54:43.242721,-0.04596551507711405
2023-01-27 13:54:43.247721,-0.04494513234809875
2023-01-27 13:54:43.252721,-0.04416247457265844
2023-01-27 13:54:43.257721,-0.04374862290746481
2023-01-27 13:54:43.262721,-0.043633580207824686
2023-01-27 13:54:43.267721,-0.043777850790964565
2023-01-27 13:54:43.272721,-0.04418651387095447
2023-01-27 13:54:43.277721,-0.04479245924333104
2023-01-27 13:54:43.282721,-0.0455568246543407
2023-01-27 13:54:43.287721,-0.046600377424105215
2023-01-27 13:54:43.292721,-0.04798492044210425
2023-01-27 13:54:43.297721,-0.049425324479856564
2023-01-27 13:54:43.302721,-0.05046109482645977
2023-01-27 13:54:43.307721,-0.050863315587212944
2023-01-27 13:54:43.312721,-0.0506774596869945
2023-01-27 13:54:43.317721,-0.05001682948454922
2023-01-27 13:54:43.322721,-0.04911482334136961
2023-01-27 13:54:43.327721,-0.04844467171899224
2023-01-27 13:54:43.332721,-0.0483936071395874
2023-01-27 13:54:43.337721,-0.04882976918776993
2023-01-27 13:54:43.342721,-0.04928310960531227
2023-01-27 13:54:43.347721,-0.04945827224158264
2023-01-27 13:54:43.352721,-0.04923502728343002
2023-01-27 13:54:43.357721,-0.0483352408683835
2023-01-27 13:54:43.362721,-0.0464944057166576
2023-01-27 13:54:43.367721,-0.04388975559867142
2023-01-27 13:54:43.372721,-0.04084488004446019
2023-01-27 13:54:43.377721,-0.03713495875863831
2023-01-27 13:54:43.382721,-0.03223836421966547
2023-01-27 13:54:43.387721,-0.0263862508727226
2023-01-27 13:54:43.392721,-0.020674865692853914
2023-01-27 13:54:43.397721,-0.01589326899856828
2023-01-27 13:54:43.402721,-0.011948148719966406
2023-01-27 13:54:43.407721,-0.008872924579898623
2023-01-27 13:54:43.412721,-0.0077170133590698095
2023-01-27 13:54:43.417721,-0.009708341896057949
2023-01-27 13:54:43.422721,-0.014857053756713772
2023-01-27 13:54:43.427721,-0.021988696547747866
2023-01-27 13:54:43.432721,-0.029882391914725297
2023-01-27 13:54:43.437721,-0.03775309301945034
2023-01-27 13:54:43.442721,-0.044835608452558476
2023-01-27 13:54:43.447721,-0.050295882876784846
2023-01-27 13:54:43.452721,-0.05375465005636211
2023-01-27 13:54:43.457721,-0.05546287245797986
2023-01-27 13:54:43.462721,-0.055846177041530616
2023-01-27 13:54:43.467721,-0.05523461702418933
2023-01-27 13:54:43.472721,-0.054115258157253224
2023-01-27 13:54:43.477721,-0.05328800553805241
2023-01-27 13:54:43.482721,-0.053610406816005665
2023-01-27 13:54:43.487721,-0.05574011310598224
2023-01-27 13:54:43.492721,-0.0599571093916893
2023-01-27 13:54:43.497721,-0.06556676573089774
2023-01-27 13:54:43.502721,-0.06993393599987034
2023-01-27 13:54:43.507721,-0.06814587982711665
2023-01-27 13:54:43.512721,-0.05413929745554919
2023-01-27 13:54:43.517721,-0.023118812813555534
2023-01-27 13:54:43.522721,0.02557913586497297
2023-01-27 13:54:43.527721,0.08630960583687564
2023-01-27 13:54:43.532721,0.1470319479703902
2023-01-27 13:54:43.537721,0.19229915417543023
2023-01-27 13:54:43.542721,0.20864784717559803
2023-01-27 13:54:43.547721,0.1899587506173422
2023-01-27 13:54:43.552721,0.14015635848045332
2023-01-27 13:54:43.557721,0.07199438767505388
2023-01-27 13:54:43.562721,0.0024521350860594424
2023-01-27 13:54:43.567721,-0.05331375920250738
2023-01-27 13:54:43.572721,-0.08681039512157442
2023-01-27 13:54:43.577721,-0.09776966110900023
2023-01-27 13:54:43.582721,-0.09221951663494106
2023-01-27 13:54:43.587721,-0.078688016166696
2023-01-27 13:54:43.592721,-0.06462097167968747
2023-01-27 13:54:43.597721,-0.05432257384403469
2023-01-27 13:54:43.602721,-0.04873017594218244
2023-01-27 13:54:43.607721,-0.04657086737962894
2023-01-27 13:54:43.612721,-0.045941472053527714
2023-01-27 13:54:43.617721,-0.04538197933616922
2023-01-27 13:54:43.622721,-0.04416247457265847
2023-01-27 13:54:43.627721,-0.042129511259688494
2023-01-27 13:54:43.632721,-0.039474569261074
2023-01-27 13:54:43.637721,-0.03650339616335433
2023-01-27 13:54:43.642721,-0.033440392464399296
2023-01-27 13:54:43.647721,-0.030375948486973597
2023-01-27 13:54:43.652721,-0.02733409404754632
2023-01-27 13:54:43.657721,-0.024302646210085772
2023-01-27 13:54:43.662721,-0.02120375633239738
2023-01-27 13:54:43.667721,-0.01793106916002271
2023-01-27 13:54:43.672721,-0.01444836519658557
2023-01-27 13:54:43.677721,-0.010794430538790029
2023-01-27 13:54:43.682721,-0.0069717569276689815
2023-01-27 13:54:43.687721,-0.00287060158355564
2023-01-27 13:54:43.692721,0.0017068784218281317
2023-01-27 13:54:43.697721,0.007003912521611065
2023-01-27 13:54:43.702721,0.013270378112792884
2023-01-27 13:54:43.707721,0.02066771594098405
2023-01-27 13:54:43.712721,0.029161175712942987
2023-01-27 13:54:43.717721,0.03852919011248505
2023-01-27 13:54:43.722721,0.04848977178335175
2023-01-27 13:54:43.727721,0.05881250985368273
2023-01-27 13:54:43.732721,0.06935696303844449
2023-01-27 13:54:43.737721,0.08007240873117794
2023-01-27 13:54:43.742721,0.09094536304473862
2023-01-27 13:54:43.747721,0.10186368561838094
2023-01-27 13:54:43.752721,0.11248569190502158
2023-01-27 13:54:43.757721,0.1222386134253585
2023-01-27 13:54:43.762721,0.13041993975639338
2023-01-27 13:54:43.767721,0.1362894272230637
2023-01-27 13:54:43.772721,0.13914665579795826
2023-01-27 13:54:43.777721,0.1384504900435863
2023-01-27 13:54:43.782721,0.1339298486709593
2023-01-27 13:54:43.787721,0.1255917632846439
2023-01-27 13:54:43.792721,0.11366367340087888
2023-01-27 13:54:43.797721,0.09857459135307593
2023-01-27 13:54:43.802721,0.08096854388713827
2023-01-27 13:54:43.807721,0.06167705060848766
2023-01-27 13:54:43.812721,0.04166225716471668
2023-01-27 13:54:43.817721,0.021974841583533234
2023-01-27 13:54:43.822721,0.003678202629089275
2023-01-27 13:54:43.827721,-0.012314318195679253
2023-01-27 13:54:43.832721,-0.025410851463675433
2023-01-27 13:54:43.837721,-0.03541286776332417
2023-01-27 13:54:43.842721,-0.042503677308559376
2023-01-27 13:54:43.847721,-0.047206820731358845
2023-01-27 13:54:43.852721,-0.050268769264221094
2023-01-27 13:54:43.857721,-0.052428524810662576
2023-01-27 13:54:43.862721,-0.05418737977743137
2023-01-27 13:54:43.867721,-0.05572086213475912
2023-01-27 13:54:43.872721,-0.05692800134420391
2023-01-27 13:54:43.877721,-0.057544306341933575
2023-01-27 13:54:43.882721,-0.05731264874339097
2023-01-27 13:54:43.887721,-0.05618712979849036
2023-01-27 13:54:43.892721,-0.05442778393626214
2023-01-27 13:54:43.897721,-0.05248468149772544
2023-01-27 13:54:43.902721,-0.050773620605468674
2023-01-27 13:54:43.907721,-0.04951500079947405
2023-01-27 13:54:43.912721,-0.04868209362030017
2023-01-27 13:54:43.917721,-0.0480358969776332
2023-01-27 13:54:43.922721,-0.04726370424032212
2023-01-27 13:54:43.927721,-0.04618418048074075
2023-01-27 13:54:43.932721,-0.044859647750854395
2023-01-27 13:54:43.937721,-0.04351986670725062
2023-01-27 13:54:43.942721,-0.04240751266479492
2023-01-27 13:54:43.947721,-0.04168887178354048
2023-01-27 13:54:43.952721,-0.041421853005885995
2023-01-27 13:54:43.957721,-0.04153082084775813
2023-01-27 13:54:43.962721,-0.04183053970336912
2023-01-27 13:54:43.967721,-0.04211872620536702
2023-01-27 13:54:43.972721,-0.04223923012614254
2023-01-27 13:54:43.977721,-0.04206691206590562
2023-01-27 13:54:43.982721,-0.041518013924360206
2023-01-27 13:54:43.987721,-0.04063893989648914
2023-01-27 13:54:43.992721,-0.0396428517997264
2023-01-27 13:54:43.997721,-0.03880271209611331
2023-01-27 13:54:44.002721,-0.03832062333822252
2023-01-27 13:54:44.007721,-0.0382932097508224
2023-01-27 13:54:44.012721,-0.03870527073740948
2023-01-27 13:54:44.017721,-0.0393936256958567
2023-01-27 13:54:44.022721,-0.040099620819091665
2023-01-27 13:54:44.027721,-0.04066148433127671
2023-01-27 13:54:44.032721,-0.04113336652517307
2023-01-27 13:54:44.037721,-0.04165421815187829
2023-01-27 13:54:44.042721,-0.04223923012614247
2023-01-27 13:54:44.047721,-0.04275895203137469
2023-01-27 13:54:44.052721,-0.043056607246398856
2023-01-27 13:54:44.057721,-0.04297508607414477
2023-01-27 13:54:44.062721,-0.0422873124480247
2023-01-27 13:54:44.067721,-0.040705418805525834
2023-01-27 13:54:44.072721,-0.037984054535627296
2023-01-27 13:54:44.077721,-0.033978836276677714
2023-01-27 13:54:44.082721,-0.028656324371695466
2023-01-27 13:54:44.087721,-0.02217985439314439
2023-01-27 13:54:44.092721,-0.015049378387629882
2023-01-27 13:54:44.097721,-0.008121780151208782
2023-01-27 13:54:44.102721,-0.0024521350860594376
2023-01-27 13:54:44.107721,0.0009388144264176219
2023-01-27 13:54:44.112721,0.0012981891632079603
2023-01-27 13:54:44.117721,-0.0016312826372127253
2023-01-27 13:54:44.122721,-0.007476608268916589
2023-01-27 13:54:44.127721,-0.015322351353349842
2023-01-27 13:54:44.132721,-0.023992460221052097
2023-01-27 13:54:44.137721,-0.032352202646049134
2023-01-27 13:54:44.142721,-0.03952264785766599
2023-01-27 13:54:44.147721,-0.04501288454961652
2023-01-27 13:54:44.152721,-0.048754215240478495
2023-01-27 13:54:44.157721,-0.0509982286993137
2023-01-27 13:54:44.162721,-0.052143931388854925
2023-01-27 13:54:44.167721,-0.05262775708178439
2023-01-27 13:54:44.172721,-0.052913229912519386
2023-01-27 13:54:44.177721,-0.05350732201304828
2023-01-27 13:54:44.182721,-0.05493263527750957
2023-01-27 13:54:44.187721,-0.05757615992330787
2023-01-27 13:54:44.192721,-0.061279337853193165
2023-01-27 13:54:44.197721,-0.06466094037824749
2023-01-27 13:54:44.202721,-0.06454885005950918
2023-01-27 13:54:44.207721,-0.056176762903950475
2023-01-27 13:54:44.212721,-0.03459433838725091
2023-01-27 13:54:44.217721,0.002904532742037735
2023-01-27 13:54:44.222721,0.054259501397609634
2023-01-27 13:54:44.227721,0.11140186035525868
2023-01-27 13:54:44.232721,0.16148030757904047
2023-01-27 13:54:44.237721,0.1907109189743259
2023-01-27 13:54:44.242721,0.18951158225536335
2023-01-27 13:54:44.247721,0.15658171789921782
2023-01-27 13:54:44.252721,0.09986440837383266
2023-01-27 13:54:44.257721,0.033784586882779244
2023-01-27 13:54:44.262721,-0.02603590488433828
2023-01-27 13:54:44.267721,-0.06818446280643725
2023-01-27 13:54:44.272721,-0.08861343562602987
2023-01-27 13:54:44.277721,-0.09043702707939913
2023-01-27 13:54:44.282721,-0.08101662248373029
2023-01-27 13:54:44.287721,-0.06815950563500327
2023-01-27 13:54:44.292721,-0.057264566421508636
2023-01-27 13:54:44.297721,-0.05034887780506555
2023-01-27 13:54:44.302721,-0.04678289219737051
2023-01-27 13:54:44.307721,-0.044827072782300026
2023-01-27 13:54:44.312721,-0.04296044632792467
2023-01-27 13:54:44.317721,-0.04045295891057904
2023-01-27 13:54:44.322721,-0.03726283833384508
2023-01-27 13:54:44.327721,-0.03367332690011193
2023-01-27 13:54:44.332721,-0.030002593994140545
2023-01-27 13:54:44.337721,-0.02648469902693675
2023-01-27 13:54:44.342721,-0.02327124401926982
2023-01-27 13:54:44.347721,-0.020460202980805073
2023-01-27 13:54:44.352721,-0.01807848736643789
2023-01-27 13:54:44.357721,-0.01602636017912259
2023-01-27 13:54:44.362721,-0.014063715934753394
2023-01-27 13:54:44.367721,-0.01187869537304734
2023-01-27 13:54:44.372721,-0.009183486923575382
2023-01-27 13:54:44.377721,-0.0057750583732721975
2023-01-27 13:54:44.382721,-0.0015626351814717102
2023-01-27 13:54:44.387721,0.0034323418016292185
2023-01-27 13:54:44.392721,0.009135405533015699
2023-01-27 13:54:44.397721,0.015525147514615862
2023-01-27 13:54:44.402721,0.022694271057844134
2023-01-27 13:54:44.407721,0.030809876515766915
2023-01-27 13:54:44.412721,0.040027499198913484
2023-01-27 13:54:44.417721,0.050422539885962576
2023-01-27 13:54:44.422721,0.061928432434797245
2023-01-27 13:54:44.427721,0.07427954478466259
2023-01-27 13:54:44.432721,0.08702675998210901
2023-01-27 13:54:44.437721,0.09965284103011926
2023-01-27 13:54:44.442721,0.11169235408306122
2023-01-27 13:54:44.447721,0.12275982134523364
2023-01-27 13:54:44.452721,0.13251146674156178
2023-01-27 13:54:44.457721,0.14060742081566763
2023-01-27 13:54:44.462721,0.14667133986949915
2023-01-27 13:54:44.467721,0.1502379802636243
2023-01-27 13:54:44.472721,0.15075823664665214
2023-01-27 13:54:44.477721,0.14771864762236217
2023-01-27 13:54:44.482721,0.14080545306205738
2023-01-27 13:54:44.487721,0.12999643580638637
2023-01-27 13:54:44.492721,0.11556287854909886
2023-01-27 13:54:44.497721,0.09804443772662481
2023-01-27 13:54:44.502721,0.07822792232036586
2023-01-27 13:54:44.507721,0.057115141135544695
2023-01-27 13:54:44.512721,0.03586848825216289
2023-01-27 13:54:44.517721,0.015719369277716704
2023-01-27 13:54:44.522721,-0.0021876893006265163
2023-01-27 13:54:44.527721,-0.01699600165099316
2023-01-27 13:54:44.532721,-0.028295716270804395
2023-01-27 13:54:44.537721,-0.03616773593427888
2023-01-27 13:54:44.542721,-0.0411093235015869
2023-01-27 13:54:44.547721,-0.04386761265302773
2023-01-27 13:54:44.552721,-0.045220255851745585
2023-01-27 13:54:44.557721,-0.04579397647537517
2023-01-27 13:54:44.562721,-0.046013593673705964
2023-01-27 13:54:44.567721,-0.04615639468051395
2023-01-27 13:54:44.572721,-0.046398244798183365
2023-01-27 13:54:44.577721,-0.046813379715353605
2023-01-27 13:54:44.582721,-0.04738390445709223
2023-01-27 13:54:44.587721,-0.04802350712890575
2023-01-27 13:54:44.592721,-0.048561893403530135
2023-01-27 13:54:44.597721,-0.04873231484347312
2023-01-27 13:54:44.602721,-0.04827340692281723
2023-01-27 13:54:44.607721,-0.04710451441364774
2023-01-27 13:54:44.612721,-0.04538854211568835
2023-01-27 13:54:44.617721,-0.04343452066383462
2023-01-27 13:54:44.622721,-0.041590135544538394
2023-01-27 13:54:44.627721,-0.040186878924540766
2023-01-27 13:54:44.632721,-0.039426486939191784
2023-01-27 13:54:44.637721,-0.03922359136562478
2023-01-27 13:54:44.642721,-0.03923416137695307
2023-01-27 13:54:44.647721,-0.03912473008067745
2023-01-27 13:54:44.652721,-0.0387773923575878
2023-01-27 13:54:44.657721,-0.03820981509770438
2023-01-27 13:54:44.662721,-0.03743112087249746
2023-01-27 13:54:44.667721,-0.03651302920822961
2023-01-27 13:54:44.672721,-0.03572424501180637
2023-01-27 13:54:44.677721,-0.035409532138003914
2023-01-27 13:54:44.682721,-0.03570020198822019
2023-01-27 13:54:44.687721,-0.03643439483668023
2023-01-27 13:54:44.692721,-0.037358999252319336
2023-01-27 13:54:44.697721,-0.03831031296598729
2023-01-27 13:54:44.702721,-0.0392101220786571
2023-01-27 13:54:44.707721,-0.04003602854417034
2023-01-27 13:54:44.712721,-0.04086891934275619
2023-01-27 13:54:44.717721,-0.041879174913667744
2023-01-27 13:54:44.722721,-0.043176811188459355
2023-01-27 13:54:44.727721,-0.044689973536420895
2023-01-27 13:54:44.732721,-0.04620591923594467
2023-01-27 13:54:44.737721,-0.04748351366145438
2023-01-27 13:54:44.742721,-0.04832148551940906
2023-01-27 13:54:44.747721,-0.04861099790648413
2023-01-27 13:54:44.752721,-0.048393607139587326
2023-01-27 13:54:44.757721,-0.04783247370311926
2023-01-27 13:54:44.762721,-0.04707137867808335
2023-01-27 13:54:44.767721,-0.046122734866529604
2023-01-27 13:54:44.772721,-0.044883690774440675
2023-01-27 13:54:44.777721,-0.04319404262950119
2023-01-27 13:54:44.782721,-0.0408448800444602
2023-01-27 13:54:44.787721,-0.03759952102981516
2023-01-27 13:54:44.792721,-0.033296149224042795
2023-01-27 13:54:44.797721,-0.027964455279002483
2023-01-27 13:54:44.802721,-0.021876892074942485
2023-01-27 13:54:44.807721,-0.01556701654739828
2023-01-27 13:54:44.812721,-0.009832581505179362
2023-01-27 13:54:44.817721,-0.005624373557566457
2023-01-27 13:54:44.822721,-0.0037743649445473957
2023-01-27 13:54:44.827721,-0.004714632651668083
2023-01-27 13:54:44.832721,-0.00836610794067384
2023-01-27 13:54:44.837721,-0.014192907767707584
2023-01-27 13:54:44.842721,-0.02132396027445789
2023-01-27 13:54:44.847721,-0.028731707108182167
2023-01-27 13:54:44.852721,-0.03548383712768549
2023-01-27 13:54:44.857721,-0.040964642692649544
2023-01-27 13:54:44.862721,-0.044931769371032694
2023-01-27 13:54:44.867721,-0.04742582309405651
2023-01-27 13:54:44.872721,-0.04865805432200433
2023-01-27 13:54:44.877721,-0.04893743085620144
2023-01-27 13:54:44.882721,-0.048634015023708316
2023-01-27 13:54:44.887721,-0.04821026755868375
2023-01-27 13:54:44.892721,-0.04832148551940906
2023-01-27 13:54:44.897721,-0.04981738880724968
2023-01-27 13:54:44.902721,-0.05339404195547097
2023-01-27 13:54:44.907721,-0.05883675607967028
2023-01-27 13:54:44.912721,-0.06414016336202623
2023-01-27 13:54:44.917721,-0.06506462141454475
2023-01-27 13:54:44.922721,-0.05575001239776609
2023-01-27 13:54:44.927721,-0.030708452922543983
2023-01-27 13:54:44.932721,0.012236635200679259
2023-01-27 13:54:44.937721,0.06937954566974519
2023-01-27 13:54:44.942721,0.13054013252258304
2023-01-27 13:54:44.947721,0.1813422313164346
2023-01-27 13:54:44.952721,0.20785450935363753
2023-01-27 13:54:44.957721,0.20179402203427063
2023-01-27 13:54:44.962721,0.16398052871227256
2023-01-27 13:54:44.967721,0.10431883796424987
2023-01-27 13:54:44.972721,0.03815233707427974
2023-01-27 13:54:44.977721,-0.019361708831315116
2023-01-27 13:54:44.982721,-0.05825022980570786
2023-01-27 13:54:44.987721,-0.07600784075350824
2023-01-27 13:54:44.992721,-0.07664124667644497
2023-01-27 13:54:44.997721,-0.06751444181620414
2023-01-27 13:54:45.002721,-0.05579809471964829
2023-01-27 13:54:45.007721,-0.0461057769669684
2023-01-27 13:54:45.012721,-0.03997942060232156
2023-01-27 13:54:45.017721,-0.03682348692731288
2023-01-27 13:54:45.022721,-0.0352915152907371
2023-01-27 13:54:45.027721,-0.034268505574845246
2023-01-27 13:54:45.032721,-0.0331759452819824
2023-01-27 13:54:45.037721,-0.031820972403799996
2023-01-27 13:54:45.042721,-0.03014683723449697
2023-01-27 13:54:45.047721,-0.028108975734622985
2023-01-27 13:54:45.052721,-0.025699337944388233
2023-01-27 13:54:45.057721,-0.023008945172505287
2023-01-27 13:54:45.062721,-0.02021809481084341
2023-01-27 13:54:45.067721,-0.01750259278983598
2023-01-27 13:54:45.072721,-0.01492917537689199
2023-01-27 13:54:45.077721,-0.012413105046034104
2023-01-27 13:54:45.082721,-0.009760459885001078
2023-01-27 13:54:45.087721,-0.006765622359334988
2023-01-27 13:54:45.092721,-0.003293554065748983
2023-01-27 13:54:45.097721,0.0007171416840380592
2023-01-27 13:54:45.102721,0.005312959663569889
2023-01-27 13:54:45.107721,0.010559545277658325
2023-01-27 13:54:45.112721,0.016515851020812863
2023-01-27 13:54:45.117721,0.02321151591209041
2023-01-27 13:54:45.122721,0.030675729736685677
2023-01-27 13:54:45.127721,0.038973170205437495
2023-01-27 13:54:45.132721,0.048201285302638966
2023-01-27 13:54:45.137721,0.058472915828949014
2023-01-27 13:54:45.142721,0.0698858499526977
2023-01-27 13:54:45.147721,0.0824154028515373
2023-01-27 13:54:45.152721,0.09575347602367397
2023-01-27 13:54:45.157721,0.10927053317198109
2023-01-27 13:54:45.162721,0.12219806760549534
2023-01-27 13:54:45.167721,0.1338673434113495
2023-01-27 13:54:45.172721,0.14378647506237024
2023-01-27 13:54:45.177721,0.15156384207003995
2023-01-27 13:54:45.182721,0.15681645274162287
2023-01-27 13:54:45.187721,0.15909308511152231
2023-01-27 13:54:45.192721,0.15780210494995103
2023-01-27 13:54:45.197721,0.15226760378309295
2023-01-27 13:54:45.202721,0.14200747013092038
2023-01-27 13:54:45.207721,0.1270516973814937
2023-01-27 13:54:45.212721,0.10803818702697743
2023-01-27 13:54:45.217721,0.08610257335856263
2023-01-27 13:54:45.222721,0.06274580955505364
2023-01-27 13:54:45.227721,0.03966652058073481
2023-01-27 13:54:45.232721,0.01843909546732903
2023-01-27 13:54:45.237721,0.00017522970957057517
2023-01-27 13:54:45.242721,-0.014568567276000907
2023-01-27 13:54:45.247721,-0.025697368684887364
2023-01-27 13:54:45.252721,-0.03356059640645981
2023-01-27 13:54:45.257721,-0.03894331327905156
2023-01-27 13:54:45.262721,-0.04276812076568604
2023-01-27 13:54:45.267721,-0.04563836437710078
2023-01-27 13:54:45.272721,-0.047744512557983294
2023-01-27 13:54:45.277721,-0.04920187671166454
2023-01-27 13:54:45.282721,-0.050244729965925175
2023-01-27 13:54:45.287721,-0.05098298812595995
2023-01-27 13:54:45.292721,-0.051206350326537996
2023-01-27 13:54:45.297721,-0.050670985812324494
2023-01-27 13:54:45.302721,-0.049499474465847015
2023-01-27 13:54:45.307721,-0.0481295092682764
2023-01-27 13:54:45.312721,-0.04695117473602292
2023-01-27 13:54:45.317721,-0.04615487843101631
2023-01-27 13:54:45.322721,-0.045821271836757584
2023-01-27 13:54:45.327721,-0.045897175493241536
2023-01-27 13:54:45.332721,-0.04606167599558835
2023-01-27 13:54:45.337721,-0.04582420812133191
2023-01-27 13:54:45.342721,-0.044859647750854416
2023-01-27 13:54:45.347721,-0.04320557725063738
2023-01-27 13:54:45.352721,-0.04118144512176511
2023-01-27 13:54:45.357721,-0.039249217417071484
2023-01-27 13:54:45.362721,-0.037911932915449094
2023-01-27 13:54:45.367721,-0.03752490590969064
2023-01-27 13:54:45.372721,-0.03808021545410152
2023-01-27 13:54:45.377721,-0.03922704251405536
2023-01-27 13:54:45.382721,-0.04053235054016105
2023-01-27 13:54:45.387721,-0.04168309024544643
2023-01-27 13:54:45.392721,-0.04250367730855937
2023-01-27 13:54:45.397721,-0.04295265861164787
2023-01-27 13:54:45.402721,-0.04315277189016337
2023-01-27 13:54:45.407721,-0.04330297995802892
2023-01-27 13:54:45.412721,-0.04348933696746822
2023-01-27 13:54:45.417721,-0.04363728165335397
2023-01-27 13:54:45.422721,-0.04365762323141086
2023-01-27 13:54:45.427721,-0.04355189673165281
2023-01-27 13:54:45.432721,-0.04336913675069797
2023-01-27 13:54:45.437721,-0.04317280886649753
2023-01-27 13:54:45.442721,-0.04308065026998508
2023-01-27 13:54:45.447721,-0.04322106345336849
2023-01-27 13:54:45.452721,-0.04358550161123269
2023-01-27 13:54:45.457721,-0.04399887028973359
2023-01-27 13:54:45.462721,-0.04428267478942871
2023-01-27 13:54:45.467721,-0.04438474752290122
2023-01-27 13:54:45.472721,-0.0443307571113109
2023-01-27 13:54:45.477721,-0.04414588771875162
2023-01-27 13:54:45.482721,-0.04387398809194559
2023-01-27 13:54:45.487721,-0.0435919312930706
2023-01-27 13:54:45.492721,-0.043345093727111796
2023-01-27 13:54:45.497721,-0.04311837616850272
2023-01-27 13:54:45.502721,-0.04288832470774648
2023-01-27 13:54:45.507721,-0.04260474849986618
2023-01-27 13:54:45.512721,-0.04204690456390376
2023-01-27 13:54:45.517721,-0.0407503477358998
2023-01-27 13:54:45.522721,-0.03815233707427971
2023-01-27 13:54:45.527721,-0.03384560594924409
2023-01-27 13:54:45.532721,-0.027790864929556784
2023-01-27 13:54:45.537721,-0.020470876391472707
2023-01-27 13:54:45.542721,-0.012933811172842875
2023-01-27 13:54:45.547721,-0.006579899257836937
2023-01-27 13:54:45.552721,-0.002716581104323216
2023-01-27 13:54:45.557721,-0.002155822095529996
2023-01-27 13:54:45.562721,-0.005048513412475472
2023-01-27 13:54:45.567721,-0.010897305601099387
2023-01-27 13:54:45.572721,-0.018679499626159543
2023-01-27 13:54:45.577721,-0.02713353425646615
2023-01-27 13:54:45.582721,-0.035147272050380735
2023-01-27 13:54:45.587721,-0.04199823774447165
2023-01-27 13:54:45.592721,-0.04733582586050028
2023-01-27 13:54:45.597721,-0.05107925283848818
2023-01-27 13:54:45.602721,-0.05336999893188472
2023-01-27 13:54:45.607721,-0.05449694768086137
2023-01-27 13:54:45.612721,-0.054764352738857165
2023-01-27 13:54:45.617721,-0.05447771143390537
2023-01-27 13:54:45.622721,-0.05411525815725319
2023-01-27 13:54:45.627721,-0.05443918021946329
2023-01-27 13:54:45.632721,-0.056278906762599896
2023-01-27 13:54:45.637721,-0.05997785470079603
2023-01-27 13:54:45.642721,-0.06464501470327372
2023-01-27 13:54:45.647721,-0.06744028999790441
2023-01-27 13:54:45.652721,-0.0634189471602439
2023-01-27 13:54:45.657721,-0.04663166177116705
2023-01-27 13:54:45.662721,-0.01262128353118886
2023-01-27 13:54:45.667721,0.0386013885066501
2023-01-27 13:54:45.672721,0.10065774619579304
2023-01-27 13:54:45.677721,0.16127246615249483
2023-01-27 13:54:45.682721,0.20549854636192305
2023-01-27 13:54:45.687721,0.22083145061359352
2023-01-27 13:54:45.692721,0.20213286578655226
2023-01-27 13:54:45.697721,0.15393202141569773
2023-01-27 13:54:45.702721,0.0888298004865645
2023-01-27 13:54:45.707721,0.022779032184999992
2023-01-27 13:54:45.712721,-0.03050744533538811
2023-01-27 13:54:45.717721,-0.0636404601249107
2023-01-27 13:54:45.722721,-0.07666528224945057
2023-01-27 13:54:45.727721,-0.07514746799029035
2023-01-27 13:54:45.732721,-0.06659229844808563
2023-01-27 13:54:45.737721,-0.05719747563396705
2023-01-27 13:54:45.742721,-0.05029281228780739
2023-01-27 13:54:45.747721,-0.04649848704381881
2023-01-27 13:54:45.752721,-0.04481156915426244
2023-01-27 13:54:45.757721,-0.04383114920666821
2023-01-27 13:54:45.762721,-0.042599838227033594
2023-01-27 13:54:45.767721,-0.04080335392884197
2023-01-27 13:54:45.772721,-0.03848890587687486
2023-01-27 13:54:45.777721,-0.035789405076702724
2023-01-27 13:54:45.782721,-0.03291150182485575
2023-01-27 13:54:45.787721,-0.03016503941019824
2023-01-27 13:54:45.792721,-0.027814906090497936
2023-01-27 13:54:45.797721,-0.02592036860021658
2023-01-27 13:54:45.802721,-0.024353068321943196
2023-01-27 13:54:45.807721,-0.022859030493562235
2023-01-27 13:54:45.812721,-0.02103547379374498
2023-01-27 13:54:45.817721,-0.01840483008643295
2023-01-27 13:54:45.822721,-0.014688770286738834
2023-01-27 13:54:45.827721,-0.009979299253225812
2023-01-27 13:54:45.832721,-0.0045677027665078545
2023-01-27 13:54:45.837721,0.0013087193946916026
2023-01-27 13:54:45.842721,0.0075006484985350895
2023-01-27 13:54:45.847721,0.013930393552131212
2023-01-27 13:54:45.852721,0.02074698731303204
2023-01-27 13:54:45.857721,0.028402748054003883
2023-01-27 13:54:45.862721,0.03738304227590557
2023-01-27 13:54:45.867721,0.04789582679535778
2023-01-27 13:54:45.872721,0.05990902706980696
2023-01-27 13:54:45.877721,0.07328677156111096
2023-01-27 13:54:45.882721,0.08762776851654044
2023-01-27 13:54:45.887721,0.10210775206486823
2023-01-27 13:54:45.892721,0.11582732200622549
2023-01-27 13:54:45.897721,0.1283096896087146
2023-01-27 13:54:45.902721,0.13938705623149875
2023-01-27 13:54:45.907721,0.14867126929216362
2023-01-27 13:54:45.912721,0.15554229915142048
2023-01-27 13:54:45.917721,0.15969301947451608
2023-01-27 13:54:45.922721,0.16119182109832758
2023-01-27 13:54:45.927721,0.15973851866330668
2023-01-27 13:54:45.932721,0.15424410998821242
2023-01-27 13:54:45.937721,0.1435875116672085
2023-01-27 13:54:45.942721,0.12770335376262654
2023-01-27 13:54:45.947721,0.10769751882018587
2023-01-27 13:54:45.952721,0.08510351181030269
2023-01-27 13:54:45.957721,0.061381616595320716
2023-01-27 13:54:45.962721,0.037984054535627296
2023-01-27 13:54:45.967721,0.016338053679494955
2023-01-27 13:54:45.972721,-0.002524256706237741
2023-01-27 13:54:45.977721,-0.018171241723355692
2023-01-27 13:54:45.982721,-0.030531486496329335
2023-01-27 13:54:45.987721,-0.0396481336653312
2023-01-27 13:54:45.992721,-0.04577318951487539
2023-01-27 13:54:45.997721,-0.04949971098435899
2023-01-27 13:54:46.002721,-0.051591001451015396
2023-01-27 13:54:46.007721,-0.052700190383082636
2023-01-27 13:54:46.012721,-0.053297877311706494
2023-01-27 13:54:46.017721,-0.05372602527913234
2023-01-27 13:54:46.022721,-0.05416333675384516
2023-01-27 13:54:46.027721,-0.054587797924844424
2023-01-27 13:54:46.032721,-0.05490859597921369
2023-01-27 13:54:46.037721,-0.05514075952124912
2023-01-27 13:54:46.042721,-0.05538940429687501
2023-01-27 13:54:46.047721,-0.05570149281648732
2023-01-27 13:54:46.052721,-0.05601445958018298
2023-01-27 13:54:46.057721,-0.056221922066207276
2023-01-27 13:54:46.062721,-0.05620678514242171
2023-01-27 13:54:46.067721,-0.05583549569973102
2023-01-27 13:54:46.072721,-0.05502879619598379
2023-01-27 13:54:46.077721,-0.053871678708138554
2023-01-27 13:54:46.082721,-0.052600704133510465
2023-01-27 13:54:46.087721,-0.05146817290339599
2023-01-27 13:54:46.092721,-0.05065342038869851
2023-01-27 13:54:46.097721,-0.050281642254608884
2023-01-27 13:54:46.102721,-0.05043705552816387
2023-01-27 13:54:46.107721,-0.05111738049599941
2023-01-27 13:54:46.112721,-0.0522160530090332
2023-01-27 13:54:46.117721,-0.053565497414645426
2023-01-27 13:54:46.122721,-0.054956674575805546
2023-01-27 13:54:46.127721,-0.05611775143925908
2023-01-27 13:54:46.132721,-0.0567597150802612
2023-01-27 13:54:46.137721,-0.056716232404495893
2023-01-27 13:54:46.142721,-0.05603849887847893
2023-01-27 13:54:46.147721,-0.05494836657489924
2023-01-27 13:54:46.152721,-0.053730607032775754
2023-01-27 13:54:46.157721,-0.05265881917727538
2023-01-27 13:54:46.162721,-0.05192756652832029
2023-01-27 13:54:46.167721,-0.05157507345929436
2023-01-27 13:54:46.172721,-0.05149483680725088
2023-01-27 13:54:46.177721,-0.051577072922529464
2023-01-27 13:54:46.182721,-0.05183140560984609
2023-01-27 13:54:46.187721,-0.05234609918370346
2023-01-27 13:54:46.192721,-0.05315363407134994
2023-01-27 13:54:46.197721,-0.054158692487730524
2023-01-27 13:54:46.202721,-0.05514900013804428
2023-01-27 13:54:46.207721,-0.05583433261009
2023-01-27 13:54:46.212721,-0.05594233796000478
2023-01-27 13:54:46.217721,-0.055391805445672106
2023-01-27 13:54:46.222721,-0.0544037446379661
2023-01-27 13:54:46.227721,-0.053397128198209354
2023-01-27 13:54:46.232721,-0.05274494737386698
2023-01-27 13:54:46.237721,-0.05260382527627504
2023-01-27 13:54:46.242721,-0.05288919061422339
2023-01-27 13:54:46.247721,-0.05332020513822823
2023-01-27 13:54:46.252721,-0.05351424217224119
2023-01-27 13:54:46.257721,-0.053161524130760716
2023-01-27 13:54:46.262721,-0.05219201371073717
2023-01-27 13:54:46.267721,-0.05078518546932254
2023-01-27 13:54:46.272721,-0.049235027283429995
2023-01-27 13:54:46.277721,-0.04781797811550843
2023-01-27 13:54:46.282721,-0.046710770577192307
2023-01-27 13:54:46.287721,-0.04589145648169904
2023-01-27 13:54:46.292721,-0.04505197331309306
2023-01-27 13:54:46.297721,-0.04365264637770531
2023-01-27 13:54:46.302721,-0.04113336652517307
2023-01-27 13:54:46.307721,-0.037147922995469304
2023-01-27 13:54:46.312721,-0.03173351287841791
2023-01-27 13:54:46.317721,-0.025412080110829422
2023-01-27 13:54:46.322721,-0.019160311669111193
2023-01-27 13:54:46.327721,-0.014162813068126676
2023-01-27 13:54:46.332721,-0.011443297378718815
2023-01-27 13:54:46.337721,-0.011601648707302275
2023-01-27 13:54:46.342721,-0.014736851677298508
2023-01-27 13:54:46.347721,-0.020450089620696655
2023-01-27 13:54:46.352721,-0.027887027710676117
2023-01-27 13:54:46.357721,-0.035903488949763335
2023-01-27 13:54:46.362721,-0.043345093727111775
2023-01-27 13:54:46.367721,-0.04929196618324705
2023-01-27 13:54:46.372721,-0.053201716393232304
2023-01-27 13:54:46.377721,-0.055011543321929875
2023-01-27 13:54:46.382721,-0.05517303943634026
2023-01-27 13:54:46.387721,-0.0544932904126492
2023-01-27 13:54:46.392721,-0.0538267716765403
2023-01-27 13:54:46.397721,-0.05386960251960982
2023-01-27 13:54:46.402721,-0.05517303943634026
2023-01-27 13:54:46.407721,-0.05817875045620139
2023-01-27 13:54:46.412721,-0.06301026046276084
2023-01-27 13:54:46.417721,-0.06894760450381
2023-01-27 13:54:46.422721,-0.0737323388457298
2023-01-27 13:54:46.427721,-0.07311328659488654
2023-01-27 13:54:46.432721,-0.061327420175075475
2023-01-27 13:54:46.437721,-0.03304087490187682
2023-01-27 13:54:46.442721,0.013655027374625194
2023-01-27 13:54:46.447721,0.07465519674666314
2023-01-27 13:54:46.452721,0.13931493461132033
2023-01-27 13:54:46.457721,0.19278943948171356
2023-01-27 13:54:46.462721,0.2207402437925337
2023-01-27 13:54:46.467721,0.21469503718106292
2023-01-27 13:54:46.472721,0.17564019560813895
2023-01-27 13:54:46.477721,0.11388922613892136
2023-01-27 13:54:46.482721,0.04512409493327139
2023-01-27 13:54:46.487721,-0.015380577989182171
2023-01-27 13:54:46.492721,-0.05760113522410383
2023-01-27 13:54:46.497721,-0.07887434714695013
2023-01-27 13:54:46.502721,-0.08298794925212856
2023-01-27 13:54:46.507721,-0.07712430601752884
2023-01-27 13:54:46.512721,-0.06825109571218482
2023-01-27 13:54:46.517721,-0.06070368483891186
2023-01-27 13:54:46.522721,-0.05584617704153059
2023-01-27 13:54:46.527721,-0.053208677044669646
2023-01-27 13:54:46.532721,-0.05173524469137184
2023-01-27 13:54:46.537721,-0.05039982286086162
2023-01-27 13:54:46.542721,-0.04844168946146953
2023-01-27 13:54:46.547721,-0.04560080224510766
2023-01-27 13:54:46.552721,-0.0422151908278465
2023-01-27 13:54:46.557721,-0.038927482445303994
2023-01-27 13:54:46.562721,-0.03620505332946774
2023-01-27 13:54:46.567721,-0.03411583530912013
2023-01-27 13:54:46.572721,-0.032454729080200105
2023-01-27 13:54:46.577721,-0.030941882335787946
2023-01-27 13:54:46.582721,-0.02930541895329954
2023-01-27 13:54:46.587721,-0.02733490399067159
2023-01-27 13:54:46.592721,-0.024978121742606125
2023-01-27 13:54:46.597721,-0.02235259020820194
2023-01-27 13:54:46.602721,-0.01956900022923945
2023-01-27 13:54:46.607721,-0.016521931046656
2023-01-27 13:54:46.612721,-0.01288572978228331
2023-01-27 13:54:46.617721,-0.008307931218969344
2023-01-27 13:54:46.622721,-0.0025723378639667515
2023-01-27 13:54:46.627721,0.004390637153554025
2023-01-27 13:54:46.632721,0.012549161911010697
2023-01-27 13:54:46.637721,0.02178334419077942
2023-01-27 13:54:46.642721,0.03192583844065659
2023-01-27 13:54:46.647721,0.04285601076373708
2023-01-27 13:54:46.652721,0.054523944854736314
2023-01-27 13:54:46.657721,0.06683904823911699
2023-01-27 13:54:46.662721,0.07957419008016577
2023-01-27 13:54:46.667721,0.09242405966303192
2023-01-27 13:54:46.672721,0.10510524362325657
2023-01-27 13:54:46.677721,0.1173236962717461
2023-01-27 13:54:46.682721,0.12866497039794922
2023-01-27 13:54:46.687721,0.13856784674097988
2023-01-27 13:54:46.692721,0.14635881781578058
2023-01-27 13:54:46.697721,0.15123799826439793
2023-01-27 13:54:46.702721,0.15229682624340038
2023-01-27 13:54:46.707721,0.14872384895457733
2023-01-27 13:54:46.712721,0.14010827243328083
2023-01-27 13:54:46.717721,0.12659255414757975
2023-01-27 13:54:46.722721,0.1088315248489379
2023-01-27 13:54:46.727721,0.08790774562412665
2023-01-27 13:54:46.732721,0.06522198766469946
2023-01-27 13:54:46.737721,0.04225947534165926
2023-01-27 13:54:46.742721,0.020314257591962787
2023-01-27 13:54:46.747721,0.0003807155566876415
2023-01-27 13:54:46.752721,-0.01680433750152582
2023-01-27 13:54:46.757721,-0.030775503037025757
2023-01-27 13:54:46.762721,-0.041421853005885995
2023-01-27 13:54:46.767721,-0.048957189213712976
2023-01-27 13:54:46.772721,-0.0537786893546581
2023-01-27 13:54:46.777721,-0.0564068437071898
2023-01-27 13:54:46.782721,-0.057504974305629744
2023-01-27 13:54:46.787721,-0.05777545863716778
2023-01-27 13:54:46.792721,-0.05774537846446033
2023-01-27 13:54:46.797721,-0.057694397269034386
2023-01-27 13:54:46.802721,-0.057769417762756334
2023-01-27 13:54:46.807721,-0.05805267091649756
2023-01-27 13:54:46.812721,-0.05851467698812483
2023-01-27 13:54:46.817721,-0.05904289731427294
2023-01-27 13:54:46.822721,-0.05957245826721193
2023-01-27 13:54:46.827721,-0.060099999890724155
2023-01-27 13:54:46.832721,-0.06055812165141103
2023-01-27 13:54:46.837721,-0.060801475652966085
2023-01-27 13:54:46.842721,-0.0607504472136497
2023-01-27 13:54:46.847721,-0.06043282198572467
2023-01-27 13:54:46.852721,-0.05986094474792483
2023-01-27 13:54:46.857721,-0.05900621147517871
2023-01-27 13:54:46.862721,-0.05793770402669901
2023-01-27 13:54:46.867721,-0.056846181437312196
2023-01-27 13:54:46.872721,-0.05587021633982645
2023-01-27 13:54:46.877721,-0.05502159415249805
2023-01-27 13:54:46.882721,-0.054331623017787906
2023-01-27 13:54:46.887721,-0.05393505721673898
2023-01-27 13:54:46.892721,-0.0539469718933105
2023-01-27 13:54:46.897721,-0.05438003936167892
2023-01-27 13:54:46.902721,-0.05522112175822249
2023-01-27 13:54:46.907721,-0.05642312917713598
2023-01-27 13:54:46.912721,-0.057745378464460324
2023-01-27 13:54:46.917721,-0.05876828670694715
2023-01-27 13:54:46.922721,-0.0591878108680248
2023-01-27 13:54:46.927721,-0.059008389373426534
2023-01-27 13:54:46.932721,-0.058418512344360296
2023-01-27 13:54:46.937721,-0.05764464178950808
2023-01-27 13:54:46.942721,-0.056976079940795794
2023-01-27 13:54:46.947721,-0.056703993138481616
2023-01-27 13:54:46.952721,-0.0568799190223217
2023-01-27 13:54:46.957721,-0.057267194749616945
2023-01-27 13:54:46.962721,-0.057625174522399916
2023-01-27 13:54:46.967721,-0.057888342415015226
2023-01-27 13:54:46.972721,-0.05800982564687723
2023-01-27 13:54:46.977721,-0.057882314556860076
2023-01-27 13:54:46.982721,-0.057577095925807925
2023-01-27 13:54:46.987721,-0.057456039691940325
2023-01-27 13:54:46.992721,-0.057865582406520726
2023-01-27 13:54:46.997721,-0.05887090094204028
2023-01-27 13:54:47.002721,-0.06038983911275859
2023-01-27 13:54:47.007721,-0.06232257077068444
2023-01-27 13:54:47.012721,-0.06435652822256072
2023-01-27 13:54:47.017721,-0.06590860887202617
2023-01-27 13:54:47.022721,-0.06654421985149374
2023-01-27 13:54:47.027721,-0.0663101662220648
2023-01-27 13:54:47.032721,-0.06548643112182603
2023-01-27 13:54:47.037721,-0.06425746315101638
2023-01-27 13:54:47.042721,-0.0628419741988182
2023-01-27 13:54:47.047721,-0.0616314810862175
2023-01-27 13:54:47.052721,-0.06084660813212383
2023-01-27 13:54:47.057721,-0.0602623082488105
2023-01-27 13:54:47.062721,-0.059572458267211914
2023-01-27 13:54:47.067721,-0.058768825479740314
2023-01-27 13:54:47.072721,-0.05781750008463848
2023-01-27 13:54:47.077721,-0.05625123468941526
2023-01-27 13:54:47.082721,-0.05351424217224117
2023-01-27 13:54:47.087721,-0.04947524071305601
2023-01-27 13:54:47.092721,-0.04421055316925043
2023-01-27 13:54:47.097721,-0.03767131494177853
2023-01-27 13:54:47.102721,-0.03019491955637926
2023-01-27 13:54:47.107721,-0.023062608700093135
2023-01-27 13:54:47.112721,-0.017814040184020892
2023-01-27 13:54:47.117721,-0.015137505626958156
2023-01-27 13:54:47.122721,-0.015049378387629864
2023-01-27 13:54:47.127721,-0.01776084761764279
2023-01-27 13:54:47.132721,-0.023271244019269877
2023-01-27 13:54:47.137721,-0.030229815006886297
2023-01-27 13:54:47.142721,-0.03656566143035878
2023-01-27 13:54:47.147721,-0.04164830381818019
2023-01-27 13:54:47.152721,-0.04666268825531003
2023-01-27 13:54:47.157721,-0.05229888915662932
2023-01-27 13:54:47.162721,-0.05726456642150871
2023-01-27 13:54:47.167721,-0.05998986750818854
2023-01-27 13:54:47.172721,-0.06079852581024162
2023-01-27 13:54:47.177721,-0.06120007837622943
2023-01-27 13:54:47.182721,-0.06173610687255849
2023-01-27 13:54:47.187721,-0.06190928043511219
2023-01-27 13:54:47.192721,-0.061952471733093206
2023-01-27 13:54:47.197721,-0.06324447568709077
2023-01-27 13:54:47.202721,-0.06666442006826401
2023-01-27 13:54:47.207721,-0.0712752449646641
2023-01-27 13:54:47.212721,-0.07445355504751196
2023-01-27 13:54:47.217721,-0.07215070525278325
2023-01-27 13:54:47.222721,-0.05897144600749004
2023-01-27 13:54:47.227721,-0.029778499297092764
2023-01-27 13:54:47.232721,0.01682837866246703
2023-01-27 13:54:47.237721,0.07571363551566923
2023-01-27 13:54:47.242721,0.13549248874187458
2023-01-27 13:54:47.247721,0.18167957091815037
2023-01-27 13:54:47.252721,0.2012193202972412
2023-01-27 13:54:47.257721,0.18723940413547416
2023-01-27 13:54:47.262721,0.14236807823181144
2023-01-27 13:54:47.267721,0.07833355293130967
2023-01-27 13:54:47.272721,0.011371175758540639
2023-01-27 13:54:47.277721,-0.043940632130790504
2023-01-27 13:54:47.282721,-0.07909338176250444
2023-01-27 13:54:47.287721,-0.09299493725266753
2023-01-27 13:54:47.292721,-0.09065687656402573
2023-01-27 13:54:47.297721,-0.08001245722950291
2023-01-27 13:54:47.302721,-0.06817897409200659
2023-01-27 13:54:47.307721,-0.05910667760513036
2023-01-27 13:54:47.312721,-0.053610406816005686
2023-01-27 13:54:47.317721,-0.05077943628998647
2023-01-27 13:54:47.322721,-0.049210987985134076
2023-01-27 13:54:47.327721,-0.04769283168781723
2023-01-27 13:54:47.332721,-0.04565298557281485
2023-01-27 13:54:47.337721,-0.0432286922284402
2023-01-27 13:54:47.342721,-0.040772758424281956
2023-01-27 13:54:47.347721,-0.03836991312751655
2023-01-27 13:54:47.352721,-0.03594060987234109
2023-01-27 13:54:47.357721,-0.0335559250005111
2023-01-27 13:54:47.362721,-0.03134886547923081
2023-01-27 13:54:47.367721,-0.029243084984497215
2023-01-27 13:54:47.372721,-0.02702156826853751
2023-01-27 13:54:47.377721,-0.02455048032780225
2023-01-27 13:54:47.382721,-0.02170860767364501
2023-01-27 13:54:47.387721,-0.0182249856007351
2023-01-27 13:54:47.392721,-0.013847351074218674
2023-01-27 13:54:47.397721,-0.008606741650166167
2023-01-27 13:54:47.402721,-0.0027165811043232133
2023-01-27 13:54:47.407721,0.003700839966323973
2023-01-27 13:54:47.412721,0.010601878166198685
2023-01-27 13:54:47.417721,0.017867149992264398
2023-01-27 13:54:47.422721,0.025410851463675412
2023-01-27 13:54:47.427721,0.03338930089366727
2023-01-27 13:54:47.432721,0.04209498688578597
2023-01-27 13:54:47.437721,0.051683538779623485
2023-01-27 13:54:47.442721,0.06214479729533186
2023-01-27 13:54:47.447721,0.07340715531947554
2023-01-27 13:54:47.452721,0.08522371947765345
2023-01-27 13:54:47.457721,0.09700572976758255
2023-01-27 13:54:47.462721,0.10799010843038541
2023-01-27 13:54:47.467721,0.11757175911680137
2023-01-27 13:54:47.472721,0.12534737586975084
2023-01-27 13:54:47.477721,0.13093508058289025
2023-01-27 13:54:47.482721,0.1339538991451262
2023-01-27 13:54:47.487721,0.13411707848057705
2023-01-27 13:54:47.492721,0.1311411559581755
2023-01-27 13:54:47.497721,0.12461490137957315
2023-01-27 13:54:47.502721,0.11419256776571263
2023-01-27 13:54:47.507721,0.09996818459874089
2023-01-27 13:54:47.512721,0.08257925510406486
2023-01-27 13:54:47.517721,0.06303294766738082
2023-01-27 13:54:47.522721,0.0425757989287376
2023-01-27 13:54:47.527721,0.022585315308453487
2023-01-27 13:54:47.532721,0.004255175590515113
2023-01-27 13:54:47.537721,-0.011740082018416887
2023-01-27 13:54:47.542721,-0.025218527764081865
2023-01-27 13:54:47.547721,-0.036216481211593765
2023-01-27 13:54:47.552721,-0.04488369077444072
2023-01-27 13:54:47.557721,-0.05153810570332546
2023-01-27 13:54:47.562721,-0.056567393243312794
2023-01-27 13:54:47.567721,-0.0602443338413797
2023-01-27 13:54:47.572721,-0.0627698525786399
2023-01-27 13:54:47.577721,-0.06443733264270753
2023-01-27 13:54:47.582721,-0.06555855274200426
2023-01-27 13:54:47.587721,-0.06624614863502185
2023-01-27 13:54:47.592721,-0.06644805520772927
2023-01-27 13:54:47.597721,-0.0661830814538749
2023-01-27 13:54:47.602721,-0.06558259576559056
2023-01-27 13:54:47.607721,-0.06474028381272294
2023-01-27 13:54:47.612721,-0.06370743364095681
2023-01-27 13:54:47.617721,-0.06260595279894715
2023-01-27 13:54:47.622721,-0.06154378503561011
2023-01-27 13:54:47.627721,-0.06042520407005313
2023-01-27 13:54:47.632721,-0.05904356762766826
2023-01-27 13:54:47.637721,-0.057383444723498093
2023-01-27 13:54:47.642721,-0.05567789077758777
2023-01-27 13:54:47.647721,-0.05418331161642434
2023-01-27 13:54:47.652721,-0.05305747315287593
2023-01-27 13:54:47.657721,-0.05240526775749765
2023-01-27 13:54:47.662721,-0.05221605300903318
2023-01-27 13:54:47.667721,-0.0522525206012413
2023-01-27 13:54:47.672721,-0.05221605300903316
2023-01-27 13:54:47.677721,-0.052049230906535626
2023-01-27 13:54:47.682721,-0.05190352723002431
2023-01-27 13:54:47.687721,-0.05183807800650813
2023-01-27 13:54:47.692721,-0.051783323287963826
2023-01-27 13:54:47.697721,-0.051798892603817134
2023-01-27 13:54:47.702721,-0.05209585279226301
2023-01-27 13:54:47.707721,-0.05273328856420024
2023-01-27 13:54:47.712721,-0.05351424217224122
2023-01-27 13:54:47.717721,-0.05424207831985693
2023-01-27 13:54:47.722721,-0.05486051365733141
2023-01-27 13:54:47.727721,-0.05528981680355682
2023-01-27 13:54:47.732721,-0.05538940429687498
2023-01-27 13:54:47.737721,-0.05520780430584323
2023-01-27 13:54:47.742721,-0.05505283921957006
2023-01-27 13:54:47.747721,-0.055176025152886075
2023-01-27 13:54:47.752721,-0.05555769056081765
2023-01-27 13:54:47.757721,-0.05609591689444847
2023-01-27 13:54:47.762721,-0.056783758103847504
2023-01-27 13:54:47.767721,-0.057546255708749675
2023-01-27 13:54:47.772721,-0.05810598656535137
2023-01-27 13:54:47.777721,-0.058222911194302646
2023-01-27 13:54:47.782721,-0.057961743324995
2023-01-27 13:54:47.787721,-0.05756624655562076
2023-01-27 13:54:47.792721,-0.057168405503034495
2023-01-27 13:54:47.797721,-0.05674589717284978
2023-01-27 13:54:47.802721,-0.05623082444071758
2023-01-27 13:54:47.807721,-0.055477875659638964
2023-01-27 13:54:47.812721,-0.05418737977743142
2023-01-27 13:54:47.817721,-0.05200581095819391
2023-01-27 13:54:47.822721,-0.0486820936203002
2023-01-27 13:54:47.827721,-0.044085728301622024
2023-01-27 13:54:47.832721,-0.038224458694458015
2023-01-27 13:54:47.837721,-0.03142180849471544
2023-01-27 13:54:47.842721,-0.02444922924041739
2023-01-27 13:54:47.847721,-0.018373490143408423
2023-01-27 13:54:47.852721,-0.014256040565669526
2023-01-27 13:54:47.857721,-0.012930660881823599
2023-01-27 13:54:47.862721,-0.014808973297476736
2023-01-27 13:54:47.867721,-0.019659474950362847
2023-01-27 13:54:47.872721,-0.026588838547468095
2023-01-27 13:54:47.877721,-0.03437372485932036
2023-01-27 13:54:47.882721,-0.04187862202525132
2023-01-27 13:54:47.887721,-0.04826420582008771
2023-01-27 13:54:47.892721,-0.053057473152875935
2023-01-27 13:54:47.897721,-0.05622034494820623
2023-01-27 13:54:47.902721,-0.05808194726705546
2023-01-27 13:54:47.907721,-0.059050035501673696
2023-01-27 13:54:47.912721,-0.05938013643026349
2023-01-27 13:54:47.917721,-0.05925762816469654
2023-01-27 13:54:47.922721,-0.059019528329372364
2023-01-27 13:54:47.927721,-0.05921555408154624
2023-01-27 13:54:47.932721,-0.06046196073293679
2023-01-27 13:54:47.937721,-0.06308244686735456
2023-01-27 13:54:47.942721,-0.06639997661113732
2023-01-27 13:54:47.947721,-0.06787917437600878
2023-01-27 13:54:47.952721,-0.06293813884258266
2023-01-27 13:54:47.957721,-0.046177402131911946
2023-01-27 13:54:47.962721,-0.013847351074218655
2023-01-27 13:54:47.967721,0.033489798370897696
2023-01-27 13:54:47.972721,0.08938273042440403
2023-01-27 13:54:47.977721,0.14208937365328217
2023-01-27 13:54:47.982721,0.17780384421348563
2023-01-27 13:54:47.987721,0.18562383670375995
2023-01-27 13:54:47.992721,0.16200920939445482
2023-01-27 13:54:47.997721,0.11244293490332045
2023-01-27 13:54:48.002721,0.049499474465846974
2023-01-27 13:54:48.007721,-0.01169545352513912
2023-01-27 13:54:48.012721,-0.05863487720489495
2023-01-27 13:54:48.017721,-0.08512272492457958
2023-01-27 13:54:48.022721,-0.09205123037099827
2023-01-27 13:54:48.027721,-0.08530138924926958
2023-01-27 13:54:48.032721,-0.07231394946575154
2023-01-27 13:54:48.037721,-0.059209295581699
2023-01-27 13:54:48.042721,-0.049403309822082464
2023-01-27 13:54:48.047721,-0.04363286310637333
2023-01-27 13:54:48.052721,-0.04089295864105217
2023-01-27 13:54:48.057721,-0.0396658895618693
2023-01-27 13:54:48.062721,-0.03877739235758779
2023-01-27 13:54:48.067721,-0.03757835868860817
2023-01-27 13:54:48.072721,-0.03577232360839839
2023-01-27 13:54:48.077721,-0.033330296997812356
2023-01-27 13:54:48.082721,-0.03048340603709217
2023-01-27 13:54:48.087721,-0.027575003924704765
2023-01-27 13:54:48.092721,-0.02485791966319078
2023-01-27 13:54:48.097721,-0.022459585699548833
2023-01-27 13:54:48.102721,-0.020434459671378073
2023-01-27 13:54:48.107721,-0.01870168486596801
2023-01-27 13:54:48.112721,-0.016972621902823393
2023-01-27 13:54:48.117721,-0.01488125711650573
2023-01-27 13:54:48.122721,-0.012188553810119605
2023-01-27 13:54:48.127721,-0.008783230550763112
2023-01-27 13:54:48.132721,-0.004543662071227975
2023-01-27 13:54:48.137721,0.0006716353306420946
2023-01-27 13:54:48.142721,0.006923675537109275
2023-01-27 13:54:48.147721,0.014200584201198234
2023-01-27 13:54:48.152721,0.022501945495605434
2023-01-27 13:54:48.157721,0.03180183751533722
2023-01-27 13:54:48.162721,0.04195074364542962
2023-01-27 13:54:48.167721,0.052736876513675764
2023-01-27 13:54:48.172721,0.06404399871826168
2023-01-27 13:54:48.177721,0.07584443674616802
2023-01-27 13:54:48.182721,0.08803646266460405
2023-01-27 13:54:48.187721,0.1003722608505257
2023-01-27 13:54:48.192721,0.1125097274780273
2023-01-27 13:54:48.197721,0.12400666205878746
2023-01-27 13:54:48.202721,0.13426642119884485
2023-01-27 13:54:48.207721,0.1426171964961899
2023-01-27 13:54:48.212721,0.14847438037395463
2023-01-27 13:54:48.217721,0.1513404442783703
2023-01-27 13:54:48.222721,0.15066206455230696
2023-01-27 13:54:48.227721,0.1458383749905678
2023-01-27 13:54:48.232721,0.13645410537719715
2023-01-27 13:54:48.237721,0.12248704164239772
2023-01-27 13:54:48.242721,0.10435998439788807
2023-01-27 13:54:48.247721,0.08297133281383386
2023-01-27 13:54:48.252721,0.05971670150756833
2023-01-27 13:54:48.257721,0.036288803486916585
2023-01-27 13:54:48.262721,0.01425604056566951
2023-01-27 13:54:48.267721,-0.005227563363554277
2023-01-27 13:54:48.272721,-0.021396081894636054
2023-01-27 13:54:48.277721,-0.033806670706189
2023-01-27 13:54:48.282721,-0.0424796342849731
2023-01-27 13:54:48.287721,-0.048002121740156535
2023-01-27 13:54:48.292721,-0.05127847194671625
2023-01-27 13:54:48.297721,-0.05312941663160834
2023-01-27 13:54:48.302721,-0.05418737977743137
2023-01-27 13:54:48.307721,-0.05504765837093237
2023-01-27 13:54:48.312721,-0.0562067851424217
2023-01-27 13:54:48.317721,-0.05770983353141774
2023-01-27 13:54:48.322721,-0.059043567627668304
2023-01-27 13:54:48.327721,-0.059600527790302435
2023-01-27 13:54:48.332721,-0.059235893189907
2023-01-27 13:54:48.337721,-0.05827937750765835
2023-01-27 13:54:48.342721,-0.05712032318115227
2023-01-27 13:54:48.347721,-0.05599444360070305
2023-01-27 13:54:48.352721,-0.05512496083974829
2023-01-27 13:54:48.357721,-0.054763363484201646
2023-01-27 13:54:48.362721,-0.054932635277509564
2023-01-27 13:54:48.367721,-0.05528820165515227
2023-01-27 13:54:48.372721,-0.055389404296874944
2023-01-27 13:54:48.377721,-0.05503214817052071
2023-01-27 13:54:48.382721,-0.05423545837402337
2023-01-27 13:54:48.387721,-0.05305554446344107
2023-01-27 13:54:48.392721,-0.05159100145101535
2023-01-27 13:54:48.397721,-0.050085387490002534
2023-01-27 13:54:48.402721,-0.04882633686065667
2023-01-27 13:54:48.407721,-0.04793873017265328
2023-01-27 13:54:48.412721,-0.04738390445709221
2023-01-27 13:54:48.417721,-0.04710774655459678
2023-01-27 13:54:48.422721,-0.04704733937978739
2023-01-27 13:54:48.427721,-0.04703941750585873
2023-01-27 13:54:48.432721,-0.046903096139430875
2023-01-27 13:54:48.437721,-0.046637569800647524
2023-01-27 13:54:48.442721,-0.04642228409647937
2023-01-27 13:54:48.447721,-0.04642475908145595
2023-01-27 13:54:48.452721,-0.04671077057719231
2023-01-27 13:54:48.457721,-0.04729399042149138
2023-01-27 13:54:48.462721,-0.04810512065887451
2023-01-27 13:54:48.467721,-0.04891030807755436
2023-01-27 13:54:48.472721,-0.049427352845668716
2023-01-27 13:54:48.477721,-0.049576119088879475
2023-01-27 13:54:48.482721,-0.049523513764142886
2023-01-27 13:54:48.487721,-0.04949518729307095
2023-01-27 13:54:48.492721,-0.04966775700449936
2023-01-27 13:54:48.497721,-0.05021439103104834
2023-01-27 13:54:48.502721,-0.05125443264842028
2023-01-27 13:54:48.507721,-0.05267979061259552
2023-01-27 13:54:48.512721,-0.054139297455549185
2023-01-27 13:54:48.517721,-0.05523747809480818
2023-01-27 13:54:48.522721,-0.05567789077758777
2023-01-27 13:54:48.527721,-0.0552657908432645
2023-01-27 13:54:48.532721,-0.0539710149168968
2023-01-27 13:54:48.537721,-0.05205234101756806
2023-01-27 13:54:48.542721,-0.04998028278350826
2023-01-27 13:54:48.547721,-0.04815053916502874
2023-01-27 13:54:48.552721,-0.04671077057719231
2023-01-27 13:54:48.557721,-0.045607539580634106
2023-01-27 13:54:48.562721,-0.04461924359202376
2023-01-27 13:54:48.567721,-0.043307688091225545
2023-01-27 13:54:48.572721,-0.041109323501586865
2023-01-27 13:54:48.577721,-0.0375930230230673
2023-01-27 13:54:48.582721,-0.032623015344142914
2023-01-27 13:54:48.587721,-0.02636304038678842
2023-01-27 13:54:48.592721,-0.01932859420776364
2023-01-27 13:54:48.597721,-0.012469078341036057
2023-01-27 13:54:48.602721,-0.00699579715728752
2023-01-27 13:54:48.607721,-0.003959755106582264
2023-01-27 13:54:48.612721,-0.0039426488801836395
2023-01-27 13:54:48.617721,-0.007005841874671532
2023-01-27 13:54:48.622721,-0.012693405151367076
2023-01-27 13:54:48.627721,-0.020052721344224828
2023-01-27 13:54:48.632721,-0.027887027710676103
2023-01-27 13:54:48.637721,-0.03517822661306983
2023-01-27 13:54:48.642721,-0.04130164906382558
2023-01-27 13:54:48.647721,-0.04594291018256704
2023-01-27 13:54:48.652721,-0.04901866242289539
2023-01-27 13:54:48.657721,-0.05070467026299984
2023-01-27 13:54:48.662721,-0.051350593566894455
2023-01-27 13:54:48.667721,-0.05128823018922948
2023-01-27 13:54:48.672721,-0.05084574222564692
2023-01-27 13:54:48.677721,-0.05058348544969138
2023-01-27 13:54:48.682721,-0.05135059356689448
2023-01-27 13:54:48.687721,-0.053944609144999246
2023-01-27 13:54:48.692721,-0.05853871628642077
2023-01-27 13:54:48.697721,-0.064010189375699
2023-01-27 13:54:48.702721,-0.06728947162628168
2023-01-27 13:54:48.707721,-0.06330492051725646
2023-01-27 13:54:48.712721,-0.04627804085612287
2023-01-27 13:54:48.717721,-0.012305336863689096
2023-01-27 13:54:48.722721,0.037911932915449115
2023-01-27 13:54:48.727721,0.0975848338731167
2023-01-27 13:54:48.732721,0.1545566320419311
2023-01-27 13:54:48.737721,0.1945365126287275
2023-01-27 13:54:48.742721,0.20607551932334883
2023-01-27 13:54:48.747721,0.18515004125373077
2023-01-27 13:54:48.752721,0.13693492114543906
2023-01-27 13:54:48.757721,0.07387061158169987
2023-01-27 13:54:48.762721,0.011130770668387465
2023-01-27 13:54:48.767721,-0.03848840905808543
2023-01-27 13:54:48.772721,-0.06832321733236302
2023-01-27 13:54:48.777721,-0.07882171481162382
2023-01-27 13:54:48.782721,-0.07553537935018531
2023-01-27 13:54:48.787721,-0.06560456760796447
2023-01-27 13:54:48.792721,-0.054860513657331335
2023-01-27 13:54:48.797721,-0.04656678124689895
2023-01-27 13:54:48.802721,-0.04149397462606425
2023-01-27 13:54:48.807721,-0.03878799419941397
2023-01-27 13:54:48.812721,-0.03721475601196281
2023-01-27 13:54:48.817721,-0.036064776603449186
2023-01-27 13:54:48.822721,-0.03514727205038069
2023-01-27 13:54:48.827721,-0.03431153966031891
2023-01-27 13:54:48.832721,-0.03334423154592509
2023-01-27 13:54:48.837721,-0.03218986073395795
2023-01-27 13:54:48.842721,-0.03086805343627916
2023-01-27 13:54:48.847721,-0.029208584674956246
2023-01-27 13:54:48.852721,-0.026997527107596297
2023-01-27 13:54:48.857721,-0.02430159480746704
2023-01-27 13:54:48.862721,-0.02129991911351676
2023-01-27 13:54:48.867721,-0.017922966094669368
2023-01-27 13:54:48.872721,-0.014063715934753399
2023-01-27 13:54:48.877721,-0.009988293033882352
2023-01-27 13:54:48.882721,-0.006034175865352073
2023-01-27 13:54:48.887721,-0.0020166911398649934
2023-01-27 13:54:48.892721,0.002548297401517601
2023-01-27 13:54:48.897721,0.007800640124146326
2023-01-27 13:54:48.902721,0.0137271489948034
2023-01-27 13:54:48.907721,0.02077163494510489
2023-01-27 13:54:48.912721,0.029425621032714785
2023-01-27 13:54:48.917721,0.03932999227858843
2023-01-27 13:54:48.922721,0.04973987862467757
2023-01-27 13:54:48.927721,0.06082097427193257
2023-01-27 13:54:48.932721,0.07327556610107419
2023-01-27 13:54:48.937721,0.08650382212098387
2023-01-27 13:54:48.942721,0.09856621921062451
2023-01-27 13:54:48.947721,0.10863577690854685
2023-01-27 13:54:48.952721,0.11818329989910115
2023-01-27 13:54:48.957721,0.12871853469194666
2023-01-27 13:54:48.962721,0.13941109180450428
2023-01-27 13:54:48.967721,0.14813195566368476
2023-01-27 13:54:48.972721,0.15395562350749953
2023-01-27 13:54:48.977721,0.15717417988181315
2023-01-27 13:54:48.982721,0.15736937522888175
2023-01-27 13:54:48.987721,0.15308324078568628
2023-01-27 13:54:48.992721,0.14344990253448475
2023-01-27 13:54:48.997721,0.12893659959031364
2023-01-27 13:54:49.002721,0.11039416491985313
2023-01-27 13:54:49.007721,0.08853776574379435
2023-01-27 13:54:49.012721,0.06462097167968747
2023-01-27 13:54:49.017721,0.040594744124469444
2023-01-27 13:54:49.022721,0.018126567825674962
2023-01-27 13:54:49.027721,-0.0019437679167992052
2023-01-27 13:54:49.032721,-0.01904010772705073
2023-01-27 13:54:49.037721,-0.03253407492051618
2023-01-27 13:54:49.042721,-0.0423113517463207
2023-01-27 13:54:49.047721,-0.049022555497891925
2023-01-27 13:54:49.052721,-0.0534421205520629
2023-01-27 13:54:49.057721,-0.05604035585679441
2023-01-27 13:54:49.062721,-0.05733668804168697
2023-01-27 13:54:49.067721,-0.05806311131490655
2023-01-27 13:54:49.072721,-0.05865892022848117
2023-01-27 13:54:49.077721,-0.05903608728504969
2023-01-27 13:54:49.082721,-0.05906760692596426
2023-01-27 13:54:49.087721,-0.058890669717095
2023-01-27 13:54:49.092721,-0.05856275558471668
2023-01-27 13:54:49.097721,-0.05789668073783853
2023-01-27 13:54:49.102721,-0.056879919022321646
2023-01-27 13:54:49.107721,-0.055863444901477564
2023-01-27 13:54:49.112721,-0.05512496083974823
2023-01-27 13:54:49.117721,-0.05460549112186904
2023-01-27 13:54:49.122721,-0.054235458374023396
2023-01-27 13:54:49.127721,-0.05412044504062406
2023-01-27 13:54:49.132721,-0.054211419075727366
2023-01-27 13:54:49.137721,-0.05416753862277177
2023-01-27 13:54:49.142721,-0.05375465005636211
2023-01-27 13:54:49.147721,-0.053060761950347896
2023-01-27 13:54:49.152721,-0.052167974412441184
2023-01-27 13:54:49.157721,-0.05097069477734897
2023-01-27 13:54:49.162721,-0.04949947446584699
2023-01-27 13:54:49.167721,-0.04808722197791281
2023-01-27 13:54:49.172721,-0.047023296356201116
2023-01-27 13:54:49.177721,-0.04633367265214191
2023-01-27 13:54:49.182721,-0.04603763669729227
2023-01-27 13:54:49.187721,-0.04627976411595538
2023-01-27 13:54:49.192721,-0.047023296356201075
2023-01-27 13:54:49.197721,-0.04791479945202589
2023-01-27 13:54:49.202721,-0.0486340150237083
2023-01-27 13:54:49.207721,-0.04911916633381356
2023-01-27 13:54:49.212721,-0.04933118820190422
2023-01-27 13:54:49.217721,-0.04912188882863186
2023-01-27 13:54:49.222721,-0.0485138110816478
2023-01-27 13:54:49.227721,-0.04782853425187716
2023-01-27 13:54:49.232721,-0.04735986515879628
2023-01-27 13:54:49.237721,-0.04715051195659263
2023-01-27 13:54:49.242721,-0.047191582620143765
2023-01-27 13:54:49.247721,-0.047536127652845823
2023-01-27 13:54:49.252721,-0.04805704206228251
2023-01-27 13:54:49.257721,-0.04837345859123694
2023-01-27 13:54:49.262721,-0.04820128530263899
2023-01-27 13:54:49.267721,-0.047575104751387876
2023-01-27 13:54:49.272721,-0.04663864895701401
2023-01-27 13:54:49.277721,-0.04549505635940309
2023-01-27 13:54:49.282721,-0.04437883943319316
2023-01-27 13:54:49.287721,-0.04367184727959106
2023-01-27 13:54:49.292721,-0.04356145858764639
2023-01-27 13:54:49.297721,-0.043887654805377894
2023-01-27 13:54:49.302721,-0.0444269180297851
2023-01-27 13:54:49.307721,-0.04507772263812692
2023-01-27 13:54:49.312721,-0.045677028596401194
2023-01-27 13:54:49.317721,-0.04593722157016025
2023-01-27 13:54:49.322721,-0.04572510719299309
2023-01-27 13:54:49.327721,-0.045160664231597245
2023-01-27 13:54:49.332721,-0.044306717813014866
2023-01-27 13:54:49.337721,-0.04298935024750759
2023-01-27 13:54:49.342721,-0.04101316258311263
2023-01-27 13:54:49.347721,-0.03827654815547492
2023-01-27 13:54:49.352721,-0.034570299088954884
2023-01-27 13:54:49.357721,-0.02958943931225653
2023-01-27 13:54:49.362721,-0.023367404937744068
2023-01-27 13:54:49.367721,-0.01652585399614078
2023-01-27 13:54:49.372721,-0.010000864975154308
2023-01-27 13:54:49.377721,-0.004736578612517239
2023-01-27 13:54:49.382721,-0.0016587972640990903
2023-01-27 13:54:49.387721,-0.0015244977834925398
2023-01-27 13:54:49.392721,-0.0044955811463295746
2023-01-27 13:54:49.397721,-0.009999543243307783
2023-01-27 13:54:49.402721,-0.01711686514317974
2023-01-27 13:54:49.407721,-0.024924886560386387
2023-01-27 13:54:49.412721,-0.032478772103786385
2023-01-27 13:54:49.417721,-0.03888958796123577
2023-01-27 13:54:49.422721,-0.04370570182800285
2023-01-27 13:54:49.427721,-0.04704242807944115
2023-01-27 13:54:49.432721,-0.0492109879851341
2023-01-27 13:54:49.437721,-0.05043962392501033
2023-01-27 13:54:49.442721,-0.05103806778788561
2023-01-27 13:54:49.447721,-0.051522897495502075
2023-01-27 13:54:49.452721,-0.05240837857127179
2023-01-27 13:54:49.457721,-0.054090682319183056
2023-01-27 13:54:49.462721,-0.056928001344203935
2023-01-27 13:54:49.467721,-0.0608377439032644
2023-01-27 13:54:49.472721,-0.06423632800579068
2023-01-27 13:54:49.477721,-0.06336291945803947
2023-01-27 13:54:49.482721,-0.0529613122344017
2023-01-27 13:54:49.487721,-0.02812980164686545
2023-01-27 13:54:49.492721,0.013342499732971125
2023-01-27 13:54:49.497721,0.06870270188245788
2023-01-27 13:54:49.502721,0.12909770011901844
2023-01-27 13:54:49.507721,0.18110702338978776
2023-01-27 13:54:49.512721,0.21112403273582442
2023-01-27 13:54:49.517721,0.21049109147898962
2023-01-27 13:54:49.522721,0.17876546084880807
2023-01-27 13:54:49.527721,0.1239396917130708
2023-01-27 13:54:49.532721,0.05976478382945061
2023-01-27 13:54:49.537721,0.0009547320251993672
2023-01-27 13:54:49.542721,-0.04192670434713361
2023-01-27 13:54:49.547721,-0.06529711869031966
2023-01-27 13:54:49.552721,-0.07180909812450396
2023-01-27 13:54:49.557721,-0.06738160686287686
2023-01-27 13:54:49.562721,-0.0583223514258861
2023-01-27 13:54:49.567721,-0.0494953497358595
2023-01-27 13:54:49.572721,-0.0433450937271118
2023-01-27 13:54:49.577721,-0.03988876583565864
2023-01-27 13:54:49.582721,-0.03786385059356675
2023-01-27 13:54:49.587721,-0.03620655889967007
2023-01-27 13:54:49.592721,-0.03461837768554678
2023-01-27 13:54:49.597721,-0.03312663968600932
2023-01-27 13:54:49.602721,-0.03161331266164768
2023-01-27 13:54:49.607721,-0.02985823601766743
2023-01-27 13:54:49.612721,-0.027742784470319696
2023-01-27 13:54:49.617721,-0.02525765259019967
2023-01-27 13:54:49.622721,-0.02242982387542716
2023-01-27 13:54:49.627721,-0.01931054565027661
2023-01-27 13:54:49.632721,-0.01596291922032831
2023-01-27 13:54:49.637721,-0.012441471153843166
2023-01-27 13:54:49.642721,-0.008822878822684241
2023-01-27 13:54:49.647721,-0.005218505526637121
2023-01-27 13:54:49.652721,-0.0017068784218281507
2023-01-27 13:54:49.657721,0.0016986402015027786
2023-01-27 13:54:49.662721,0.005000432487577062
2023-01-27 13:54:49.667721,0.008257809399815826
2023-01-27 13:54:49.672721,0.011755824089050175
2023-01-27 13:54:49.677721,0.01604064880003053
2023-01-27 13:54:49.682721,0.021708607673645013
2023-01-27 13:54:49.687721,0.029201010817597135
2023-01-27 13:54:49.692721,0.03875335305929179
2023-01-27 13:54:49.697721,0.05031378942822762
2023-01-27 13:54:49.702721,0.06339490413665769
2023-01-27 13:54:49.707721,0.0771652147697276
2023-01-27 13:54:49.712721,0.09084920585155483
2023-01-27 13:54:49.717721,0.1040200762422977
2023-01-27 13:54:49.722721,0.1165245026350021
2023-01-27 13:54:49.727721,0.12829812618885492
2023-01-27 13:54:49.732721,0.13929089903831476
2023-01-27 13:54:49.737721,0.14932779306336078
2023-01-27 13:54:49.742721,0.15785019099712366
2023-01-27 13:54:49.747721,0.163878169624565
2023-01-27 13:54:49.752721,0.16633650660514826
2023-01-27 13:54:49.757721,0.16438004999717812
2023-01-27 13:54:49.762721,0.15746554732322685
2023-01-27 13:54:49.767721,0.1454002143789742
2023-01-27 13:54:49.772721,0.1285207271575926
2023-01-27 13:54:49.777721,0.10773764100480268
2023-01-27 13:54:49.782721,0.08431017398834216
2023-01-27 13:54:49.787721,0.05964817381178775
2023-01-27 13:54:49.792721,0.03529151529073708
2023-01-27 13:54:49.797721,0.012779158067606601
2023-01-27 13:54:49.802721,-0.006707310676574678
2023-01-27 13:54:49.807721,-0.022566428338121634
2023-01-27 13:54:49.812721,-0.034666460007429116
2023-01-27 13:54:49.817721,-0.043198808251882534
2023-01-27 13:54:49.822721,-0.04868209362030016
2023-01-27 13:54:49.827721,-0.05186953977543633
2023-01-27 13:54:49.832721,-0.053466163575649185
2023-01-27 13:54:49.837721,-0.05398900375546274
2023-01-27 13:54:49.842721,-0.05389889329671851
2023-01-27 13:54:49.847721,-0.053660989107508585
2023-01-27 13:54:49.852721,-0.053586363792419434
2023-01-27 13:54:49.857721,-0.053779180562982115
2023-01-27 13:54:49.862721,-0.05430757999420163
2023-01-27 13:54:49.867721,-0.05524501038497225
2023-01-27 13:54:49.872721,-0.056471228599548284
2023-01-27 13:54:49.877721,-0.05763068472214422
2023-01-27 13:54:49.882721,-0.0583944730460643
2023-01-27 13:54:49.887721,-0.05862257462127933
2023-01-27 13:54:49.892721,-0.05825022980570792
2023-01-27 13:54:49.897721,-0.05726733050581521
2023-01-27 13:54:49.902721,-0.05591829866170881
2023-01-27 13:54:49.907721,-0.05469419440133499
2023-01-27 13:54:49.912721,-0.05397101491689677
2023-01-27 13:54:49.917721,-0.053787112467005585
2023-01-27 13:54:49.922721,-0.05401909351348867
2023-01-27 13:54:49.927721,-0.05454544561311466
2023-01-27 13:54:49.932721,-0.05514900013804427
2023-01-27 13:54:49.937721,-0.055523468435129966
2023-01-27 13:54:49.942721,-0.05555769056081768
2023-01-27 13:54:49.947721,-0.05544857219233461
2023-01-27 13:54:49.952721,-0.055413447320461176
2023-01-27 13:54:49.957721,-0.055462247040567354
2023-01-27 13:54:49.962721,-0.05553364753723139
2023-01-27 13:54:49.967721,-0.05562370734059505
2023-01-27 13:54:49.972721,-0.0556538514792919
2023-01-27 13:54:49.977721,-0.055440343378743956
2023-01-27 13:54:49.982721,-0.05495667457580556
2023-01-27 13:54:49.987721,-0.05444838030090839
2023-01-27 13:54:49.992721,-0.054163336753845215
2023-01-27 13:54:49.997721,-0.05414945644698976
2023-01-27 13:54:50.002721,-0.05440374463796606
2023-01-27 13:54:50.007721,-0.054970882747225475
2023-01-27 13:54:50.012721,-0.05575001239776606
2023-01-27 13:54:50.017721,-0.05643768963937571
2023-01-27 13:54:50.022721,-0.05683183670043943
2023-01-27 13:54:50.027721,-0.05700640352138854
2023-01-27 13:54:50.032721,-0.05707224458456032
2023-01-27 13:54:50.037721,-0.057002912038235334
2023-01-27 13:54:50.042721,-0.056831836700439384
2023-01-27 13:54:50.047721,-0.056762209828215636
2023-01-27 13:54:50.052721,-0.0569039583206176
2023-01-27 13:54:50.057721,-0.057128280988708015
2023-01-27 13:54:50.062721,-0.057336688041686935
2023-01-27 13:54:50.067721,-0.0576212387134541
2023-01-27 13:54:50.072721,-0.05798578262329097
2023-01-27 13:54:50.077721,-0.05816630873260781
2023-01-27 13:54:50.082721,-0.05791366100311269
2023-01-27 13:54:50.087721,-0.057204084322615756
2023-01-27 13:54:50.092721,-0.05601445958018294
2023-01-27 13:54:50.097721,-0.05422250366618742
2023-01-27 13:54:50.102721,-0.05197564885020249
2023-01-27 13:54:50.107721,-0.04984148665537589
2023-01-27 13:54:50.112721,-0.0482734069228172
2023-01-27 13:54:50.117721,-0.04713067702111203
2023-01-27 13:54:50.122721,-0.04591743275523179
2023-01-27 13:54:50.127721,-0.04415881082362853
2023-01-27 13:54:50.132721,-0.041301649063825586
2023-01-27 13:54:50.137721,-0.036736809457479376
2023-01-27 13:54:50.142721,-0.030483406037092188
2023-01-27 13:54:50.147721,-0.02364860580985271
2023-01-27 13:54:50.152721,-0.017765959724783755
2023-01-27 13:54:50.157721,-0.013860693506234678
2023-01-27 13:54:50.162721,-0.012477040290832539
2023-01-27 13:54:50.167721,-0.014102499413442392
2023-01-27 13:54:50.172721,-0.01872758194804194
2023-01-27 13:54:50.177721,-0.025116816409375794
2023-01-27 13:54:50.182721,-0.03139694780111309
2023-01-27 13:54:50.187721,-0.0366111184640624
2023-01-27 13:54:50.192721,-0.04113336652517311
2023-01-27 13:54:50.197721,-0.04543417273092308
2023-01-27 13:54:50.202721,-0.049138866364955874
2023-01-27 13:54:50.207721,-0.051668564933729476
2023-01-27 13:54:50.212721,-0.053225755691528265
2023-01-27 13:54:50.217721,-0.0545854808837634
2023-01-27 13:54:50.222721,-0.05620678514242175
2023-01-27 13:54:50.227721,-0.058060519211238434
2023-01-27 13:54:50.232721,-0.06019751355051987
2023-01-27 13:54:50.237721,-0.06301487782759277
2023-01-27 13:54:50.242721,-0.06685674190521242
2023-01-27 13:54:50.247721,-0.07142252452860234
2023-01-27 13:54:50.252721,-0.07522284984588613
2023-01-27 13:54:50.257721,-0.07505530556800684
2023-01-27 13:54:50.262721,-0.06601532548666002
2023-01-27 13:54:50.267721,-0.04287553191551644
2023-01-27 13:54:50.272721,-0.002788702724501386
2023-01-27 13:54:50.277721,0.05198547408367574
2023-01-27 13:54:50.282721,0.11296650022268287
2023-01-27 13:54:50.287721,0.16690899656989877
2023-01-27 13:54:50.292721,0.19970476627349845
2023-01-27 13:54:50.297721,0.2014548417845157
2023-01-27 13:54:50.302721,0.17054359614849085
2023-01-27 13:54:50.307721,0.11463693075906625
2023-01-27 13:54:50.312721,0.047936838120222036
2023-01-27 13:54:50.317721,-0.014030813585641051
2023-01-27 13:54:50.322721,-0.059644579887390095
2023-01-27 13:54:50.327721,-0.08422607033271191
2023-01-27 13:54:50.332721,-0.0899837464094161
2023-01-27 13:54:50.337721,-0.08346013169567576
2023-01-27 13:54:50.342721,-0.07204949855804439
2023-01-27 13:54:50.347721,-0.06124376597885722
2023-01-27 13:54:50.352721,-0.05356232449412338
2023-01-27 13:54:50.357721,-0.049074816090319474
2023-01-27 13:54:50.362721,-0.04666268825530999
2023-01-27 13:54:50.367721,-0.045111468624376205
2023-01-27 13:54:50.372721,-0.04363358020782473
2023-01-27 13:54:50.377721,-0.041919583085959285
2023-01-27 13:54:50.382721,-0.039955377578735345
2023-01-27 13:54:50.387721,-0.0377898944707477
2023-01-27 13:54:50.392721,-0.03541171550750729
2023-01-27 13:54:50.397721,-0.032804372196310445
2023-01-27 13:54:50.402721,-0.030050676316022797
2023-01-27 13:54:50.407721,-0.02730806927292365
2023-01-27 13:54:50.412721,-0.02468963526189325
2023-01-27 13:54:50.417721,-0.02221803624837467
2023-01-27 13:54:50.422721,-0.019857486709952302
2023-01-27 13:54:50.427721,-0.017496641096683408
2023-01-27 13:54:50.432721,-0.014905135147273478
2023-01-27 13:54:50.437721,-0.011800804646949032
2023-01-27 13:54:50.442721,-0.0079814596101641
2023-01-27 13:54:50.447721,-0.003337849155730662
2023-01-27 13:54:50.452721,0.0022357702255249236
2023-01-27 13:54:50.457721,0.008845574453676026
2023-01-27 13:54:50.462721,0.01651585102081286
2023-01-27 13:54:50.467721,0.02519510533739649
2023-01-27 13:54:50.472721,0.03483474254608151
2023-01-27 13:54:50.477721,0.04535043580319374
2023-01-27 13:54:50.482721,0.05649527162313459
2023-01-27 13:54:50.487721,0.06787915674459
2023-01-27 13:54:50.492721,0.07914146035909649
2023-01-27 13:54:50.497721,0.09003497498684124
2023-01-27 13:54:50.502721,0.10036925971508015
2023-01-27 13:54:50.507721,0.10999597331376876
2023-01-27 13:54:50.512721,0.11883239448070515
2023-01-27 13:54:50.517721,0.12671823660398854
2023-01-27 13:54:50.522721,0.13316056132316578
2023-01-27 13:54:50.527721,0.13729492727771694
2023-01-27 13:54:50.532721,0.13813695311546315
2023-01-27 13:54:50.537721,0.1348508760017796
2023-01-27 13:54:50.542721,0.12691001594066606
2023-01-27 13:54:50.547721,0.11428702794448684
2023-01-27 13:54:50.552721,0.09762863814830776
2023-01-27 13:54:50.557721,0.07814280747069112
2023-01-27 13:54:50.562721,0.05721648782491681
2023-01-27 13:54:50.567721,0.036131126653507005
2023-01-27 13:54:50.572721,0.016010999679565416
2023-01-27 13:54:50.577721,-0.002238228745097447
2023-01-27 13:54:50.582721,-0.018078487366437905
2023-01-27 13:54:50.587721,-0.03133180653418632
2023-01-27 13:54:50.592721,-0.04197478294372553
2023-01-27 13:54:50.597721,-0.05003995694355096
2023-01-27 13:54:50.602721,-0.05572597309947009
2023-01-27 13:54:50.607721,-0.05943822156778955
2023-01-27 13:54:50.612721,-0.061639945954084306
2023-01-27 13:54:50.617721,-0.06275023007870315
2023-01-27 13:54:50.622721,-0.06317853927612299
2023-01-27 13:54:50.627721,-0.06326992859554077
2023-01-27 13:54:50.632721,-0.06313046067953094
2023-01-27 13:54:50.637721,-0.06263819201575196
2023-01-27 13:54:50.642721,-0.0617120675742626
2023-01-27 13:54:50.647721,-0.06049357089747155
2023-01-27 13:54:50.652721,-0.05925993248820303
2023-01-27 13:54:50.657721,-0.058300526679673316
2023-01-27 13:54:50.662721,-0.05788962170481678
2023-01-27 13:54:50.667721,-0.058174236488767725
2023-01-27 13:54:50.672721,-0.05897144600749004
2023-01-27 13:54:50.677721,-0.059793511676261464
2023-01-27 13:54:50.682721,-0.06017347425222392
2023-01-27 13:54:50.687721,-0.05992678680909212
2023-01-27 13:54:50.692721,-0.059139728546142536
2023-01-27 13:54:50.697721,-0.05809371986862754
2023-01-27 13:54:50.702721,-0.05724052712321277
2023-01-27 13:54:50.707721,-0.05703470809904883
2023-01-27 13:54:50.712721,-0.0576251745223999
2023-01-27 13:54:50.717721,-0.05875227893715519
2023-01-27 13:54:50.722721,-0.0599571093916893
2023-01-27 13:54:50.727721,-0.060783243015343824
2023-01-27 13:54:50.732721,-0.060822568833827875
2023-01-27 13:54:50.737721,-0.05983738267739961
2023-01-27 13:54:50.742721,-0.05798578262329097
2023-01-27 13:54:50.747721,-0.055797886265401796
2023-01-27 13:54:50.752721,-0.05382677167654033
2023-01-27 13:54:50.757721,-0.05239294171377708
2023-01-27 13:54:50.762721,-0.05163908004760737
2023-01-27 13:54:50.767721,-0.05159985322195765
2023-01-27 13:54:50.772721,-0.05211989209055895
2023-01-27 13:54:50.777721,-0.05289448186355275
2023-01-27 13:54:50.782721,-0.05373060703277576
2023-01-27 13:54:50.787721,-0.054659253548674576
2023-01-27 13:54:50.792721,-0.05572597309947008
2023-01-27 13:54:50.797721,-0.056824853244602895
2023-01-27 13:54:50.802721,-0.05781750008463848
2023-01-27 13:54:50.807721,-0.058648338987603736
2023-01-27 13:54:50.812721,-0.059235893189906956
2023-01-27 13:54:50.817721,-0.0593978079809991
2023-01-27 13:54:50.822721,-0.058995485305786084
2023-01-27 13:54:50.827721,-0.05803167944221918
2023-01-27 13:54:50.832721,-0.056519310921430484
2023-01-27 13:54:50.837721,-0.054383467151620846
2023-01-27 13:54:50.842721,-0.05156695842742904
2023-01-27 13:54:50.847721,-0.048084300952780434
2023-01-27 13:54:50.852721,-0.043898027390241554
2023-01-27 13:54:50.857721,-0.03893529588605469
2023-01-27 13:54:50.862721,-0.03339231014251693
2023-01-27 13:54:50.867721,-0.027936287385126646
2023-01-27 13:54:50.872721,-0.02351164817810049
2023-01-27 13:54:50.877721,-0.021016382683326718
2023-01-27 13:54:50.882721,-0.021131634712219197
2023-01-27 13:54:50.887721,-0.024157626761308136
2023-01-27 13:54:50.892721,-0.029762189835309885
2023-01-27 13:54:50.897721,-0.036965759399499074
2023-01-27 13:54:50.902721,-0.04454712197184561
2023-01-27 13:54:50.907721,-0.051498809571909304
2023-01-27 13:54:50.912721,-0.05716840550303449
2023-01-27 13:54:50.917721,-0.06123351757390044
2023-01-27 13:54:50.922721,-0.06373147666454311
2023-01-27 13:54:50.927721,-0.06499898347013529
2023-01-27 13:54:50.932721,-0.06541430950164788
2023-01-27 13:54:50.937721,-0.06523026826788232
2023-01-27 13:54:50.942721,-0.0647171363234519
2023-01-27 13:54:50.947721,-0.0643665863708351
2023-01-27 13:54:50.952721,-0.0648613795638084
2023-01-27 13:54:50.957721,-0.06685503054232314
2023-01-27 13:54:50.962721,-0.07060706615447987
2023-01-27 13:54:50.967721,-0.07532407217612655
2023-01-27 13:54:50.972721,-0.07839620113372794
2023-01-27 13:54:50.977721,-0.07530777453897965
2023-01-27 13:54:50.982721,-0.0608466081321239
2023-01-27 13:54:50.987721,-0.031369758134212694
2023-01-27 13:54:50.992721,0.012765526771545367
2023-01-27 13:54:50.997721,0.06566338748751606
2023-01-27 13:54:51.002721,0.11630813777446732
2023-01-27 13:54:51.007721,0.15153158854833584
2023-01-27 13:54:51.012721,0.16073505580425257
2023-01-27 13:54:51.017721,0.14017404117678942
2023-01-27 13:54:51.022721,0.09464760869741425
2023-01-27 13:54:51.027721,0.03586031178007104
2023-01-27 13:54:51.032721,-0.021756689995527205
2023-01-27 13:54:51.037721,-0.06605627055964672
2023-01-27 13:54:51.042721,-0.09092132747173298
2023-01-27 13:54:51.047721,-0.09713286019654087
2023-01-27 13:54:51.052721,-0.09034435451030727
2023-01-27 13:54:51.057721,-0.0777651634059804
2023-01-27 13:54:51.062721,-0.06536623090505586
2023-01-27 13:54:51.067721,-0.056449329959127714
2023-01-27 13:54:51.072721,-0.05159100145101543
2023-01-27 13:54:51.077721,-0.0496350828211899
2023-01-27 13:54:51.082721,-0.049042701721191434
2023-01-27 13:54:51.087721,-0.048725673588231336
2023-01-27 13:54:51.092721,-0.04808108136057847
2023-01-27 13:54:51.097721,-0.04675210811694128
2023-01-27 13:54:51.102721,-0.044595204293727805
2023-01-27 13:54:51.107721,-0.04171528970814163
2023-01-27 13:54:51.112721,-0.03834466263651839
2023-01-27 13:54:51.117721,-0.03473622031825203
2023-01-27 13:54:51.122721,-0.03120462223887436
2023-01-27 13:54:51.127721,-0.02807302886955182
2023-01-27 13:54:51.132721,-0.025410851463675423
2023-01-27 13:54:51.137721,-0.0228999494770898
2023-01-27 13:54:51.142721,-0.02004981040954581
2023-01-27 13:54:51.147721,-0.01646971193715521
2023-01-27 13:54:51.152721,-0.0119241084903478
2023-01-27 13:54:51.157721,-0.006332885633574229
2023-01-27 13:54:51.162721,0.00014424324035643168
2023-01-27 13:54:51.167721,0.00716134433583957
2023-01-27 13:54:51.172721,0.014472405426204198
2023-01-27 13:54:51.177721,0.022110308391258125
2023-01-27 13:54:51.182721,0.03024300001561638
2023-01-27 13:54:51.187721,0.03898399413140348
2023-01-27 13:54:51.192721,0.048393607139587416
2023-01-27 13:54:51.197721,0.05848010610845053
2023-01-27 13:54:51.202721,0.06906847655773159
2023-01-27 13:54:51.207721,0.07979397789520798
2023-01-27 13:54:51.212721,0.09034435451030728
2023-01-27 13:54:51.217721,0.1006136181655997
2023-01-27 13:54:51.222721,0.11053840816020957
2023-01-27 13:54:51.227721,0.11988838640513257
2023-01-27 13:54:51.232721,0.12825629115104667
2023-01-27 13:54:51.237721,0.1350679555181643
2023-01-27 13:54:51.242721,0.13948321342468256
2023-01-27 13:54:51.247721,0.1404500070506012
2023-01-27 13:54:51.252721,0.13705512881278983
2023-01-27 13:54:51.257721,0.12885319738814188
2023-01-27 13:54:51.262721,0.11592348664998989
2023-01-27 13:54:51.267721,0.09884774276744902
2023-01-27 13:54:51.272721,0.07875680923461904
2023-01-27 13:54:51.277721,0.05721049014341834
2023-01-27 13:54:51.282721,0.03579636663198469
2023-01-27 13:54:51.287721,0.01578036024866064
2023-01-27 13:54:51.292721,-0.0019472837448120033
2023-01-27 13:54:51.297721,-0.016843228732978936
2023-01-27 13:54:51.302721,-0.028776526451110816
2023-01-27 13:54:51.307721,-0.037989995851290016
2023-01-27 13:54:51.312721,-0.044859647750854395
2023-01-27 13:54:51.317721,-0.04973888736390459
2023-01-27 13:54:51.322721,-0.05303343385457988
2023-01-27 13:54:51.327721,-0.055224737130248946
2023-01-27 13:54:51.332721,-0.056687593460083015
2023-01-27 13:54:51.337721,-0.057585744415373785
2023-01-27 13:54:51.342721,-0.05800982564687716
2023-01-27 13:54:51.347721,-0.058082424871037874
2023-01-27 13:54:51.352721,-0.0578655824065208
2023-01-27 13:54:51.357721,-0.05733004839801666
2023-01-27 13:54:51.362721,-0.05651931092143046
2023-01-27 13:54:51.367721,-0.0556186609283559
2023-01-27 13:54:51.372721,-0.054788392037153216
2023-01-27 13:54:51.377721,-0.054065270090392525
2023-01-27 13:54:51.382721,-0.05349020287394518
2023-01-27 13:54:51.387721,-0.05316731358997452
2023-01-27 13:54:51.392721,-0.05310555547475805
2023-01-27 13:54:51.397721,-0.053149564033546454
2023-01-27 13:54:51.402721,-0.053153634071349966
2023-01-27 13:54:51.407721,-0.05308730085534938
2023-01-27 13:54:51.412721,-0.052913229912519365
2023-01-27 13:54:51.417721,-0.05254191855236947
2023-01-27 13:54:51.422721,-0.05199968814849846
2023-01-27 13:54:51.427721,-0.05147298163463198
2023-01-27 13:54:51.432721,-0.05108615010976787
2023-01-27 13:54:51.437721,-0.050787486096414224
2023-01-27 13:54:51.442721,-0.050533216446638114
2023-01-27 13:54:51.447721,-0.05040389792061351
2023-01-27 13:54:51.452721,-0.05043705552816389
2023-01-27 13:54:51.457721,-0.050519599978807006
2023-01-27 13:54:51.462721,-0.050557255744934006
2023-01-27 13:54:51.467721,-0.050585172221178545
2023-01-27 13:54:51.472721,-0.05060533806681633
2023-01-27 13:54:51.477721,-0.05049321431769317
2023-01-27 13:54:51.482721,-0.05019664764404291
2023-01-27 13:54:51.487721,-0.04987420879512607
2023-01-27 13:54:51.492721,-0.049715839326381614
2023-01-27 13:54:51.497721,-0.04977136626270457
2023-01-27 13:54:51.502721,-0.050052404403686475
2023-01-27 13:54:51.507721,-0.05061887584229313
2023-01-27 13:54:51.512721,-0.051422715187072705
2023-01-27 13:54:51.517721,-0.052221444332939196
2023-01-27 13:54:51.522721,-0.05279302597045893
2023-01-27 13:54:51.527721,-0.05311480893078448
2023-01-27 13:54:51.532721,-0.05322575569152832
2023-01-27 13:54:51.537721,-0.053066545779456104
2023-01-27 13:54:51.542721,-0.0525766611099243
2023-01-27 13:54:51.547721,-0.0517889396638134
2023-01-27 13:54:51.552721,-0.0506774596869945
2023-01-27 13:54:51.557721,-0.04902993998471227
2023-01-27 13:54:51.562721,-0.04659056663513181
2023-01-27 13:54:51.567721,-0.04321643849113026
2023-01-27 13:54:51.572721,-0.03882547467947
2023-01-27 13:54:51.577721,-0.033397677506040516
2023-01-27 13:54:51.582721,-0.02721389196813094
2023-01-27 13:54:51.587721,-0.020991909317396428
2023-01-27 13:54:51.592721,-0.015650391578674257
2023-01-27 13:54:51.597721,-0.011995255185521334
2023-01-27 13:54:51.602721,-0.010625919327139806
2023-01-27 13:54:51.607721,-0.01186609768604105
2023-01-27 13:54:51.612721,-0.015554229728877468
2023-01-27 13:54:51.617721,-0.020999496000947027
2023-01-27 13:54:51.622721,-0.027310054749250384
2023-01-27 13:54:51.627721,-0.03374100963410914
2023-01-27 13:54:51.632721,-0.03973901271820059
2023-01-27 13:54:51.637721,-0.04490002242889513
2023-01-27 13:54:51.642721,-0.049066744744777624
2023-01-27 13:54:51.647721,-0.05233189872305824
2023-01-27 13:54:51.652721,-0.05478839203715317
2023-01-27 13:54:51.657721,-0.05638253159324158
2023-01-27 13:54:51.662721,-0.057144366204738596
2023-01-27 13:54:51.667721,-0.057470814256582
2023-01-27 13:54:51.672721,-0.05808194726705547
2023-01-27 13:54:51.677721,-0.059744502865603455
2023-01-27 13:54:51.682721,-0.06289005279541007
2023-01-27 13:54:51.687721,-0.06693678841725673
2023-01-27 13:54:51.692721,-0.06942908465862266
2023-01-27 13:54:51.697721,-0.0658295430202567
2023-01-27 13:54:51.702721,-0.05070149898529047
2023-01-27 13:54:51.707721,-0.020034286661229018
2023-01-27 13:54:51.712721,0.02625226974487298
2023-01-27 13:54:51.717721,0.08265461860104979
2023-01-27 13:54:51.722721,0.1382811963558197
2023-01-27 13:54:51.727721,0.17957728978909251
2023-01-27 13:54:51.732721,0.19499282538890828
2023-01-27 13:54:51.737721,0.17948923816029405
2023-01-27 13:54:51.742721,0.13662239909172041
2023-01-27 13:54:51.747721,0.07731321752015642
2023-01-27 13:54:51.752721,0.015962919220328307
2023-01-27 13:54:51.757721,-0.03451369040668494
2023-01-27 13:54:51.762721,-0.06671249866485585
2023-01-27 13:54:51.767721,-0.08007729083960721
2023-01-27 13:54:51.772721,-0.07926166057586655
2023-01-27 13:54:51.777721,-0.0709523831877915
2023-01-27 13:54:51.782721,-0.06101489067077627
2023-01-27 13:54:51.787721,-0.052928695861053025
2023-01-27 13:54:51.792721,-0.04760026931762688
2023-01-27 13:54:51.797721,-0.04426474171120215
2023-01-27 13:54:51.802721,-0.04180650040507307
2023-01-27 13:54:51.807721,-0.039594174740903876
2023-01-27 13:54:51.812721,-0.037479203194379765
2023-01-27 13:54:51.817721,-0.03545928663939681
2023-01-27 13:54:51.822721,-0.03353655338287344
2023-01-27 13:54:51.827721,-0.03169854680659536
2023-01-27 13:54:51.832721,-0.02983431145548814
2023-01-27 13:54:51.837721,-0.027755771372301324
2023-01-27 13:54:51.842721,-0.025410851463675367
2023-01-27 13:54:51.847721,-0.02296449601523416
2023-01-27 13:54:51.852721,-0.020578702911734522
2023-01-27 13:54:51.857721,-0.018232401437219124
2023-01-27 13:54:51.862721,-0.015818675979971775
2023-01-27 13:54:51.867721,-0.013242357455568553
2023-01-27 13:54:51.872721,-0.010313391685485788
2023-01-27 13:54:51.877721,-0.006710606816299453
2023-01-27 13:54:51.882721,-0.0021876893006264986
2023-01-27 13:54:51.887721,0.0032980412012577425
2023-01-27 13:54:51.892721,0.009736418724060003
2023-01-27 13:54:51.897721,0.01718163960645504
2023-01-27 13:54:51.902721,0.025627216324210056
2023-01-27 13:54:51.907721,0.03494154428706921
2023-01-27 13:54:51.912721,0.04505197331309309
2023-01-27 13:54:51.917721,0.05604346074092022
2023-01-27 13:54:51.922721,0.06796260923147199
2023-01-27 13:54:51.927721,0.08066422578559254
2023-01-27 13:54:51.932721,0.09392639249563206
2023-01-27 13:54:51.937721,0.10751229060101593
2023-01-27 13:54:51.942721,0.12097200006246549
2023-01-27 13:54:51.947721,0.13353673593891008
2023-01-27 13:54:51.952721,0.14433941245079035
2023-01-27 13:54:51.957721,0.15261219782580096
2023-01-27 13:54:51.962721,0.1576097905635832
2023-01-27 13:54:51.967721,0.15858472708152319
2023-01-27 13:54:51.972721,0.15503744781017295
2023-01-27 13:54:51.977721,0.14688167788084078
2023-01-27 13:54:51.982721,0.13429045677185047
2023-01-27 13:54:51.987721,0.1176098119843067
2023-01-27 13:54:51.992721,0.09760459512472143
2023-01-27 13:54:51.997721,0.07561955771908688
2023-01-27 13:54:52.002721,0.05329787731170652
2023-01-27 13:54:52.007721,0.0321872828284651
2023-01-27 13:54:52.012721,0.013582905754446895
2023-01-27 13:54:52.017721,-0.0016315788026674293
2023-01-27 13:54:52.022721,-0.013318459503352599
2023-01-27 13:54:52.027721,-0.022154495673220892
2023-01-27 13:54:52.032721,-0.029137134552001908
2023-01-27 13:54:52.037721,-0.03503029372002679
2023-01-27 13:54:52.042721,-0.040267907083034474
2023-01-27 13:54:52.047721,-0.04505183640707697
2023-01-27 13:54:52.052721,-0.04925906658172602
2023-01-27 13:54:52.057721,-0.05244378628219284
2023-01-27 13:54:52.062721,-0.05425950139760969
2023-01-27 13:54:52.067721,-0.0548582722247082
2023-01-27 13:54:52.072721,-0.05471627041697498
2023-01-27 13:54:52.077721,-0.05419028696707763
2023-01-27 13:54:52.082721,-0.05344212055206289
2023-01-27 13:54:52.087721,-0.052650119633180587
2023-01-27 13:54:52.092721,-0.05199968814849854
2023-01-27 13:54:52.097721,-0.05148132555066209
2023-01-27 13:54:52.102721,-0.0509178638458251
2023-01-27 13:54:52.107721,-0.05020662440670321
2023-01-27 13:54:52.112721,-0.049403309822082464
2023-01-27 13:54:52.117721,-0.04861505012950643
2023-01-27 13:54:52.122721,-0.04796087741851799
2023-01-27 13:54:52.127721,-0.047590038303740714
2023-01-27 13:54:52.132721,-0.04757623001933091
2023-01-27 13:54:52.137721,-0.04779869099064388
2023-01-27 13:54:52.142721,-0.0480329990386962
2023-01-27 13:54:52.147721,-0.04812998059263329
2023-01-27 13:54:52.152721,-0.04803299903869617
2023-01-27 13:54:52.157721,-0.04771301690684554
2023-01-27 13:54:52.162721,-0.04721562191843982
2023-01-27 13:54:52.167721,-0.04670559721884615
2023-01-27 13:54:52.172721,-0.04632612317800518
2023-01-27 13:54:52.177721,-0.04603122810432618
2023-01-27 13:54:52.182721,-0.0456289462745189
2023-01-27 13:54:52.187721,-0.0449332404982261
2023-01-27 13:54:52.192721,-0.04382590577006342
2023-01-27 13:54:52.197721,-0.04230710489528596
2023-01-27 13:54:52.202721,-0.040628515183925594
2023-01-27 13:54:52.207721,-0.03929567404276843
2023-01-27 13:54:52.212721,-0.03877739235758779
2023-01-27 13:54:52.217721,-0.03919783456475327
2023-01-27 13:54:52.222721,-0.0403400287032127
2023-01-27 13:54:52.227721,-0.041850593815697834
2023-01-27 13:54:52.232721,-0.043369136750697986
2023-01-27 13:54:52.237721,-0.04459990873283363
2023-01-27 13:54:52.242721,-0.0454366207122802
2023-01-27 13:54:52.247721,-0.04599531397795491
2023-01-27 13:54:52.252721,-0.046422284096479374
2023-01-27 13:54:52.257721,-0.04670071018627281
2023-01-27 13:54:52.262721,-0.04671077057719224
2023-01-27 13:54:52.267721,-0.04640368021737216
2023-01-27 13:54:52.272721,-0.04582127183675756
2023-01-27 13:54:52.277721,-0.045004681654712074
2023-01-27 13:54:52.282721,-0.04397014901041975
2023-01-27 13:54:52.287721,-0.04269985008591997
2023-01-27 13:54:52.292721,-0.041037201881408546
2023-01-27 13:54:52.297721,-0.03862404227154378
2023-01-27 13:54:52.302721,-0.03505110740661617
2023-01-27 13:54:52.307721,-0.030101730914238123
2023-01-27 13:54:52.312721,-0.02387225627899162
2023-01-27 13:54:52.317721,-0.01678434473980483
2023-01-27 13:54:52.322721,-0.00959217548370364
2023-01-27 13:54:52.327721,-0.003307297428483449
2023-01-27 13:54:52.332721,0.0010577838402240924
2023-01-27 13:54:52.337721,0.0027930125076191673
2023-01-27 13:54:52.342721,0.0016347568016498713
2023-01-27 13:54:52.347721,-0.002252399164353934
2023-01-27 13:54:52.352721,-0.008342067711055222
2023-01-27 13:54:52.357721,-0.01584259957112946
2023-01-27 13:54:52.362721,-0.023848216980695676
2023-01-27 13:54:52.367721,-0.03148932703221162
2023-01-27 13:54:52.372721,-0.03803213685750961
2023-01-27 13:54:52.377721,-0.0429651291593744
2023-01-27 13:54:52.382721,-0.0460857152938842
2023-01-27 13:54:52.387721,-0.04751588008032139
2023-01-27 13:54:52.392721,-0.047624312341213185
2023-01-27 13:54:52.397721,-0.04694218532114549
2023-01-27 13:54:52.402721,-0.0461337976157665
2023-01-27 13:54:52.407721,-0.04596670062610328
2023-01-27 13:54:52.412721,-0.04716753959655759
2023-01-27 13:54:52.417721,-0.05004964492015
2023-01-27 13:54:52.422721,-0.05387485027313228
2023-01-27 13:54:52.427721,-0.056179415139236605
2023-01-27 13:54:52.432721,-0.052624743431806495
2023-01-27 13:54:52.437721,-0.03792823223668223
2023-01-27 13:54:52.442721,-0.007933378219604426
2023-01-27 13:54:52.447721,0.03782373348531556
2023-01-27 13:54:52.452721,0.09423892199993128
2023-01-27 13:54:52.457721,0.1507294744774293
2023-01-27 13:54:52.462721,0.1938869655132292
2023-01-27 13:54:52.467721,0.2119554792852379
2023-01-27 13:54:52.472721,0.19924800097942347
2023-01-27 13:54:52.477721,0.15850862432745733
2023-01-27 13:54:52.482721,0.10012885183095926
2023-01-27 13:54:52.487721,0.03843966864508936
2023-01-27 13:54:52.492721,-0.013390581123530799
2023-01-27 13:54:52.497721,-0.04753113574840217
