2023-01-29 15:10:30.051756,-0.04865805432200432
2023-01-29 15:10:30.056756,-0.017019250993034772
2023-01-29 15:10:30.061756,0.02663691900670516
2023-01-29 15:10:30.066756,0.06352403807098758
2023-01-29 15:10:30.071756,0.08697867393493648
2023-01-29 15:10:30.076756,0.10286187237710491
2023-01-29 15:10:30.081756,0.1156830787658691
2023-01-29 15:10:30.086756,0.12397156681604696
2023-01-29 15:10:30.091756,0.12767931818962086
2023-01-29 15:10:30.096756,0.13097482965255555
2023-01-29 15:10:30.101756,0.13611754775047302
2023-01-29 15:10:30.106756,0.14081169559984402
2023-01-29 15:10:30.111756,0.14330565929412833
2023-01-29 15:10:30.116756,0.1452470037351516
2023-01-29 15:10:30.121756,0.1480176150798797
2023-01-29 15:10:30.126756,0.15054435949233005
2023-01-29 15:10:30.131756,0.15241703391075123
2023-01-29 15:10:30.136756,0.1555929339668521
2023-01-29 15:10:30.141756,0.1613120287656784
2023-01-29 15:10:30.146756,0.16821806746608703
2023-01-29 15:10:30.151756,0.17496705055236808
2023-01-29 15:10:30.156756,0.18212192596868718
2023-01-29 15:10:30.161756,0.19020876288413993
2023-01-29 15:10:30.166756,0.19834660146600377
2023-01-29 15:10:30.171756,0.20614764094352722
2023-01-29 15:10:30.176756,0.21487148567497047
2023-01-29 15:10:30.181756,0.22542814910411826
2023-01-29 15:10:30.186756,0.2370352351484104
2023-01-29 15:10:30.191756,0.2488917112350463
2023-01-29 15:10:30.196756,0.26141204958076425
2023-01-29 15:10:30.201756,0.2747593522071838
2023-01-29 15:10:30.206756,0.2877879971837592
2023-01-29 15:10:30.211756,0.29947301745414723
2023-01-29 15:10:30.216756,0.30994059824707676
2023-01-29 15:10:30.221756,0.31916221976280207
2023-01-29 15:10:30.226756,0.326016397096014
2023-01-29 15:10:30.231756,0.32954773306846596
2023-01-29 15:10:30.236756,0.32987483822950764
2023-01-29 15:10:30.241756,0.32699942588806147
2023-01-29 15:10:30.246756,0.3199382225268628
2023-01-29 15:10:30.251756,0.30791124701499917
2023-01-29 15:10:30.256756,0.2913597147442873
2023-01-29 15:10:30.261756,0.27110517024993885
2023-01-29 15:10:30.266756,0.24762254142901105
2023-01-29 15:10:30.271756,0.22189418971538527
2023-01-29 15:10:30.276756,0.19590745508804078
2023-01-29 15:10:30.281756,0.17143309116363517
2023-01-29 15:10:30.286756,0.14906043620547696
2023-01-29 15:10:30.291756,0.12897750735282887
2023-01-29 15:10:30.296756,0.1117587264285916
2023-01-29 15:10:30.301756,0.09774883836507789
2023-01-29 15:10:30.306756,0.0865723398825391
2023-01-29 15:10:30.311756,0.07793943583965297
2023-01-29 15:10:30.316756,0.07216585574714325
2023-01-29 15:10:30.321756,0.06928484141826619
2023-01-29 15:10:30.326756,0.06838003653079015
2023-01-29 15:10:30.331756,0.068371295928955
2023-01-29 15:10:30.336756,0.06879249554523696
2023-01-29 15:10:30.341756,0.06935696303844446
2023-01-29 15:10:30.346756,0.06957579741160173
2023-01-29 15:10:30.351756,0.06940504163503639
2023-01-29 15:10:30.356756,0.0695768454445478
2023-01-29 15:10:30.361756,0.07067918777465815
2023-01-29 15:10:30.366756,0.07242920756801581
2023-01-29 15:10:30.371756,0.0742612332105636
2023-01-29 15:10:30.376756,0.0759927158438815
2023-01-29 15:10:30.381756,0.07748266309499746
2023-01-29 15:10:30.386756,0.07832383598471748
2023-01-29 15:10:30.391756,0.0784202441573143
2023-01-29 15:10:30.396756,0.07832027395814702
2023-01-29 15:10:30.401756,0.07849236577749247
2023-01-29 15:10:30.406756,0.07875927458073456
2023-01-29 15:10:30.411756,0.07882893085479734
2023-01-29 15:10:30.416756,0.07882510209399074
2023-01-29 15:10:30.421756,0.07887701690196995
2023-01-29 15:10:30.426756,0.07872996079755484
2023-01-29 15:10:30.431756,0.07820387929677959
2023-01-29 15:10:30.436756,0.07754811073184868
2023-01-29 15:10:30.441756,0.07692973315715783
2023-01-29 15:10:30.446756,0.07604214229160548
2023-01-29 15:10:30.451756,0.07462184131145475
2023-01-29 15:10:30.456756,0.07291583008100454
2023-01-29 15:10:30.461756,0.0712802037596702
2023-01-29 15:10:30.466756,0.06976809605865071
2023-01-29 15:10:30.471756,0.06846746057271949
2023-01-29 15:10:30.476756,0.06777706371949788
2023-01-29 15:10:30.481756,0.06793856620788571
2023-01-29 15:10:30.486756,0.06867233023506143
2023-01-29 15:10:30.491756,0.0696214064955711
2023-01-29 15:10:30.496756,0.07079052663355444
2023-01-29 15:10:30.501756,0.07226586341857912
2023-01-29 15:10:30.506756,0.07394427619743159
2023-01-29 15:10:30.511756,0.07589598745107647
2023-01-29 15:10:30.516756,0.07859505686108079
2023-01-29 15:10:30.521756,0.0823869332671165
2023-01-29 15:10:30.526756,0.08697616171687488
2023-01-29 15:10:30.531756,0.09166657924652091
2023-01-29 15:10:30.536756,0.09574941097049199
2023-01-29 15:10:30.541756,0.09842197597026815
2023-01-29 15:10:30.546756,0.09878354859384579
2023-01-29 15:10:30.551756,0.09635448455810543
2023-01-29 15:10:30.556756,0.09141271253932484
2023-01-29 15:10:30.561756,0.08459866046905509
2023-01-29 15:10:30.566756,0.07645592313742604
2023-01-29 15:10:30.571756,0.06752987951040265
2023-01-29 15:10:30.576756,0.05853939999431213
2023-01-29 15:10:30.581756,0.05014856904745102
2023-01-29 15:10:30.586756,0.04279580920861518
2023-01-29 15:10:30.591756,0.036902230232954025
2023-01-29 15:10:30.596756,0.03291666843253765
2023-01-29 15:10:30.601756,0.03094017505645746
2023-01-29 15:10:30.606756,0.03058355890773208
2023-01-29 15:10:30.611756,0.0313488654792308
2023-01-29 15:10:30.616756,0.03284420910673068
2023-01-29 15:10:30.621756,0.03452221676707261
2023-01-29 15:10:30.626756,0.035666254233992195
2023-01-29 15:10:30.631756,0.03596464917063714
2023-01-29 15:10:30.636756,0.03591541340697276
2023-01-29 15:10:30.641756,0.036637783050537144
2023-01-29 15:10:30.646756,0.03977195351413243
2023-01-29 15:10:30.651756,0.04781663417816163
2023-01-29 15:10:30.656756,0.06405217186662161
2023-01-29 15:10:30.661756,0.0913780927658081
2023-01-29 15:10:30.666756,0.13061880274687124
2023-01-29 15:10:30.671756,0.17907798290252677
2023-01-29 15:10:30.676756,0.22961649465128509
2023-01-29 15:10:30.681756,0.27091285586357106
2023-01-29 15:10:30.686756,0.29003642243665406
2023-01-29 15:10:30.691756,0.2771153151988983
2023-01-29 15:10:30.696756,0.2297852353856993
2023-01-29 15:10:30.701756,0.1549893617630004
2023-01-29 15:10:30.706756,0.06744925724647026
2023-01-29 15:10:30.711756,-0.014544527046382358
2023-01-29 15:10:30.716756,-0.07482389986673697
2023-01-29 15:10:30.721756,-0.10443210601806632
2023-01-29 15:10:30.726756,-0.10362299996649763
2023-01-29 15:10:30.731756,-0.07998287677764883
2023-01-29 15:10:30.736756,-0.044411743039440135
2023-01-29 15:10:30.741756,-0.007284283638000356
2023-01-29 15:10:30.746756,0.024138350510406487
2023-01-29 15:10:30.751756,0.04678289219737056
2023-01-29 15:10:30.756756,0.06113513716508453
2023-01-29 15:10:30.761756,0.06942908465862276
2023-01-29 15:10:30.766756,0.0740492366519689
2023-01-29 15:10:30.771756,0.07695376873016349
2023-01-29 15:10:30.776756,0.0795748699669099
2023-01-29 15:10:30.781756,0.08260329812765123
2023-01-29 15:10:30.786756,0.08598871063290284
2023-01-29 15:10:30.791756,0.089430809020996
2023-01-29 15:10:30.796756,0.09279573131099647
2023-01-29 15:10:30.801756,0.0960419625043869
2023-01-29 15:10:30.806756,0.09912323900306433
2023-01-29 15:10:30.811756,0.10222037881612764
2023-01-29 15:10:30.816756,0.10582541885949784
2023-01-29 15:10:30.821756,0.11037012189626685
2023-01-29 15:10:30.826756,0.11594766329109606
2023-01-29 15:10:30.831756,0.12251059710979452
2023-01-29 15:10:30.836756,0.13005387839361787
2023-01-29 15:10:30.841756,0.1384254395961761
2023-01-29 15:10:30.846756,0.14724929338555803
2023-01-29 15:10:30.851756,0.15628755092620839
2023-01-29 15:10:30.856756,0.1656986804840958
2023-01-29 15:10:30.861756,0.1757844388484954
2023-01-29 15:10:30.866756,0.1866971549139308
2023-01-29 15:10:30.871756,0.19850274920463554
2023-01-29 15:10:30.876756,0.21119309515117363
2023-01-29 15:10:30.881756,0.22437036037445057
2023-01-29 15:10:30.886756,0.2371326355122253
2023-01-29 15:10:30.891756,0.2485070675611494
2023-01-29 15:10:30.896756,0.2578620365897983
2023-01-29 15:10:30.901756,0.264806568622589
2023-01-29 15:10:30.906756,0.2689797221645089
2023-01-29 15:10:30.911756,0.27014356851577737
2023-01-29 15:10:30.916756,0.26822036722500625
2023-01-29 15:10:30.921756,0.2629794776439665
2023-01-29 15:10:30.926756,0.2538703706008246
2023-01-29 15:10:30.931756,0.2404054105281828
2023-01-29 15:10:30.936756,0.22261993900906474
2023-01-29 15:10:30.941756,0.20109912753105158
2023-01-29 15:10:30.946756,0.17684177907307128
2023-01-29 15:10:30.951756,0.15128712356090526
2023-01-29 15:10:30.956756,0.1261679486241812
2023-01-29 15:10:30.961756,0.10294159501790996
2023-01-29 15:10:30.966756,0.08232643139504114
2023-01-29 15:10:30.971756,0.06442864984273908
2023-01-29 15:10:30.976756,0.0491050420258595
2023-01-29 15:10:30.981756,0.03608485311269761
2023-01-29 15:10:30.986756,0.025042111893769734
2023-01-29 15:10:30.991756,0.015866756439208925
2023-01-29 15:10:30.996756,0.00877237664180663
2023-01-29 15:10:31.001756,0.003942648880183578
2023-01-29 15:10:31.006756,0.0011584116137392422
2023-01-29 15:10:31.011756,-0.00012020270514760511
2023-01-29 15:10:31.016756,-0.00047517966488069873
2023-01-29 15:10:31.021756,-0.0004567702708300203
2023-01-29 15:10:31.026756,-0.0005404649610293669
2023-01-29 15:10:31.031756,-0.0008895000210031298
2023-01-29 15:10:31.036756,-0.001251502563704662
2023-01-29 15:10:31.041756,-0.0012741487007588148
2023-01-29 15:10:31.046756,-0.0008550504743665972
2023-01-29 15:10:31.051756,-9.616216266291152e-05
2023-01-29 15:10:31.056756,0.0009009683316391109
2023-01-29 15:10:31.061756,0.0020194053649902344
2023-01-29 15:10:31.066756,0.0030565452380344974
2023-01-29 15:10:31.071756,0.0038705270271748114
2023-01-29 15:10:31.076756,0.004516382690598599
2023-01-29 15:10:31.081756,0.005096594803035259
2023-01-29 15:10:31.086756,0.005577635909317479
2023-01-29 15:10:31.091756,0.005889932624995755
2023-01-29 15:10:31.096756,0.006096604730741073
2023-01-29 15:10:31.101756,0.006298621650785264
2023-01-29 15:10:31.106756,0.006431707147473048
2023-01-29 15:10:31.111756,0.006274580955505333
2023-01-29 15:10:31.116756,0.005598160950697016
2023-01-29 15:10:31.121756,0.004231135360896545
2023-01-29 15:10:31.126756,0.0020990132190192175
2023-01-29 15:10:31.131756,-0.0006490945816040086
2023-01-29 15:10:31.136756,-0.003587752697022163
2023-01-29 15:10:31.141756,-0.006202459335327082
2023-01-29 15:10:31.146756,-0.008160536242840421
2023-01-29 15:10:31.151756,-0.009423892013728572
2023-01-29 15:10:31.156756,-0.010182529912855329
2023-01-29 15:10:31.161756,-0.010698040947317973
2023-01-29 15:10:31.166756,-0.011123835187206438
2023-01-29 15:10:31.171756,-0.011419257149100326
2023-01-29 15:10:31.176756,-0.011429204823607979
2023-01-29 15:10:31.181756,-0.010986527428030853
2023-01-29 15:10:31.186756,-0.009922120526418415
2023-01-29 15:10:31.191756,-0.008149743080139113
2023-01-29 15:10:31.196756,-0.005878739601166738
2023-01-29 15:10:31.201756,-0.0035580000840126805
2023-01-29 15:10:31.206756,-0.0013714609811371237
2023-01-29 15:10:31.211756,0.0010577838402240853
2023-01-29 15:10:31.216756,0.00414756077948581
2023-01-29 15:10:31.221756,0.007620851509273021
2023-01-29 15:10:31.226756,0.010594228355149032
2023-01-29 15:10:31.231756,0.012308756820857547
2023-01-29 15:10:31.236756,0.01240759120154156
2023-01-29 15:10:31.241756,0.01057783793658011
2023-01-29 15:10:31.246756,0.006455885531740108
2023-01-29 15:10:31.251756,7.212162017820371e-05
2023-01-29 15:10:31.256756,-0.00795765628498216
2023-01-29 15:10:31.261756,-0.016828378662466996
2023-01-29 15:10:31.266756,-0.02582657989973549
2023-01-29 15:10:31.271756,-0.03413756936788551
2023-01-29 15:10:31.276756,-0.040809821718752304
2023-01-29 15:10:31.281756,-0.045220255851745605
2023-01-29 15:10:31.286756,-0.047403497724416085
2023-01-29 15:10:31.291756,-0.04781663417816159
2023-01-29 15:10:31.296756,-0.047057230957566226
2023-01-29 15:10:31.301756,-0.0459174327552318
2023-01-29 15:10:31.306756,-0.04530087194553109
2023-01-29 15:10:31.311756,-0.045701067894697064
2023-01-29 15:10:31.316756,-0.04681595620678647
2023-01-29 15:10:31.321756,-0.0477204732596874
2023-01-29 15:10:31.326756,-0.04710365424943065
2023-01-29 15:10:31.331756,-0.04312872886657709
2023-01-29 15:10:31.336756,-0.03334628476802957
2023-01-29 15:10:31.341756,-0.015145540237426728
2023-01-29 15:10:31.346756,0.013462063796250395
2023-01-29 15:10:31.351756,0.05293726921081543
2023-01-29 15:10:31.356756,0.10095595088541742
2023-01-29 15:10:31.361756,0.1511188447475433
2023-01-29 15:10:31.366756,0.19298477500961697
2023-01-29 15:10:31.371756,0.21441757678985587
2023-01-29 15:10:31.376756,0.2055681028433681
2023-01-29 15:10:31.381756,0.16280254721641532
2023-01-29 15:10:31.386756,0.09108792815640389
2023-01-29 15:10:31.391756,0.0037022433243690737
2023-01-29 15:10:31.396756,-0.08132180083073189
2023-01-29 15:10:31.401756,-0.14700791239738462
2023-01-29 15:10:31.406756,-0.18277918967484683
2023-01-29 15:10:31.411756,-0.18686711788177493
2023-01-29 15:10:31.416756,-0.16535490590731364
2023-01-29 15:10:31.421756,-0.12897750735282892
2023-01-29 15:10:31.426756,-0.08905785934073097
2023-01-29 15:10:31.431756,-0.053995054215192705
2023-01-29 15:10:31.436756,-0.027687250280414123
2023-01-29 15:10:31.441756,-0.010217229835689054
2023-01-29 15:10:31.446756,0.00038925524732968123
2023-01-29 15:10:31.451756,0.00670731067657474
2023-01-29 15:10:31.456756,0.011033154517238832
2023-01-29 15:10:31.461756,0.01480897329747672
2023-01-29 15:10:31.466756,0.018491962650159496
2023-01-29 15:10:31.471756,0.02199709415435786
2023-01-29 15:10:31.476756,0.025198474695024762
2023-01-29 15:10:31.481756,0.028007229790091515
2023-01-29 15:10:31.486756,0.030318729202779428
2023-01-29 15:10:31.491756,0.03221432492136952
2023-01-29 15:10:31.496756,0.034103836058560426
2023-01-29 15:10:31.501756,0.0364454612135887
2023-01-29 15:10:31.506756,0.03942374209193114
2023-01-29 15:10:31.511756,0.043056607246398884
2023-01-29 15:10:31.516756,0.047448795011053146
2023-01-29 15:10:31.521756,0.052744947373867014
2023-01-29 15:10:31.526756,0.059004988710195834
2023-01-29 15:10:31.531756,0.06635189056396475
2023-01-29 15:10:31.536756,0.07509244141350943
2023-01-29 15:10:31.541756,0.08544008433818809
2023-01-29 15:10:31.546756,0.09719194709035052
2023-01-29 15:10:31.551756,0.10984122753143306
2023-01-29 15:10:31.556756,0.12287568011749735
2023-01-29 15:10:31.561756,0.13580501079559315
2023-01-29 15:10:31.566756,0.14809955617196807
2023-01-29 15:10:31.571756,0.15938878059387196
2023-01-29 15:10:31.576756,0.16963967388041093
2023-01-29 15:10:31.581756,0.17890970408916465
2023-01-29 15:10:31.586756,0.18696238003491294
2023-01-29 15:10:31.591756,0.1932378709316252
2023-01-29 15:10:31.596756,0.19702649293933625
2023-01-29 15:10:31.601756,0.19746899604797352
2023-01-29 15:10:31.606756,0.19357994805704376
2023-01-29 15:10:31.611756,0.18463134765624994
2023-01-29 15:10:31.616756,0.17058883453786683
2023-01-29 15:10:31.621756,0.15210449695587144
2023-01-29 15:10:31.626756,0.1302261734112788
2023-01-29 15:10:31.631756,0.1062591895461082
2023-01-29 15:10:31.636756,0.08168138596598766
2023-01-29 15:10:31.641756,0.05781750008463849
2023-01-29 15:10:31.646756,0.03552213028577309
2023-01-29 15:10:31.651756,0.015265743248164597
2023-01-29 15:10:31.656756,-0.0026027390171933385
2023-01-29 15:10:31.661756,-0.017862122505903223
2023-01-29 15:10:31.666756,-0.030551135444672257
2023-01-29 15:10:31.671756,-0.04084488004446023
2023-01-29 15:10:31.676756,-0.04884176455658498
2023-01-29 15:10:31.681756,-0.05464414879679671
2023-01-29 15:10:31.686756,-0.058561847491289995
2023-01-29 15:10:31.691756,-0.061038933694362564
2023-01-29 15:10:31.696756,-0.062445206073688
2023-01-29 15:10:31.701756,-0.0631064176559448
2023-01-29 15:10:31.706756,-0.06342514231227107
2023-01-29 15:10:31.711756,-0.06373147666454312
2023-01-29 15:10:31.716756,-0.064048060780306
2023-01-29 15:10:31.721756,-0.06418824195861805
2023-01-29 15:10:31.726756,-0.06404851278722967
2023-01-29 15:10:31.731756,-0.06365935504436487
2023-01-29 15:10:31.736756,-0.0630514696341962
2023-01-29 15:10:31.741756,-0.062289040535688386
2023-01-29 15:10:31.746756,-0.061586005884365864
2023-01-29 15:10:31.751756,-0.06118317693471896
2023-01-29 15:10:31.756756,-0.06112102547954773
2023-01-29 15:10:31.761756,-0.06127933785319326
2023-01-29 15:10:31.766756,-0.06158257967461882
2023-01-29 15:10:31.771756,-0.062000554054975454
2023-01-29 15:10:31.776756,-0.06241557433819169
2023-01-29 15:10:31.781756,-0.06269773095846166
2023-01-29 15:10:31.786756,-0.06290549796743888
2023-01-29 15:10:31.791756,-0.06325066089630116
2023-01-29 15:10:31.796756,-0.06387152733790993
2023-01-29 15:10:31.801756,-0.06476521492004386
2023-01-29 15:10:31.806756,-0.0658964526699886
2023-01-29 15:10:31.811756,-0.06721735000610352
2023-01-29 15:10:31.816756,-0.06859680830320868
2023-01-29 15:10:31.821756,-0.06986181437969197
2023-01-29 15:10:31.826756,-0.07089712479495423
2023-01-29 15:10:31.831756,-0.07161676883697501
2023-01-29 15:10:31.836756,-0.07190718635625434
2023-01-29 15:10:31.841756,-0.07173697650432581
2023-01-29 15:10:31.846756,-0.0712962291517744
2023-01-29 15:10:31.851756,-0.07091959565877909
2023-01-29 15:10:31.856756,-0.07088119233148962
2023-01-29 15:10:31.861756,-0.07128020375967017
2023-01-29 15:10:31.866756,-0.07198174560711142
2023-01-29 15:10:31.871756,-0.0725543498992919
2023-01-29 15:10:31.876756,-0.07241160205476012
2023-01-29 15:10:31.881756,-0.07123212516307825
2023-01-29 15:10:31.886756,-0.06924634671398489
2023-01-29 15:10:31.891756,-0.06702502816915508
2023-01-29 15:10:31.896756,-0.0650213108720652
2023-01-29 15:10:31.901756,-0.0633227825164794
2023-01-29 15:10:31.906756,-0.06165004780283609
2023-01-29 15:10:31.911756,-0.0594522580504417
2023-01-29 15:10:31.916756,-0.056193188790933254
2023-01-29 15:10:31.921756,-0.051831405609846046
2023-01-29 15:10:31.926756,-0.047056707692252765
2023-01-29 15:10:31.931756,-0.0429604463279247
2023-01-29 15:10:31.936756,-0.04049339330879342
2023-01-29 15:10:31.941756,-0.04021982476115218
2023-01-29 15:10:31.946756,-0.042323461680547535
2023-01-29 15:10:31.951756,-0.04659056663513177
2023-01-29 15:10:31.956756,-0.052459407483619956
2023-01-29 15:10:31.961756,-0.059283971786499
2023-01-29 15:10:31.966756,-0.06653889936531601
2023-01-29 15:10:31.971756,-0.07370829582214353
2023-01-29 15:10:31.976756,-0.08015168391969481
2023-01-29 15:10:31.981756,-0.08529584109783173
2023-01-29 15:10:31.986756,-0.08891441154330948
2023-01-29 15:10:31.991756,-0.09111364930868138
2023-01-29 15:10:31.996756,-0.09217502126039384
2023-01-29 15:10:32.001756,-0.0925560817122459
2023-01-29 15:10:32.006756,-0.0928653179436322
2023-01-29 15:10:32.011756,-0.09354174137115467
2023-01-29 15:10:32.016756,-0.09452083209012167
2023-01-29 15:10:32.021756,-0.09527266025543207
2023-01-29 15:10:32.026756,-0.0949852753110941
2023-01-29 15:10:32.031756,-0.09245991706848135
2023-01-29 15:10:32.036756,-0.08586053990641185
2023-01-29 15:10:32.041756,-0.07277071475982665
2023-01-29 15:10:32.046756,-0.05064309881781422
2023-01-29 15:10:32.051756,-0.017573636025190274
2023-01-29 15:10:32.056756,0.02639979519282195
2023-01-29 15:10:32.061756,0.07760286331176752
2023-01-29 15:10:32.066756,0.12775736387330436
2023-01-29 15:10:32.071756,0.1650623530149459
2023-01-29 15:10:32.076756,0.17745151328550374
2023-01-29 15:10:32.081756,0.1568404883146286
2023-01-29 15:10:32.086756,0.10275468480215169
2023-01-29 15:10:32.091756,0.0238001346588134
2023-01-29 15:10:32.096756,-0.06416540044988733
2023-01-29 15:10:32.101756,-0.14294505119323728
2023-01-29 15:10:32.106756,-0.19788250386701725
2023-01-29 15:10:32.111756,-0.22196631133556366
2023-01-29 15:10:32.116756,-0.21672338751303724
2023-01-29 15:10:32.121756,-0.19020876288413996
2023-01-29 15:10:32.126756,-0.1532852650934651
2023-01-29 15:10:32.131756,-0.11573116481304159
2023-01-29 15:10:32.136756,-0.0837803532745788
2023-01-29 15:10:32.141756,-0.059860944747924805
2023-01-29 15:10:32.146756,-0.0437925818052887
2023-01-29 15:10:32.151756,-0.03408948704600325
2023-01-29 15:10:32.156756,-0.02880092194159645
2023-01-29 15:10:32.161756,-0.02608398720622058
2023-01-29 15:10:32.166756,-0.024544459721803517
2023-01-29 15:10:32.171756,-0.02319912239909171
2023-01-29 15:10:32.176756,-0.021322440180648487
2023-01-29 15:10:32.181756,-0.018559297546744312
2023-01-29 15:10:32.186756,-0.01508918252582562
2023-01-29 15:10:32.191756,-0.011395215988159063
2023-01-29 15:10:32.196756,-0.007827388949958785
2023-01-29 15:10:32.201756,-0.00449558114632958
2023-01-29 15:10:32.206756,-0.0014414799851127876
2023-01-29 15:10:32.211756,0.0013703107833861782
2023-01-29 15:10:32.216756,0.0042113018187826395
2023-01-29 15:10:32.221756,0.007500648498535128
2023-01-29 15:10:32.226756,0.011549360620625847
2023-01-29 15:10:32.231756,0.016563933342695222
2023-01-29 15:10:32.236756,0.02284462758526205
2023-01-29 15:10:32.241756,0.030747851356863927
2023-01-29 15:10:32.246756,0.04045467992345875
2023-01-29 15:10:32.251756,0.051951609551906454
2023-01-29 15:10:32.256756,0.06517025906783273
2023-01-29 15:10:32.261756,0.07988671958446494
2023-01-29 15:10:32.266756,0.0954670630709287
2023-01-29 15:10:32.271756,0.11092305183410633
2023-01-29 15:10:32.276756,0.12526117238291104
2023-01-29 15:10:32.281756,0.13768017292022697
2023-01-29 15:10:32.286756,0.14756489519400776
2023-01-29 15:10:32.291756,0.154580682516098
2023-01-29 15:10:32.296756,0.15877597807294921
2023-01-29 15:10:32.301756,0.16032636165618894
2023-01-29 15:10:32.306756,0.15908955933888083
2023-01-29 15:10:32.311756,0.1545325964689253
2023-01-29 15:10:32.316756,0.1460648398144392
2023-01-29 15:10:32.321756,0.13330480456352228
2023-01-29 15:10:32.326756,0.11617416570468901
2023-01-29 15:10:32.331756,0.09510438144206992
2023-01-29 15:10:32.336756,0.07125587460405823
2023-01-29 15:10:32.341756,0.04632612317800517
2023-01-29 15:10:32.346756,0.022030560073094046
2023-01-29 15:10:32.351756,-0.00021636486053465848
2023-01-29 15:10:32.356756,-0.019337330642394714
2023-01-29 15:10:32.361756,-0.03471454232931129
2023-01-29 15:10:32.366756,-0.04637736310798599
2023-01-29 15:10:32.371756,-0.054860513657331376
2023-01-29 15:10:32.376756,-0.0608104833987465
2023-01-29 15:10:32.381756,-0.06483733654022206
2023-01-29 15:10:32.386756,-0.0676175925706353
2023-01-29 15:10:32.391756,-0.0697896927595138
2023-01-29 15:10:32.396756,-0.07166548007782773
2023-01-29 15:10:32.401756,-0.07325153052806845
2023-01-29 15:10:32.406756,-0.07455286038186566
2023-01-29 15:10:32.411756,-0.07560750097036356
2023-01-29 15:10:32.416756,-0.07624795436608245
2023-01-29 15:10:32.421756,-0.07618447393178925
2023-01-29 15:10:32.426756,-0.07543046146764185
2023-01-29 15:10:32.431756,-0.0743573904037474
2023-01-29 15:10:32.436756,-0.07321811987517612
2023-01-29 15:10:32.441756,-0.07190525531768788
2023-01-29 15:10:32.446756,-0.07033260132735071
2023-01-29 15:10:32.451756,-0.06877999007701864
2023-01-29 15:10:32.456756,-0.06764293246020016
2023-01-29 15:10:32.461756,-0.06702502816915507
2023-01-29 15:10:32.466756,-0.06675773335378284
2023-01-29 15:10:32.471756,-0.06664037704467769
2023-01-29 15:10:32.476756,-0.06645841497795081
2023-01-29 15:10:32.481756,-0.0659191608428955
2023-01-29 15:10:32.486756,-0.06482420935266962
2023-01-29 15:10:32.491756,-0.06329874694347379
2023-01-29 15:10:32.496756,-0.061739440569230225
2023-01-29 15:10:32.501756,-0.06058216094970701
2023-01-29 15:10:32.506756,-0.06016515135013599
2023-01-29 15:10:32.511756,-0.06065428256988518
2023-01-29 15:10:32.516756,-0.061921432356300876
2023-01-29 15:10:32.521756,-0.06353914737701405
2023-01-29 15:10:32.526756,-0.06502174622945027
2023-01-29 15:10:32.531756,-0.06608744710683817
2023-01-29 15:10:32.536756,-0.06670220909535025
2023-01-29 15:10:32.541756,-0.06700098514556876
2023-01-29 15:10:32.546756,-0.06723578474633514
2023-01-29 15:10:32.551756,-0.06767412275075904
2023-01-29 15:10:32.556756,-0.06841909082929211
2023-01-29 15:10:32.561756,-0.06935696303844448
2023-01-29 15:10:32.566756,-0.07031641002956576
2023-01-29 15:10:32.571756,-0.071208082139492
2023-01-29 15:10:32.576756,-0.07199470617894421
2023-01-29 15:10:32.581756,-0.0726505145430564
2023-01-29 15:10:32.586756,-0.07320531428292433
2023-01-29 15:10:32.591756,-0.07370829582214346
2023-01-29 15:10:32.596756,-0.07407454281936172
2023-01-29 15:10:32.601756,-0.07406890392303456
2023-01-29 15:10:32.606756,-0.07351688674729644
2023-01-29 15:10:32.611756,-0.07245819270610798
2023-01-29 15:10:32.616756,-0.07105963988612717
2023-01-29 15:10:32.621756,-0.06947716325521458
2023-01-29 15:10:32.626756,-0.06781424276833127
2023-01-29 15:10:32.631756,-0.06603936851024617
2023-01-29 15:10:32.636756,-0.06384462093609103
2023-01-29 15:10:32.641756,-0.06072640419006342
2023-01-29 15:10:32.646756,-0.056363688649008065
2023-01-29 15:10:32.651756,-0.05091786384582505
2023-01-29 15:10:32.656756,-0.04497532032703017
2023-01-29 15:10:32.661756,-0.03933032602071755
2023-01-29 15:10:32.666756,-0.03484714505804742
2023-01-29 15:10:32.671756,-0.03231048583984367
2023-01-29 15:10:32.676756,-0.03219729211583903
2023-01-29 15:10:32.681756,-0.03459433838725091
2023-01-29 15:10:32.686756,-0.03935353776344288
2023-01-29 15:10:32.691756,-0.046181879937648655
2023-01-29 15:10:32.696756,-0.054482496213558114
2023-01-29 15:10:32.701756,-0.06325066089630119
2023-01-29 15:10:32.706756,-0.07130928179375451
2023-01-29 15:10:32.711756,-0.07767498493194577
2023-01-29 15:10:32.716756,-0.08175151787070695
2023-01-29 15:10:32.721756,-0.0834206789731979
2023-01-29 15:10:32.726756,-0.0831503971418063
2023-01-29 15:10:32.731756,-0.08190612494945516
2023-01-29 15:10:32.736756,-0.08071066560485439
2023-01-29 15:10:32.741756,-0.08017520606517792
2023-01-29 15:10:32.746756,-0.08036614184622383
2023-01-29 15:10:32.751756,-0.08087237924337376
2023-01-29 15:10:32.756756,-0.08076827756574603
2023-01-29 15:10:32.761756,-0.07854044437408439
2023-01-29 15:10:32.766756,-0.07217822625887904
2023-01-29 15:10:32.771756,-0.0593320541083812
2023-01-29 15:10:32.776756,-0.037493594862181547
2023-01-29 15:10:32.781756,-0.004639824386686054
2023-01-29 15:10:32.786756,0.03928882225194536
2023-01-29 15:10:32.791756,0.09063284099102022
2023-01-29 15:10:32.796756,0.1412080310361761
2023-01-29 15:10:32.801756,0.1793183982372283
2023-01-29 15:10:32.806756,0.19264996224170286
2023-01-29 15:10:32.811756,0.1724427938461302
2023-01-29 15:10:32.816756,0.1175652504028139
2023-01-29 15:10:32.821756,0.0364214181900023
2023-01-29 15:10:32.826756,-0.0548460960621818
2023-01-29 15:10:32.831756,-0.13739168643951408
2023-01-29 15:10:32.836756,-0.19563188114441135
2023-01-29 15:10:32.841756,-0.221653789281845
2023-01-29 15:10:32.846756,-0.21664111740291164
2023-01-29 15:10:32.851756,-0.18907885253429413
2023-01-29 15:10:32.856756,-0.15065514802383617
2023-01-29 15:10:32.861756,-0.11186063289642334
2023-01-29 15:10:32.866756,-0.07932694389929609
2023-01-29 15:10:32.871756,-0.055509608238935394
2023-01-29 15:10:32.876756,-0.0398016210731891
2023-01-29 15:10:32.881756,-0.030002593994140538
2023-01-29 15:10:32.886756,-0.023685066860983976
2023-01-29 15:10:32.891756,-0.019136270508170107
2023-01-29 15:10:32.896756,-0.015494791129614403
2023-01-29 15:10:32.901756,-0.01228471659123889
2023-01-29 15:10:32.906756,-0.009112773184364887
2023-01-29 15:10:32.911756,-0.005793770309537659
2023-01-29 15:10:32.916756,-0.0023868681395438594
2023-01-29 15:10:32.921756,0.0010818243026733398
2023-01-29 15:10:32.926756,0.004709226388914302
2023-01-29 15:10:32.931756,0.008438229560851948
2023-01-29 15:10:32.936756,0.01201440292597195
2023-01-29 15:10:32.941756,0.01540998648852097
2023-01-29 15:10:32.946756,0.019020272970083685
2023-01-29 15:10:32.951756,0.023271244019269884
2023-01-29 15:10:32.956756,0.028345176451300354
2023-01-29 15:10:32.961756,0.0344741344451904
2023-01-29 15:10:32.966756,0.042096217154673536
2023-01-29 15:10:32.971756,0.05139867588877666
2023-01-29 15:10:32.976756,0.062050539836470436
2023-01-29 15:10:32.981756,0.07370829582214351
2023-01-29 15:10:32.986756,0.08639902645738703
2023-01-29 15:10:32.991756,0.10003268718719474
2023-01-29 15:10:32.996756,0.11398617160810162
2023-01-29 15:10:33.001756,0.12765526771545405
2023-01-29 15:10:33.006756,0.14094941386809848
2023-01-29 15:10:33.011756,0.15364310145378104
2023-01-29 15:10:33.016756,0.16472691926732735
2023-01-29 15:10:33.021756,0.17313997447490684
2023-01-29 15:10:33.026756,0.17866150952132961
2023-01-29 15:10:33.031756,0.18121759593486775
2023-01-29 15:10:33.036756,0.179888073161667
2023-01-29 15:10:33.041756,0.1738131046295166
2023-01-29 15:10:33.046756,0.1636260742713048
2023-01-29 15:10:33.051756,0.15049378573894495
2023-01-29 15:10:33.056756,0.1340932103583375
2023-01-29 15:10:33.061756,0.11354347318410865
2023-01-29 15:10:33.066756,0.09047245261847288
2023-01-29 15:10:33.071756,0.06875594705343237
2023-01-29 15:10:33.076756,0.050153528732128715
2023-01-29 15:10:33.081756,0.03231048583984368
2023-01-29 15:10:33.086756,0.012701639992048123
2023-01-29 15:10:33.091756,-0.007212162017822189
2023-01-29 15:10:33.096756,-0.023823452733973644
2023-01-29 15:10:33.101756,-0.03603677079081531
2023-01-29 15:10:33.106756,-0.04565743842800879
2023-01-29 15:10:33.111756,-0.05385081097483623
2023-01-29 15:10:33.116756,-0.05984064687148833
2023-01-29 15:10:33.121756,-0.06320258229970929
2023-01-29 15:10:33.126756,-0.06507266365272917
2023-01-29 15:10:33.131756,-0.06642401218414298
2023-01-29 15:10:33.136756,-0.0669956915698752
2023-01-29 15:10:33.141756,-0.06671249866485587
2023-01-29 15:10:33.146756,-0.06662517252000183
2023-01-29 15:10:33.151756,-0.06755392253398887
2023-01-29 15:10:33.156756,-0.06899723961200802
2023-01-29 15:10:33.161756,-0.07017433643341062
2023-01-29 15:10:33.166756,-0.0710825451227741
2023-01-29 15:10:33.171756,-0.07178505510091784
2023-01-29 15:10:33.176756,-0.07169648550421644
2023-01-29 15:10:33.181756,-0.07043878734111782
2023-01-29 15:10:33.186756,-0.06859372824648556
2023-01-29 15:10:33.191756,-0.06683270633220664
2023-01-29 15:10:33.196756,-0.06502033766094502
2023-01-29 15:10:33.201756,-0.0628660172224044
2023-01-29 15:10:33.206756,-0.06072745849127737
2023-01-29 15:10:33.211756,-0.059043567627668304
2023-01-29 15:10:33.216756,-0.05763197201345588
2023-01-29 15:10:33.221756,-0.05625486373901358
2023-01-29 15:10:33.226756,-0.05525487158416733
2023-01-29 15:10:33.231756,-0.054908595979213645
2023-01-29 15:10:33.236756,-0.05470505069800521
2023-01-29 15:10:33.241756,-0.05397101491689678
2023-01-29 15:10:33.246756,-0.052742019331712735
2023-01-29 15:10:33.251756,-0.05142271518707271
2023-01-29 15:10:33.256756,-0.05014145913942001
2023-01-29 15:10:33.261756,-0.04909078404307355
2023-01-29 15:10:33.266756,-0.04894574760503162
2023-01-29 15:10:33.271756,-0.05017260834574692
2023-01-29 15:10:33.276756,-0.052278440555691925
2023-01-29 15:10:33.281756,-0.05435566231608389
2023-01-29 15:10:33.286756,-0.05598370783967452
2023-01-29 15:10:33.291756,-0.05707224458456026
2023-01-29 15:10:33.296756,-0.05736443779833582
2023-01-29 15:10:33.301756,-0.05680779740214336
2023-01-29 15:10:33.306756,-0.05600561153644571
2023-01-29 15:10:33.311756,-0.055605769157409536
2023-01-29 15:10:33.316756,-0.05555148897049535
2023-01-29 15:10:33.321756,-0.05548556894063934
2023-01-29 15:10:33.326756,-0.055458983461965865
2023-01-29 15:10:33.331756,-0.055605769157409494
2023-01-29 15:10:33.336756,-0.05553235599147973
2023-01-29 15:10:33.341756,-0.054716270416975
2023-01-29 15:10:33.346756,-0.05319553980457767
2023-01-29 15:10:33.351756,-0.05127847194671632
2023-01-29 15:10:33.356756,-0.048963768127908036
2023-01-29 15:10:33.361756,-0.046278040856122915
2023-01-29 15:10:33.366756,-0.04377904549344807
2023-01-29 15:10:33.371756,-0.04199882596731175
2023-01-29 15:10:33.376756,-0.040651858521906
2023-01-29 15:10:33.381756,-0.038993757218122364
2023-01-29 15:10:33.386756,-0.0366515130487167
2023-01-29 15:10:33.391756,-0.03356059640645981
2023-01-29 15:10:33.396756,-0.029563667608715583
2023-01-29 15:10:33.401756,-0.024833878502249742
2023-01-29 15:10:33.406756,-0.020389163504814647
2023-01-29 15:10:33.411756,-0.017477473244071007
2023-01-29 15:10:33.416756,-0.016671396219367394
2023-01-29 15:10:33.421756,-0.018078487366437933
2023-01-29 15:10:33.426756,-0.021958615445731085
2023-01-29 15:10:33.431756,-0.02836783789098259
2023-01-29 15:10:33.436756,-0.03651904725190687
2023-01-29 15:10:33.441756,-0.04522025585174556
2023-01-29 15:10:33.446756,-0.05367042185553121
2023-01-29 15:10:33.451756,-0.061231255531310994
2023-01-29 15:10:33.456756,-0.06691581010773857
2023-01-29 15:10:33.461756,-0.06998201459646221
2023-01-29 15:10:33.466756,-0.07079506681622892
2023-01-29 15:10:33.471756,-0.07041474431753146
2023-01-29 15:10:33.476756,-0.06965760522579058
2023-01-29 15:10:33.481756,-0.06918867677450179
2023-01-29 15:10:33.486756,-0.06993775474486896
2023-01-29 15:10:33.491756,-0.07238607108592984
2023-01-29 15:10:33.496756,-0.07563159667911719
2023-01-29 15:10:33.501756,-0.07786731421947471
2023-01-29 15:10:33.506756,-0.07733888342441818
2023-01-29 15:10:33.511756,-0.07200141996145243
2023-01-29 15:10:33.516756,-0.058821354236055286
2023-01-29 15:10:33.521756,-0.0347385816276073
2023-01-29 15:10:33.526756,0.0014136482918890466
2023-01-29 15:10:33.531756,0.04798492044210426
2023-01-29 15:10:33.536756,0.10014163452277741
2023-01-29 15:10:33.541756,0.14895519614219657
2023-01-29 15:10:33.546756,0.181818360666594
2023-01-29 15:10:33.551756,0.18648247420787806
2023-01-29 15:10:33.556756,0.15658906068752348
2023-01-29 15:10:33.561756,0.09443124383687967
2023-01-29 15:10:33.566756,0.010347061310122778
2023-01-29 15:10:33.571756,-0.0792616605758666
2023-01-29 15:10:33.576756,-0.15568815209079773
2023-01-29 15:10:33.581756,-0.2044407576322554
2023-01-29 15:10:33.586756,-0.22081367793339843
2023-01-29 15:10:33.591756,-0.20939311385154713
2023-01-29 15:10:33.596756,-0.17906438388348148
2023-01-29 15:10:33.601756,-0.13972362875938402
2023-01-29 15:10:33.606756,-0.10162382757841362
2023-01-29 15:10:33.611756,-0.07279475778341285
2023-01-29 15:10:33.616756,-0.054700346624381446
2023-01-29 15:10:33.621756,-0.04257579892873756
2023-01-29 15:10:33.626756,-0.03182035361846571
2023-01-29 15:10:33.631756,-0.022525986656546506
2023-01-29 15:10:33.636756,-0.016697561277216295
2023-01-29 15:10:33.641756,-0.013630986213683952
2023-01-29 15:10:33.646756,-0.010644950205504102
2023-01-29 15:10:33.651756,-0.006947716232389235
2023-01-29 15:10:33.656756,-0.003998817145909797
2023-01-29 15:10:33.661756,-0.002476175781339407
2023-01-29 15:10:33.666756,-0.0012317427614529587
2023-01-29 15:10:33.671756,0.0007212162017822124
2023-01-29 15:10:33.676756,0.0031431007580836902
2023-01-29 15:10:33.681756,0.005793770309537625
2023-01-29 15:10:33.686756,0.009177649029387046
2023-01-29 15:10:33.691756,0.013655027374625229
2023-01-29 15:10:33.696756,0.018995647264384626
2023-01-29 15:10:33.701756,0.02519448660314081
2023-01-29 15:10:33.706756,0.03277876331274298
2023-01-29 15:10:33.711756,0.04197478294372544
2023-01-29 15:10:33.716756,0.0523296109484376
2023-01-29 15:10:33.721756,0.063370868563652
2023-01-29 15:10:33.726756,0.0749486697936067
2023-01-29 15:10:33.731756,0.08678635209798809
2023-01-29 15:10:33.736756,0.0984000987196048
2023-01-29 15:10:33.741756,0.10967294871807087
2023-01-29 15:10:33.746756,0.12093384933921161
2023-01-29 15:10:33.751756,0.13229510188102717
2023-01-29 15:10:33.756756,0.1433747004175483
2023-01-29 15:10:33.761756,0.1537152230739593
2023-01-29 15:10:33.766756,0.16294364379187776
2023-01-29 15:10:33.771756,0.17042338848114008
2023-01-29 15:10:33.776756,0.17523507561768603
2023-01-29 15:10:33.781756,0.17662584781646712
2023-01-29 15:10:33.786756,0.17412133899540694
2023-01-29 15:10:33.791756,0.16722600162029255
2023-01-29 15:10:33.796756,0.15551363721460432
2023-01-29 15:10:33.801756,0.13914665579795826
2023-01-29 15:10:33.806756,0.11898243729548975
2023-01-29 15:10:33.811756,0.09613811969757083
2023-01-29 15:10:33.816756,0.07175275415686802
2023-01-29 15:10:33.821756,0.047095417976379346
2023-01-29 15:10:33.826756,0.023438157251615053
2023-01-29 15:10:33.831756,0.001682837842963598
2023-01-29 15:10:33.836756,-0.017664941547253288
2023-01-29 15:10:33.841756,-0.03420969098806381
2023-01-29 15:10:33.846756,-0.04767849109755626
2023-01-29 15:10:33.851756,-0.058202147483825586
2023-01-29 15:10:33.856756,-0.06626816423515672
2023-01-29 15:10:33.861756,-0.07236202806234346
2023-01-29 15:10:33.866756,-0.07685640860126595
2023-01-29 15:10:33.871756,-0.08015116304159155
2023-01-29 15:10:33.876756,-0.08260433542490453
2023-01-29 15:10:33.881756,-0.0843342170119285
2023-01-29 15:10:33.886756,-0.085335444898571
2023-01-29 15:10:33.891756,-0.0857526063919067
2023-01-29 15:10:33.896756,-0.08581319927689272
2023-01-29 15:10:33.901756,-0.0855602845549583
2023-01-29 15:10:33.906756,-0.08489183901110348
2023-01-29 15:10:33.911756,-0.08380532264709471
2023-01-29 15:10:33.916756,-0.08239138689950604
2023-01-29 15:10:33.921756,-0.0806800574064254
2023-01-29 15:10:33.926756,-0.07872662060397399
2023-01-29 15:10:33.931756,-0.07676144689321507
2023-01-29 15:10:33.936756,-0.07501347837179458
2023-01-29 15:10:33.941756,-0.07344385236501691
2023-01-29 15:10:33.946756,-0.0718530098658201
2023-01-29 15:10:33.951756,-0.07017433643341062
2023-01-29 15:10:33.956756,-0.06848985170985747
2023-01-29 15:10:33.961756,-0.06688078492879858
2023-01-29 15:10:33.966756,-0.06546491289711899
2023-01-29 15:10:33.971756,-0.06445269286632527
2023-01-29 15:10:33.976756,-0.06393012802044155
2023-01-29 15:10:33.981756,-0.0636593550443649
2023-01-29 15:10:33.986756,-0.06327903657582265
2023-01-29 15:10:33.991756,-0.06262560933828346
2023-01-29 15:10:33.996756,-0.06173546972368064
2023-01-29 15:10:34.001756,-0.06070236489176746
2023-01-29 15:10:34.006756,-0.059725229408827525
2023-01-29 15:10:34.011756,-0.05913972854614251
2023-01-29 15:10:34.016756,-0.05916895610584233
2023-01-29 15:10:34.021756,-0.05971670150756828
2023-01-29 15:10:34.026756,-0.06054502048905446
2023-01-29 15:10:34.031756,-0.06151974201202385
2023-01-29 15:10:34.036756,-0.06253914788903137
2023-01-29 15:10:34.041756,-0.06339490413665766
2023-01-29 15:10:34.046756,-0.06389156085607163
2023-01-29 15:10:34.051756,-0.06397187709808334
2023-01-29 15:10:34.056756,-0.06358047035100946
2023-01-29 15:10:34.061756,-0.0625775307416915
2023-01-29 15:10:34.066756,-0.06096393411271988
2023-01-29 15:10:34.071756,-0.059043567627668325
2023-01-29 15:10:34.076756,-0.057199339845020424
2023-01-29 15:10:34.081756,-0.0556298121809959
2023-01-29 15:10:34.086756,-0.05438969611006647
2023-01-29 15:10:34.091756,-0.05346616357564916
2023-01-29 15:10:34.096756,-0.05265940201101119
2023-01-29 15:10:34.101756,-0.05159100145101537
2023-01-29 15:10:34.106756,-0.050008561521367643
2023-01-29 15:10:34.111756,-0.04793683812022197
2023-01-29 15:10:34.116756,-0.045429902758104136
2023-01-29 15:10:34.121756,-0.042383473366498815
2023-01-29 15:10:34.126756,-0.03870828744662089
2023-01-29 15:10:34.131756,-0.034474134445190346
2023-01-29 15:10:34.136756,-0.02978622299672003
2023-01-29 15:10:34.141756,-0.024785798043012595
2023-01-29 15:10:34.146756,-0.019918731866552523
2023-01-29 15:10:34.151756,-0.015962919220328293
2023-01-29 15:10:34.156756,-0.013641760980357432
2023-01-29 15:10:34.161756,-0.013390581123530835
2023-01-29 15:10:34.166756,-0.01550566276925295
2023-01-29 15:10:34.171756,-0.02014597319066517
2023-01-29 15:10:34.176756,-0.027019221959105957
2023-01-29 15:10:34.181756,-0.03533959388732911
2023-01-29 15:10:34.186756,-0.04420898445289127
2023-01-29 15:10:34.191756,-0.05279302597045884
2023-01-29 15:10:34.196756,-0.060178101027891444
2023-01-29 15:10:34.201756,-0.06558259576559058
2023-01-29 15:10:34.206756,-0.06890898680514203
2023-01-29 15:10:34.211756,-0.07072727382183067
2023-01-29 15:10:34.216756,-0.07164365707256051
2023-01-29 15:10:34.221756,-0.07212162017822257
2023-01-29 15:10:34.226756,-0.07286599793828945
2023-01-29 15:10:34.231756,-0.07457375526428214
2023-01-29 15:10:34.236756,-0.07699470670839019
2023-01-29 15:10:34.241756,-0.07892509549856179
2023-01-29 15:10:34.246756,-0.07944767390901993
2023-01-29 15:10:34.251756,-0.07832407951354978
2023-01-29 15:10:34.256756,-0.07449933024834722
2023-01-29 15:10:34.261756,-0.06490945816040025
2023-01-29 15:10:34.266756,-0.04570513958768194
2023-01-29 15:10:34.271756,-0.014616648666560516
2023-01-29 15:10:34.276756,0.027857092713372014
2023-01-29 15:10:34.281756,0.07815580070018759
2023-01-29 15:10:34.286756,0.1288853925942956
2023-01-29 15:10:34.291756,0.16862034797668438
2023-01-29 15:10:34.296756,0.18456848933072956
2023-01-29 15:10:34.301756,0.16761064529418934
2023-01-29 15:10:34.306756,0.11650376004922396
2023-01-29 15:10:34.311756,0.03904183954000469
2023-01-29 15:10:34.316756,-0.0497121173551778
2023-01-29 15:10:34.321756,-0.13150176405906663
2023-01-29 15:10:34.326756,-0.19052087849705343
2023-01-29 15:10:34.331756,-0.21843235194683067
2023-01-29 15:10:34.336756,-0.21602465602915025
2023-01-29 15:10:34.341756,-0.19105017185211173
2023-01-29 15:10:34.346756,-0.15433235157082018
2023-01-29 15:10:34.351756,-0.11616389453411102
2023-01-29 15:10:34.356756,-0.08371289823255891
2023-01-29 15:10:34.361756,-0.0599090270698069
2023-01-29 15:10:34.366756,-0.0442189503339783
2023-01-29 15:10:34.371756,-0.034522216767072636
2023-01-29 15:10:34.376756,-0.028520566969380788
2023-01-29 15:10:34.381756,-0.02420882508158678
2023-01-29 15:10:34.386756,-0.020145153087098154
2023-01-29 15:10:34.391756,-0.015770595520734707
2023-01-29 15:10:34.396756,-0.011241756382027679
2023-01-29 15:10:34.401756,-0.006827513687312598
2023-01-29 15:10:34.406756,-0.0026252099095932864
2023-01-29 15:10:34.411756,0.0012981891632080078
2023-01-29 15:10:34.416756,0.0049536715198806765
2023-01-29 15:10:34.421756,0.008678635582327787
2023-01-29 15:10:34.426756,0.01297946370642944
2023-01-29 15:10:34.431756,0.018054446205496674
2023-01-29 15:10:34.436756,0.02373985545934923
2023-01-29 15:10:34.441756,0.029906433075666428
2023-01-29 15:10:34.446756,0.036598871716994656
2023-01-29 15:10:34.451756,0.04382590577006345
2023-01-29 15:10:34.456756,0.05158880417848295
2023-01-29 15:10:34.461756,0.06014943122863764
2023-01-29 15:10:34.466756,0.06993105772734837
2023-01-29 15:10:34.471756,0.08108874410390846
2023-01-29 15:10:34.476756,0.09341988964952679
2023-01-29 15:10:34.481756,0.10664384067058559
2023-01-29 15:10:34.486756,0.12042236218521195
2023-01-29 15:10:34.491756,0.13409814238548268
2023-01-29 15:10:34.496756,0.14677030626509815
2023-01-29 15:10:34.501756,0.15772998332977284
2023-01-29 15:10:34.506756,0.16662497182666547
2023-01-29 15:10:34.511756,0.17326018214225752
2023-01-29 15:10:34.516756,0.17754385691883362
2023-01-29 15:10:34.521756,0.17958283424377433
2023-01-29 15:10:34.526756,0.17944036054540893
2023-01-29 15:10:34.531756,0.17669796943664545
2023-01-29 15:10:34.536756,0.17050357385461992
2023-01-29 15:10:34.541756,0.16010999679565419
2023-01-29 15:10:34.546756,0.14523510949817803
2023-01-29 15:10:34.551756,0.12609264254569996
2023-01-29 15:10:34.556756,0.1035070120798965
2023-01-29 15:10:34.561756,0.07902126014232624
2023-01-29 15:10:34.566756,0.05449368670034302
2023-01-29 15:10:34.571756,0.031396947801113115
2023-01-29 15:10:34.576756,0.010590407574589311
2023-01-29 15:10:34.581756,-0.007404486648738294
2023-01-29 15:10:34.586756,-0.02231024390348508
2023-01-29 15:10:34.591756,-0.03428181260824202
2023-01-29 15:10:34.596756,-0.04381748917762751
2023-01-29 15:10:34.601756,-0.05137463659048079
2023-01-29 15:10:34.606756,-0.057273961745593585
2023-01-29 15:10:34.611756,-0.06190439313650126
2023-01-29 15:10:34.616756,-0.06564665653409796
2023-01-29 15:10:34.621756,-0.06853958219289764
2023-01-29 15:10:34.626756,-0.07033657799042668
2023-01-29 15:10:34.631756,-0.070967674255371
2023-01-29 15:10:34.636756,-0.07070885656087303
2023-01-29 15:10:34.641756,-0.06990989297628397
2023-01-29 15:10:34.646756,-0.06885342343043141
2023-01-29 15:10:34.651756,-0.06786644458770748
2023-01-29 15:10:34.656756,-0.0671978466035624
2023-01-29 15:10:34.661756,-0.06668846309185016
2023-01-29 15:10:34.666756,-0.06584655198075
2023-01-29 15:10:34.671756,-0.06433248519897454
2023-01-29 15:10:34.676756,-0.062151412173985586
2023-01-29 15:10:34.681756,-0.059404175728559376
2023-01-29 15:10:34.686756,-0.056192794011820826
2023-01-29 15:10:34.691756,-0.0528170689940452
2023-01-29 15:10:34.696756,-0.04972515565797435
2023-01-29 15:10:34.701756,-0.047167539596557576
2023-01-29 15:10:34.706756,-0.04515854684018163
2023-01-29 15:10:34.711756,-0.0438018664717674
2023-01-29 15:10:34.716756,-0.043322657548762994
2023-01-29 15:10:34.721756,-0.043705701828002874
2023-01-29 15:10:34.726756,-0.04461898806312491
2023-01-29 15:10:34.731756,-0.04577318951487544
2023-01-29 15:10:34.736756,-0.047046094201358094
2023-01-29 15:10:34.741756,-0.048201285302638994
2023-01-29 15:10:34.746756,-0.04887460870795861
2023-01-29 15:10:34.751756,-0.04899462312459941
2023-01-29 15:10:34.756756,-0.048891935217626005
2023-01-29 15:10:34.761756,-0.048850379884243
2023-01-29 15:10:34.766756,-0.048870511418399244
2023-01-29 15:10:34.771756,-0.0489946231245994
2023-01-29 15:10:34.776756,-0.04946222427659628
2023-01-29 15:10:34.781756,-0.05031685158610339
2023-01-29 15:10:34.786756,-0.05121898108822437
2023-01-29 15:10:34.791756,-0.05190352723002435
2023-01-29 15:10:34.796756,-0.052464506042164814
2023-01-29 15:10:34.801756,-0.05288919061422341
2023-01-29 15:10:34.806756,-0.05270760643279967
2023-01-29 15:10:34.811756,-0.051566958427429074
2023-01-29 15:10:34.816756,-0.04987632649164874
2023-01-29 15:10:34.821756,-0.04834552854299544
2023-01-29 15:10:34.826756,-0.04702691543513581
2023-01-29 15:10:34.831756,-0.04536449909210198
2023-01-29 15:10:34.836756,-0.04314142111938304
2023-01-29 15:10:34.841756,-0.04074871540069581
2023-01-29 15:10:34.846756,-0.03834359865088796
2023-01-29 15:10:34.851756,-0.035339593887329074
2023-01-29 15:10:34.856756,-0.031203043616186324
2023-01-29 15:10:34.861756,-0.02649267576634879
2023-01-29 15:10:34.866756,-0.02268738681990305
2023-01-29 15:10:34.871756,-0.02108355425298209
2023-01-29 15:10:34.876756,-0.022161040218345977
2023-01-29 15:10:34.881756,-0.025843581184744807
2023-01-29 15:10:34.886756,-0.03182146713811814
2023-01-29 15:10:34.891756,-0.03942648693919174
2023-01-29 15:10:34.896756,-0.04756599844938944
2023-01-29 15:10:34.901756,-0.05514900013804424
2023-01-29 15:10:34.906756,-0.06155110524308981
2023-01-29 15:10:34.911756,-0.06656825542449947
2023-01-29 15:10:34.916756,-0.07011866753017215
2023-01-29 15:10:34.921756,-0.07224182784557338
2023-01-29 15:10:34.926756,-0.07328388244922149
2023-01-29 15:10:34.931756,-0.07378041744232168
2023-01-29 15:10:34.936756,-0.07409757883359788
2023-01-29 15:10:34.941756,-0.0743333548307418
2023-01-29 15:10:34.946756,-0.07451774979884039
2023-01-29 15:10:34.951756,-0.07464587688446037
2023-01-29 15:10:34.956756,-0.07442205785003958
2023-01-29 15:10:34.961756,-0.07308324426412577
2023-01-29 15:10:34.966756,-0.06939142209943637
2023-01-29 15:10:34.971756,-0.061471663415431886
2023-01-29 15:10:34.976756,-0.04659980350960041
2023-01-29 15:10:34.981756,-0.021684568375348958
2023-01-29 15:10:34.986756,0.015174361142387245
2023-01-29 15:10:34.991756,0.06269773095846169
2023-01-29 15:10:34.996756,0.11507533924532733
2023-01-29 15:10:35.001756,0.16203324496746058
2023-01-29 15:10:35.006756,0.19082374892662204
2023-01-29 15:10:35.011756,0.19016067683696738
2023-01-29 15:10:35.016756,0.15486694165795015
2023-01-29 15:10:35.021756,0.08887787908315649
2023-01-29 15:10:35.026756,0.004790949283964062
2023-01-29 15:10:35.031756,-0.07991075515747065
2023-01-29 15:10:35.036756,-0.14829180619124685
2023-01-29 15:10:35.041756,-0.18900673091411585
2023-01-29 15:10:35.046756,-0.19912491560439552
2023-01-29 15:10:35.051756,-0.18364569544792167
2023-01-29 15:10:35.056756,-0.15219884341533585
2023-01-29 15:10:35.061756,-0.11496186256408678
2023-01-29 15:10:35.066756,-0.07977866992413872
2023-01-29 15:10:35.071756,-0.051062107086181585
2023-01-29 15:10:35.076756,-0.03003465904491176
2023-01-29 15:10:35.081756,-0.015794634819030633
2023-01-29 15:10:35.086756,-0.006674024447682119
2023-01-29 15:10:35.091756,-0.0011539459228515057
2023-01-29 15:10:35.096756,0.001998478283144806
2023-01-29 15:10:35.101756,0.0038945674896240564
2023-01-29 15:10:35.106756,0.005455040726933331
2023-01-29 15:10:35.111756,0.007260243408381915
2023-01-29 15:10:35.116756,0.009647705418836526
2023-01-29 15:10:35.121756,0.012861689552664727
2023-01-29 15:10:35.126756,0.01696914092279482
2023-01-29 15:10:35.131756,0.021780729293823232
2023-01-29 15:10:35.136756,0.02706675798628885
2023-01-29 15:10:35.141756,0.03279129788279529
2023-01-29 15:10:35.146756,0.039020464982737584
2023-01-29 15:10:35.151756,0.04574915021657932
2023-01-29 15:10:35.156756,0.05299556402456693
2023-01-29 15:10:35.161756,0.06094276905059809
2023-01-29 15:10:35.166756,0.06979704402879389
2023-01-29 15:10:35.171756,0.07959823310375208
2023-01-29 15:10:35.176756,0.09032426577953266
2023-01-29 15:10:35.181756,0.10205209255218502
2023-01-29 15:10:35.186756,0.11481120898952935
2023-01-29 15:10:35.191756,0.12835244834423049
2023-01-29 15:10:35.196756,0.1422163750872811
2023-01-29 15:10:35.201756,0.15592694282531722
2023-01-29 15:10:35.206756,0.16896406619621426
2023-01-29 15:10:35.211756,0.18068870902061454
2023-01-29 15:10:35.216756,0.19052822632840774
2023-01-29 15:10:35.221756,0.19819021224975578
2023-01-29 15:10:35.226756,0.2035425435384074
2023-01-29 15:10:35.231756,0.2063640058040617
2023-01-29 15:10:35.236756,0.20634437379207793
2023-01-29 15:10:35.241756,0.20319065451621998
2023-01-29 15:10:35.246756,0.19654782682271624
2023-01-29 15:10:35.251756,0.1859535872936247
2023-01-29 15:10:35.256756,0.17113647889932182
2023-01-29 15:10:35.261756,0.15236894786357869
2023-01-29 15:10:35.266756,0.13043520901101507
2023-01-29 15:10:35.271756,0.10637938976287838
2023-01-29 15:10:35.276756,0.08142082064618791
2023-01-29 15:10:35.281756,0.05690395832061756
2023-01-29 15:10:35.286756,0.03399550389626428
2023-01-29 15:10:35.291756,0.013390581123530788
2023-01-29 15:10:35.296756,-0.00457843542932536
2023-01-29 15:10:35.301756,-0.019665163010358745
2023-01-29 15:10:35.306756,-0.031722088086116255
2023-01-29 15:10:35.311756,-0.040868919342756195
2023-01-29 15:10:35.316756,-0.0474215536517075
2023-01-29 15:10:35.321756,-0.05171120166778562
2023-01-29 15:10:35.326756,-0.054140158434563136
2023-01-29 15:10:35.331756,-0.05529324337840079
2023-01-29 15:10:35.336756,-0.05574035944146979
2023-01-29 15:10:35.341756,-0.05575001239776612
2023-01-29 15:10:35.346756,-0.05535952473923739
2023-01-29 15:10:35.351756,-0.05464414879679665
2023-01-29 15:10:35.356756,-0.053727899180764226
2023-01-29 15:10:35.361756,-0.05262474343180646
2023-01-29 15:10:35.366756,-0.051305581187063444
2023-01-29 15:10:35.371756,-0.0498841218650341
2023-01-29 15:10:35.376756,-0.048536958577150624
2023-01-29 15:10:35.381756,-0.04728774353861801
2023-01-29 15:10:35.386756,-0.046073268014760076
2023-01-29 15:10:35.391756,-0.044979851692914914
2023-01-29 15:10:35.396756,-0.04419880721769939
2023-01-29 15:10:35.401756,-0.04375378414988508
2023-01-29 15:10:35.406756,-0.043456181106405714
2023-01-29 15:10:35.411756,-0.04312872886657713
2023-01-29 15:10:35.416756,-0.04271302959133621
2023-01-29 15:10:35.421756,-0.04216710850596424
2023-01-29 15:10:35.426756,-0.04142076882766026
2023-01-29 15:10:35.431756,-0.04046022891998291
2023-01-29 15:10:35.436756,-0.039366990997176894
2023-01-29 15:10:35.441756,-0.0382965803146362
2023-01-29 15:10:35.446756,-0.0374955041421907
2023-01-29 15:10:35.451756,-0.0372628383338451
2023-01-29 15:10:35.456756,-0.03776753617188884
2023-01-29 15:10:35.461756,-0.03892163559794416
2023-01-29 15:10:35.466756,-0.04046454052752172
2023-01-29 15:10:35.471756,-0.04204690456390381
2023-01-29 15:10:35.476756,-0.04316545870231021
2023-01-29 15:10:35.481756,-0.043224893510341596
2023-01-29 15:10:35.486756,-0.04189352789306521
2023-01-29 15:10:35.491756,-0.039354365319013464
2023-01-29 15:10:35.496756,-0.03609596965686559
2023-01-29 15:10:35.501756,-0.03255089372396457
2023-01-29 15:10:35.506756,-0.029013506950599392
2023-01-29 15:10:35.511756,-0.025699337944388313
2023-01-29 15:10:35.516756,-0.022664685900422827
2023-01-29 15:10:35.521756,-0.01978536508977406
2023-01-29 15:10:35.526756,-0.017025373911774618
2023-01-29 15:10:35.531756,-0.014664730057120256
2023-01-29 15:10:35.536756,-0.013129074216034292
2023-01-29 15:10:35.541756,-0.012717446312308301
2023-01-29 15:10:35.546756,-0.013647570236631334
2023-01-29 15:10:35.551756,-0.01620332524180407
2023-01-29 15:10:35.556756,-0.020595932077259127
2023-01-29 15:10:35.561756,-0.026733081787824572
2023-01-29 15:10:35.566756,-0.03425475513543271
2023-01-29 15:10:35.571756,-0.04264792054891566
2023-01-29 15:10:35.576756,-0.05114683172176417
2023-01-29 15:10:35.581756,-0.058706998825073124
2023-01-29 15:10:35.586756,-0.06439951668924637
2023-01-29 15:10:35.591756,-0.06786644458770748
2023-01-29 15:10:35.596756,-0.06931402814081246
2023-01-29 15:10:35.601756,-0.06923675537109364
2023-01-29 15:10:35.606756,-0.06833812067564767
2023-01-29 15:10:35.611756,-0.06750583648681645
2023-01-29 15:10:35.616756,-0.06747418549536655
2023-01-29 15:10:35.621756,-0.06841938197612756
2023-01-29 15:10:35.626756,-0.06994236503255592
2023-01-29 15:10:35.631756,-0.07123212516307828
2023-01-29 15:10:35.636756,-0.07092894964494031
2023-01-29 15:10:35.641756,-0.06685674190521242
2023-01-29 15:10:35.646756,-0.056167641555592854
2023-01-29 15:10:35.651756,-0.03596464917063708
2023-01-29 15:10:35.656756,-0.004194187777011658
2023-01-29 15:10:35.661756,0.039065878838300705
2023-01-29 15:10:35.666756,0.08999215930707172
2023-01-29 15:10:35.671756,0.1401323080062866
2023-01-29 15:10:35.676756,0.17755954594428638
2023-01-29 15:10:35.681756,0.19016067683696736
2023-01-29 15:10:35.686756,0.16983411679729518
2023-01-29 15:10:35.691756,0.11604368686676017
2023-01-29 15:10:35.696756,0.03729293293571188
2023-01-29 15:10:35.701756,-0.05062937736511226
2023-01-29 15:10:35.706756,-0.12952146924027075
2023-01-29 15:10:35.711756,-0.18467943370342244
2023-01-29 15:10:35.716756,-0.20904504743391253
2023-01-29 15:10:35.721756,-0.20412823557853682
2023-01-29 15:10:35.726756,-0.17803622996725307
2023-01-29 15:10:35.731756,-0.14176706969738
2023-01-29 15:10:35.736756,-0.10522534562362416
2023-01-29 15:10:35.741756,-0.07459779828786839
2023-01-29 15:10:35.746756,-0.05200904282632666
2023-01-29 15:10:35.751756,-0.036806069314479786
2023-01-29 15:10:35.756756,-0.027049551397037627
2023-01-29 15:10:35.761756,-0.020530622452497368
2023-01-29 15:10:35.766756,-0.015447966227768404
2023-01-29 15:10:35.771756,-0.0107461214065551
2023-01-29 15:10:35.776756,-0.0059556666018220975
2023-01-29 15:10:35.781756,-0.0008654594421385677
2023-01-29 15:10:35.786756,0.0044821334276873015
2023-01-29 15:10:35.791756,0.009664297103881751
2023-01-29 15:10:35.796756,0.01413627060336498
2023-01-29 15:10:35.801756,0.01771787926554666
2023-01-29 15:10:35.806756,0.0207131354839398
2023-01-29 15:10:35.811756,0.023655891418457056
2023-01-29 15:10:35.816756,0.027148643945974726
2023-01-29 15:10:35.821756,0.031805634498596115
2023-01-29 15:10:35.826756,0.03797394856621079
2023-01-29 15:10:35.831756,0.04543662071228015
2023-01-29 15:10:35.836756,0.05361500335383351
2023-01-29 15:10:35.841756,0.06212075799703586
2023-01-29 15:10:35.846756,0.07099797126175669
2023-01-29 15:10:35.851756,0.08053581416606896
2023-01-29 15:10:35.856756,0.09108863347941466
2023-01-29 15:10:35.861756,0.10298967361450187
2023-01-29 15:10:35.866756,0.11628417554241818
2023-01-29 15:10:35.871756,0.13044397532939903
2023-01-29 15:10:35.876756,0.14453060232960765
2023-01-29 15:10:35.881756,0.15768191218376146
2023-01-29 15:10:35.886756,0.16932489075543358
2023-01-29 15:10:35.891756,0.1790299117565155
2023-01-29 15:10:35.896756,0.18644494085043772
2023-01-29 15:10:35.901756,0.19136270880699147
2023-01-29 15:10:35.906756,0.19356591190375472
2023-01-29 15:10:35.911756,0.1925406903028487
2023-01-29 15:10:35.916756,0.18755566957304942
2023-01-29 15:10:35.921756,0.17809233069419855
2023-01-29 15:10:35.926756,0.1640920495334437
2023-01-29 15:10:35.931756,0.14590203762054435
2023-01-29 15:10:35.936756,0.12430136275577687
2023-01-29 15:10:35.941756,0.10060966014862056
2023-01-29 15:10:35.946756,0.07644852096883539
2023-01-29 15:10:35.951756,0.05320171639323225
2023-01-29 15:10:35.956756,0.031760672653792746
2023-01-29 15:10:35.961756,0.012693405151367035
2023-01-29 15:10:35.966756,-0.003660222987834042
2023-01-29 15:10:35.971756,-0.017333230003714468
2023-01-29 15:10:35.976756,-0.028676456823258954
2023-01-29 15:10:35.981756,-0.037984054535627296
2023-01-29 15:10:35.986756,-0.04532909855022848
2023-01-29 15:10:35.991756,-0.05084574222564684
2023-01-29 15:10:35.996756,-0.05493374499101891
2023-01-29 15:10:36.001756,-0.05800982564687725
2023-01-29 15:10:36.006756,-0.06024095639910667
2023-01-29 15:10:36.011756,-0.061736106872558476
2023-01-29 15:10:36.016756,-0.06287012958785435
2023-01-29 15:10:36.021756,-0.06414016336202623
2023-01-29 15:10:36.026756,-0.06566851217696286
2023-01-29 15:10:36.031756,-0.0670250281691551
2023-01-29 15:10:36.036756,-0.06762016130323983
2023-01-29 15:10:36.041756,-0.06719331443309778
2023-01-29 15:10:36.046756,-0.06589389038653373
2023-01-29 15:10:36.051756,-0.06404399871826173
2023-01-29 15:10:36.056756,-0.062010999331088876
2023-01-29 15:10:36.061756,-0.060293674468994085
2023-01-29 15:10:36.066756,-0.05948083499116147
2023-01-29 15:10:36.071756,-0.059884987771510946
2023-01-29 15:10:36.076756,-0.06121447459973742
2023-01-29 15:10:36.081756,-0.06274580955505367
2023-01-29 15:10:36.086756,-0.0638512447126718
2023-01-29 15:10:36.091756,-0.06430844962596893
2023-01-29 15:10:36.096756,-0.06420844890159212
2023-01-29 15:10:36.101756,-0.06380359828472132
2023-01-29 15:10:36.106756,-0.06346767963136761
2023-01-29 15:10:36.111756,-0.06353914737701412
2023-01-29 15:10:36.116756,-0.06402950381001427
2023-01-29 15:10:36.121756,-0.0645969361066818
2023-01-29 15:10:36.126756,-0.06490971928015235
2023-01-29 15:10:36.131756,-0.06493350118398658
2023-01-29 15:10:36.136756,-0.0648126649746289
2023-01-29 15:10:36.141756,-0.06464501470327373
2023-01-29 15:10:36.146756,-0.06448148039674223
2023-01-29 15:10:36.151756,-0.06438057124614713
2023-01-29 15:10:36.156756,-0.06431168961975722
2023-01-29 15:10:36.161756,-0.06411612033843986
2023-01-29 15:10:36.166756,-0.06368382625296624
2023-01-29 15:10:36.171756,-0.06305833905935282
2023-01-29 15:10:36.176756,-0.062269523461297126
2023-01-29 15:10:36.181756,-0.06120721623301494
2023-01-29 15:10:36.186756,-0.059789940729942294
2023-01-29 15:10:36.191756,-0.05813002586364737
2023-01-29 15:10:36.196756,-0.056396449231089975
2023-01-29 15:10:36.201756,-0.054620109498500775
2023-01-29 15:10:36.206756,-0.05273610724017715
2023-01-29 15:10:36.211756,-0.05067745968699448
2023-01-29 15:10:36.216756,-0.048311940064902206
2023-01-29 15:10:36.221756,-0.04546066373586645
2023-01-29 15:10:36.226756,-0.042175437793512474
2023-01-29 15:10:36.231756,-0.03892163559794411
2023-01-29 15:10:36.236756,-0.036362731571637295
2023-01-29 15:10:36.241756,-0.03505110740661617
2023-01-29 15:10:36.246756,-0.035386532404984246
2023-01-29 15:10:36.251756,-0.03764748573303218
2023-01-29 15:10:36.256756,-0.041823055913966505
2023-01-29 15:10:36.261756,-0.047480069100856705
2023-01-29 15:10:36.266756,-0.05394214249271595
2023-01-29 15:10:36.271756,-0.06053408235311496
2023-01-29 15:10:36.276756,-0.06659402164560375
2023-01-29 15:10:36.281756,-0.07147252559661854
2023-01-29 15:10:36.286756,-0.07478102961733092
2023-01-29 15:10:36.291756,-0.07661720365285869
2023-01-29 15:10:36.296756,-0.07742943828447216
2023-01-29 15:10:36.301756,-0.0777230709791183
2023-01-29 15:10:36.306756,-0.07793725384066706
2023-01-29 15:10:36.311756,-0.07837216556072224
2023-01-29 15:10:36.316756,-0.0789702543058616
2023-01-29 15:10:36.321756,-0.07916550338268276
2023-01-29 15:10:36.326756,-0.0779926851135044
2023-01-29 15:10:36.331756,-0.07416506856679907
2023-01-29 15:10:36.336756,-0.06587344160347675
2023-01-29 15:10:36.341756,-0.05067745968699445
2023-01-29 15:10:36.346756,-0.026008244047316633
2023-01-29 15:10:36.351756,0.009712378494441561
2023-01-29 15:10:36.356756,0.05565808786077557
2023-01-29 15:10:36.361756,0.10724484920501698
2023-01-29 15:10:36.366756,0.15556693124554608
2023-01-29 15:10:36.371756,0.18869420886039726
2023-01-29 15:10:36.376756,0.19513523674774877
2023-01-29 15:10:36.381756,0.1682116687297821
2023-01-29 15:10:36.386756,0.10931284472359827
2023-01-29 15:10:36.391756,0.028536122292280107
2023-01-29 15:10:36.396756,-0.05776320576377764
2023-01-29 15:10:36.401756,-0.13191044330596918
2023-01-29 15:10:36.406756,-0.18049235018563278
2023-01-29 15:10:36.411756,-0.19809405505657185
2023-01-29 15:10:36.416756,-0.1876943374776372
2023-01-29 15:10:36.421756,-0.15816271305084215
2023-01-29 15:10:36.426756,-0.12044627506073516
2023-01-29 15:10:36.431756,-0.08397360891103735
2023-01-29 15:10:36.436756,-0.05441805629719439
2023-01-29 15:10:36.441756,-0.03344039246439928
2023-01-29 15:10:36.446756,-0.01999993997908936
2023-01-29 15:10:36.451756,-0.01197218894958493
2023-01-29 15:10:36.456756,-0.007168076963831822
2023-01-29 15:10:36.461756,-0.003822445869445772
2023-01-29 15:10:36.466756,-0.0008419245495912359
2023-01-29 15:10:36.471756,0.002259810920804739
2023-01-29 15:10:36.476756,0.005684106357479152
2023-01-29 15:10:36.481756,0.009496013633906765
2023-01-29 15:10:36.486756,0.013489490065114134
2023-01-29 15:10:36.491756,0.01721302792429918
2023-01-29 15:10:36.496756,0.020321556245395812
2023-01-29 15:10:36.501756,0.022814473137259456
2023-01-29 15:10:36.506756,0.024934789589257354
2023-01-29 15:10:36.511756,0.027069648727774592
2023-01-29 15:10:36.516756,0.029787787148943087
2023-01-29 15:10:36.521756,0.03368079662322988
2023-01-29 15:10:36.526756,0.039008864648799796
2023-01-29 15:10:36.531756,0.04565298557281489
2023-01-29 15:10:36.536756,0.053447826071973126
2023-01-29 15:10:36.541756,0.06236116215586661
2023-01-29 15:10:36.546756,0.0723678324446455
2023-01-29 15:10:36.551756,0.08344471454620353
2023-01-29 15:10:36.556756,0.09571594517941431
2023-01-29 15:10:36.561756,0.10928829759359346
2023-01-29 15:10:36.566756,0.1238754283731649
2023-01-29 15:10:36.571756,0.13883411884307856
2023-01-29 15:10:36.576756,0.15353288763869635
2023-01-29 15:10:36.581756,0.16734620928764332
2023-01-29 15:10:36.586756,0.17934277747556196
2023-01-29 15:10:36.591756,0.18842975795268996
2023-01-29 15:10:36.596756,0.19385421269155764
2023-01-29 15:10:36.601756,0.1952091902494429
2023-01-29 15:10:36.606756,0.19206119326927554
2023-01-29 15:10:36.611756,0.18412649631500233
2023-01-29 15:10:36.616756,0.17179189370664483
2023-01-29 15:10:36.621756,0.15587887167930592
2023-01-29 15:10:36.626756,0.13692726959508497
2023-01-29 15:10:36.631756,0.11537055671215042
2023-01-29 15:10:36.636756,0.09232984301978382
2023-01-29 15:10:36.641756,0.06933292001485816
2023-01-29 15:10:36.646756,0.04718466773929374
2023-01-29 15:10:36.651756,0.02613206766545766
2023-01-29 15:10:36.656756,0.007282626239782246
2023-01-29 15:10:36.661756,-0.007500648498535118
2023-01-29 15:10:36.666756,-0.017785815646772757
2023-01-29 15:10:36.671756,-0.025458931922912494
2023-01-29 15:10:36.676756,-0.03246845772246099
2023-01-29 15:10:36.681756,-0.03863314911723134
2023-01-29 15:10:36.686756,-0.04273264839257887
2023-01-29 15:10:36.691756,-0.04485964775085439
2023-01-29 15:10:36.696756,-0.04630852550824907
2023-01-29 15:10:36.701756,-0.04767239093780508
2023-01-29 15:10:36.706756,-0.048518065010867605
2023-01-29 15:10:36.711756,-0.048802297562360666
2023-01-29 15:10:36.716756,-0.049270866168689434
2023-01-29 15:10:36.721756,-0.05031685158610339
2023-01-29 15:10:36.726756,-0.05152261072143904
2023-01-29 15:10:36.731756,-0.052528582513332235
2023-01-29 15:10:36.736756,-0.05343810021829054
2023-01-29 15:10:36.741756,-0.05416333675384511
2023-01-29 15:10:36.746756,-0.05422521005061863
2023-01-29 15:10:36.751756,-0.053490202873945146
2023-01-29 15:10:36.756756,-0.052430176210925196
2023-01-29 15:10:36.761756,-0.05142271518707265
2023-01-29 15:10:36.766756,-0.050395471048555254
2023-01-29 15:10:36.771756,-0.04933118820190427
2023-01-29 15:10:36.776756,-0.04850943620099253
2023-01-29 15:10:36.781756,-0.04803299903869617
2023-01-29 15:10:36.786756,-0.04765028961900391
2023-01-29 15:10:36.791756,-0.0472396612167358
2023-01-29 15:10:36.796756,-0.046980274762363175
2023-01-29 15:10:36.801756,-0.04687905311584468
2023-01-29 15:10:36.806756,-0.0465988847826376
2023-01-29 15:10:36.811756,-0.04591743275523188
2023-01-29 15:10:36.816756,-0.044935685419872744
2023-01-29 15:10:36.821756,-0.04372974485158924
2023-01-29 15:10:36.826756,-0.04225150585216362
2023-01-29 15:10:36.831756,-0.04070063680410384
2023-01-29 15:10:36.836756,-0.03955073067261199
2023-01-29 15:10:36.841756,-0.0390418395400047
2023-01-29 15:10:36.846756,-0.03899965169787644
2023-01-29 15:10:36.851756,-0.03923416137695309
2023-01-29 15:10:36.856756,-0.039727902871803514
2023-01-29 15:10:36.861756,-0.0403640680015087
2023-01-29 15:10:36.866756,-0.04089880866331057
2023-01-29 15:10:36.871756,-0.04132568836212151
2023-01-29 15:10:36.876756,-0.041880476779420424
2023-01-29 15:10:36.881756,-0.04255175590515126
2023-01-29 15:10:36.886756,-0.04291654144133982
2023-01-29 15:10:36.891756,-0.04255175590515133
2023-01-29 15:10:36.896756,-0.04130294380497419
2023-01-29 15:10:36.901756,-0.0391380004584789
2023-01-29 15:10:36.906756,-0.036142418588508654
2023-01-29 15:10:36.911756,-0.03274321556091296
2023-01-29 15:10:36.916756,-0.029535210543524815
2023-01-29 15:10:36.921756,-0.02670904062688348
2023-01-29 15:10:36.926756,-0.023898862533702984
2023-01-29 15:10:36.931756,-0.020650824531912713
2023-01-29 15:10:36.936756,-0.016785766346644523
2023-01-29 15:10:36.941756,-0.012356838211417078
2023-01-29 15:10:36.946756,-0.007686716981616181
2023-01-29 15:10:36.951756,-0.0035580000840126948
2023-01-29 15:10:36.956756,-0.0010000206582377064
2023-01-29 15:10:36.961756,-0.0006971756811252921
2023-01-29 15:10:36.966756,-0.002770267527175084
2023-01-29 15:10:36.971756,-0.007091959472745623
2023-01-29 15:10:36.976756,-0.013460541657528134
2023-01-29 15:10:36.981756,-0.021396081894636106
2023-01-29 15:10:36.986756,-0.030093533578786996
2023-01-29 15:10:36.991756,-0.03870527073740948
2023-01-29 15:10:36.996756,-0.04647688988088932
2023-01-29 15:10:37.001756,-0.05264878273010244
2023-01-29 15:10:37.006756,-0.0566126182781309
2023-01-29 15:10:37.011756,-0.05834639072418213
2023-01-29 15:10:37.016756,-0.05852758430842552
2023-01-29 15:10:37.021756,-0.05815406888723366
2023-01-29 15:10:37.026756,-0.058151276809884106
2023-01-29 15:10:37.031756,-0.059163771569728796
2023-01-29 15:10:37.036756,-0.06127464486713763
2023-01-29 15:10:37.041756,-0.0637314766645431
2023-01-29 15:10:37.046756,-0.06506987344722645
2023-01-29 15:10:37.051756,-0.06349106878042218
2023-01-29 15:10:37.056756,-0.0569482634907738
2023-01-29 15:10:37.061756,-0.04300852864980688
2023-01-29 15:10:37.066756,-0.019170060567596334
2023-01-29 15:10:37.071756,0.016083121299743576
2023-01-29 15:10:37.076756,0.06185954785193943
2023-01-29 15:10:37.081756,0.11354347318410865
2023-01-29 15:10:37.086756,0.16219190683169507
2023-01-29 15:10:37.091756,0.19566595554351798
2023-01-29 15:10:37.096756,0.20205994301562796
2023-01-29 15:10:37.101756,0.17434200644493103
2023-01-29 15:10:37.106756,0.11392348334222849
2023-01-29 15:10:37.111756,0.03134886547923081
2023-01-29 15:10:37.116756,-0.05635172709426907
2023-01-29 15:10:37.121756,-0.13087670505046836
2023-01-29 15:10:37.126756,-0.17852556322754637
2023-01-29 15:10:37.131756,-0.1941514015197752
2023-01-29 15:10:37.136756,-0.18148770082412205
2023-01-29 15:10:37.141756,-0.1502533853054045
2023-01-29 15:10:37.146756,-0.11190577929752343
2023-01-29 15:10:37.151756,-0.07587194442749018
2023-01-29 15:10:37.156756,-0.04743528632224518
2023-01-29 15:10:37.161756,-0.02774278447031966
2023-01-29 15:10:37.166756,-0.015368575977659267
2023-01-29 15:10:37.171756,-0.00807762145996089
2023-01-29 15:10:37.176756,-0.0038530423906357495
2023-01-29 15:10:37.181756,-0.0012741487007588005
2023-01-29 15:10:37.186756,0.0004319519010009761
2023-01-29 15:10:37.191756,0.001658797264099121
2023-01-29 15:10:37.196756,0.0028081783216828953
2023-01-29 15:10:37.201756,0.004327297210693362
2023-01-29 15:10:37.206756,0.006449549612321717
2023-01-29 15:10:37.211756,0.009159445762634225
2023-01-29 15:10:37.216756,0.012384856675583535
2023-01-29 15:10:37.221756,0.01601099967956541
2023-01-29 15:10:37.226756,0.0198574424417705
2023-01-29 15:10:37.231756,0.023896297439932834
2023-01-29 15:10:37.236756,0.028216699683690318
2023-01-29 15:10:37.241756,0.032550893723964594
2023-01-29 15:10:37.246756,0.03655910425303128
2023-01-29 15:10:37.251756,0.041205488145351396
2023-01-29 15:10:37.256756,0.04878091734872765
2023-01-29 15:10:37.261756,0.06010135263204572
2023-01-29 15:10:37.266756,0.0725181081072798
2023-01-29 15:10:37.271756,0.08284370601177206
2023-01-29 15:10:37.276756,0.0919024731368983
2023-01-29 15:10:37.281756,0.10347048938274375
2023-01-29 15:10:37.286756,0.11826853109345706
2023-01-29 15:10:37.291756,0.13205468654632557
2023-01-29 15:10:37.296756,0.14123079553612333
2023-01-29 15:10:37.301756,0.14760892093181607
2023-01-29 15:10:37.306756,0.15519831925615493
2023-01-29 15:10:37.311756,0.16436517238616932
2023-01-29 15:10:37.316756,0.1721235721684752
2023-01-29 15:10:37.321756,0.17679414153099055
2023-01-29 15:10:37.326756,0.178998205492394
2023-01-29 15:10:37.331756,0.17845293879508964
2023-01-29 15:10:37.336756,0.17306096917041816
2023-01-29 15:10:37.341756,0.16174475848674763
2023-01-29 15:10:37.346756,0.14573919094132842
2023-01-29 15:10:37.351756,0.12647728621959678
2023-01-29 15:10:37.356756,0.1043438920018245
2023-01-29 15:10:37.361756,0.08019924163818345
2023-01-29 15:10:37.366756,0.05613714196672559
2023-01-29 15:10:37.371756,0.03377696126699439
2023-01-29 15:10:37.376756,0.013286288400501755
2023-01-29 15:10:37.381756,-0.005216797348111801
2023-01-29 15:10:37.386756,-0.020792694587376415
2023-01-29 15:10:37.391756,-0.03295958042144772
2023-01-29 15:10:37.396756,-0.042476154133524
2023-01-29 15:10:37.401756,-0.05007644742727272
2023-01-29 15:10:37.406756,-0.055611026492692
2023-01-29 15:10:37.411756,-0.05909164994955056
2023-01-29 15:10:37.416756,-0.061360283846367394
2023-01-29 15:10:37.421756,-0.0629862174391746
2023-01-29 15:10:37.426756,-0.06359853056466387
2023-01-29 15:10:37.431756,-0.06301026046276094
2023-01-29 15:10:37.436756,-0.0619664668678157
2023-01-29 15:10:37.441756,-0.061111055314540766
2023-01-29 15:10:37.446756,-0.06020885089492328
2023-01-29 15:10:37.451756,-0.05901952832937242
2023-01-29 15:10:37.456756,-0.05793509588952586
2023-01-29 15:10:37.461756,-0.057096283882856314
2023-01-29 15:10:37.466756,-0.05585461602745545
2023-01-29 15:10:37.471756,-0.053802728652954115
2023-01-29 15:10:37.476756,-0.051463554901561376
2023-01-29 15:10:37.481756,-0.04935523122549047
2023-01-29 15:10:37.486756,-0.047283809856589025
2023-01-29 15:10:37.491756,-0.04517217725515363
2023-01-29 15:10:37.496756,-0.043656633625189
2023-01-29 15:10:37.501756,-0.04317681118845931
2023-01-29 15:10:37.506756,-0.04329844679235603
2023-01-29 15:10:37.511756,-0.04353741928935049
2023-01-29 15:10:37.516756,-0.043993246216375535
2023-01-29 15:10:37.521756,-0.04457116127014159
2023-01-29 15:10:37.526756,-0.04449679698747053
2023-01-29 15:10:37.531756,-0.0433210544288158
2023-01-29 15:10:37.536756,-0.04163488898106433
2023-01-29 15:10:37.541756,-0.04017174243927002
2023-01-29 15:10:37.546756,-0.03898853868134587
2023-01-29 15:10:37.551756,-0.03808021545410149
2023-01-29 15:10:37.556756,-0.03787555294940067
2023-01-29 15:10:37.561756,-0.03841678425669672
2023-01-29 15:10:37.566756,-0.03887962291701003
2023-01-29 15:10:37.571756,-0.03863314911723131
2023-01-29 15:10:37.576756,-0.03805671518767382
2023-01-29 15:10:37.581756,-0.037719607353210435
2023-01-29 15:10:37.586756,-0.0375778898733316
2023-01-29 15:10:37.591756,-0.0375994071364402
2023-01-29 15:10:37.596756,-0.038280729388763216
2023-01-29 15:10:37.601756,-0.039787095040082876
2023-01-29 15:10:37.606756,-0.041371487101893915
2023-01-29 15:10:37.611756,-0.04238347336649888
2023-01-29 15:10:37.616756,-0.04311895393817928
2023-01-29 15:10:37.621756,-0.04401823133230192
2023-01-29 15:10:37.626756,-0.04483041564965947
2023-01-29 15:10:37.631756,-0.045244298875331705
2023-01-29 15:10:37.636756,-0.04548442428254009
2023-01-29 15:10:37.641756,-0.04553278535604467
2023-01-29 15:10:37.646756,-0.044611353190517594
2023-01-29 15:10:37.651756,-0.042263269424438345
2023-01-29 15:10:37.656756,-0.039201431569042114
2023-01-29 15:10:37.661756,-0.036325257271528175
2023-01-29 15:10:37.666756,-0.033634560824031524
2023-01-29 15:10:37.671756,-0.03077189251780493
2023-01-29 15:10:37.676756,-0.027721466898254978
2023-01-29 15:10:37.681756,-0.024184783920645693
2023-01-29 15:10:37.686756,-0.01924026500561621
2023-01-29 15:10:37.691756,-0.012645324692129947
2023-01-29 15:10:37.696756,-0.00576982450327038
2023-01-29 15:10:37.701756,-0.0003846486506517692
2023-01-29 15:10:37.706756,0.002762571185205824
2023-01-29 15:10:37.711756,0.0035099189262836933
2023-01-29 15:10:37.716756,0.00151010877965255
2023-01-29 15:10:37.721756,-0.0030771892052142958
2023-01-29 15:10:37.726756,-0.009036091573901076
2023-01-29 15:10:37.731756,-0.015313824638724313
2023-01-29 15:10:37.736756,-0.02202778776838656
2023-01-29 15:10:37.741756,-0.02935349941253664
2023-01-29 15:10:37.746756,-0.03635710271622709
2023-01-29 15:10:37.751756,-0.04197478294372546
2023-01-29 15:10:37.756756,-0.046221622426851704
2023-01-29 15:10:37.761756,-0.04937927052378647
2023-01-29 15:10:37.766756,-0.05103309453933691
2023-01-29 15:10:37.771756,-0.05113422870635979
2023-01-29 15:10:37.776756,-0.05097845387082964
2023-01-29 15:10:37.781756,-0.051759283989667795
2023-01-29 15:10:37.786756,-0.053031791138230304
2023-01-29 15:10:37.791756,-0.053802728652954046
2023-01-29 15:10:37.796756,-0.0539041355701457
2023-01-29 15:10:37.801756,-0.05267282575368887
2023-01-29 15:10:37.806756,-0.04734086502034304
2023-01-29 15:10:37.811756,-0.03447413444519039
2023-01-29 15:10:37.816756,-0.01217089765256117
2023-01-29 15:10:37.821756,0.020362338051199847
2023-01-29 15:10:37.826756,0.06327307392830463
2023-01-29 15:10:37.831756,0.11303862184286106
2023-01-29 15:10:37.836756,0.15971127004537383
2023-01-29 15:10:37.841756,0.1900404691696165
2023-01-29 15:10:37.846756,0.19362412360092698
2023-01-29 15:10:37.851756,0.16535083949565876
2023-01-29 15:10:37.856756,0.10529437649480047
2023-01-29 15:10:37.861756,0.021468203514814276
2023-01-29 15:10:37.866756,-0.06794928938274554
2023-01-29 15:10:37.871756,-0.14140646159648884
2023-01-29 15:10:37.876756,-0.18650360733908752
2023-01-29 15:10:37.881756,-0.2041282355785369
2023-01-29 15:10:37.886756,-0.20032005090539506
2023-01-29 15:10:37.891756,-0.17878949642181385
2023-01-29 15:10:37.896756,-0.14354140496403536
2023-01-29 15:10:37.901756,-0.10363876819610585
2023-01-29 15:10:37.906756,-0.0695711086212038
2023-01-29 15:10:37.911756,-0.045677028596401194
2023-01-29 15:10:37.916756,-0.029588725662559212
2023-01-29 15:10:37.921756,-0.01817464828491207
2023-01-29 15:10:37.926756,-0.010584180407814886
2023-01-29 15:10:37.931756,-0.00603417586535209
2023-01-29 15:10:37.936756,-0.0025147910694318936
2023-01-29 15:10:37.941756,0.001177986501716063
2023-01-29 15:10:37.946756,0.004460386798723923
2023-01-29 15:10:37.951756,0.006899635307490793
2023-01-29 15:10:37.956756,0.009361141618328994
2023-01-29 15:10:37.961756,0.012549161911010694
2023-01-29 15:10:37.966756,0.016014895775208163
2023-01-29 15:10:37.971756,0.019376676529645857
2023-01-29 15:10:37.976756,0.02323587067194042
2023-01-29 15:10:37.981756,0.02817551419138898
2023-01-29 15:10:37.986756,0.03391497892569556
2023-01-29 15:10:37.991756,0.04007558152079578
2023-01-29 15:10:37.996756,0.046841969414731385
2023-01-29 15:10:38.001756,0.054283540695905616
2023-01-29 15:10:38.006756,0.061870592016243495
2023-01-29 15:10:38.011756,0.06928484141826619
2023-01-29 15:10:38.016756,0.07706992489519318
2023-01-29 15:10:38.021756,0.08596897125244136
2023-01-29 15:10:38.026756,0.09615589648058384
2023-01-29 15:10:38.031756,0.10748525708913792
2023-01-29 15:10:38.036756,0.11986975959171128
2023-01-29 15:10:38.041756,0.13292014598846424
2023-01-29 15:10:38.046756,0.1456954072709076
2023-01-29 15:10:38.051756,0.15729725360870356
2023-01-29 15:10:38.056756,0.16741300585933253
2023-01-29 15:10:38.061756,0.17597675323486317
2023-01-29 15:10:38.066756,0.18266079779578012
2023-01-29 15:10:38.071756,0.18698732554912548
2023-01-29 15:10:38.076756,0.1885523778750387
2023-01-29 15:10:38.081756,0.18679499626159657
2023-01-29 15:10:38.086756,0.18087132226323324
2023-01-29 15:10:38.091756,0.17015895247459403
2023-01-29 15:10:38.096756,0.15478384483164426
2023-01-29 15:10:38.101756,0.1355165243148802
2023-01-29 15:10:38.106756,0.11342869245318817
2023-01-29 15:10:38.111756,0.08983950316905967
2023-01-29 15:10:38.116756,0.06624673162849591
2023-01-29 15:10:38.121756,0.04389802739024152
2023-01-29 15:10:38.126756,0.023448217998313897
2023-01-29 15:10:38.131756,0.005144675727933586
2023-01-29 15:10:38.136756,-0.010839169997903117
2023-01-29 15:10:38.141756,-0.024401148781180253
2023-01-29 15:10:38.146756,-0.03561070955108336
2023-01-29 15:10:38.151756,-0.044571161270141504
2023-01-29 15:10:38.156756,-0.05129277985528632
2023-01-29 15:10:38.161756,-0.05587021633982646
2023-01-29 15:10:38.166756,-0.05867434091592839
2023-01-29 15:10:38.171756,-0.06022155284881585
2023-01-29 15:10:38.176756,-0.06095157390337041
2023-01-29 15:10:38.181756,-0.06123125553131093
2023-01-29 15:10:38.186756,-0.061404596413230754
2023-01-29 15:10:38.191756,-0.06163994595408428
2023-01-29 15:10:38.196756,-0.061793539106106375
2023-01-29 15:10:38.201756,-0.06156782433390604
2023-01-29 15:10:38.206756,-0.06076933347303371
2023-01-29 15:10:38.211756,-0.05935609340667719
2023-01-29 15:10:38.216756,-0.057373681464428054
2023-01-29 15:10:38.221756,-0.05500475689768789
2023-01-29 15:10:38.226756,-0.052616440320729964
2023-01-29 15:10:38.231756,-0.050605338066816254
2023-01-29 15:10:38.236756,-0.04918551380627721
2023-01-29 15:10:38.241756,-0.048369567841291386
2023-01-29 15:10:38.246756,-0.048071711725213746
2023-01-29 15:10:38.251756,-0.04812916368246074
2023-01-29 15:10:38.256756,-0.04829400948995771
2023-01-29 15:10:38.261756,-0.04834552854299536
2023-01-29 15:10:38.266756,-0.04822531469532142
2023-01-29 15:10:38.271756,-0.048008959740400294
2023-01-29 15:10:38.276756,-0.04778123515833397
2023-01-29 15:10:38.281756,-0.04760026931762688
2023-01-29 15:10:38.286756,-0.04752515705530872
2023-01-29 15:10:38.291756,-0.04757623001933092
2023-01-29 15:10:38.296756,-0.04769081821273849
2023-01-29 15:10:38.301756,-0.047816634178161566
2023-01-29 15:10:38.306756,-0.048051873396449306
2023-01-29 15:10:38.311756,-0.04860997200012194
2023-01-29 15:10:38.316756,-0.04961367942647585
2023-01-29 15:10:38.321756,-0.050941906869411344
2023-01-29 15:10:38.326756,-0.05224785547838194
2023-01-29 15:10:38.331756,-0.05308151245117174
2023-01-29 15:10:38.336756,-0.053057523706695336
2023-01-29 15:10:38.341756,-0.052047770470380665
2023-01-29 15:10:38.346756,-0.050282256625071034
2023-01-29 15:10:38.351756,-0.048225324600934906
2023-01-29 15:10:38.356756,-0.04630308494369868
2023-01-29 15:10:38.361756,-0.04471540451049794
2023-01-29 15:10:38.366756,-0.043441593086331484
2023-01-29 15:10:38.371756,-0.04235943406820284
2023-01-29 15:10:38.376756,-0.041382717751693644
2023-01-29 15:10:38.381756,-0.040556393563747364
2023-01-29 15:10:38.386756,-0.04001195945204707
2023-01-29 15:10:38.391756,-0.03976305574178689
2023-01-29 15:10:38.396756,-0.03954821335751296
2023-01-29 15:10:38.401756,-0.03894567489624011
2023-01-29 15:10:38.406756,-0.03766622146539348
2023-01-29 15:10:38.411756,-0.035724245011806335
2023-01-29 15:10:38.416756,-0.033387922832058575
2023-01-29 15:10:38.421756,-0.031036337837576807
2023-01-29 15:10:38.426756,-0.028976380163728416
2023-01-29 15:10:38.431756,-0.027213891968130993
2023-01-29 15:10:38.436756,-0.02537105044394227
2023-01-29 15:10:38.441756,-0.022958716377615884
2023-01-29 15:10:38.446756,-0.01979986582942806
2023-01-29 15:10:38.451756,-0.016179284080862888
2023-01-29 15:10:38.456756,-0.012693689939893331
2023-01-29 15:10:38.461756,-0.010121067985892233
2023-01-29 15:10:38.466756,-0.009328382959448722
2023-01-29 15:10:38.471756,-0.010962486267089814
2023-01-29 15:10:38.476756,-0.015081240617796187
2023-01-29 15:10:38.481756,-0.02120375633239748
2023-01-29 15:10:38.486756,-0.028681030304485183
2023-01-29 15:10:38.491756,-0.03675798699259755
2023-01-29 15:10:38.496756,-0.04434276336879013
2023-01-29 15:10:38.501756,-0.05026876926422109
2023-01-29 15:10:38.506756,-0.054128101869910225
2023-01-29 15:10:38.511756,-0.056567393243312815
2023-01-29 15:10:38.516756,-0.05847898051508364
2023-01-29 15:10:38.521756,-0.06017347425222392
2023-01-29 15:10:38.526756,-0.06163149652181337
2023-01-29 15:10:38.531756,-0.06317853927612303
2023-01-29 15:10:38.536756,-0.06532688933269067
2023-01-29 15:10:38.541756,-0.0680347308516502
2023-01-29 15:10:38.546756,-0.07058544929990584
2023-01-29 15:10:38.551756,-0.07212162017822257
2023-01-29 15:10:38.556756,-0.07175423991934102
2023-01-29 15:10:38.561756,-0.06801068782806392
2023-01-29 15:10:38.566756,-0.058556425156326135
2023-01-29 15:10:38.571756,-0.04067659378051756
2023-01-29 15:10:38.576756,-0.01208620398015814
2023-01-29 15:10:38.581756,0.02805531024932859
2023-01-29 15:10:38.586756,0.07758451217425061
2023-01-29 15:10:38.591756,0.12981891632080061
2023-01-29 15:10:38.596756,0.17373219608426196
2023-01-29 15:10:38.601756,0.19665162265300742
2023-01-29 15:10:38.606756,0.18846789348621784
2023-01-29 15:10:38.611756,0.14561355113983143
2023-01-29 15:10:38.616756,0.07340873665154601
2023-01-29 15:10:38.621756,-0.014400283806025906
2023-01-29 15:10:38.626756,-0.09949339016387997
2023-01-29 15:10:38.631756,-0.16496619582176192
2023-01-29 15:10:38.636756,-0.2005566316401601
2023-01-29 15:10:38.641756,-0.20480136573314656
2023-01-29 15:10:38.646756,-0.18392269611955353
2023-01-29 15:10:38.651756,-0.1485705375671385
2023-01-29 15:10:38.656756,-0.10973979895267333
2023-01-29 15:10:38.661756,-0.07536709308624254
2023-01-29 15:10:38.666756,-0.04901991834621432
2023-01-29 15:10:38.671756,-0.03079593181610099
2023-01-29 15:10:38.676756,-0.019058916454376837
2023-01-29 15:10:38.681756,-0.011731783859431692
2023-01-29 15:10:38.686756,-0.007026237925061721
2023-01-29 15:10:38.691756,-0.003846486564725628
2023-01-29 15:10:38.696756,-0.0016991532104615695
2023-01-29 15:10:38.701756,-0.00016828379011710125
2023-01-29 15:10:38.706756,0.0013700161702383108
2023-01-29 15:10:38.711756,0.003461837768554621
2023-01-29 15:10:38.716756,0.006275250234542009
2023-01-29 15:10:38.721756,0.009736418724059982
2023-01-29 15:10:38.726756,0.013740894877837433
2023-01-29 15:10:38.731756,0.018102526664733793
2023-01-29 15:10:38.736756,0.022575561368841816
2023-01-29 15:10:38.741756,0.02716581150889388
2023-01-29 15:10:38.746756,0.032258779578569555
2023-01-29 15:10:38.751756,0.03827254101634021
2023-01-29 15:10:38.756756,0.045334911284103836
2023-01-29 15:10:38.761756,0.05339404195547095
2023-01-29 15:10:38.766756,0.06239682144724648
2023-01-29 15:10:38.771756,0.07219374179840077
2023-01-29 15:10:38.776756,0.08250142677120365
2023-01-29 15:10:38.781756,0.09315709769725791
2023-01-29 15:10:38.786756,0.10422777652105289
2023-01-29 15:10:38.791756,0.11570712178945532
2023-01-29 15:10:38.796756,0.12729478346555692
2023-01-29 15:10:38.801756,0.13861775398254383
2023-01-29 15:10:38.806756,0.1494477295759922
2023-01-29 15:10:38.811756,0.1595330238342284
2023-01-29 15:10:38.816756,0.16843278019674826
2023-01-29 15:10:38.821756,0.1756882667541502
2023-01-29 15:10:38.826756,0.18093606716542301
2023-01-29 15:10:38.831756,0.18366973102092732
2023-01-29 15:10:38.836756,0.18311932591328506
2023-01-29 15:10:38.841756,0.17859718203544606
2023-01-29 15:10:38.846756,0.16982475500421576
2023-01-29 15:10:38.851756,0.15681645274162284
2023-01-29 15:10:38.856756,0.13973255505946205
2023-01-29 15:10:38.861756,0.11909683793783173
2023-01-29 15:10:38.866756,0.0959674695817628
2023-01-29 15:10:38.871756,0.07166485488414756
2023-01-29 15:10:38.876756,0.04745795546211476
2023-01-29 15:10:38.881756,0.024593472480773943
2023-01-29 15:10:38.886756,0.004268323831041174
2023-01-29 15:10:38.891756,-0.012789567932486486
2023-01-29 15:10:38.896756,-0.026614575072420536
2023-01-29 15:10:38.901756,-0.0376955680549144
2023-01-29 15:10:38.906756,-0.046520349738050755
2023-01-29 15:10:38.911756,-0.05351424217224118
2023-01-29 15:10:38.916756,-0.05907771548857816
2023-01-29 15:10:38.921756,-0.06334682554006567
2023-01-29 15:10:38.926756,-0.06607903022848262
2023-01-29 15:10:38.931756,-0.06704907119274128
2023-01-29 15:10:38.936756,-0.06644901487383031
2023-01-29 15:10:38.941756,-0.06474117934703814
2023-01-29 15:10:38.946756,-0.062341689469659796
2023-01-29 15:10:38.951756,-0.05966862291097639
2023-01-29 15:10:38.956756,-0.05725379268790688
2023-01-29 15:10:38.961756,-0.05548556894063935
2023-01-29 15:10:38.966756,-0.05435496434087404
2023-01-29 15:10:38.971756,-0.05365848541259756
2023-01-29 15:10:38.976756,-0.05326424190006245
2023-01-29 15:10:38.981756,-0.05296131223440163
2023-01-29 15:10:38.986756,-0.052291876392592036
2023-01-29 15:10:38.991756,-0.050869785249233204
2023-01-29 15:10:38.996756,-0.048766624565700654
2023-01-29 15:10:39.001756,-0.04637420177459707
2023-01-29 15:10:39.006756,-0.04406046331472436
2023-01-29 15:10:39.011756,-0.04216710850596419
2023-01-29 15:10:39.016756,-0.04107648449797914
2023-01-29 15:10:39.021756,-0.040917001664638505
2023-01-29 15:10:39.026756,-0.04132725244145155
2023-01-29 15:10:39.031756,-0.04180650040507313
2023-01-29 15:10:39.036756,-0.04219529788393814
2023-01-29 15:10:39.041756,-0.04259983822703356
2023-01-29 15:10:39.046756,-0.043052469841278404
2023-01-29 15:10:39.051756,-0.04353741928935047
2023-01-29 15:10:39.056756,-0.04415237879998623
2023-01-29 15:10:39.061756,-0.0449077300727367
2023-01-29 15:10:39.066756,-0.04552179085824629
2023-01-29 15:10:39.071756,-0.04574915021657944
2023-01-29 15:10:39.076756,-0.045775102512429396
2023-01-29 15:10:39.081756,-0.04596551507711408
2023-01-29 15:10:39.086756,-0.046379081775282924
2023-01-29 15:10:39.091756,-0.0468550138175487
2023-01-29 15:10:39.096756,-0.047380990713632824
2023-01-29 15:10:39.101756,-0.047936838120221995
2023-01-29 15:10:39.106756,-0.048111876603593326
2023-01-29 15:10:39.111756,-0.04738390445709219
2023-01-29 15:10:39.116756,-0.0457712872312291
2023-01-29 15:10:39.121756,-0.043753784149885025
2023-01-29 15:10:39.126756,-0.04152453478457388
2023-01-29 15:10:39.131756,-0.038801431655883685
2023-01-29 15:10:39.136756,-0.035516714927480646
2023-01-29 15:10:39.141756,-0.03226240724325185
2023-01-29 15:10:39.146756,-0.029786169575593616
2023-01-29 15:10:39.151756,-0.028271675109863163
2023-01-29 15:10:39.156756,-0.027273721436179954
2023-01-29 15:10:39.161756,-0.026132067665457667
2023-01-29 15:10:39.166756,-0.024294601881915213
2023-01-29 15:10:39.171756,-0.021492242813110265
2023-01-29 15:10:39.176756,-0.01791721603955325
2023-01-29 15:10:39.181756,-0.014256040565669507
2023-01-29 15:10:39.186756,-0.011427374954765318
2023-01-29 15:10:39.191756,-0.010217229835688997
2023-01-29 15:10:39.196756,-0.01105496595060741
2023-01-29 15:10:39.201756,-0.013943513855338006
2023-01-29 15:10:39.206756,-0.01849998359211339
2023-01-29 15:10:39.211756,-0.024112662300467415
2023-01-29 15:10:39.216756,-0.03012692070089529
2023-01-29 15:10:39.221756,-0.03594060987234107
2023-01-29 15:10:39.226756,-0.04105638293082304
2023-01-29 15:10:39.231756,-0.04517217725515354
2023-01-29 15:10:39.236756,-0.048214417966706474
2023-01-29 15:10:39.241756,-0.0502447299659252
2023-01-29 15:10:39.246756,-0.05140253672608906
2023-01-29 15:10:39.251756,-0.051975648850202456
2023-01-29 15:10:39.256756,-0.052383299279954325
2023-01-29 15:10:39.261756,-0.05293726921081536
2023-01-29 15:10:39.266756,-0.05362929961366435
2023-01-29 15:10:39.271756,-0.05413929745554922
2023-01-29 15:10:39.276756,-0.05383649647871478
2023-01-29 15:10:39.281756,-0.05156695842742911
2023-01-29 15:10:39.286756,-0.045464606566839705
2023-01-29 15:10:39.291756,-0.03307978436350819
2023-01-29 15:10:39.296756,-0.011812815466963703
2023-01-29 15:10:39.301756,0.02029021643102163
2023-01-29 15:10:39.306756,0.06311353727736425
2023-01-29 15:10:39.311756,0.11272609233856196
2023-01-29 15:10:39.316756,0.16058216128768993
2023-01-29 15:10:39.321756,0.19484858214855186
2023-01-29 15:10:39.326756,0.2037727422403272
2023-01-29 15:10:39.331756,0.179895371198654
2023-01-29 15:10:39.336756,0.12356257285325759
2023-01-29 15:10:39.341756,0.04413843154907219
2023-01-29 15:10:39.346756,-0.042225651500830484
2023-01-29 15:10:39.351756,-0.1177746057510374
2023-01-29 15:10:39.356756,-0.16888499730402964
2023-01-29 15:10:39.361756,-0.1897039115428924
2023-01-29 15:10:39.366756,-0.18260683036609937
2023-01-29 15:10:39.371756,-0.15597502887248987
2023-01-29 15:10:39.376756,-0.12046307016079284
2023-01-29 15:10:39.381756,-0.0852717980742453
2023-01-29 15:10:39.386756,-0.05599001367882415
2023-01-29 15:10:39.391756,-0.034570299088954856
2023-01-29 15:10:39.396756,-0.020525270465275223
2023-01-29 15:10:39.401756,-0.012116432189941368
2023-01-29 15:10:39.406756,-0.00720904794335009
2023-01-29 15:10:39.411756,-0.003966689109802198
2023-01-29 15:10:39.416756,-0.0012166033965442863
2023-01-29 15:10:39.421756,0.00168283784296365
2023-01-29 15:10:39.426756,0.005072348981287875
2023-01-29 15:10:39.431756,0.008943080902099644
2023-01-29 15:10:39.436756,0.012918485390225536
2023-01-29 15:10:39.441756,0.016612013801932324
2023-01-29 15:10:39.446756,0.019987790257545365
2023-01-29 15:10:39.451756,0.023271244019269867
2023-01-29 15:10:39.456756,0.026698914616944222
2023-01-29 15:10:39.461756,0.030555527657270397
2023-01-29 15:10:39.466756,0.03526775379613126
2023-01-29 15:10:39.471756,0.04118144512176507
2023-01-29 15:10:39.476756,0.0483169847997951
2023-01-29 15:10:39.481756,0.056519310921430456
2023-01-29 15:10:39.486756,0.0657174304517949
2023-01-29 15:10:39.491756,0.07584790885448453
2023-01-29 15:10:39.496756,0.08668154815337298
2023-01-29 15:10:39.501756,0.09796520322561261
2023-01-29 15:10:39.506756,0.10962823333258995
2023-01-29 15:10:39.511756,0.12164513766765589
2023-01-29 15:10:39.516756,0.13381524571963127
2023-01-29 15:10:39.521756,0.14587800204753865
2023-01-29 15:10:39.526756,0.15770302873670736
2023-01-29 15:10:39.531756,0.16912519931793196
2023-01-29 15:10:39.536756,0.1796781768411197
2023-01-29 15:10:39.541756,0.1886701583862303
2023-01-29 15:10:39.546756,0.19538695545665147
2023-01-29 15:10:39.551756,0.19903163611888877
2023-01-29 15:10:39.556756,0.19866241470907547
2023-01-29 15:10:39.561756,0.19352635741233817
2023-01-29 15:10:39.566756,0.18346333675509943
2023-01-29 15:10:39.571756,0.16886076331138603
2023-01-29 15:10:39.576756,0.1503717041641867
2023-01-29 15:10:39.581756,0.12888133525848378
2023-01-29 15:10:39.586756,0.10556380479353826
2023-01-29 15:10:39.591756,0.08164167404174802
2023-01-29 15:10:39.596756,0.058091202645124365
2023-01-29 15:10:39.601756,0.03572424501180637
2023-01-29 15:10:39.606756,0.015393253514511287
2023-01-29 15:10:39.611756,-0.0021636486053465847
2023-01-29 15:10:39.616756,-0.016633506575699213
2023-01-29 15:10:39.621756,-0.028103392571210795
2023-01-29 15:10:39.626756,-0.03682794096086254
2023-01-29 15:10:39.631756,-0.04320085048675524
2023-01-29 15:10:39.636756,-0.04779126385173455
2023-01-29 15:10:39.641756,-0.05111018940806377
2023-01-29 15:10:39.646756,-0.053358493121973556
2023-01-29 15:10:39.651756,-0.0545720271766185
2023-01-29 15:10:39.656756,-0.05492190034340034
2023-01-29 15:10:39.661756,-0.054692231118679
2023-01-29 15:10:39.666756,-0.05408017145780032
2023-01-29 15:10:39.671756,-0.0532257556915283
2023-01-29 15:10:39.676756,-0.05233251832980106
2023-01-29 15:10:39.681756,-0.05154291912913318
2023-01-29 15:10:39.686756,-0.05078257381151125
2023-01-29 15:10:39.691756,-0.049932204186916296
2023-01-29 15:10:39.696756,-0.04907822303304517
2023-01-29 15:10:39.701756,-0.048417650163173634
2023-01-29 15:10:39.706756,-0.048004659654671065
2023-01-29 15:10:39.711756,-0.04774451255798332
2023-01-29 15:10:39.716756,-0.04750686195922664
2023-01-29 15:10:39.721756,-0.047071378678083406
2023-01-29 15:10:39.726756,-0.04612207081072587
2023-01-29 15:10:39.731756,-0.04454712197184563
2023-01-29 15:10:39.736756,-0.04268575764487076
2023-01-29 15:10:39.741756,-0.04110932350158689
2023-01-29 15:10:39.746756,-0.04022517526747218
2023-01-29 15:10:39.751756,-0.04017174243927
2023-01-29 15:10:39.756756,-0.04087640404858808
2023-01-29 15:10:39.761756,-0.04199882596731176
2023-01-29 15:10:39.766756,-0.0429924638625219
2023-01-29 15:10:39.771756,-0.04348933696746821
2023-01-29 15:10:39.776756,-0.043562613847451616
2023-01-29 15:10:39.781756,-0.04346529766917221
2023-01-29 15:10:39.786756,-0.04325222347732623
2023-01-29 15:10:39.791756,-0.04281620308756821
2023-01-29 15:10:39.796756,-0.04211716679539316
2023-01-29 15:10:39.801756,-0.041181445121765116
2023-01-29 15:10:39.806756,-0.04004336651136095
2023-01-29 15:10:39.811756,-0.03887355327606194
2023-01-29 15:10:39.816756,-0.03795429334096631
2023-01-29 15:10:39.821756,-0.03726283833384511
2023-01-29 15:10:39.826756,-0.03620863748720821
2023-01-29 15:10:39.831756,-0.034017365425825105
2023-01-29 15:10:39.836756,-0.030315553024637527
2023-01-29 15:10:39.841756,-0.025290649384260067
2023-01-29 15:10:39.846756,-0.019586793699917865
2023-01-29 15:10:39.851756,-0.014280080795287956
2023-01-29 15:10:39.856756,-0.010656955197699559
2023-01-29 15:10:39.861756,-0.009592175483703587
2023-01-29 15:10:39.866756,-0.011134394480083078
2023-01-29 15:10:39.871756,-0.0148089732974767
2023-01-29 15:10:39.876756,-0.020109631825384885
2023-01-29 15:10:39.881756,-0.026516716927289935
2023-01-29 15:10:39.886756,-0.033349856156411194
2023-01-29 15:10:39.891756,-0.03997942060232154
2023-01-29 15:10:39.896756,-0.04606537258354136
2023-01-29 15:10:39.901756,-0.05135059356689446
2023-01-29 15:10:39.906756,-0.05542324923111698
2023-01-29 15:10:39.911756,-0.05798578262329092
2023-01-29 15:10:39.916756,-0.059211042138438565
2023-01-29 15:10:39.921756,-0.059572458267211886
2023-01-29 15:10:39.926756,-0.059484011899229375
2023-01-29 15:10:39.931756,-0.059332054108381146
2023-01-29 15:10:39.936756,-0.059590032296929676
2023-01-29 15:10:39.941756,-0.06048600003123276
2023-01-29 15:10:39.946756,-0.06157742963555453
2023-01-29 15:10:39.951756,-0.061784189194440765
2023-01-29 15:10:39.956756,-0.059530939429919896
2023-01-29 15:10:39.961756,-0.052504539489746
2023-01-29 15:10:39.966756,-0.0375757260257705
2023-01-29 15:10:39.971756,-0.011731783859431692
2023-01-29 15:10:39.976756,0.02621029285808955
2023-01-29 15:10:39.981756,0.07402082532644273
2023-01-29 15:10:39.986756,0.12512157006418906
2023-01-29 15:10:39.991756,0.16876459121704096
2023-01-29 15:10:39.996756,0.1922371256625451
2023-01-29 15:10:40.001756,0.18518428504467005
2023-01-29 15:10:40.006756,0.14413435711395378
2023-01-29 15:10:40.011756,0.07466991990804668
2023-01-29 15:10:40.016756,-0.009743264028908006
2023-01-29 15:10:40.021756,-0.09159445762634269
2023-01-29 15:10:40.026756,-0.15461775665617922
2023-01-29 15:10:40.031756,-0.18881440162658686
2023-01-29 15:10:40.036756,-0.19294427805569755
2023-01-29 15:10:40.041756,-0.173308253288269
2023-01-29 15:10:40.046756,-0.14008612627085573
2023-01-29 15:10:40.051756,-0.10356664657592773
2023-01-29 15:10:40.056756,-0.07149334578949444
2023-01-29 15:10:40.061756,-0.04769643396139141
2023-01-29 15:10:40.066756,-0.03225362601558939
2023-01-29 15:10:40.071756,-0.02307891845703119
2023-01-29 15:10:40.076756,-0.017724165975284638
2023-01-29 15:10:40.081756,-0.014207959175109825
2023-01-29 15:10:40.086756,-0.011117677901873605
2023-01-29 15:10:40.091756,-0.007765094749629469
2023-01-29 15:10:40.096756,-0.0042167444544195685
2023-01-29 15:10:40.101756,-0.0007452567806466892
2023-01-29 15:10:40.106756,0.0027325654912270965
2023-01-29 15:10:40.111756,0.0064909458160400295
2023-01-29 15:10:40.116756,0.01056936545964748
2023-01-29 15:10:40.121756,0.014881094917654871
2023-01-29 15:10:40.126756,0.01950983532435595
2023-01-29 15:10:40.131756,0.02452135086059568
2023-01-29 15:10:40.136756,0.029719613765984903
2023-01-29 15:10:40.141756,0.03500302881002421
2023-01-29 15:10:40.146756,0.040758669282210336
2023-01-29 15:10:40.151756,0.047504108399152686
2023-01-29 15:10:40.156756,0.055338672613564295
2023-01-29 15:10:40.161756,0.06411612033843991
2023-01-29 15:10:40.166756,0.07388625552839764
2023-01-29 15:10:40.171756,0.08471886813640586
2023-01-29 15:10:40.176756,0.09633767844372543
2023-01-29 15:10:40.181756,0.1083987951278686
2023-01-29 15:10:40.186756,0.1209008306618165
2023-01-29 15:10:40.191756,0.1338336914777754
2023-01-29 15:10:40.196756,0.14663226593332085
2023-01-29 15:10:40.201756,0.15845119953155506
2023-01-29 15:10:40.206756,0.16875043204664386
2023-01-29 15:10:40.211756,0.17713069915771473
2023-01-29 15:10:40.216756,0.1828731767174977
2023-01-29 15:10:40.221756,0.18520832061767573
2023-01-29 15:10:40.226756,0.18380643276273553
2023-01-29 15:10:40.231756,0.17845293879508964
2023-01-29 15:10:40.236756,0.1685462872066429
2023-01-29 15:10:40.241756,0.15361905097961417
2023-01-29 15:10:40.246756,0.13419629950370487
2023-01-29 15:10:40.251756,0.11154811084270472
2023-01-29 15:10:40.256756,0.08687959908222728
2023-01-29 15:10:40.261756,0.061447620391845675
2023-01-29 15:10:40.266756,0.03705458414699858
2023-01-29 15:10:40.271756,0.015337864868342805
2023-01-29 15:10:40.276756,-0.0034100227746341714
2023-01-29 15:10:40.281756,-0.019785365089774073
2023-01-29 15:10:40.286756,-0.03370374125665436
2023-01-29 15:10:40.291756,-0.04437883943319315
2023-01-29 15:10:40.296756,-0.0519882540528477
2023-01-29 15:10:40.301756,-0.058130025863647405
2023-01-29 15:10:40.306756,-0.06404771165752532
2023-01-29 15:10:40.311756,-0.06930887699127189
2023-01-29 15:10:40.316756,-0.07287749946680372
2023-01-29 15:10:40.321756,-0.07474204152822486
2023-01-29 15:10:40.326756,-0.0757643005395001
2023-01-29 15:10:40.331756,-0.07649700343608853
2023-01-29 15:10:40.336756,-0.07694114460477595
2023-01-29 15:10:40.341756,-0.07714609801769254
2023-01-29 15:10:40.346756,-0.07730933748596439
2023-01-29 15:10:40.351756,-0.0773624628782272
2023-01-29 15:10:40.356756,-0.0769936186101669
2023-01-29 15:10:40.361756,-0.07608830928802487
2023-01-29 15:10:40.366756,-0.07483138192388837
2023-01-29 15:10:40.371756,-0.07344385236501685
2023-01-29 15:10:40.376756,-0.07208184175480695
2023-01-29 15:10:40.381756,-0.07089555263519275
2023-01-29 15:10:40.386756,-0.06993118961107167
2023-01-29 15:10:40.391756,-0.06902039051055894
2023-01-29 15:10:40.396756,-0.0679334761806591
2023-01-29 15:10:40.401756,-0.06659229844808569
2023-01-29 15:10:40.406756,-0.0650588662626002
2023-01-29 15:10:40.411756,-0.06344299018383023
2023-01-29 15:10:40.416756,-0.06190145187756503
2023-01-29 15:10:40.421756,-0.06058216094970694
2023-01-29 15:10:40.426756,-0.0594773680590251
2023-01-29 15:10:40.431756,-0.05844255536794657
2023-01-29 15:10:40.436756,-0.057398809419694816
2023-01-29 15:10:40.441756,-0.056399106979370096
2023-01-29 15:10:40.446756,-0.05550984507727737
2023-01-29 15:10:40.451756,-0.05478839203715319
2023-01-29 15:10:40.456756,-0.05434728383463364
2023-01-29 15:10:40.461756,-0.05423545837402345
2023-01-29 15:10:40.466756,-0.054253937574950305
2023-01-29 15:10:40.471756,-0.05406717583537099
2023-01-29 15:10:40.476756,-0.053479989159349435
2023-01-29 15:10:40.481756,-0.05245646089315407
2023-01-29 15:10:40.486756,-0.050970241627820066
2023-01-29 15:10:40.491756,-0.04906674474477758
2023-01-29 15:10:40.496756,-0.04698283910530577
2023-01-29 15:10:40.501756,-0.04493176937103267
2023-01-29 15:10:40.506756,-0.04280287866681934
2023-01-29 15:10:40.511756,-0.04029194638133036
2023-01-29 15:10:40.516756,-0.037257489760231126
2023-01-29 15:10:40.521756,-0.0337529182434081
2023-01-29 15:10:40.526756,-0.029877793929850804
2023-01-29 15:10:40.531756,-0.02591570280492298
2023-01-29 15:10:40.536756,-0.022521255329515644
2023-01-29 15:10:40.541756,-0.020458500832319225
2023-01-29 15:10:40.546756,-0.020205313046335823
2023-01-29 15:10:40.551756,-0.02202113531529902
2023-01-29 15:10:40.556756,-0.026181492273193104
2023-01-29 15:10:40.561756,-0.03274321556091302
2023-01-29 15:10:40.566756,-0.04114046023078706
2023-01-29 15:10:40.571756,-0.05031685158610339
2023-01-29 15:10:40.576756,-0.05917723596525826
2023-01-29 15:10:40.581756,-0.06671249866485596
2023-01-29 15:10:40.586756,-0.0720127919900709
2023-01-29 15:10:40.591756,-0.07469396293163284
2023-01-29 15:10:40.596756,-0.07528689186003697
2023-01-29 15:10:40.601756,-0.07486224174499506
2023-01-29 15:10:40.606756,-0.07431923139221333
2023-01-29 15:10:40.611756,-0.07421314716339106
2023-01-29 15:10:40.616756,-0.07489311376053137
2023-01-29 15:10:40.621756,-0.0762565955519676
2023-01-29 15:10:40.626756,-0.07746865017485216
2023-01-29 15:10:40.631756,-0.07731437683105459
2023-01-29 15:10:40.636756,-0.07464557741074954
2023-01-29 15:10:40.641756,-0.06805877387523647
2023-01-29 15:10:40.646756,-0.055364440794932246
2023-01-29 15:10:40.651756,-0.0339933261275291
2023-01-29 15:10:40.656756,-0.002182411068779487
2023-01-29 15:10:40.661756,0.03990729898214344
2023-01-29 15:10:40.666756,0.0890865131593219
2023-01-29 15:10:40.671756,0.13799270987510676
2023-01-29 15:10:40.676756,0.1753647671101174
2023-01-29 15:10:40.681756,0.18910288810729972
2023-01-29 15:10:40.686756,0.17090303931785572
2023-01-29 15:10:40.691756,0.11979401111602779
2023-01-29 15:10:40.696756,0.043282243043826954
2023-01-29 15:10:40.701756,-0.0438980273902416
2023-01-29 15:10:40.706756,-0.12367747594376516
2023-01-29 15:10:40.711756,-0.18059253692626945
2023-01-29 15:10:40.716756,-0.20681019903748946
2023-01-29 15:10:40.721756,-0.20328681170940388
2023-01-29 15:10:40.726756,-0.17745811635145586
2023-01-29 15:10:40.731756,-0.13991594314575187
2023-01-29 15:10:40.736756,-0.10115109166093994
2023-01-29 15:10:40.741756,-0.06846746057271944
2023-01-29 15:10:40.746756,-0.044467123911834334
2023-01-29 15:10:40.751756,-0.028319757431745456
2023-01-29 15:10:40.756756,-0.018137678503261107
2023-01-29 15:10:40.761756,-0.011948148719966382
2023-01-29 15:10:40.766756,-0.007668183349758905
2023-01-29 15:10:40.771756,-0.00384648656472568
2023-01-29 15:10:40.776756,-0.0004435474092744016
2023-01-29 15:10:40.781756,0.0020674865227191977
2023-01-29 15:10:40.786756,0.0040537415046668565
2023-01-29 15:10:40.791756,0.0062265000306068715
2023-01-29 15:10:40.796756,0.008429086962018932
2023-01-29 15:10:40.801756,0.010289351455867167
2023-01-29 15:10:40.806756,0.012574192748767511
2023-01-29 15:10:40.811756,0.016347568482160454
2023-01-29 15:10:40.816756,0.02124743114080178
2023-01-29 15:10:40.821756,0.026372473686933507
2023-01-29 15:10:40.826756,0.03241084769940172
2023-01-29 15:10:40.831756,0.04065255448222158
2023-01-29 15:10:40.836756,0.05007465980299668
2023-01-29 15:10:40.841756,0.058105986565351396
2023-01-29 15:10:40.846756,0.06476007665216083
2023-01-29 15:10:40.851756,0.07325153052806849
2023-01-29 15:10:40.856756,0.08543393394008186
2023-01-29 15:10:40.861756,0.09921531379222859
2023-01-29 15:10:40.866756,0.11197137875225735
2023-01-29 15:10:40.871756,0.12397706508636469
2023-01-29 15:10:40.876756,0.13636594257291637
2023-01-29 15:10:40.881756,0.14792144298553456
2023-01-29 15:10:40.886756,0.15664389291851577
2023-01-29 15:10:40.891756,0.1630910336971281
2023-01-29 15:10:40.896756,0.16932478045111535
2023-01-29 15:10:40.901756,0.1752555370330809
2023-01-29 15:10:40.906756,0.17863745845756226
2023-01-29 15:10:40.911756,0.17833273112773887
2023-01-29 15:10:40.916756,0.17509814537674984
2023-01-29 15:10:40.921756,0.16914924979209883
2023-01-29 15:10:40.926756,0.1593176275171124
2023-01-29 15:10:40.931756,0.14508466422557834
2023-01-29 15:10:40.936756,0.1275415482227353
2023-01-29 15:10:40.941756,0.10779778659343711
2023-01-29 15:10:40.946756,0.0860763612039207
2023-01-29 15:10:40.951756,0.06296217441558834
2023-01-29 15:10:40.956756,0.040093018645559524
2023-01-29 15:10:40.961756,0.018919905647635408
2023-01-29 15:10:40.966756,-0.00012409503366208696
2023-01-29 15:10:40.971756,-0.01675625704228873
2023-01-29 15:10:40.976756,-0.03028558993071285
2023-01-29 15:10:40.981756,-0.040484271943569114
2023-01-29 15:10:40.986756,-0.04804901937224123
2023-01-29 15:10:40.991756,-0.053634446114301564
2023-01-29 15:10:40.996756,-0.05720603202714839
2023-01-29 15:10:41.001756,-0.058755081146955414
2023-01-29 15:10:41.006756,-0.05883759888963422
2023-01-29 15:10:41.011756,-0.057961743324995055
2023-01-29 15:10:41.016756,-0.056175850609980614
2023-01-29 15:10:41.021756,-0.053682528436183874
2023-01-29 15:10:41.026756,-0.05117785808222855
2023-01-29 15:10:41.031756,-0.049162905663251835
2023-01-29 15:10:41.036756,-0.04750229253509898
2023-01-29 15:10:41.041756,-0.04598955437540996
2023-01-29 15:10:41.046756,-0.044748021838926795
2023-01-29 15:10:41.051756,-0.0437537841498851
2023-01-29 15:10:41.056756,-0.04256507784180279
2023-01-29 15:10:41.061756,-0.04089295864105219
2023-01-29 15:10:41.066756,-0.03895141345274684
2023-01-29 15:10:41.071756,-0.0369743518531322
2023-01-29 15:10:41.076756,-0.03490953844919864
2023-01-29 15:10:41.081756,-0.032863419502973536
2023-01-29 15:10:41.086756,-0.031324327314395634
2023-01-29 15:10:41.091756,-0.03062764927744861
2023-01-29 15:10:41.096756,-0.030622173484596733
2023-01-29 15:10:41.101756,-0.0310844182968139
2023-01-29 15:10:41.106756,-0.03200003989419933
2023-01-29 15:10:41.111756,-0.03322402760386463
2023-01-29 15:10:41.116756,-0.034361343383512134
2023-01-29 15:10:41.121756,-0.03526747226715076
2023-01-29 15:10:41.126756,-0.03626533791606353
2023-01-29 15:10:41.131756,-0.037647485733032206
2023-01-29 15:10:41.136756,-0.039354945283628144
2023-01-29 15:10:41.141756,-0.04130164906382564
2023-01-29 15:10:41.146756,-0.0435428731799465
2023-01-29 15:10:41.151756,-0.045893393456935765
2023-01-29 15:10:41.156756,-0.04780352919654451
2023-01-29 15:10:41.161756,-0.04885037988424299
2023-01-29 15:10:41.166756,-0.048999380674835995
2023-01-29 15:10:41.171756,-0.04824936389923089
2023-01-29 15:10:41.176756,-0.04648008842248299
2023-01-29 15:10:41.181756,-0.04387398809194558
2023-01-29 15:10:41.186756,-0.04107885023024182
2023-01-29 15:10:41.191756,-0.038705270737409536
2023-01-29 15:10:41.196756,-0.0369593558805773
2023-01-29 15:10:41.201756,-0.03584444522857664
2023-01-29 15:10:41.206756,-0.035240480978660255
2023-01-29 15:10:41.211756,-0.03457029908895491
2023-01-29 15:10:41.216756,-0.03285015161056556
2023-01-29 15:10:41.221756,-0.029425621032714795
2023-01-29 15:10:41.226756,-0.02447283458342315
2023-01-29 15:10:41.231756,-0.018727581948041902
2023-01-29 15:10:41.236756,-0.013125368316709808
2023-01-29 15:10:41.241756,-0.008798837661743093
2023-01-29 15:10:41.246756,-0.006865682961218856
2023-01-29 15:10:41.251756,-0.0078131761401891
2023-01-29 15:10:41.256756,-0.011297579810316809
2023-01-29 15:10:41.261756,-0.016684135422110575
2023-01-29 15:10:41.266756,-0.02347168387798697
2023-01-29 15:10:41.271756,-0.031108459457754926
2023-01-29 15:10:41.276756,-0.03886798671611097
2023-01-29 15:10:41.281756,-0.046181879937648655
2023-01-29 15:10:41.286756,-0.0527877427327645
2023-01-29 15:10:41.291756,-0.05839447304606432
2023-01-29 15:10:41.296756,-0.06259024956396546
2023-01-29 15:10:41.301756,-0.06529410928487764
2023-01-29 15:10:41.306756,-0.06694854571758621
2023-01-29 15:10:41.311756,-0.0680587738752364
2023-01-29 15:10:41.316756,-0.06884368477142179
2023-01-29 15:10:41.321756,-0.06942908465862266
2023-01-29 15:10:41.326756,-0.06989649260661188
2023-01-29 15:10:41.331756,-0.06983777135610572
2023-01-29 15:10:41.336756,-0.0681463079776994
2023-01-29 15:10:41.341756,-0.06337086856365197
2023-01-29 15:10:41.346756,-0.0538548520505157
2023-01-29 15:10:41.351756,-0.03740708157420146
2023-01-29 15:10:41.356756,-0.011565802361730894
2023-01-29 15:10:41.361756,0.024930041283368978
2023-01-29 15:10:41.366756,0.07042392270936934
2023-01-29 15:10:41.371756,0.1194574460387229
2023-01-29 15:10:41.376756,0.1628343819358588
2023-01-29 15:10:41.381756,0.18891057372093192
2023-01-29 15:10:41.386756,0.18689583868922366
2023-01-29 15:10:41.391756,0.15150348842144012
2023-01-29 15:10:41.396756,0.08619299064698513
2023-01-29 15:10:41.401756,0.0028367838822304964
2023-01-29 15:10:41.406756,-0.08171296146457734
2023-01-29 15:10:41.411756,-0.15046975016593925
2023-01-29 15:10:41.416756,-0.19134871134589335
2023-01-29 15:10:41.421756,-0.20083467662334434
2023-01-29 15:10:41.426756,-0.18413907592575773
2023-01-29 15:10:41.431756,-0.15157561004161824
2023-01-29 15:10:41.436756,-0.1139047971303338
2023-01-29 15:10:41.441756,-0.07940590381622314
2023-01-29 15:10:41.446756,-0.052748281184812826
2023-01-29 15:10:41.451756,-0.034738581627607304
2023-01-29 15:10:41.456756,-0.023281678435907147
2023-01-29 15:10:41.461756,-0.015650391578674292
2023-01-29 15:10:41.466756,-0.010196360969168504
2023-01-29 15:10:41.471756,-0.006058216094970732
2023-01-29 15:10:41.476756,-0.0023280647278280447
2023-01-29 15:10:41.481756,0.0014905135612933785
2023-01-29 15:10:41.486756,0.0048427520327822245
2023-01-29 15:10:41.491756,0.0071160001680253895
2023-01-29 15:10:41.496756,0.00892590203044061
2023-01-29 15:10:41.501756,0.01129905413836237
2023-01-29 15:10:41.506756,0.01399272957431027
2023-01-29 15:10:41.511756,0.016107162460684683
2023-01-29 15:10:41.516756,0.01825217889164053
2023-01-29 15:10:41.521756,0.022357702255248958
2023-01-29 15:10:41.526756,0.028880328305426053
2023-01-29 15:10:41.531756,0.03584444522857659
2023-01-29 15:10:41.536756,0.04156439204172943
2023-01-29 15:10:41.541756,0.04695117473602291
2023-01-29 15:10:41.546756,0.05393933721570175
2023-01-29 15:10:41.551756,0.06274580955505371
2023-01-29 15:10:41.556756,0.07217271541769893
2023-01-29 15:10:41.561756,0.08193016052246088
2023-01-29 15:10:41.566756,0.09300805409575817
2023-01-29 15:10:41.571756,0.10585050284862518
2023-01-29 15:10:41.576756,0.11955261152723193
2023-01-29 15:10:41.581756,0.13301631808280936
2023-01-29 15:10:41.586756,0.14572709054042962
2023-01-29 15:10:41.591756,0.15710493922233576
2023-01-29 15:10:41.596756,0.16615495706625263
2023-01-29 15:10:41.601756,0.17229855060577387
2023-01-29 15:10:41.606756,0.17585156336427946
2023-01-29 15:10:41.611756,0.17722687125205988
2023-01-29 15:10:41.616756,0.17619655892606112
2023-01-29 15:10:41.621756,0.17225047945976246
2023-01-29 15:10:41.626756,0.16508646887701792
2023-01-29 15:10:41.631756,0.15436431765556327
2023-01-29 15:10:41.636756,0.1395624608863731
2023-01-29 15:10:41.641756,0.1206594705581665
2023-01-29 15:10:41.646756,0.09870831615056742
2023-01-29 15:10:41.651756,0.0753911361098289
2023-01-29 15:10:41.656756,0.052265855571202155
2023-01-29 15:10:41.661756,0.030627649277448644
2023-01-29 15:10:41.666756,0.011544315018655719
2023-01-29 15:10:41.671756,-0.004567702766507797
2023-01-29 15:10:41.676756,-0.018219661489706027
2023-01-29 15:10:41.681756,-0.030267041176557517
2023-01-29 15:10:41.686756,-0.04110909486330009
2023-01-29 15:10:41.691756,-0.05062937736511226
2023-01-29 15:10:41.696756,-0.058593427326335226
2023-01-29 15:10:41.701756,-0.06474117934703814
2023-01-29 15:10:41.706756,-0.06875836210301482
2023-01-29 15:10:41.711756,-0.0706311091780662
2023-01-29 15:10:41.716756,-0.07096803477373274
2023-01-29 15:10:41.721756,-0.07065515220165253
2023-01-29 15:10:41.726756,-0.07026117466381021
2023-01-29 15:10:41.731756,-0.0699820145964622
2023-01-29 15:10:41.736756,-0.0699320290210711
2023-01-29 15:10:41.741756,-0.07012625783681858
2023-01-29 15:10:41.746756,-0.07031385582277361
2023-01-29 15:10:41.751756,-0.07019837945699692
2023-01-29 15:10:41.756756,-0.06977835606300378
2023-01-29 15:10:41.761756,-0.06921271979808798
2023-01-29 15:10:41.766756,-0.06847024450577098
2023-01-29 15:10:41.771756,-0.06740967929363252
2023-01-29 15:10:41.776756,-0.06610450093518078
2023-01-29 15:10:41.781756,-0.0647892579436302
2023-01-29 15:10:41.786756,-0.06356883037872582
2023-01-29 15:10:41.791756,-0.06245732307434078
2023-01-29 15:10:41.796756,-0.06159449766800529
2023-01-29 15:10:41.801756,-0.061111055314540794
2023-01-29 15:10:41.806756,-0.06085259635014683
2023-01-29 15:10:41.811756,-0.060534082353114964
2023-01-29 15:10:41.816756,-0.060111169392955716
2023-01-29 15:10:41.821756,-0.05974074453115462
2023-01-29 15:10:41.826756,-0.05947777515962046
2023-01-29 15:10:41.831756,-0.0593080148100852
2023-01-29 15:10:41.836756,-0.05938545415399528
2023-01-29 15:10:41.841756,-0.059909027069807004
2023-01-29 15:10:41.846756,-0.06080485232541659
2023-01-29 15:10:41.851756,-0.0618082284927368
2023-01-29 15:10:41.856756,-0.06278806888560072
2023-01-29 15:10:41.861756,-0.06370743364095675
2023-01-29 15:10:41.866756,-0.06436556081391812
2023-01-29 15:10:41.871756,-0.06452481448650361
2023-01-29 15:10:41.876756,-0.06425938342749087
2023-01-29 15:10:41.881756,-0.06387571990489949
2023-01-29 15:10:41.886756,-0.06352415232648866
2023-01-29 15:10:41.891756,-0.06315450370311729
2023-01-29 15:10:41.896756,-0.06275298883635452
2023-01-29 15:10:41.901756,-0.06228904053568846
2023-01-29 15:10:41.906756,-0.06149615172742951
2023-01-29 15:10:41.911756,-0.06005327031016342
2023-01-29 15:10:41.916756,-0.05796020230767534
2023-01-29 15:10:41.921756,-0.05543748661875716
2023-01-29 15:10:41.926756,-0.05251748651880043
2023-01-29 15:10:41.931756,-0.049042701721191385
2023-01-29 15:10:41.936756,-0.04498824844928845
2023-01-29 15:10:41.941756,-0.04046022891998293
2023-01-29 15:10:41.946756,-0.035477740164962836
2023-01-29 15:10:41.951756,-0.030146837234497008
2023-01-29 15:10:41.956756,-0.025019443394313657
2023-01-29 15:10:41.961756,-0.02093931101262563
2023-01-29 15:10:41.966756,-0.018572534973599397
2023-01-29 15:10:41.971756,-0.018366973847150782
2023-01-29 15:10:41.976756,-0.020771725651381464
2023-01-29 15:10:41.981756,-0.025987824425101176
2023-01-29 15:10:41.986756,-0.03348973956385134
2023-01-29 15:10:41.991756,-0.04216710850596418
2023-01-29 15:10:41.996756,-0.05092485531019244
2023-01-29 15:10:42.001756,-0.058875285089015836
2023-01-29 15:10:42.006756,-0.0651985948013626
2023-01-29 15:10:42.011756,-0.06940504163503645
2023-01-29 15:10:42.016756,-0.07175734447795432
2023-01-29 15:10:42.021756,-0.07301112264394766
2023-01-29 15:10:42.026756,-0.07375519964478196
2023-01-29 15:10:42.031756,-0.07433335483074179
2023-01-29 15:10:42.036756,-0.07516580031514251
2023-01-29 15:10:42.041756,-0.0765210390090942
2023-01-29 15:10:42.046756,-0.0779531226873841
2023-01-29 15:10:42.051756,-0.0783721655607223
2023-01-29 15:10:42.056756,-0.07646864432010163
2023-01-29 15:10:42.061756,-0.07046282291412351
2023-01-29 15:10:42.066756,-0.05758874008360309
2023-01-29 15:10:42.071756,-0.03466646000742908
2023-01-29 15:10:42.076756,0.0003289423099293458
2023-01-29 15:10:42.081756,0.0469271354377269
2023-01-29 15:10:42.086756,0.1011884460825759
2023-01-29 15:10:42.091756,0.1547249257564544
2023-01-29 15:10:42.096756,0.1950695729473366
2023-01-29 15:10:42.101756,0.20912866294384003
2023-01-29 15:10:42.106756,0.1884379322915277
2023-01-29 15:10:42.111756,0.1328239887952804
2023-01-29 15:10:42.116756,0.051037779623920566
2023-01-29 15:10:42.121756,-0.040868919342756216
2023-01-29 15:10:42.126756,-0.12350382152220526
2023-01-29 15:10:42.131756,-0.1806165874004364
2023-01-29 15:10:42.136756,-0.2049360706972234
2023-01-29 15:10:42.141756,-0.19893547892570487
2023-01-29 15:10:42.146756,-0.1710025260160865
2023-01-29 15:10:42.151756,-0.13179025053977964
2023-01-29 15:10:42.156756,-0.09241163238041647
2023-01-29 15:10:42.161756,-0.0616399459540843
2023-01-29 15:10:42.166756,-0.04203589583949269
2023-01-29 15:10:42.171756,-0.029858350753784065
2023-01-29 15:10:42.176756,-0.020315392527729525
2023-01-29 15:10:42.181756,-0.012092391960322772
2023-01-29 15:10:42.186756,-0.006018117631093723
2023-01-29 15:10:42.191756,-0.0014183919411151795
2023-01-29 15:10:42.196756,0.003767235336823442
2023-01-29 15:10:42.201756,0.010097026824951134
2023-01-29 15:10:42.206756,0.016222762466395646
2023-01-29 15:10:42.211756,0.021275877952575555
2023-01-29 15:10:42.216756,0.02576525001177967
2023-01-29 15:10:42.221756,0.030026635155081787
2023-01-29 15:10:42.226756,0.03353537270188785
2023-01-29 15:10:42.231756,0.03615697473287583
2023-01-29 15:10:42.236756,0.03869162863185858
2023-01-29 15:10:42.241756,0.041734378784894874
2023-01-29 15:10:42.246756,0.045129432248443395
2023-01-29 15:10:42.251756,0.04894654080271721
2023-01-29 15:10:42.256756,0.05397033958843791
2023-01-29 15:10:42.261756,0.0607985258102416
2023-01-29 15:10:42.266756,0.06931031844846815
2023-01-29 15:10:42.271756,0.07935782521963108
2023-01-29 15:10:42.276756,0.09113793274067153
2023-01-29 15:10:42.281756,0.10450422763824455
2023-01-29 15:10:42.286756,0.11864621135151719
2023-01-29 15:10:42.291756,0.1327999532222747
2023-01-29 15:10:42.296756,0.1466368190227748
2023-01-29 15:10:42.301756,0.15970131754875178
2023-01-29 15:10:42.306756,0.17116553238721074
2023-01-29 15:10:42.311756,0.1804723441600798
2023-01-29 15:10:42.316756,0.1876361708057412
2023-01-29 15:10:42.321756,0.19263684749603263
2023-01-29 15:10:42.326756,0.1950768768931397
2023-01-29 15:10:42.331756,0.19465625286102287
2023-01-29 15:10:42.336756,0.19138209293978192
2023-01-29 15:10:42.341756,0.18504004180431358
2023-01-29 15:10:42.346756,0.175024277690734
2023-01-29 15:10:42.351756,0.16099950671195976
2023-01-29 15:10:42.356756,0.1433002677810876
2023-01-29 15:10:42.361756,0.1225346326828001
2023-01-29 15:10:42.366756,0.09936757099336034
2023-01-29 15:10:42.371756,0.0749343633651733
2023-01-29 15:10:42.376756,0.05090817546143097
2023-01-29 15:10:42.381756,0.028800567612051912
2023-01-29 15:10:42.386756,0.009502028507488158
2023-01-29 15:10:42.391756,-0.00644286489114162
2023-01-29 15:10:42.396756,-0.018711496632409803
2023-01-29 15:10:42.401756,-0.02762258052825928
2023-01-29 15:10:42.406756,-0.03417780445168955
2023-01-29 15:10:42.411756,-0.03935436531901352
2023-01-29 15:10:42.416756,-0.0436370453661407
2023-01-29 15:10:42.421756,-0.047287743538617984
2023-01-29 15:10:42.426756,-0.050519315594551764
2023-01-29 15:10:42.431756,-0.05317767709493628
2023-01-29 15:10:42.436756,-0.05475580100420393
2023-01-29 15:10:42.441756,-0.055028796195983755
2023-01-29 15:10:42.446756,-0.05433771419329434
2023-01-29 15:10:42.451756,-0.05310555547475805
2023-01-29 15:10:42.456756,-0.05151050153057509
2023-01-29 15:10:42.461756,-0.04978796094655992
2023-01-29 15:10:42.466756,-0.04835146861194202
2023-01-29 15:10:42.471756,-0.0473598651587963
2023-01-29 15:10:42.476756,-0.046574380056078314
2023-01-29 15:10:42.481756,-0.04584531113505358
2023-01-29 15:10:42.486756,-0.045319055051427075
2023-01-29 15:10:42.491756,-0.04497985169291491
2023-01-29 15:10:42.496756,-0.04444710499655385
2023-01-29 15:10:42.501756,-0.04346529766917218
2023-01-29 15:10:42.506756,-0.04219585496432869
2023-01-29 15:10:42.511756,-0.04084488004446019
2023-01-29 15:10:42.516756,-0.03944651023856439
2023-01-29 15:10:42.521756,-0.03820041939616198
2023-01-29 15:10:42.526756,-0.03752621911327074
2023-01-29 15:10:42.531756,-0.037503242492675726
2023-01-29 15:10:42.536756,-0.037664238243136264
2023-01-29 15:10:42.541756,-0.037575364112854
2023-01-29 15:10:42.546756,-0.03721890237903706
2023-01-29 15:10:42.551756,-0.03663778305053717
2023-01-29 15:10:42.556756,-0.035715530520996915
2023-01-29 15:10:42.561756,-0.03457029908895486
2023-01-29 15:10:42.566756,-0.03367481170556978
2023-01-29 15:10:42.571756,-0.03327210992574691
2023-01-29 15:10:42.576756,-0.03308763008970925
2023-01-29 15:10:42.581756,-0.032863419502973515
2023-01-29 15:10:42.586756,-0.0327088667862892
2023-01-29 15:10:42.591756,-0.03267109394073478
2023-01-29 15:10:42.596756,-0.032484139054585824
