5.82
3.21
0.05
-3.41
-6.92
-10.41
-13.98
-17.86
-22.29
-27.28
-32.47
-37.08
-40.03
-40.3
-37.31
-31.17
-22.74
-13.31
-4.16
3.89
10.59
16.1
20.69
24.44
27.2
28.69
28.74
27.41
25.1
22.35
19.75
17.78
16.69
16.45
16.83
17.45
17.93
18.05
17.75
17.08
16.17
14.96
13.28
10.92
7.84
4.29
0.77
-2.27
-4.68
-6.69
-8.85
-11.73
-15.64
-20.57
-26.32
-32.51
-38.63
-43.91
-47.34
-47.83
-44.55
-37.38
-27.07
-15.07
-3.02
7.77
16.66
23.69
29.25
33.74
37.3
39.83
41.25
41.62
41.3
40.84
40.74
41.19
42.01
42.67
42.54
41.22
38.67
35.21
31.43
27.92
25.11
23.17
21.92
20.98
19.77
17.74
14.57
10.3
5.31
0.18
-4.55
-8.52
-11.7
-14.33
-16.77
-19.32
-22.05
-24.75
-26.87
-27.78
-26.98
-24.3
-20.07
-15
-9.96
-5.58
-2.07
0.89
3.81
7.2
11.29
16.03
21.19
26.42
31.22
34.95
36.84
36.16
32.56
26.32
18.34
9.89
2.23
-3.8
-7.98
-10.58
-12.1
-13.01
-13.61
-14.02
-14.27
-14.36
-14.29
-14.12
-13.98
-13.97
-14.17
-14.55
-14.99
-15.4
-15.81
-16.34
-17.18
-18.44
-20.08
-21.84
-23.4
-24.56
-25.3
-25.89
-26.67
-28.02
-30.11
-32.93
-36.25
-39.7
-42.77
-44.84
-45.28
-43.58
-39.5
-33.17
-25.13
-16.15
-7.12
1.22
8.31
13.82
17.65
19.82
20.53
20.04
18.69
16.84
14.85
13.06
11.76
11.12
11.14
11.67
12.4
13.02
13.35
13.33
13.06
12.6
11.97
11.05
9.7
7.78
5.28
2.3
-0.96
-4.34
-7.67
-10.86
-13.91
-16.91
-19.99
-23.26
-26.83
-30.75
-35.03
-39.61
-44.24
-48.38
-51.18
-51.66
-49.05
-43.15
-34.55
-24.45
-14.26
-5.11
2.47
8.52
13.41
17.45
20.78
23.3
24.92
25.65
25.71
25.43
25.17
25.16
25.45
25.95
26.53
27.04
27.48
27.9
28.35
28.75
28.83
28.28
26.83
24.57
21.8
18.98
16.34
13.74
10.78
6.99
2.21
-3.35
-9.12
-14.49
-19.03
-22.68
-25.63
-28.26
-30.98
-34.14
-38.07
-42.92
-48.56
-54.33
-59.11
-61.53
-60.37
-55.04
-45.8
-33.76
-20.51
-7.72
3.24
11.58
17.04
19.9
20.75
20.41
19.71
19.24
19.29
19.76
20.36
20.73
20.67
20.1
19.1
17.8
16.4
15.08
14.06
13.5
13.39
13.5
13.35
12.42
10.27
6.83
2.41
-2.42
-7.09
-11.28
-15
-18.55
-22.29
-26.49
-31.09
-35.74
-39.87
-42.96
-44.75
-45.39
-45.35
-45.23
-45.43
-46.02
-46.73
-47.01
-46.24
-43.89
-39.64
-33.36
-25.21
-15.55
-4.91
6.07
16.89
27.34
37.48
47.29
56.24
62.88
65.03
60.61
48.62
30.02
7.91
-13.24
-28.82
-35.47
-32
-19.56
-1.01
20.1
40.49
57.78
70.61
78.55
81.84
81.21
77.75
72.75
67.35
62.27
57.49
52.14
44.89
34.54
20.62
3.78
-14.33
-31.52
-45.72
-55.65
-61.25
-63.64
-64.71
-66.52
-70.41
-76.63
-84.23
-91.52
-96.71
-98.53
-96.32
-90.15
-80.65
-68.91
-56.3
-44.04
-32.67
-21.92
-11.05
0.24
11.02
19.23
22.58
19.79
11.44
-0.16
-12.12
-21.99
-28.45
-31.01
-29.39
-23.34
-12.86
1.14
16.62
30.85
41.38
46.89
47.67
45.6
43.74
45.52
53.72
69.18
89.9
111.24
127.43
133.82
129.03
115.45
98.22
82.84
72.94
69.15
69.32
69.75
66.62
57.2
40.46
17.34
-9.47
-36.19
-59.12
-75.73
-85.35
-89.04
-88.77
-86.41
-82.96
-78.57
-73.06
-66.52
-59.6
-53.39
-48.76
-45.84
-43.92
-41.66
-37.86
-32.03
-24.49
-16.1
-7.69
0.34
8.12
15.98
24.04
31.83
38.38
42.62
43.88
42.25
38.57
34.16
30.18
27.28
25.37
23.85
22.03
19.45
16.11
12.19
7.75
2.43
-4.51
-13.98
-26.63
-42.43
-60.28
-77.65
-90.59
-94.36
-84.9
-60.65
-24.03
18.57
58.51
87.89
102.65
104
97.69
91.14
90.07
96.08
106.14
113.99
112.4
95.83
62.51
15.57
-37.36
-85.73
-118.93
-129.34
-114.79
-79.36
-32.14
15.58
53.73
76.18
81.83
73.85
57.76
39.15
22.12
8.7
-0.92
-7.54
-12.31
-16.26
-20.37
-25.75
-33.43
-43.94
-56.74
-70.1
-81.56
-88.9
-91.1
-88.85
-84.15
-79.43
-76.43
-75.48
-75.49
-74.64
-71.27
-64.74
-55.62
-45.48
-36.12
-28.93
-24.36
-22.01
-20.88
-19.9
-18.32
-15.99
-13.24
-10.57
-8.41
-6.84
-5.67
-4.58
-3.31
-1.86
-0.4
0.76
1.32
1.06
-0.09
-2.02
-4.44
-7
-9.29
-11.06
-12.26
-13.24
-14.57
-16.87
-20.55
-25.49
-30.94
-35.71
-38.49
-38.28
-34.68
-28.04
-19.28
-9.75
-0.76
6.71
12.26
16.14
19.09
21.99
25.52
29.92
34.89
39.95
44.72
49.1
53.31
57.68
62.3
67.03
71.52
75.43
78.51
80.65
81.65
81.23
78.99
74.64
68.25
60.33
51.65
42.9
34.4
25.89
16.72
6.15
-6.35
-20.91
-37.16
-54.41
-71.82
-88.61
-104.12
-117.74
-128.9
-137.03
-141.61
-142.37
-139.42
-133.32
-124.99
-115.36
-105.16
-94.93
-85.11
-76.18
-68.38
-61.59
-55.36
-49
-41.89
-33.7
-24.58
-15.12
-5.99
2.91
12.2
22.65
34.38
46.58
57.55
65.27
68.09
65.41
58.78
51.03
45.05
42.39
42.78
44.64
46.08
45.87
44.11
43.04
45.61
54.13
69.13
89.34
112.32
135.17
154.83
163.74
155.32
127.8
87.5
45.88
13.99
-1.3
1.49
18.57
42.48
66.79
86.5
98.97
104.02
103.48
100.08
96.33
93.74
91.44
90.19
91.16
95.33
102.61
111.63
120.37
127.35
132.55
137.69
146.02
159.94
179.53
201.76
221.51
233.65
234.98
225.17
206.37
182.31
156.31
130.32
104.84
79.52
53.93
28.05
2.02
-24.23
-51.16
-79.83
-111.31
-145.93
-182.64
-219
-251.56
-276.92
-292.64
-297.79
-292.99
-279.74
-259.68
-234.01
-203.45
-168.44
-129.63
-88.16
-45.94
-5.76
28.75
53.71
65.93
64.1
49.61
26.46
0.17
-23.89
-42.08
-53.19
-57.97
-58.11
-55.23
-50.4
-44.22
-37.27
-30.33
-24.2
-19.36
-15.72
-12.68
-9.47
-5.59
-1.26
2.49
4.05
1.71
-5.68
-18.18
-34.76
-53.65
-72.97
-91.22
-107.67
-122.13
-134.7
-145.42
-154.1
-160.39
-164.02
-164.88
-163.08
-158.92
-152.86
-145.55
-137.8
-130.38
-123.91
-118.8
-115.21
-113.12
-112.47
-113.15
-115.02
-117.57
-119.98
-121.32
-121.11
-119.51
-117.3
-115.49
-114.87
-115.98
-118.77
-122.77
-127.37
-131.89
-135.45
-136.67
-133.77
-125.11
-110.23
-89.74
-65.11
-38.22
-10.87
15.82
41.44
66.14
90.15
112.75
133.05
150.36
164.52
175.57
183.65
188.88
191.21
193.94
197.32
199.48
197.69
190.24
177
159.6
140.97
124.31
112.11
104.26
98.79
91.91
82.14
69.82
57.04
47.12
43.17
47.14
58.15
73.38
88.82
100.82
106.83
104.73
94.22
75.3
51.44
28.13
10.46
0.28
-4.06
-6.23
-9.61
-15.7
-24.14
-32.95
-40.42
-45.5
-47.81
-47.43
-44.91
-41.1
-36.76
-32.29
-28.39
-25.81
-25.2
-26.84
-30.37
-34.62
-37.94
-38.52
-35.16
-27.77
-17.58
-6.8
2.18
7.58
8.75
5.96
0.15
-7.52
-15.89
-23.81
-30.39
-35.11
-37.89
-38.91
-38.48
-36.76
-33.7
-29.39
-24.16
-18.83
-14.35
-11.29
-9.52
-8.19
-6.25
-2.95
1.66
6.89
11.8
15.59
17.84
18.48
17.68
15.76
13.23
10.67
8.63
7.25
6.24
4.95
3.04
1.14
1.08
5.34
15.83
32.77
54.13
76.36
95.93
110.8
121.18
128.69
134.97
140.42
143.96
144.06
140.11
133.27
126.18
121.52
120.69
123.07
126.41
127.93
125.32
117.36
103.93
85.82
64.35
41.2
17.95
-4.29
-25.18
-45.13
-64.5
-82.89
-98.64
-109.17
-112.08
-106.32
-92.92
-74.63
-54.76
-35.88
-19.14
-4.53
8.01
17.84
23.4
23.14
16.79
6.2
-4.93
-12.43
-13.45
-7.71
2.51
13.49
21.71
25.29
24.23
19.95
14.15
7.97
1.62
-5.38
-13.72
-23.84
-35.64
-48.45
-61.26
-72.84
-81.92
-87.41
-88.9
-87.18
-84.6
-84.61
-90.76
-105.05
-126.8
-152.35
-176.06
-191.88
-194.9
-182.24
-153.33
-109.83
-55.44
4.34
62.85
113.54
151.55
174.86
184.56
183.85
176.6
165.99
154.18
142.61
132.49
124.96
120.76
119.71
120.51
121.31
120.45
117.2
111.87
105.44
98.72
91.89
84.39
75.38
64.34
51.38
37.37
23.5
10.89
0.13
-8.69
-15.85
-21.66
-26.24
-29.45
-31.03
-30.8
-28.81
-25.31
-20.64
-15.07
-8.74
-1.73
5.72
13.05
19.4
23.67
24.81
22.21
15.87
6.48
-4.66
-15.98
-26.02
-33.77
-38.9
-41.57
-42.36
-42
-41.19
-40.61
-40.78
-42.06
-44.47
-47.72
-51.21
-54.2
-55.98
-55.99
-54
-49.99
-44.28
-37.49
-30.55
-24.61
-20.77
-19.88
-22.36
-28.05
-36.32
-46.1
-56.01
-64.66
-70.98
-74.61
-76
-76.08
-75.83
-75.67
-75.37
-74.24
-71.65
-67.45
-62.09
-56.51
-51.91
-49.41
-49.7
-52.47
-55.91
-56.77
-51.1
-35.81
-10.23
23.22
59.63
93.46
120.45
138.76
148.69
151.47
148.13
139.05
124.57
105.78
84.88
64.66
47.46
34.31
24.8
17.71
11.88
6.76
2.38
-1.11
-3.93
-6.63
-9.85
-13.89
-18.44
-22.78
-26.08
-27.81
-27.77
-26.03
-22.73
-18.09
-12.41
-6.14
0.09
5.67
10.16
13.42
15.55
16.73
17.11
16.76
15.74
14.03
11.65
8.67
5.18
1.38
-2.4
-5.73
-8.14
-9.38
-9.51
-9
-8.55
-8.89
-10.54
-13.59
-17.74
-22.32
-26.57
-29.86
-31.93
-33.05
-34.08
-36.03
-39.64
-44.9
-50.87
-56.01
-58.73
-58.15
-54.45
-48.83
-42.82
-37.61
-33.53
-30.05
-26.23
-21.32
-15.2
-8.35
-1.6
4.24
8.55
10.98
11.43
10.16
7.86
5.69
5.02
6.98
11.87
18.98
26.73
33.27
37.17
37.77
35.3
30.52
24.37
17.66
10.86
4.33
-1.67
-6.74
-10.4
-12.17
-11.82
-9.55
-6.14
-2.68
-0.31
0.14
-1.72
-5.94
-12.43
-21
-31.19
-42.07
-52.14
-59.71
-63.36
-62.56
-57.84
-50.58
-42.41
-34.73
-28.22
-22.93
-18.53
-14.6
-10.89
-7.3
-3.96
-0.99
1.51
3.56
5.31
6.97
8.7
10.56
12.49
14.4
16.2
17.82
19.23
20.35
21.16
21.63
21.82
21.81
21.72
21.56
21.32
20.85
20.02
18.74
17.07
15.12
13.15
11.39
9.93
8.7
7.32
5.35
2.48
-1.11
-4.6
-6.62
-5.78
-1.24
6.76
16.87
26.97
34.96
39.46
40.23
37.98
33.9
28.95
23.54
17.52
10.6
2.8
-5.42
-13.25
-20.01
-25.4
-29.66
-33.38
-37.2
-41.57
-46.43
-51.31
-55.44
-58.08
-58.78
-57.49
-54.49
-50.29
-45.5
-40.6
-36.03
-32.07
-28.98
-26.93
-25.98
-26.1
-27.21
-29.3
-32.33
-36.09
-39.94
-42.81
-43.37
-40.5
-33.81
-23.78
-11.66
1.02
12.99
23.55
32.6
40.45
47.38
53.41
58.23
61.44
62.73
62.2
60.33
57.83
55.38
53.36
51.75
50.18
48.23
45.59
42.24
38.41
34.4
30.3
25.97
21.11
15.51
9.23
2.66
-3.61
-9.08
-13.58
-17.27
-20.63
-24.23
-28.62
-34.11
-40.65
-47.66
-54.08
-58.59
-60.02
-57.81
-52.23
-44.33
-35.52
-26.99
-19.49
-13.14
-7.78
-3.22
0.6
3.61
5.73
7.06
7.86
8.45
9.08
9.87
10.87
12.05
13.35
14.74
16.04
17.02
17.44
17.13
16.09
14.43
12.41
10.22
8.04
5.96
3.96
1.86
-0.86
-4.99
-11.41
-20.7
-32.69
-46.21
-59.31
-69.77
-75.67
-75.91
-70.42
-59.99
-46.08
-30.4
-14.61
-0.01
12.55
22.7
30.26
35.06
36.81
35.25
30.44
23.09
14.55
6.4
-0.11
-4.59
-7.59
-10.13
-13.29
-17.67
-23.24
-29.54
-35.9
-41.75
-46.73
-50.72
-53.68
-55.56
-56.29
-55.88
-54.56
-52.87
-51.55
-51.42
-53.1
-56.74
-62.03
-68.11
-73.66
-77.04
-76.66
-71.35
-60.95
-46.45
-29.83
-13.36
1.12
12.76
21.73
28.74
34.46
39.15
42.78
45.3
47.05
48.66
50.67
53.07
55.17
55.87
54.25
50.23
44.69
39.12
34.95
32.86
32.51
32.8
32.59
31.14
28.49
25.07
21.4
17.67
13.86
9.91
6.05
2.79
0.68
-0.14
-0.21
-0.68
-2.92
-7.88
-15.65
-25.29
-34.95
-42.33
-45.24
-42.29
-33.36
-19.89
-4.55
9.49
19.75
25.26
26.77
26.31
26.11
27.66
31.21
36.07
41.21
45.85
49.63
52.45
54.25
54.81
53.99
51.87
48.85
45.51
42.39
39.8
37.82
36.35
35.23
34.35
33.52
32.57
31.2
29.24
26.72
23.85
20.94
18.18
15.4
12.17
7.86
1.91
-5.78
-14.94
-24.83
-34.48
-42.82
-48.79
-51.51
-50.33
-45.1
-36.19
-24.66
-12
0.28
11.06
19.89
27.02
33.07
38.58
43.82
48.65
52.76
55.9
58.06
59.54
60.86
62.53
64.91
67.97
71.16
73.55
74.03
71.69
66.25
58.17
48.51
38.43
28.78
19.83
11.41
3.18
-5.15
-13.67
-22.37
-31.18
-39.92
-48.23
-55.5
-60.99
-64.25
-65.42
-65.33
-65.18
-65.89
-67.53
-69.14
-69.22
-66.45
-60.49
-52.26
-43.53
-36.17
-31.24
-28.48
-26.42
-23.13
-17.09
-7.91
3.39
14.85
24.32
30.18
31.98
30.34
26.45
21.38
15.68
9.33
2.22
-5.45
-13.01
-19.59
-24.62
-28.01
-29.92
-30.21
-27.91
-21.36
-8.92
10
34.34
61.64
88.99
114.13
136.07
154.6
169.42
179.36
182.3
176.12
159.92
134.93
104.46
72.91
44.37
21.52
5.24
-5.02
-10.32
-11.53
-9.13
-3.43
4.8
13.97
21.83
26.01
24.97
18.67
8.62
-2.73
-13.04
-21.03
-26.77
-31.24
-35.43
-39.51
-42.48
-42.75
-38.94
-30.7
-19
-5.65
7.4
18.68
27.44
33.41
36.43
36.26
32.8
26.49
18.46
10.45
4.03
-0.02
-2.2
-3.97
-6.89
-11.68
-17.74
-23.42
-26.84
-26.75
-23
-16.4
-8.18
0.49
8.89
16.57
23.31
28.9
33.13
35.78
36.57
35.23
31.63
25.96
18.86
11.42
4.83
-0.05
-3.01
-4.54
-5.57
-7.05
-9.67
-13.69
-18.91
-24.91
-31.09
-36.93
-42.11
-46.54
-50.28
-53.33
-55.51
-56.52
-56.16
-54.62
-52.59
-51.14
-51.2
-53.19
-56.61
-60.31
-62.86
-63.07
-60.44
-55.07
-47.55
-38.67
-29.22
-19.92
-11.37
-3.96
2.27
7.58
12.39
16.95
21.13
24.44
26.37
26.68
25.69
24.05
22.39
20.99
19.77
18.59
17.63
17.59
19.41
23.69
30.22
37.77
44.56
48.87
49.81
47.63
43.54
39.15
35.77
33.87
32.91
31.64
28.56
22.57
13.43
2.08
-9.4
-18.25
-21.72
-18
-7.06
8.95
25.94
38.82
42.92
35.45
16.62
-10.27
-39.56
-64.96
-81.37
-86.26
-80.23
-66.39
-49.13
-32.66
-19.95
-12.38
-9.92
-11.73
-16.58
-23.06
-29.64
-34.77
-37.13
-36.03
-31.89
-26.16
-20.89
-17.95
-18.25
-21.35
-25.66
-29.19
-30.57
-29.65
-27.48
-25.61
-25.18
-26.1
-27.03
-25.95
-21.13
-12.04
0.45
14.44
27.77
38.79
46.75
51.68
54.12
54.63
53.69
51.58
48.51
44.59
39.95
34.7
29.06
23.39
18.13
13.63
9.98
6.9
3.9
0.59
-3.04
-6.6
-9.53
-11.53
-12.73
-13.73
-15.26
-17.87
-21.77
-26.83
-32.65
-38.69
-44.23
-48.47
-50.63
-50.12
-46.77
-40.88
-33.1
-24.34
-15.53
-7.65
-1.44
2.6
4.51
4.8
4.36
4.07
4.52
5.84
7.8
10.03
12.31
14.55
16.78
19.03
21.27
23.44
25.56
27.68
29.95
32.46
35.18
37.89
40.2
41.64
41.74
40.21
36.99
32.28
26.4
19.7
12.49
5.13
-1.82
-7.65
-11.61
-13.23
-12.54
-10.16
-7.02
-3.99
-1.65
-0.18
0.51
0.45
-0.46
-2.31
-5.14
-8.66
-12.35
-15.72
-18.44
-20.46
-21.95
-23.15
-24.16
-24.94
-25.32
-25.16
-24.55
-23.79
-23.37
-23.78
-25.3
-27.87
-31.15
-34.67
-38.06
-41.18
-44.19
-47.32
-50.77
-54.5
-58.24
-61.6
-64.02
-64.81
-63.16
-58.29
-49.74
-37.7
-23.12
-7.4
7.98
21.99
34.25
44.83
53.78
60.75
64.95
65.57
62.39
56.21
48.76
42.22
38.37
38.01
40.72
45.17
49.61
52.49
52.79
50.1
44.63
37.2
29.08
21.92
17.24
16.08
18.49
23.44
29.05
33.13
33.75
29.78
21.06
8.46
-6.24
-20.81
-32.93
-40.85
-43.81
-42.31
-37.75
-31.93
-26.34
-21.74
-18.2
-15.3
-12.58
-9.78
-6.86
-3.89
-0.87
2.24
5.5
8.86
12.13
14.96
17.07
18.34
18.83
18.74
18.28
17.58
16.76
16.09
15.94
16.86
19.23
23.04
27.79
32.66
36.75
39.47
40.72
40.79
40.19
39.33
38.43
37.49
36.37
34.79
32.53
29.39
25.35
20.65
15.74
11.11
7.08
3.58
0.11
-4.16
-9.99
-17.75
-27.07
-36.78
-45.2
-50.59
-51.7
-48.08
-40.2
-29.22
-16.65
-3.94
7.76
17.7
25.58
31.33
35.01
36.7
36.46
34.4
30.73
25.76
19.95
13.79
7.8
2.48
-1.72
-4.39
-5.28
-4.46
-2.35
0.26
2.52
3.74
3.63
2.23
-0.22
-3.48
-7.35
-11.62
-15.96
-19.88
-22.98
-25.23
-27.12
-29.7
-34.13
-41.14
-50.56
-61.15
-70.98
-78.02
-80.83
-78.89
-72.65
-63.22
-52.11
-40.81
-30.62
-22.42
-16.56
-12.85
-10.7
-9.32
-8.04
-6.49
-4.59
-2.41
-0
2.6
5.38
8.2
10.83
13.16
15.23
17.18
19.17
21.02
22.25
22.21
20.3
16.37
10.74
4.1
-2.7
-9
-14.38
-18.75
-22.36
-25.62
-29.16
-33.56
-39.23
-46.1
-53.55
-60.46
-65.48
-67.46
-65.85
-60.87
-53.36
-44.48
-35.19
-26.09
-17.38
-9.04
-1.13
6.17
12.61
18.02
22.48
26.18
29.26
31.71
33.35
34.04
33.86
33.08
32.12
31.31
30.74
30.24
29.53
28.36
26.54
24.07
20.98
17.42
13.64
9.93
6.54
3.56
0.73
-2.44
-6.54
-11.91
-18.33
-24.9
-30.34
-33.35
-33.03
-29.27
-22.67
-14.33
-5.45
3
10.45
16.64
21.59
25.34
28.03
29.74
30.64
30.83
30.51
29.79
28.81
27.64
26.37
25.08
23.89
22.87
22
21.2
20.27
19.02
17.34
15.19
12.64
9.8
6.78
3.71
0.71
-2.12
-4.79
-7.49
-10.63
-14.6
-19.62
-25.44
-31.24
-35.85
-38.13
-37.36
-33.48
-27.14
-19.35
-11.22
-3.63
2.88
8.1
12.02
14.83
16.76
18.04
18.82
19.16
19.02
18.33
17.08
15.48
13.83
12.52
11.77
11.64
11.94
12.37
12.6
12.38
11.54
9.95
7.59
4.53
1.04
-2.51
-5.68
-8.23
-10.22
-12.07
-14.41
-17.82
-22.56
-28.41
-34.68
-40.32
-44.22
-45.37
-43.19
-37.64
-29.25
-18.96
-8
2.49
11.63
18.96
24.4
28.19
30.72
32.38
33.4
33.84
33.67
32.85
31.49
29.88
28.37
27.24
26.56
26.18
25.86
25.43
24.89
24.31
23.8
23.25
22.41
20.91
18.49
15.09
10.92
6.36
1.83
-2.37
-6.2
-9.86
-13.69
-18.05
-23.14
-28.92
-34.99
-40.66
-44.99
-47
-46.05
-41.94
-35.14
-26.62
-17.54
-8.94
-1.5
4.53
9.21
12.71
15.23
16.89
17.81
18.05
17.65
16.61
14.96
12.85
10.62
8.72
7.55
7.39
8.18
9.65
11.4
13.07
14.4
15.22
15.48
15.21
14.48
13.32
11.69
9.51
6.62
2.96
-1.39
-6.08
-10.69
-14.88
-18.71
-22.68
-27.6
-34.14
-42.37
-51.58
-60.4
-67.32
-71.22
-71.68
-69.03
-64.04
-57.58
-50.37
-43.01
-35.98
-29.83
-25.06
-21.99
-20.56
-20.34
-20.66
-20.82
-20.33
-18.86
-16.15
-11.87
-5.51
3.48
15.46
30.39
47.68
66.26
84.83
102.12
117.16
129.29
138.11
143.37
145.04
143.19
138.08
129.91
118.59
103.69
84.68
61.41
34.73
6.69
-19.73
-41.54
-56.72
-64.76
-66.62
-64.06
-58.76
-51.92
-44.18
-36.01
-28.03
-21.05
-15.8
-12.59
-11.12
-10.58
-10.03
-8.79
-6.58
-3.47
0.27
4.35
8.54
12.65
16.42
19.7
22.4
24.62
26.62
28.61
30.62
32.37
33.35
33.01
30.97
27.16
21.8
15.41
8.73
2.61
-2.06
-4.57
-4.61
-2.43
1.05
4.46
6.3
5.49
1.74
-4.35
-11.5
-18.28
-23.67
-27.39
-29.81
-31.55
-32.98
-33.98
-33.99
-32.43
-29.05
-24.17
-18.47
-12.55
-6.63
-0.46
6.4
14.12
22.28
29.79
35.24
37.43
35.94
31.29
24.74
17.72
11.14
5.12
-0.96
-7.79
-15.5
-23.33
-29.83
-33.52
-33.67
-30.69
-25.93
-21.07
-17.38
-15.31
-14.63
-14.82
-15.56
-16.93
-19.2
-22.63
-27.1
-32.1
-36.83
-40.58
-42.85
-43.55
-42.9
-41.27
-39.09
-36.64
-34.12
-31.64
-29.31
-27.3
-25.8
-24.97
-24.87
-25.38
-26.23
-27.19
-28.17
-29.24
-30.69
-32.72
-35.32
-38.17
-40.62
-41.92
-41.4
-38.75
-33.95
-27.35
-19.48
-10.92
-2.3
5.82
12.97
18.83
23.32
26.48
28.45
29.45
29.73
29.6
29.37
29.36
29.7
30.41
31.36
32.42
33.55
34.78
36.22
37.92
39.74
41.42
42.72
43.51
43.85
43.99
44.2
44.62
45.14
45.33
44.55
42.15
37.72
31.3
23.55
15.62
8.89
4.55
3.25
4.89
8.74
13.63
18.4
22.15
24.38
24.99
24.14
22.12
19.28
15.93
12.42
9.1
6.25
4.02
2.41
1.34
0.62
0.09
-0.4
-0.95
-1.59
-2.34
-3.17
-4.17
-5.43
-7.18
-9.56
-12.65
-16.27
-20.04
-23.54
-26.43
-28.68
-30.65
-32.91
-36.04
-40.22
-45.13
-49.91
-53.42
-54.64
-52.98
-48.48
-41.78
-33.78
-25.42
-17.41
-10.15
-3.87
1.27
5.1
7.49
8.44
8.17
7.11
5.66
4.11
2.53
0.81
-1.17
-3.39
-5.6
-7.47
-8.75
-9.41
-9.66
-9.82
-10.22
-11.08
-12.46
-14.28
-16.41
-18.68
-20.95
-23.13
-25.2
-27.19
-29.21
-31.36
-33.81
-36.69
-40.04
-43.69
-47.16
-49.57
-49.94
-47.45
-41.85
-33.6
-23.78
-13.7
-4.47
3.21
9.12
13.3
15.92
17.15
17.22
16.46
15.32
14.26
13.63
13.62
14.19
15.13
16.1
16.69
16.56
15.56
13.79
11.6
9.46
7.69
6.3
4.96
3.25
0.89
-2.07
-5.24
-8.21
-10.62
-12.46
-13.93
-15.42
-17.31
-19.92
-23.4
-27.67
-32.28
-36.41
-39.03
-39.11
-36.04
-29.81
-21.07
-10.98
-0.86
8.21
15.54
20.95
24.68
27.1
28.56
29.21
29.07
28.11
26.39
24.13
21.7
19.41
17.51
16.11
15.22
14.77
14.52
14.15
13.33
11.86
9.81
7.44
5.03
2.66
0.26
-2.34
-5.09
-7.77
-10.04
-11.78
-13.25
-15.06
-17.87
-21.99
-27.23
-33.04
-38.81
-44.09
-48.6
-52.04
-53.86
-53.33
-49.9
-43.56
-35.13
-25.9
-17.24
-9.97
-4.22
0.48
4.61
8.34
11.35
13.18
13.62
12.84
11.4
9.88
8.69
7.96
7.7
7.83
8.21
8.6
8.61
7.88
6.24
3.93
1.51
-0.37
-1.37
-1.65
-1.81
-2.58
-4.37
-7.1
-10.26
-13.17
-15.46
-17.17
-18.8
-20.94
-24.09
-28.28
-33.18
-38.21
-42.62
-45.69
-46.66
-44.82
-39.69
-31.24
-20.09
-7.48
5.11
16.36
25.59
32.79
38.42
43.03
46.9
50.01
52.18
53.3
53.54
53.27
52.87
52.54
52.27
51.92
51.42
50.77
50.06
49.37
48.63
47.59
45.96
43.49
40.1
35.91
31.14
26.11
20.95
15.62
9.76
2.83
-5.6
-15.59
-26.53
-37.3
-46.59
-53.32
-57
-57.6
-55.37
-50.5
-43.11
-33.33
-21.59
-8.73
4.25
16.38
27.05
36.07
43.58
49.81
54.96
59.2
62.6
65.21
66.99
67.77
67.28
65.29
61.74
56.69
50.4
43.09
35.08
26.73
18.65
11.64
6.47
3.63
2.91
3.44
3.85
2.77
-0.64
-6.35
-13.48
-20.7
-26.8
-31.23
-34.24
-36.66
-39.31
-42.47
-45.69
-47.97
-48.28
-45.99
-41.1
-34.16
-25.96
-17.42
-9.37
-2.62
2.24
4.85
5.44
4.57
3.04
1.4
-0.18
-1.86
-4.01
-6.8
-10.21
-13.87
-17.43
-20.54
-23.2
-25.53
-27.76
-30.09
-32.62
-35.34
-38.22
-41.26
-44.65
-48.8
-53.94
-59.88
-66.14
-72.17
-77.68
-82.79
-87.97
-93.78
-100.75
-108.58
-116.09
-121.81
-124.57
-124.08
-121.02
-116.9
-113.66
-113.53
-117.53
-125.21
-134.81
-143.73
-149
-147.78
-138
-119.05
-92.79
-61.97
-29.57
1.91
30.77
56.37
78.87
98.57
119.38
140.08
156.68
165.45
165.69
159.47
150.04
140.41
132.87
128.74
127.81
129.51
132.21
133.13
128.53
115.43
93.44
65.5
36.95
12.9
-3.19
-10.6
-10.22
-4.96
2
8.59
14.13
18.59
21.41
21.8
19.22
13.88
6.77
-0.47
-6.06
-8.75
-8.27
-5.38
-1.25
2.96
6.43
8.62
9.41
9
7.72
5.8
3.19
-0.17
-4.22
-8.76
-13.59
-18.5
-23.44
-28.45
-33.55
-38.52
-42.73
-45.29
-45.22
-41.92
-35.31
-25.96
-14.95
-3.55
7.09
16.18
23.38
28.65
32.11
33.94
34.26
33.2
31.01
28.1
24.97
22.06
19.64
17.74
16.2
14.85
13.64
12.64
11.91
11.43
10.91
9.91
7.97
4.72
0.15
-5.52
-11.81
-18.23
-24.39
-30.03
-34.94
-38.85
-41.33
-41.8
-39.74
-34.94
-27.66
-18.66
-8.97
0.46
8.99
16.34
22.61
27.95
32.42
35.9
38.25
39.37
39.4
38.64
37.44
36.1
34.73
33.39
32.17
31.22
30.68
30.52
30.42
29.87
28.32
25.53
21.69
17.31
13.02
9.15
5.63
2.01
-2.35
-7.97
-15.01
-23.09
-31.26
-38.25
-42.69
-43.48
-40.13
-32.92
-22.79
-11.13
0.69
11.59
21.01
28.77
34.96
39.64
42.77
44.3
44.29
43.06
41.11
39.06
37.37
36.22
35.55
35.16
34.89
34.69
34.55
34.45
34.25
33.68
32.44
30.25
26.98
22.66
17.51
12.01
6.69
2
-1.97
-5.45
-8.95
-12.99
-17.91
-23.75
-30.23
-36.87
-42.95
-47.61
-49.83
-48.74
-43.91
-35.61
-24.87
-13.13
-1.84
8.11
16.48
23.56
29.8
35.37
40.11
43.52
45.2
44.99
43.24
40.67
38.17
36.46
35.89
36.35
37.39
38.46
39.16
39.32
39
38.27
37.14
35.48
33.23
30.45
27.42
24.47
21.77
19.09
15.88
11.39
5.09
-3.07
-12.57
-22.53
-32.13
-40.89
-48.72
-55.64
-61.49
-65.79
-67.77
-66.86
-62.88
-56.28
-47.91
-38.75
-29.55
-20.71
-12.39
-4.62
2.53
8.92
14.39
18.79
22.04
24.13
25.15
25.32
24.98
24.56
24.4
24.72
25.51
26.54
27.5
28.04
27.94
27.11
25.63
23.64
21.33
18.82
16.17
13.41
10.52
7.52
4.39
1.14
-2.22
-5.65
-9.05
-12.32
-15.43
-18.45
-21.6
-25.2
-29.51
-34.68
-40.5
-46.35
-51.19
-53.81
-53.19
-48.92
-41.47
-32
-21.96
-12.6
-4.51
2.32
8.32
13.89
19.19
23.96
27.74
30.07
30.73
29.89
28
25.7
23.6
22.06
21.17
20.8
20.78
21.01
21.49
22.19
22.94
23.3
22.84
21.22
18.45
14.93
11.22
7.9
5.26
3.24
1.5
-0.45
-3.04
-6.4
-10.39
-14.61
-18.59
-21.94
-24.49
-26.36
-27.9
-29.64
-32.08
-35.58
-40.03
-44.77
-48.63
-50.33
-48.91
-44.18
-36.8
-28
-19.05
-10.82
-3.53
3.03
9.18
14.99
20.18
24.32
27.05
28.33
28.4
27.77
26.91
26.16
25.61
25.16
24.62
23.87
22.91
21.81
20.65
19.46
18.12
16.54
14.7
12.66
10.51
8.31
6
3.46
0.7
-2.15
-4.81
-7.03
-8.78
-10.31
-12.01
-14.28
-17.34
-21.19
-25.64
-30.36
-34.73
-37.97
-39.17
-37.56
-32.84
-25.31
-15.85
-5.63
4.27
13
20.09
25.27
28.45
29.69
29.23
27.46
24.91
22.09
19.37
17.01
15.13
13.76
12.79
11.95
10.94
9.6
7.98
6.36
5.04
4.11
3.35
2.33
0.61
-1.94
-5.18
-8.78
-12.45
-16.17
-20.14
-24.62
-29.75
-35.48
-41.58
-47.84
-54.05
-59.95
-65.07
-68.67
-69.8
-67.62
-61.79
-52.74
-41.59
-29.85
-18.9
-9.62
-2.23
3.55
8.17
12.04
15.27
17.79
19.47
20.25
20.25
19.73
18.99
18.22
17.5
16.81
16.15
15.55
15.11
14.88
14.76
14.51
13.8
12.4
10.28
7.54
4.44
1.23
-1.91
-4.92
-7.87
-11
-14.66
-19.19
-24.73
-31.03
-37.33
-42.51
-45.35
-44.96
-41.09
-34.22
-25.38
-15.84
-6.68
1.4
8.15
13.61
17.84
20.85
22.63
23.22
22.87
21.99
21
20.15
19.44
18.65
17.58
16.21
14.77
13.62
13.05
13.08
13.33
13.24
12.19
9.8
6.14
1.64
-2.97
-7.06
-10.24
-12.67
-14.82
-17.4
-20.94
-25.72
-31.55
-37.81
-43.6
-47.8
-49.34
-47.46
-41.99
-33.45
-22.98
-11.97
-1.66
7.14
14.17
19.57
23.66
26.78
29.16
30.91
32.04
32.5
32.22
31.22
29.64
27.73
25.74
23.89
22.27
20.86
19.56
18.23
16.64
14.5
11.52
7.48
2.48
-3.13
-8.8
-13.97
-18.35
-21.99
-25.22
-28.52
-32.3
-36.82
-42.14
-48.07
-54.18
-59.73
-63.74
-65.12
-62.94
-56.79
-46.97
-34.55
-21.1
-8.23
2.84
11.53
17.96
22.64
26.16
28.91
30.97
32.19
32.36
31.42
29.52
26.99
24.24
21.66
19.53
17.99
17.09
16.73
16.65
16.46
15.76
14.25
11.89
8.87
5.43
1.73
-2.32
-7
-12.48
-18.74
-25.45
-32.05
-37.9
-42.34
-44.69
-44.3
-40.67
-33.67
-23.8
-12.19
-0.35
10.34
18.98
25.35
29.79
32.78
34.74
35.77
35.88
35.09
33.63
31.87
30.26
29.07
28.36
27.94
27.58
27.09
26.39
25.48
24.37
22.89
20.84
18
14.32
9.91
5.09
0.22
-4.45
-8.83
-12.98
-17.1
-21.46
-26.38
-32.12
-38.7
-45.75
-52.41
-57.42
-59.47
-57.64
-51.77
-42.61
-31.56
-20.19
-9.74
-0.79
6.7
13.17
19.05
24.46
29.13
32.57
34.29
34.19
32.71
30.65
28.87
27.93
27.83
28.19
28.52
28.56
28.37
28.25
28.41
28.75
28.82
28.09
26.18
23.14
19.36
15.38
11.64
8.28
5.13
1.84
-1.98
-6.66
-12.35
-19.05
-26.45
-33.87
-40.2
-44.16
-44.55
-40.84
-33.29
-22.99
-11.52
-0.33
9.58
17.86
24.61
30.02
34.08
36.5
36.85
34.89
30.81
25.3
19.34
13.95
9.83
7.2
5.78
5.09
4.61
4.1
3.62
3.36
3.53
4.07
4.63
4.64
3.51
0.89
-3.11
-7.92
-12.74
-16.84
-19.91
-22.13
-24.1
-26.47
-29.78
-34.28
-39.94
-46.49
-53.35
-59.69
-64.33
-66.03
-63.82
-57.38
-47.2
-34.56
-21.06
-8.18
3.1
12.38
19.66
25.16
29.11
31.73
33.27
34.01
34.27
34.33
34.35
34.34
34.25
33.97
33.45
32.78
32.07
31.49
31.14
30.96
30.7
29.96
28.37
25.69
21.95
17.41
12.44
7.33
2.32
-2.47
-7
-11.28
-15.41
-19.62
-24.26
-29.64
-35.83
-42.44
-48.56
-53
-54.56
-52.39
-46.29
-36.86
-25.28
-13.04
-1.51
8.36
16.26
22.38
27.17
30.97
33.83
35.59
36.05
35.24
33.45
31.24
29.18
27.68
26.9
26.76
27.04
27.5
27.92
28.15
28.1
27.67
26.72
25.1
22.67
19.42
15.47
11.1
6.65
2.36
-1.67
-5.45
-9.02
-12.36
-15.45
-18.36
-21.36
-24.93
-29.5
-35.19
-41.55
-47.46
-51.34
-51.66
-47.36
-38.35
-25.55
-10.61
4.54
18.33
29.94
39.31
46.94
53.45
59.26
64.32
68.31
70.84
71.76
71.28
69.81
67.83
65.6
63.05
59.86
55.59
49.92
42.78
34.36
25.01
15.17
5.26
-4.35
-13.36
-21.58
-29
-35.82
-42.34
-48.82
-55.29
-61.49
-66.93
-71.18
-74.03
-75.7
-76.57
-77
-76.94
-75.78
-72.56
-66.21
-56.04
-41.95
-24.45
-4.6
16.31
37.04
56.62
74.67
91.43
107.67
124.29
141.86
160.26
178.47
195
208.31
217.33
221.74
221.75
217.84
210.43
199.87
186.55
171.15
154.69
138.35
123.17
109.69
97.69
86.35
74.51
61.09
45.57
28.17
9.91
-7.68
-22.91
-34.43
-41.56
-44.45
-43.9
-41.07
-37.02
-32.52
-27.98
-23.71
-20.03
-17.29
-15.72
-15.16
-15.04
-14.67
-13.61
-12.01
-10.52
-10.03
-11.08
-13.65
-17.26
-21.26
-25.25
-29.26
-33.58
-38.51
-44.01
-49.75
-55.18
-59.79
-63.4
-66.07
-68.08
-69.64
-70.76
-71.25
-70.9
-69.71
-67.98
-66.28
-65.25
-65.32
-66.58
-68.75
-71.42
-74.23
-77.06
-80.08
-83.58
-87.85
-92.95
-98.6
-104.3
-109.43
-113.42
-115.84
-116.37
-114.89
-111.43
-106.38
-100.45
-94.59
-89.78
-86.64
-85.27
-85.27
-85.96
-86.65
-86.98
-86.95
-86.8
-86.86
-87.35
-88.35
-89.72
-91.18
-92.33
-92.72
-91.93
-89.68
-85.87
-80.66
-74.37
-67.38
-60.07
-52.75
-45.59
-38.75
-32.3
-26.41
-21.28
-17.23
-14.64
-13.85
-14.91
-17.43
-20.48
-22.76
-22.93
-20.17
-14.43
-6.63
1.88
9.67
15.93
20.56
24.11
27.35
30.8
34.48
37.9
40.39
41.39
40.68
38.46
35.21
31.41
27.36
23.14
18.64
13.76
8.47
2.91
-2.56
-7.47
-11.24
-13.38
-13.49
-11.46
-7.48
-2.03
4.2
10.41
15.74
19.42
20.82
19.6
15.85
10.16
3.53
-2.79
-7.58
-9.99
-9.63
-6.59
-1.32
5.49
13.03
20.51
27.22
32.66
36.58
38.89
39.66
39
37.1
34.27
31.05
27.99
25.64
24.25
23.62
23.27
22.59
21.07
18.54
15.17
11.34
7.46
3.72
0.06
-3.83
-8.33
-13.74
-20.16
-27.35
-34.88
-42.28
-49.21
-55.66
-61.84
-68.04
-74.31
-80.26
-85.07
-87.73
-87.39
-83.67
-76.83
-67.54
-56.74
-45.23
-33.63
-22.4
-11.9
-2.41
5.96
13.41
20.41
27.42
34.63
41.74
48.08
52.95
55.96
57.22
57.17
56.27
54.7
52.23
48.37
42.64
34.91
25.5
15.21
5.02
-4.14
-11.79
-17.98
-23.19
-28.12
-33.37
-39.19
-45.38
-51.22
-55.63
-57.3
-55
-47.92
-36.01
-20.16
-2.13
15.91
31.84
44.08
51.79
54.84
53.74
49.43
43.09
35.99
29.3
23.9
20.34
18.82
19.34
21.63
25.25
29.51
33.52
36.45
37.7
37.16
35.25
32.73
30.46
29.09
28.86
29.57
30.57
30.93
29.71
26.28
20.63
13.5
6.34
0.86
-1.44
0.24
5.8
14.25
24.04
33.42
40.83
45.25
46.38
44.65
41.05
36.72
32.58
29
25.79
22.52
18.88
14.92
11.04
7.79
5.61
4.59
4.32
3.85
1.91
-2.82
-11.21
-23.15
-37.49
-52.2
-65.06
-74.48
-80.09
-82.72
-83.84
-84.85
-86.37
-88.05
-88.89
-87.76
-83.89
-77.19
-68.16
-57.64
-46.48
-35.16
-23.71
-11.85
0.82
14.2
27.54
39.36
47.97
52.01
51.31
46.89
40.9
35.74
33.16
33.71
36.69
40.6
43.96
45.91
46.26
45.35
43.59
41.11
37.69
32.95
26.66
19.03
10.75
2.86
-3.43
-7.11
-7.54
-4.54
1.55
10.1
20.38
31.74
43.73
56.07
68.58
80.89
92.51
102.74
110.9
116.38
118.63
117.28
112.11
103.35
91.79
78.95
66.74
57.01
50.95
48.71
49.53
52.14
55.41
58.64
61.44
63.22
62.85
58.7
49.17
33.37
11.69
-14.3
-42.32
-70.03
-95.31
-116.29
-131.17
-138.34
-136.88
-127.29
-111.73
-93.62
-76.58
-63.21
-54.46
-49.73
-47.68
-46.98
-46.79
-46.71
-46.44
-45.61
-43.74
-40.53
-36
-30.48
-24.46
-18.36
-12.48
-7.02
-2.2
1.75
4.62
6.24
6.51
5.35
2.69
-1.51
-7.13
-13.8
-20.75
-26.97
-31.38
-33.09
-31.7
-27.36
-20.74
-12.7
-4.14
4.27
12.07
18.91
24.51
28.59
30.9
31.41
30.4
28.52
26.69
25.86
26.68
29.24
33.03
37.09
40.33
41.92
41.48
39.12
35.34
30.71
25.75
20.8
15.97
11.17
6.17
0.65
-5.6
-12.5
-19.48
-25.48
-29.2
-29.49
-25.69
-17.91
-6.93
6.04
19.71
32.95
44.98
55.26
63.44
69.3
72.77
73.98
73.46
72.06
70.84
70.85
72.79
76.79
82.26
88.06
92.74
95.05
94.26
90.4
84.22
76.83
69.37
62.59
56.64
50.99
44.65
36.46
25.54
11.72
-4.21
-20.59
-35.19
-45.94
-51.44
-51.44
-46.78
-38.98
-29.67
-20.27
-11.77
-4.87
-0.12
2.15
1.86
-0.6
-4.39
-8.5
-12.08
-14.62
-16.07
-16.6
-16.42
-15.64
-14.31
-12.54
-10.69
-9.19
-8.48
-8.74
-9.98
-12.15
-15.31
-19.65
-25.38
-32.47
-40.63
-49.31
-57.83
-65.44
-71.24
-74.29
-73.63
-68.62
-59.39
-46.99
-33.19
-19.99
-8.99
-1.08
3.55
5
3.37
-1.38
-9.24
-19.76
-31.98
-44.45
-55.66
-64.44
-70.22
-73.12
-73.85
-73.29
-72.28
-71.38
-70.8
-70.47
-70.2
-69.93
-69.8
-70.13
-71.25
-73.28
-75.92
-78.45
-79.85
-79.09
-75.31
-68.11
-57.55
-44.19
-28.87
-12.66
3.36
18.15
30.88
40.96
48.03
51.97
52.91
51.13
47.23
42.08
36.72
32.3
29.74
29.6
31.81
35.8
40.59
45.16
48.66
50.66
51.28
51.03
50.59
50.52
50.88
51.18
50.38
47.33
41.21
32.05
20.87
9.58
0.38
-5.07
-6.42
-4.86
-2.91
-3.33
-8.15
-17.74
-30.55
-43.64
-53.54
-57.23
-52.89
-40.37
-21.28
1.24
23.3
41.16
52.26
55.69
52.24
43.64
31.77
18.11
3.59
-11.13
-25.44
-38.76
-50.77
-61.6
-71.82
-82.13
-92.91
-104.02
-114.78
-124.08
-130.63
-133.2
-130.92
-123.62
-112
-97.58
-82.26
-67.69
-54.76
-43.5
-33.47
-24.28
-16.03
-9.37
-5.12
-3.81
-5.26
-8.58
-12.43
-15.47
-16.76
-15.94
-13.28
-9.45
-5.21
-1.27
2.07
5.01
8.19
12.48
18.65
27.03
37.19
47.76
56.6
61.32
60.15
52.77
40.71
27.01
15.29
8.58
8.37
14.43
25.25
38.89
53.64
68.34
82.29
94.89
105.57
113.78
119.26
122.18
123.01
122.27
120.19
116.29
109.34
97.77
80.46
57.52
30.66
2.78
-23.02
-44.58
-61.36
-74.18
-84.39
-92.85
-99.52
-103.7
-104.81
-102.97
-99.18
-94.87
-91.31
-89.21
-88.72
-89.77
-92.23
-95.9
-100.26
-104.19
-106.16
-104.63
-98.74
-88.71
-75.77
-61.64
-47.9
-35.49
-24.6
-15
-6.31
1.65
8.87
15.32
21.15
26.81
33
40.47
49.79
61.06
73.79
86.9
99.03
108.86
115.5
118.69
118.63
115.8
110.75
104.05
96.38
88.58
81.53
75.72
70.83
65.65
58.46
48.02
34.41
19.43
6.09
-2.44
-4.12
1.35
12.68
27.78
44.65
61.78
78.07
92.42
103.5
109.98
111.1
107.21
99.88
91.39
83.91
78.82
76.31
75.67
75.83
75.92
75.57
74.88
74.06
73.21
72.23
70.87
68.93
66.43
63.71
61.4
60.33
61.21
64.17
68.4
72.11
72.91
68.62
57.99
41.12
19.26
-5.64
-31.49
-56.19
-77.66
-93.79
-102.73
-103.5
-96.52
-83.76
-68.22
-53.04
-40.53
-31.7
-26.38
-23.69
-22.65
-22.57
-23.18
-24.45
-26.38
-28.8
-31.38
-33.61
-35.04
-35.37
-34.54
-32.72
-30.34
-28.06
-26.73
-27.13
-29.75
-34.66
-41.4
-49.29
-57.65
-66.09
-74.53
-83.01
-91.51
-99.83
-107.73
-114.98
-121.41
-126.7
-130.21
-130.92
-127.63
-119.56
-106.78
-90.4
-72.28
-54.46
-38.46
-24.95
-13.82
-4.61
2.97
8.81
12.59
14.09
13.61
11.92
10.05
8.77
8.36
8.64
9.33
10.35
11.97
14.6
18.32
22.64
26.63
29.29
30.11
29.33
27.83
26.67
26.61
27.81
29.81
31.82
33.03
32.79
30.8
27.12
22.3
17.36
13.74
12.99
16.33
24.17
35.88
49.98
64.66
78.35
90.04
99.3
105.97
109.95
111
109.04
104.32
97.58
89.89
82.3
75.54
69.79
64.82
60.17
55.52
50.74
45.94
41.3
36.92
32.68
28.29
23.34
17.61
11.22
4.66
-1.39
-6.34
-10.08
-13.01
-15.92
-19.67
-24.8
-31.33
-38.74
-46.13
-52.46
-56.75
-58.27
-56.62
-51.83
-44.34
-34.94
-24.57
-14.1
-4.11
5.07
13.23
20
24.69
26.43
24.44
18.62
9.79
-0.25
-9.15
-14.83
-16.11
-13.14
-7.29
-0.62
4.92
7.99
8.19
5.91
1.96
-2.78
-7.64
-12.16
-16.04
-19.08
-21.07
-22.01
-22.13
-21.94
-22.02
-22.86
-24.4
-26
-26.47
-24.47
-19.15
-10.51
0.31
11.46
21.02
27.85
31.96
34.35
36.42
39.12
42.62
46.33
49.41
51.32
52.12
52.28
52.46
53.26
55.2
58.72
64.16
71.38
79.55
87.02
91.7
91.66
85.84
74.33
58.29
39.37
19.24
-0.8
-19.94
-37.74
-53.96
-68.34
-80.46
-89.66
-95.17
-96.51
-93.72
-87.67
-79.62
-70.84
-62.06
-53.35
-44.34
-34.77
-24.85
-15.26
-6.85
-0.17
4.77
8.44
11.56
15
19.65
26.47
35.94
47.46
58.91
66.71
67.01
57.17
37.06
9.18
-22.21
-52.63
-78.76
-98.87
-112.59
-120.24
-122.39
-119.92
-114.2
-107.11
-100.58
-95.94
-93.43
-92.24
-91.21
-89.55
-87.27
-85.03
-83.37
-82.1
-80.02
-75.41
-66.85
-53.99
-37.86
-20.41
-3.85
10.07
20.29
26.42
28.58
27.18
23.01
17.24
11.22
6.16
2.89
1.68
2.27
4.06
6.3
8.18
9.05
8.37
5.94
1.8
-3.76
-10.37
-17.57
-24.68
-30.74
-34.44
-34.56
-30.41
-22.24
-11.35
0.44
11.32
20.18
26.72
31.28
34.38
36.45
37.74
38.51
39.14
40.03
41.48
43.44
45.63
47.75
49.79
51.99
54.63
57.63
60.3
61.48
59.94
54.91
46.47
35.44
23.04
10.44
-1.56
-12.61
-22.69
-32
-40.82
-49.44
-58.02
-66.47
-74.29
-80.55
-84.12
-84.11
-80.25
-73.14
-64.1
-54.62
-45.75
-37.64
-29.6
-20.62
-10.01
2.12
14.85
26.84
36.84
44.09
48.32
49.59
48.23
44.73
39.9
34.81
30.56
27.93
26.94
26.89
26.52
24.64
20.61
14.49
7.1
-0.43
-7.08
-12.18
-15.68
-18.06
-20.17
-22.86
-26.55
-30.91
-34.82
-36.77
-35.41
-30.27
-21.85
-11.59
-1.3
7.39
13.38
16.15
15.57
11.88
5.65
-2.11
-9.98
-16.45
-20.32
-21.1
-19.1
-15.13
-10
-4.33
1.61
7.66
13.62
19.22
24.34
29.08
33.67
38.24
42.54
45.92
47.67
47.44
45.46
42.4
38.9
35.06
30.29
23.69
14.59
3.1
-9.88
-22.94
-34.71
-44.12
-50.52
-53.45
-52.67
-48.2
-40.46
-30.37
-19.04
-7.36
4.29
16.13
28.45
41.03
52.87
62.33
67.86
68.78
65.67
60.2
54.43
49.9
47.17
45.79
44.77
43.09
40.24
36.13
30.91
24.76
17.71
9.88
1.64
-6.23
-12.81
-17.25
-19.18
-18.79
-16.72
-13.79
-10.79
-8.39
-7.16
-7.62
-10.15
-14.87
-21.57
-29.74
-38.76
-47.89
-56.38
-63.33
-67.76
-68.76
-65.78
-58.93
-48.92
-36.84
-23.79
-10.63
2.05
13.75
23.81
31.44
35.84
36.62
34.07
29.28
23.92
19.8
18.36
20.05
24.23
29.26
33.11
34.15
31.88
27.11
21.57
16.94
14
12.26
10.31
6.65
0.62
-7.28
-15.79
-23.72
-30.7
-37.38
-44.95
-54.45
-66.08
-78.96
-91.38
-101.37
-107.23
-107.93
-103.45
-94.68
-83.28
-71.25
-60.33
-51.6
-45.27
-40.85
-37.56
-34.79
-32.42
-30.75
-30.27
-31.35
-33.9
-37.4
-40.95
-43.62
-44.81
-44.41
-42.91
-41.11
-39.83
-39.6
-40.58
-42.63
-45.49
-49.01
-52.95
-56.92
-60.13
-61.33
-59.25
-53.16
-43.41
-31.67
-20.33
-11.76
-7.28
-6.81
-8.96
-11.7
-13.19
-12.34
-9.08
-3.99
2.26
9.49
18.29
29.84
45.06
63.93
85.03
105.8
123.54
136.28
143.45
145.69
144.01
139.11
131.05
119.66
105.15
88.58
71.62
56.05
43.14
33.3
26.34
21.62
18.45
16.24
14.51
12.93
11.25
9.35
7.12
4.46
1.27
-2.39
-6.35
-10.27
-13.9
-17.15
-20.29
-23.83
-28.23
-33.53
-39.17
-43.99
-46.61
-45.88
-41.32
-33.33
-23
-11.79
-1.16
7.76
14.3
18.21
19.64
18.98
16.8
13.65
10.1
6.68
3.83
1.92
1.1
1.14
1.41
1.08
-0.53
-3.64
-7.8
-12.09
-15.55
-17.59
-18.23
-17.95
-17.27
-16.6
-16
-15.37
-14.63
-13.9
-13.38
-13.36
-14.07
-15.65
-18.1
-21.16
-24.28
-26.65
-27.34
-25.53
-20.92
-13.82
-5.21
3.6
11.39
17.34
21.27
23.34
23.85
22.86
20.25
15.93
10.14
3.64
-2.29
-6.26
-7.04
-3.95
3.13
13.76
26.96
41.28
54.92
66.05
73.29
76.09
74.89
70.85
65.41
59.77
54.66
50.39
46.96
44.23
41.96
39.85
37.66
35.39
33.37
32.19
32.36
34.02
36.77
39.87
42.51
44.23
45.02
45.24
45.53
46.49
48.68
52.55
58.34
65.99
74.93
84
91.74
96.69
97.87
95
88.54
79.42
68.78
57.57
46.42
35.62
25.28
15.51
6.53
-1.29
-7.66
-12.56
-16.46
-20.34
-25.34
-32.31
-41.22
-50.98
-59.69
-65.37
-66.7
-63.71
-57.78
-51.11
-45.87
-43.4
-43.81
-46.06
-48.64
-50.19
-50.09
-48.49
-46.05
-43.45
-41.09
-38.95
-36.89
-34.88
-33.24
-32.57
-33.44
-36.13
-40.54
-46.31
-53.15
-61.05
-70.24
-80.89
-92.74
-104.88
-116.07
-125.19
-131.83
-136.3
-139.27
-141.05
-141.09
-138.06
-130.44
-117.46
-99.65
-78.84
-57.5
-37.79
-20.89
-6.9
4.71
14.6
23.02
29.89
34.95
38.2
40
41.09
42.31
44.3
47.25
50.89
54.61
57.75
59.89
60.94
61.19
61.11
61.12
61.5
62.25
63.19
63.99
64.15
63.09
60.21
55.22
48.4
40.74
33.84
29.33
28.42
31.42
37.84
46.66
56.79
67.33
77.64
87.14
95.23
101.33
105.03
106.32
105.64
103.78
101.49
99.38
97.7
96.47
95.53
94.61
93.22
90.68
86.13
78.87
68.66
55.98
42.02
28.32
16.27
6.64
-0.51
-5.73
-9.78
-13.27
-16.5
-19.37
-21.38
-21.78
-19.7
-14.53
-6.38
3.55
12.95
18.95
18.97
11.71
-2.51
-21.91
-44.03
-66.51
-87.62
-106.21
-121.42
-132.43
-138.44
-139.05
-134.59
-126.27
-115.85
-105.08
-95.07
-86.05
-77.46
-68.51
-58.67
-48.15
-37.86
-29.19
-23.58
-22.11
-25.23
-32.67
-43.45
-55.93
-68.11
-78.13
-84.79
-87.92
-88.37
-87.48
-86.3
-85.02
-82.88
-78.73
-71.81
-62.42
-51.8
-41.63
-33.18
-26.86
-22.16
-18.17
-14.19
-10.13
-6.52
-4.19
-3.83
-5.65
-9.26
-13.85
-18.46
-22.18
-24.35
-24.58
-22.73
-18.83
-13.19
-6.33
0.96
7.82
13.4
17.15
18.98
19.23
18.54
17.64
17.06
16.98
17.23
17.37
16.9
15.49
13.19
10.45
7.99
6.52
6.5
7.95
10.48
13.48
16.37
18.78
20.67
22.27
23.99
26.17
29.04
32.7
37
41.6
45.98
49.6
52.02
53.18
53.42
53.41
53.96
55.67
58.73
62.87
67.47
71.87
75.56
78.44
80.7
82.86
85.56
89.3
94.16
99.49
103.83
105.21
101.91
93.24
80.2
65.19
51.17
40.38
33.42
29.15
25.48
20.53
13.51
4.87
-4.31
-13.09
-21.14
-28.76
-36.32
-43.9
-51.04
-57.04
-61.32
-63.71
-64.52
-64.25
-63.45
-62.39
-61.07
-59.3
-56.91
-53.83
-50.22
-46.43
-42.88
-39.87
-37.5
-35.62
-33.95
-32.27
-30.53
-28.86
-27.5
-26.71
-26.68
-27.5
-29.24
-31.85
-35.2
-39.05
-43.11
-47.19
-51.18
-55.17
-59.19
-63.11
-66.45
-68.41
-68.05
-64.78
-58.59
-50.17
-40.67
-31.23
-22.64
-15.11
-8.23
-1.46
5.47
12.31
18.49
23.43
27.01
29.58
31.76
34.37
37.78
41.66
45.14
47.38
48.1
47.8
47.4
47.73
49.72
53.58
58.58
63.14
65.64
65.19
61.97
56.91
51.13
46.33
43.55
42.47
41.33
38.03
31.42
22
11.7
3.14
0.02
5.35
20.1
42.84
70.58
100.09
128.44
152.99
164.03
153.98
122.37
77.66
31.84
-6.6
-35.3
-56.29
-72.98
-87.75
-99.61
-105.26
-101.96
-89.78
-71.7
-52.17
-35.37
-23.91
-18.53
-17.83
-19.25
-20.63
-21.25
-21.56
-22.16
-23.15
-24.12
-24.52
-23.53
-20.85
-17.18
-14.26
-13.91
-17.04
-23.06
-30.13
-35.87
-37.91
-34.9
-27.12
-16.45
-5.44
3.72
9.89
13.18
14.46
14.98
15.75
17.11
18.79
20.23
21.02
21.17
21
20.96
21.34
22.08
22.89
23.35
23.24
22.63
21.88
21.43
21.52
22.11
22.76
22.97
22.34
20.82
18.72
16.5
14.55
12.97
11.5
9.65
6.84
2.68
-2.93
-9.82
-17.54
-25.5
-33.04
-39.52
-44.36
-47.18
-47.84
-46.46
-43.47
-39.41
-34.87
-30.26
-25.7
-21.08
-16.16
-10.81
-5.14
0.5
5.73
10.34
14.4
18.24
22.12
26.08
29.82
32.91
34.97
35.91
35.84
34.99
33.5
31.35
28.54
25.19
21.62
18.15
14.88
11.62
7.97
3.76
-0.77
-5.02
-8.3
-10.22
-10.89
-10.67
-9.89
-8.59
-6.66
-4.27
-2.24
-1.99
-5.08
-12.37
-23.43
-36.52
-49.32
-59.87
-67.38
-72.38
-76.1
-79.64
-83.21
-86.07
-86.97
-84.97
-79.9
-72.46
-63.82
-55.02
-46.74
-39.2
-32.51
-26.81
-22.39
-19.44
-17.87
-17.26
-16.97
-16.45
-15.38
-13.81
-12.17
-11.07
-11.08
-12.5
-15.11
-18.07
-20.17
-20.08
-16.92
-10.67
-2.13
7.29
16.2
23.61
29.24
33.3
36.25
38.36
39.6
39.77
38.71
36.58
33.76
30.82
28.21
26.12
24.5
23.2
22.14
21.29
20.56
19.72
18.28
15.74
11.79
6.57
0.68
-4.93
-9.37
-12.07
-13.07
-13
-12.97
-14.32
-18.21
-25.27
-35.07
-45.98
-55.18
-59.4
-56.03
-44.18
-25.2
-2.36
20.28
39.18
52.39
59.71
62.24
61.47
58.6
54.24
48.6
41.75
33.95
25.77
18.1
12.04
8.5
7.86
9.67
12.76
15.63
17.08
16.65
14.64
11.76
8.63
5.46
2.06
-1.8
-6.12
-10.49
-14.37
-17.34
-19.4
-21.02
-22.91
-25.7
-29.57
-34.09
-38.32
-41.03
-41.14
-38.01
-31.61
-22.56
-11.96
-1.14
8.65
16.4
21.59
24.15
24.49
23.23
21.04
18.49
15.97
13.76
12.11
11.26
11.38
12.51
14.53
17.14
20
22.69
24.83
26.03
25.97
24.41
21.34
17.09
12.21
7.43
3.31
0.04
-2.61
-5.17
-8.21
-12.09
-16.83
-22.11
-27.33
-31.79
-34.83
-36.03
-35.23
-32.6
-28.55
-23.61
-18.33
-13.08
-8.11
-3.53
0.5
3.66
5.53
5.69
4.05
1.13
-1.9
-3.43
-2.05
2.9
10.97
20.73
30.36
38.26
43.46
45.65
45.03
42.03
37.31
31.75
26.35
21.96
18.94
16.99
15.36
13.2
9.96
5.6
0.33
-5.54
-11.78
-18.1
-23.89
-28.15
-29.71
-27.72
-22.15
-13.84
-4.33
4.85
12.66
18.83
23.68
27.84
31.72
35.34
38.41
40.55
41.55
41.49
40.69
39.57
38.45
37.46
36.61
35.83
35.1
34.44
33.88
33.36
32.65
31.48
29.59
26.88
23.49
19.73
16.03
12.66
9.71
6.97
4.09
0.74
-3.24
-7.66
-12.15
-16.15
-19.13
-20.64
-20.34
-18.03
-13.74
-7.74
-0.67
6.58
13
17.75
20.41
20.98
19.77
17.1
13.16
8.1
2.23
-3.68
-8.45
-10.8
-9.87
-5.74
0.34
6.37
10.31
10.86
7.98
2.73
-3.21
-8.24
-11.3
-11.98
-10.39
-6.94
-2.21
3.06
7.93
11.43
12.89
12.28
10.38
8.63
8.64
11.67
18.11
27.47
38.58
50.08
60.79
69.9
76.93
81.58
83.74
83.56
81.57
78.75
76.35
75.45
76.54
79.18
82.03
83.21
81
74.49
63.84
50.21
35.2
20.31
6.49
-5.98
-17.3
-27.93
-38.45
-49.49
-61.76
-75.83
-92.02
-110.08
-129.28
-148.5
-166.47
-182.07
-194.49
-203.32
-208.67
-210.95
-210.7
-208.06
-202.56
-193.1
-178.41
-157.71
-131.21
-100.41
-67.83
-36.6
-9.73
10.5
23.1
28.72
29.41
27.93
26.94
28.17
32.16
38.55
46.75
56.39
67.35
79.53
92.43
105.12
116.5
125.64
132.05
135.79
137.25
137.02
135.69
133.75
131.44
128.66
125.05
120.23
114.08
106.83
98.8
89.97
79.75
67.18
51.48
32.75
12.13
-8.51
-27.33
-43.22
-56.05
-66.55
-75.59
-83.79
-91.16
-97.33
-101.79
-104.31
-104.92
-104.02
-102.16
-99.87
-97.52
-95.27
-93
-90.48
-87.41
-83.53
-78.72
-73.03
-66.73
-60.31
-54.43
-49.7
-46.55
-44.94
-44.35
-43.87
-42.44
-39.13
-33.35
-25.01
-14.52
-2.65
9.58
21.18
31.34
39.68
46.12
50.78
53.87
55.56
55.99
55.35
53.86
51.84
49.66
47.68
46.25
45.77
46.56
48.73
52
55.56
58.22
58.65
55.79
49.16
38.86
25.48
9.84
-7.14
-24.52
-41.25
-56.33
-68.79
-77.91
-83.25
-84.73
-82.6
-77.33
-69.58
-60.19
-50.17
-40.54
-32.29
-26.1
-22.29
-20.73
-21.02
-22.55
-24.77
-27.2
-29.44
-31.12
-31.82
-31.17
-28.93
-25.05
-19.86
-13.9
-7.93
-2.61
1.55
4.27
5.53
5.51
4.52
2.9
0.96
-1.12
-3.32
-5.8
-8.77
-12.41
-16.83
-22
-27.87
-34.23
-40.68
-46.56
-50.99
-53.09
-52.21
-48.31
-41.97
-34.28
-26.45
-19.37
-13.45
-8.59
-4.47
-0.91
1.97
3.88
4.52
3.86
2.22
0.15
-1.76
-3.07
-3.63
-3.5
-2.81
-1.79
-0.73
0.05
0.14
-0.71
-2.57
-5.15
-7.93
-10.3
-11.77
-12.22
-11.88
-11.37
-11.37
-12.48
-14.95
-18.62
-22.91
-26.92
-29.55
-29.8
-26.99
-21.1
-12.72
-2.97
6.87
15.76
23.06
28.61
32.47
34.82
35.81
35.64
34.7
33.44
32.33
31.56
31.01
30.38
29.39
28.05
26.68
25.72
25.48
25.89
26.53
26.83
26.34
24.91
22.71
20.18
17.75
15.75
14.35
13.44
12.75
11.77
9.95
6.87
2.52
-2.61
-7.46
-10.62
-10.67
-6.66
1.56
13.19
26.5
39.28
49.39
55.38
56.82
54.32
49.13
42.52
35.35
27.96
20.36
12.62
5.14
-1.49
-6.7
-10.33
-12.69
-14.52
-16.58
-19.45
-23.36
-28.19
-33.57
-39.03
-44.06
-48.3
-51.62
-54.31
-57.04
-60.8
-66.51
-74.62
-84.77
-95.61
-105.08
-110.85
-111.06
-104.87
-92.72
-76.1
-57.17
-38.19
-21.04
-7.05
3.19
9.74
13.21
14.57
14.85
14.78
14.69
14.54
14.1
13.18
11.79
10.2
8.78
7.92
7.86
8.69
10.28
12.36
14.56
16.49
17.83
18.31
17.8
16.34
14.23
11.93
9.92
8.41
7.1
5.23
1.8
-3.83
-11.62
-20.63
-29.21
-35.46
-37.69
-34.87
-26.9
-14.67
0.09
15.21
28.67
39.09
45.97
49.71
51.09
50.93
49.79
47.95
45.59
42.97
40.46
38.39
36.94
36.04
35.44
34.87
34.17
33.34
32.36
31.14
29.48
27.15
24.02
20.22
16.15
12.27
8.96
6.33
4.21
2.17
-0.31
-3.74
-8.47
-14.49
-21.3
-27.88
-32.83
-34.76
-32.73
-26.59
-17.1
-5.56
6.52
17.89
27.68
35.39
40.81
43.88
44.77
43.86
41.67
38.75
35.5
32.16
28.85
25.75
23.14
21.32
20.47
20.5
21.08
21.75
22.19
22.19
21.65
20.49
18.55
15.68
11.89
7.44
2.85
-1.28
-4.54
-6.84
-8.53
-10.3
-12.92
-16.95
-22.52
-29.2
-36.04
-41.73
-44.98
-44.8
-40.79
-33.31
-23.38
-12.39
-1.73
7.54
14.9
20.39
24.35
27.12
28.89
29.58
29.17
27.78
25.88
24.14
23.12
23.05
23.7
24.56
25.15
25.25
25.06
24.96
25.2
25.67
25.8
24.85
22.24
17.89
12.33
6.43
1.1
-3.16
-6.42
-9.25
-12.52
-16.94
-22.88
-30.14
-38.03
-45.49
-51.17
-53.73
-52.15
-46.01
-35.85
-23.12
-9.85
2.03
11.25
17.57
21.59
24.27
26.28
27.89
28.95
29.24
28.77
27.82
26.76
25.83
25.07
24.38
23.71
23.1
22.67
22.44
22.38
22.35
22.27
22.09
21.72
20.97
19.5
17
13.33
8.72
3.7
-1.1
-5.29
-8.89
-12.36
-16.42
-21.69
-28.46
-36.44
-44.8
-52.25
-57.34
-58.82
-56.08
-49.36
-39.75
-28.92
-18.57
-9.96
-3.61
0.67
3.44
5.31
6.63
7.41
7.56
6.9
5.3
2.6
-1.43
-6.82
-13.2
-19.51
-24.19
-25.57
-22.5
-14.89
-3.75
9.17
22.05
33.55
43.05
50.45
55.96
59.74
61.78
61.97
60.2
56.47
51.05
44.43
37.24
30.1
23.33
16.97
10.96
5.43
1.08
-0.99
0.36
5.7
14.56
25.56
36.92
47.24
55.78
62.56
67.85
71.67
73.68
73.33
70.21
64.41
56.54
47.49
38.18
29.31
21.22
14
7.65
2.15
-2.46
-6.13
-8.94
-11.15
-13.19
-15.59
-18.74
-22.8
-27.53
-32.44
-36.96
-40.73
-43.7
-46.27
-49.12
-53.01
-58.49
-65.65
-73.95
-82.31
-89.35
-93.72
-94.44
-91.03
-83.41
-71.84
-56.85
-39.22
-20.06
-0.68
17.49
33.21
45.48
53.51
56.73
54.86
48.13
37.54
24.93
12.48
2.11
-5.29
-10.15
-13.98
-18.56
-25.17
-33.92
-43.79
-53.05
-60.1
-64.03
-64.9
-63.58
-61.33
-59.23
-57.9
-57.51
-57.94
-59.05
-60.76
-63.05
-65.8
-68.81
-71.87
-74.98
-78.32
-82
-85.82
-89.01
-90.26
-88.08
-81.46
-70.29
-55.59
-39.13
-22.86
-8.27
3.92
13.83
22.19
29.87
37.56
45.57
53.94
62.59
71.39
80.18
88.79
97.2
105.37
113.07
119.88
125.32
129.09
131.17
131.64
130.61
128.51
125.74
122.46
118.67
114.47
110.29
106.61
103.49
100.32
96.74
92.4
86.98
80.25
72.22
63.17
53.31
42.4
29.74
15.75
1.64
-10.65
-18.89
-20.9
-14.98
-0.7
20.48
38.76
45
34.84
11.46
-17.55
-45.15
-67.24
-82.5
-91.27
-94.64
-92.85
-86.5
-77.04
-67.68
-62.01
-62.24
-67.93
-76.25
-83.38
-85.63
-81.55
-72.48
-61.91
-53.5
-49.95
-52.19
-59.6
-70.95
-84.55
-98.93
-112.71
-124.6
-133.16
-137.04
-135.32
-128.06
-116.34
-101.63
-85.4
-68.84
-52.86
-38.13
-25.13
-14.24
-5.81
-0.05
3.13
4.29
4.29
4.06
4.39
5.74
8.14
11.24
14.46
17.22
19.1
20.03
20.16
19.82
19.37
19.05
19
19.13
19.22
18.89
17.78
15.55
12.04
7.3
1.73
-3.98
-8.77
-11.49
-11.08
-7
0.59
10.75
22
32.78
41.83
48.49
52.68
54.81
55.39
54.89
53.52
51.27
48.04
43.89
39.18
34.66
31.27
29.8
30.63
33.54
37.79
42.44
46.63
49.89
52.06
53.18
53.24
52.06
49.24
44.36
37.18
27.7
16.21
3.16
-10.95
-25.63
-40.28
-54.11
-66.06
-74.94
-79.85
-80.48
-77.34
-71.65
-64.94
-58.59
-53.47
-49.86
-47.56
-46.07
-44.72
-42.66
-38.96
-32.64
-22.9
-9.32
7.91
27.88
49.04
69.52
87.46
101.55
111.36
117.5
121.24
123.87
126.13
127.84
128.15
126.06
121.09
113.49
104.03
93.45
81.98
69.19
54.32
36.93
17.51
-2.38
-20.36
-34
-41.64
-42.96
-38.95
-31.52
-22.78
-14.31
-6.9
-0.63
4.71
9.32
13.14
15.94
17.46
17.65
16.69
15.03
13.35
12.42
12.93
15.26
19.31
24.54
30.14
35.31
39.54
42.56
44.25
44.42
42.74
38.99
33.31
26.4
19.49
13.77
9.96
7.87
6.56
4.76
1.47
-3.62
-10.08
-17.04
-23.51
-28.62
-31.72
-32.29
-30.08
-25.18
-18.22
-10.33
-2.77
3.49
8.14
11.55
14.43
17.42
20.72
23.99
26.56
27.77
27.18
24.8
20.94
16.07
10.68
5.26
0.14
-4.44
-8.38
-11.69
-14.42
-16.7
-18.67
-20.44
-22.16
-23.88
-25.58
-27.06
-28.02
-28.06
-26.98
-24.97
-22.66
-21.03
-21.01
-23.11
-27.1
-32.04
-36.51
-39.13
-38.92
-35.58
-29.58
-21.92
-13.8
-6.2
0.31
5.66
10.06
13.78
16.9
19.4
21.3
22.81
24.41
26.56
29.37
32.47
35.1
36.52
36.36
34.83
32.55
30.17
28.13
26.5
25.16
24.01
22.98
22
20.84
19.04
16.01
11.36
5.19
-1.86
-8.72
-14.45
-18.67
-21.7
-24.42
-27.65
-31.57
-35.48
-38.1
-38.25
-35.63
-31.02
-25.91
-21.79
-19.4
-18.47
-18.1
-17.34
-15.82
-13.91
-12.34
-11.78
-12.42
-13.88
-15.49
-16.53
-16.44
-14.89
-11.59
-6.29
1.2
10.75
21.72
32.77
41.96
47.36
47.65
42.72
33.78
22.84
11.91
2.28
-5.84
-13.05
-20.22
-27.9
-36.02
-44
-51.09
-56.69
-60.38
-61.98
-61.43
-58.92
-55
-50.55
-46.75
-44.8
-45.68
-50.01
-57.93
-68.91
-81.69
-94.25
-104.17
-109.34
-108.72
-102.86
-93.55
-83.04
-72.87
-63.29
-53.49
-42.55
-30.42
-18.38
-8.49
-2.58
-1.32
-3.86
-8.46
-13.35
-17.55
-21.04
-24.28
-27.68
-31.16
-34.23
-36.28
-37.1
-36.94
-36.31
-35.55
-34.42
-32.07
-27.34
-19.34
-7.84
6.48
22.27
37.9
51.82
62.88
70.47
74.49
75.37
73.9
71.05
67.63
64
60
55.16
49.1
41.93
34.42
27.82
23.43
22.07
23.87
28.18
33.82
39.34
43.3
44.57
42.43
36.69
27.77
16.67
4.65
-7.01
-17.27
-25.45
-31.32
-35.11
-37.55
-39.53
-41.73
-44.31
-46.79
-48.16
-47.32
-43.53
-36.65
-27.41
-16.86
-6.16
3.63
11.54
16.78
18.97
18.25
15.31
10.6
4.77
-1.46
-7.56
-13.37
-18.91
-24.22
-29.14
-33.43
-37.97
-43.15
-48.63
-53.62
-57.67
-60.91
-63.86
-67.07
-70.89
-76.93
-85.55
-95.63
-105.42
-113.85
-120.97
-127.48
-133.93
-140.44
-148.62
-158.36
-167.35
-172.05
-169.52
-158.51
-139.62
-115.01
-74.5
-18.7
42.42
95.51
132.75
154.11
163.89
167.05
167.58
168.09
167.75
165.57
160.89
153.44
142.81
128.73
112.06
95.05
80.33
67.92
57.02
46.66
36.28
25.81
15.74
7.05
1.35
-0.7
-0.54
0.23
0.65
0.73
0.83
1.13
1.7
2.42
3.15
3.4
3.22
3.14
3.89
5.87
9.15
13.63
19.3
26.05
33.41
40.62
46.75
50.93
52.74
52.34
50.43
47.9
45.39
43.06
40.85
38.66
36.64
35.15
34.4
34.25
34.07
33.01
30.38
25.95
19.97
12.93
5.27
-2.73
-10.97
-19.37
-27.83
-36.26
-44.56
-52.59
-59.99
-66.04
-69.68
-69.93
-66.21
-58.73
-48.46
-36.77
-24.99
-14.08
-4.52
3.4
9.46
13.42
15.13
14.71
12.71
9.98
7.36
5.4
4.09
3.03
1.6
-0.68
-3.96
-8.01
-12.36
-16.49
-19.93
-22.38
-23.71
-23.91
-23.12
-21.55
-19.43
-17.02
-14.52
-11.92
-9.01
-5.21
0.25
8.09
18.58
31.22
44.74
57.5
68.02
75.52
80.06
82.15
82.38
80.91
77.53
71.94
64.24
55.16
45.9
37.74
31.48
27.24
24.47
22.29
19.89
16.9
13.37
9.72
6.39
3.67
1.6
0.06
-1.1
-1.92
-2.45
-2.85
-3.65
-5.78
-10.27
-17.83
-28.38
-40.77
-52.95
-62.61
-67.75
-67.35
-61.44
-51.02
-37.59
-22.84
-8.36
4.44
14.47
21.21
24.88
26.45
27.34
28.79
31.38
34.76
37.94
39.96
40.54
40.26
40.27
41.64
44.68
48.71
52.27
53.77
52.06
46.83
38.47
27.75
15.43
2.06
-11.92
-25.92
-38.95
-49.6
-56.3
-57.79
-53.49
-43.89
-30.36
-14.9
0.45
14.07
25.08
33.38
39.42
43.86
47.23
49.73
51.27
51.63
50.65
48.35
44.95
40.79
36.25
31.68
27.35
23.5
20.23
17.58
15.36
13.13
10.27
6.07
0.02
-8.04
-17.79
-28.55
-39.54
-50.1
-59.78
-68.14
-74.64
-78.45
-78.65
-74.65
-66.52
-55.12
-41.91
-28.5
-16.15
-5.65
2.74
9.12
13.69
16.66
18.21
18.53
17.8
16.29
14.25
11.99
9.73
7.66
5.85
4.33
3.05
1.96
0.95
-0.18
-1.69
-3.86
-6.86
-10.55
-14.53
-18.23
-21.28
-23.72
-26.09
-29.19
-33.65
-39.44
-45.83
-51.48
-54.95
-55.16
-51.72
-44.95
-35.71
-25.17
-14.51
-4.8
3.19
8.99
12.54
14.14
14.2
13.19
11.38
8.91
5.89
2.49
-0.94
-3.93
-6.12
-7.36
-7.83
-7.94
-8.11
-8.63
-9.54
-10.72
-12
-13.25
-14.44
-15.6
-16.85
-18.32
-20.32
-23.22
-27.33
-32.65
-38.64
-44.13
-47.65
-47.86
-44.06
-36.52
-26.3
-14.91
-3.73
6.27
14.71
21.59
27.05
31.24
34.21
35.96
36.55
36.05
34.62
32.51
30.07
27.74
25.94
24.88
24.48
24.31
23.84
22.59
20.38
17.39
13.94
10.38
6.83
3.28
-0.42
-4.44
-8.9
-13.87
-19.32
-25.06
-30.57
-35.03
-37.38
-36.73
-32.62
-25.38
-15.99
-5.85
3.68
11.62
17.58
21.66
24.25
25.71
26.25
25.87
24.5
22.17
19.16
15.93
13.06
10.99
9.89
9.7
10.18
11.06
12.11
13.06
13.61
13.42
12.21
9.91
6.68
2.83
-1.26
-5.34
-9.31
-13.28
-17.45
-21.87
-26.34
-30.29
-32.87
-33.24
-30.82
-25.59
-18.11
-9.34
-0.34
8
15.24
21.22
25.98
29.46
31.51
31.96
30.85
28.54
25.73
23.19
21.46
20.65
20.37
20.08
19.37
18.26
17.11
16.4
16.32
16.64
16.78
16.08
14.18
11.09
7.14
2.82
-1.49
-5.57
-9.4
-13
-16.47
-19.95
-23.67
-27.83
-32.49
-37.33
-41.58
-44.18
-44.08
-40.72
-34.2
-25.36
-15.36
-5.41
3.66
11.41
17.67
22.35
25.29
26.32
25.45
23.02
19.67
16.18
13.23
11.15
9.93
9.28
8.82
8.25
7.45
6.42
5.36
4.48
3.98
3.92
4.11
4.24
3.88
2.78
0.94
-1.39
-3.81
-6.08
-8.17
-10.3
-12.77
-15.8
-19.41
-23.46
-27.74
-31.95
-35.6
-38
-38.3
-35.77
-30.15
-21.85
-11.9
-1.57
8.01
16.14
22.59
27.33
30.39
31.78
31.58
30.07
27.72
25.14
22.83
21.08
19.96
19.34
19.03
18.81
18.5
18
17.35
16.59
15.76
14.78
13.44
11.5
8.81
5.47
1.82
-1.67
-4.72
-7.25
-9.46
-11.74
-14.46
-17.89
-22.12
-26.97
-32.04
-36.57
-39.65
-40.32
-37.97
-32.51
-24.47
-14.86
-4.89
4.35
12.1
17.96
21.88
24
24.56
23.85
22.14
19.77
17.13
14.67
12.79
11.73
11.39
11.51
11.64
11.47
10.9
10.06
9.16
8.29
7.35
6.05
4.05
1.19
-2.39
-6.3
-10.04
-13.17
-15.49
-17.14
-18.58
-20.41
-23.19
-27.24
-32.44
-38.18
-43.46
-47.06
-47.87
-45.26
-39.28
-30.66
-20.61
-10.47
-1.29
6.34
12.3
16.73
19.81
21.6
22.14
21.51
20.04
18.28
16.77
15.91
15.71
15.97
16.39
16.78
17.17
17.69
18.44
19.33
19.99
19.93
18.72
16.17
12.45
8.03
3.6
-0.18
-2.94
-4.68
-5.81
-6.98
-8.89
-12.04
-16.54
-22.07
-27.87
-32.91
-35.97
-36.09
-32.77
-26.2
-17.27
-7.33
2.18
10.12
15.92
19.53
21.31
21.7
21.11
19.72
17.6
14.74
11.23
7.29
3.28
-0.39
-3.35
-5.44
-6.69
-7.31
-7.49
-7.41
-7.18
-6.95
-6.95
-7.46
-8.76
-10.95
-13.84
-17.04
-20.09
-22.66
-24.75
-26.74
-29.28
-32.94
-37.98
-44.02
-50.01
-54.47
-55.89
-53.31
-46.7
-37.01
-25.75
-14.54
-4.51
3.84
10.53
15.77
19.68
22.24
23.39
23.26
22.14
20.48
18.69
16.98
15.48
14.26
13.43
13.14
13.4
14.05
14.72
14.95
14.39
12.92
10.62
7.74
4.55
1.27
-1.93
-5.04
-8.15
-11.51
-15.37
-19.91
-24.93
-29.78
-33.4
-34.66
-32.75
-27.54
-19.61
-10.06
-0.16
9.03
16.83
22.89
27.17
29.7
30.64
30.17
28.53
26
22.95
19.8
17.04
15.07
14.14
14.15
14.71
15.2
15.08
14.08
12.23
9.82
7.18
4.49
1.77
-1.03
-4.04
-7.35
-11.12
-15.56
-20.86
-26.95
-33.31
-38.89
-42.27
-42.16
-37.88
-29.71
-18.86
-7.04
4.08
13.34
20.38
25.42
28.91
31.22
32.44
32.43
31.04
28.25
24.31
19.71
14.98
10.53
6.56
3.03
-0.18
-3.16
-5.83
-7.92
-9.14
-9.3
-8.52
-7.22
-6.02
-5.57
-6.34
-8.49
-11.94
-16.36
-21.21
-25.84
-29.42
-31.09
-30.15
-26.34
-19.93
-11.71
-2.74
6.07
14.08
21.01
26.7
31.03
33.81
34.89
34.3
32.36
29.65
26.84
24.55
23.22
22.99
23.74
25.05
26.26
26.59
25.38
22.37
17.77
12.16
6.24
0.57
-4.72
-9.79
-15.01
-20.75
-27.17
-34.18
-41.33
-47.83
-52.62
-54.66
-53.16
-47.92
-39.43
-28.78
-17.38
-6.62
2.53
9.63
14.76
18.29
20.71
22.31
23.15
23.15
22.22
20.44
18.19
16.07
14.73
14.58
15.68
17.68
19.93
21.72
22.44
21.74
19.58
16.21
11.93
7.08
1.83
-3.74
-9.63
-15.81
-22.32
-29.21
-36.47
-43.93
-51.05
-56.86
-60.19
-60.09
-56.27
-49.29
-40.49
-31.47
-23.53
-17.35
-12.99
-10.12
-8.39
-7.7
-8.14
-9.79
-12.52
-15.94
-19.53
-22.86
-25.7
-27.99
-29.63
-30.34
-29.75
-27.56
-23.86
-19.26
-14.74
-11.3
-9.62
-9.98
-12.32
-16.53
-22.44
-29.83
-38.32
-47.27
-56.05
-64.17
-71.49
-78.06
-83.93
-88.84
-92.17
-93.13
-91.06
-85.72
-77.31
-66.39
-53.54
-39.33
-24.18
-8.61
6.79
21.23
33.91
44.25
52.08
57.8
62.25
66.47
71.33
77.28
84.25
91.7
98.92
105.32
110.62
114.96
118.65
121.94
124.77
126.83
127.63
126.82
124.35
120.38
115.13
108.67
100.89
91.54
80.54
68.06
54.62
40.96
27.86
16.06
6.19
-1.22
-5.82
-7.52
-6.55
-3.49
0.81
5.43
9.51
12.33
13.48
12.83
10.54
7.01
2.76
-1.75
-6.17
-10.24
-13.8
-16.75
-19.1
-20.98
-22.6
-24.16
-25.69
-27.08
-28.11
-28.59
-28.4
-27.48
-25.76
-23.09
-19.37
-14.66
-9.26
-3.77
1.11
4.73
6.61
6.52
4.53
1.03
-3.2
-7.16
-9.89
-10.72
-9.49
-6.56
-2.53
1.92
6.33
10.44
14.16
17.46
20.32
22.65
24.32
25.18
25.2
24.46
23.32
22.27
21.83
22.32
23.73
25.78
28.1
30.57
33.27
36.49
40.34
44.53
48.28
50.54
50.45
47.66
42.45
35.56
27.96
20.44
13.55
7.56
2.5
-1.85
-5.94
-10.43
-15.93
-22.62
-30.05
-37.19
-42.82
-46.17
-47.18
-46.56
-45.19
-43.67
-41.91
-39.32
-35.18
-29.17
-21.58
-13.17
-4.79
3
10.04
16.49
22.54
28.27
33.54
38.15
41.96
44.99
47.33
49.02
49.94
49.78
48.17
44.92
40.09
34.11
27.59
21.21
15.51
10.89
7.51
5.36
4.23
3.71
3.2
1.95
-0.64
-4.94
-10.7
-17.17
-23.13
-27.36
-28.98
-27.75
-24.15
-19.09
-13.59
-8.45
-4.17
-0.89
1.41
2.82
3.5
3.66
3.67
3.98
5.03
7.15
10.44
14.7
19.53
24.41
28.9
32.77
35.94
38.35
39.71
39.51
37.17
32.36
25.29
16.75
7.9
-0.14
-6.61
-11.31
-14.57
-17.06
-19.48
-22.36
-25.95
-30.17
-34.6
-38.7
-41.79
-43.28
-42.7
-39.84
-34.73
-27.69
-19.32
-10.43
-1.95
5.31
10.78
14.33
16.17
16.73
16.41
15.5
14.09
12.12
9.55
6.37
2.77
-1.02
-4.72
-8.11
-11.04
-13.44
-15.34
-16.92
-18.55
-20.72
-23.89
-28.27
-33.76
-39.97
-46.38
-52.62
-58.45
-63.92
-69.22
-74.65
-80.53
-87.14
-94.42
-101.67
-107.46
-109.8
-106.86
-97.69
-82.77
-63.96
-43.88
-25.01
-8.92
3.94
14
21.99
28.48
33.67
37.54
39.95
40.9
40.63
39.49
37.89
36.13
34.44
32.95
31.82
31.4
32.09
34.19
37.65
41.95
46.22
49.44
50.87
50.18
47.42
42.86
36.82
29.59
21.47
12.82
4.12
-3.99
-10.78
-15.5
-17.51
-16.56
-12.95
-7.63
-1.95
2.76
5.68
6.7
6.26
5.02
3.49
1.84
0.1
-1.62
-3.02
-3.7
-3.44
-2.36
-0.9
0.32
0.85
0.42
-0.96
-3.27
-6.46
-10.52
-15.31
-20.52
-25.68
-30.3
-33.98
-36.57
-38.22
-39.27
-40.22
-41.38
-42.69
-43.6
-43.23
-40.67
-35.38
-27.53
-17.93
-7.72
2.09
10.96
18.87
26.04
32.59
38.36
42.94
45.86
46.78
45.64
42.69
38.51
33.94
29.98
27.52
27.12
28.79
32.05
36.07
39.97
43.07
44.89
45.22
44.04
41.56
38.13
34.22
30.15
26.02
21.71
17.18
12.67
8.81
6.42
6.04
7.64
10.5
13.55
15.81
16.79
16.6
15.75
14.77
13.91
12.86
10.91
7.26
1.46
-6.36
-15.38
-24.42
-32.39
-38.69
-43.44
-47.33
-51.23
-55.78
-61.21
-67.29
-73.54
-79.34
-84
-86.84
-87.25
-84.94
-80.15
-73.7
-66.8
-60.49
-55.25
-50.67
-45.62
-38.72
-28.84
-15.55
0.86
19.63
39.67
59.82
78.75
94.96
106.88
113.33
113.91
109.38
101.5
92.38
83.74
76.33
69.83
63.11
54.89
44.18
30.58
14.23
-4.28
-24.01
-43.85
-62.73
-79.89
-95.14
-108.82
-121.61
-134.11
-146.61
-158.99
-170.92
-182.05
-192.18
-201.14
-208.91
-215.5
-221.1
-225.91
-229.77
-231.86
-230.35
-222.74
-206.63
-180.77
-145.81
-104.52
-61.12
-20.16
14.74
41.68
60.5
72.17
78.01
79.13
76.37
70.67
63.44
56.63
52.23
51.52
54.46
59.66
64.99
68.44
68.95
66.57
62.06
56.34
49.96
43.07
35.64
27.87
20.43
14.42
11.05
11.19
15.04
22.05
31.13
41.06
50.9
60.2
68.98
77.52
85.9
93.77
100.22
104.05
104.24
100.43
93.11
83.32
72.22
60.6
48.68
36.25
23.09
9.28
-4.47
-16.87
-26.38
-31.51
-31.38
-25.97
-16.32
-4.2
8.28
19.39
28.24
34.94
40.18
44.64
48.46
51.15
51.9
50.13
45.74
39.16
31
21.68
11.35
0.1
-11.7
-23.19
-33.09
-40.11
-43.31
-42.17
-36.48
-26.38
-12.35
4.47
22.26
38.82
52.23
61.39
66.16
66.93
64.02
57.38
46.84
32.9
17.3
2.81
-7.71
-12.5
-11.67
-6.94
-0.59
5.67
11.33
16.9
23.13
30.19
37.25
42.72
45.01
43.37
38.19
30.92
23.35
16.83
11.67
7.15
1.91
-5.07
-13.73
-22.78
-30.13
-33.79
-32.73
-27.32
-19.14
-10.5
-3.38
1.29
3.52
3.87
2.83
0.54
-3.23
-8.66
-15.88
-24.08
-31.61
-36.7
-38.53
-37.71
-36.04
-35.6
-37.81
-43.32
-51.13
-58.97
-64.7
-67.4
-67.81
-67.61
-68.38
-70.77
-75.05
-80.23
-84.38
-85.71
-83.26
-77.01
-67.31
-54.55
-34.52
-7.57
21.43
46.17
63.02
72.15
75.9
76.74
76.22
74.69
71.57
66.3
59.57
52.9
47.59
44.03
41.66
39.53
36.77
32.51
26.88
21.02
16.28
13.25
11.46
9.95
7.93
5.28
2.33
-0.05
-0.81
0.65
4.01
8.26
12.27
15.36
17.41
18.55
19
18.87
18.07
16.3
13.17
8.38
1.62
-7.53
-19.55
-34.59
-51.98
-70.04
-86.54
-99.3
-106.89
-108.84
-105.53
-97.63
-85.87
-71.01
-54.17
-36.98
-21.35
-8.88
-0.31
4.76
7.56
9.49
11.49
13.74
15.79
16.9
16.47
14.22
10.35
5.41
0.14
-4.78
-8.98
-12.38
-15.2
-17.78
-20.44
-23.36
-26.65
-30.34
-34.35
-38.55
-42.59
-46.08
-48.66
-50.16
-50.66
-50.4
-49.62
-48.44
-46.91
-45.04
-42.93
-40.6
-37.91
-34.4
-29.38
-22.24
-12.86
-1.78
9.87
20.86
30.25
37.8
43.84
48.99
53.72
58.1
61.85
64.49
65.66
65.26
63.56
61.02
58.28
55.92
54.4
53.95
54.57
56.07
58.16
60.49
62.78
64.81
66.47
67.79
68.9
69.92
70.81
71.19
70.21
66.74
59.67
48.4
33.24
15.56
-2.49
-18.38
-29.8
-35.11
-33.55
-25.38
-11.81
5.16
23.05
39.31
51.65
58.38
58.59
52.37
40.97
26.71
12.56
1.43
-4.74
-5.53
-1.99
4.08
11.17
18.81
27.51
38.11
50.77
64.44
77.07
86.34
90.79
90.34
86.32
80.8
75.78
72.45
70.84
69.84
67.47
61.31
49.11
29.49
2.73
-28.86
-61.24
-89.61
-109.92
-120.11
-120.72
-114.27
-104.12
-93.15
-83.13
-74.77
-68.26
-63.92
-62.17
-63.36
-67.24
-72.82
-78.57
-83.07
-85.58
-86.33
-86.32
-86.76
-88.44
-91.34
-94.75
-97.59
-99.08
-99.05
-98.01
-96.88
-96.54
-97.48
-99.55
-102.12
-104.17
-104.69
-102.86
-98.39
-91.63
-83.41
-74.74
-66.19
-57.55
-47.74
-35.2
-18.63
2.25
26.48
52.06
76.64
98.32
116.11
129.88
140.05
147.08
151.22
152.49
150.95
146.9
140.96
133.93
126.56
119.38
112.68
106.5
100.88
95.86
91.49
87.81
84.74
82.15
79.9
77.86
75.93
73.96
71.71
68.85
65.1
60.37
54.87
49.04
43.34
38.09
33.39
29.32
26.2
24.61
25.1
27.62
31.12
33.65
33.24
28.87
21.18
12.33
5.07
1.49
2.07
5.73
10.42
14.18
15.69
14.57
11.11
6.01
0.21
-5.17
-9.07
-10.76
-10.08
-7.55
-4.26
-1.49
-0.55
-2.49
-7.97
-16.98
-28.57
-40.88
-51.61
-58.79
-61.64
-61.03
-59.02
-57.91
-58.98
-61.82
-64.55
-64.74
-60.75
-52.48
-41.42
-29.84
-19.76
-12.05
-6.37
-1.64
3.1
8.1
12.74
16.07
17.37
16.68
14.77
12.76
11.59
11.73
13.22
15.78
19.11
22.89
26.6
29.39
30.16
27.97
22.55
14.62
5.75
-2.27
-8.17
-11.71
-13.62
-15.09
-17.19
-20.43
-24.65
-29.27
-33.56
-36.77
-38.26
-37.52
-34.27
-28.71
-21.47
-13.67
-6.45
-0.78
2.89
4.62
4.95
4.63
4.39
4.76
5.91
7.7
9.71
11.39
12.33
12.3
11.33
9.73
7.84
5.97
4.24
2.61
0.89
-1.13
-3.56
-6.37
-9.49
-12.77
-16.14
-19.5
-22.78
-25.96
-29.07
-32.32
-35.88
-39.88
-44.01
-47.61
-49.67
-49.2
-45.61
-38.98
-30.04
-19.99
-10.04
-1.15
6.16
11.76
15.71
18.18
19.35
19.47
18.88
18.03
17.39
17.3
17.91
19.18
20.86
22.57
23.89
24.42
23.84
22.01
19.03
15.21
10.93
6.52
2.09
-2.44
-7.21
-12.34
-17.74
-23.17
-28.25
-32.57
-35.68
-37.24
-36.98
-34.83
-31.02
-26.04
-20.57
-15.32
-10.83
-7.36
-4.88
-3.04
-1.37
0.63
3.27
6.58
10.21
13.58
16.09
17.32
17.3
16.42
15.31
14.55
14.43
14.9
15.63
16.21
16.27
15.62
14.33
12.69
11.1
9.85
8.96
8.04
6.31
2.87
-3.02
-11.68
-22.78
-35.34
-47.97
-59.21
-67.82
-73.11
-74.95
-73.67
-69.81
-63.88
-56.26
-47.25
-37.28
-26.97
-17.2
-8.91
-2.8
0.8
1.98
1.12
-1.18
-4.31
-7.58
-10.3
-11.91
-12.14
-11.14
-9.55
-8.26
-8.08
-9.32
-11.49
-13.53
-14.18
-12.73
-9.44
-5.43
-2.14
-0.57
-0.81
-2.22
-3.97
-5.74
-7.83
-10.73
-14.46
-18.19
-20.6
-20.62
-18.23
-14.43
-10.57
-7.25
-3.7
1.83
10.99
24.03
39.25
53.53
63.63
67.51
64.98
57.41
46.94
35.69
25.38
17.32
12.41
11.06
12.81
16.26
19.28
19.77
16.53
9.78
0.94
-8.06
-15.73
-21.55
-25.92
-29.74
-33.87
-38.79
-44.56
-50.96
-57.63
-64.14
-70.01
-74.62
-77.29
-77.38
-74.44
-68.3
-59.14
-47.44
-33.91
-19.47
-5.17
7.88
18.7
26.58
31.07
32.12
29.94
25.15
18.69
11.88
6.08
2.36
1.12
1.96
3.96
6.13
8.01
9.83
12.27
15.81
20.18
24.18
26.03
24.2
18.11
8.64
-1.97
-10.74
-14.77
-12.12
-2.4
13.08
31.59
49.69
64.13
72.71
74.81
71.42
64.65
56.97
50.38
45.93
43.65
42.86
42.68
42.38
41.64
40.35
38.46
35.87
32.55
28.75
25.06
22.24
20.95
21.31
22.89
24.86
26.51
27.51
28.09
28.8
30.11
32.17
34.74
37.44
39.98
42.35
44.79
47.63
51.02
54.77
58.14
59.83
58.28
52.06
40.43
23.59
2.71
-20.47
-44.1
-66.48
-86.13
-101.62
-111.65
-115.28
-112.38
-103.94
-91.95
-78.82
-66.57
-56.22
-47.72
-40.44
-33.82
-27.84
-23.04
-20.18
-19.69
-21.42
-24.57
-28.09
-31.03
-32.86
-33.48
-33.1
-31.96
-30.24
-28.06
-25.64
-23.39
-21.86
-21.44
-22.04
-22.95
-23.02
-21.14
-16.79
-10.31
-2.81
4.21
9.47
12.15
12.05
9.53
5.43
0.91
-2.7
-4.09
-2.31
2.99
11.47
22.2
33.98
45.58
56.06
64.87
71.83
77.06
80.8
83.19
84.33
84.15
82.62
79.96
76.52
72.76
68.96
65.26
61.58
57.87
54.14
50.42
46.57
42.21
36.8
29.89
21.36
11.5
0.85
-10.12
-21.2
-32.41
-43.74
-54.96
-65.4
-74.26
-80.77
-84.47
-85.2
-83.01
-77.96
-70.21
-60.09
-48.33
-36.12
-24.8
-15.57
-9.06
-5.3
-3.8
-3.93
-5.17
-7.22
-9.89
-12.92
-15.99
-18.71
-20.82
-22.33
-23.43
-24.36
-25.24
-26
-26.41
-26.32
-25.85
-25.34
-25.2
-25.65
-26.47
-27.08
-26.73
-24.9
-21.55
-17.07
-12.14
-7.41
-3.36
-0.18
2.17
3.99
6.01
9.36
15.4
25.08
38.3
53.49
67.94
78.62
83.36
81.63
74.47
63.93
52
40.09
28.9
18.73
9.82
2.53
-2.93
-6.61
-8.85
-10.09
-10.55
-10.13
-8.53
-5.53
-1.27
3.68
8.47
12.21
14.21
14.13
12
8.1
2.81
-3.47
-10.48
-17.97
-25.65
-32.97
-39.12
-43.07
-43.92
-41.14
-34.84
-25.81
-15.2
-4.29
5.87
14.56
21.37
25.99
28.21
27.83
24.97
20.13
14.19
8.19
3.05
-0.67
-2.84
-3.68
-3.61
-3.13
-2.71
-2.78
-3.6
-5.24
-7.53
-10.16
-12.88
-15.65
-18.68
-22.32
-26.85
-32.27
-38.2
-43.9
-48.46
-50.9
-50.52
-46.97
-40.44
-31.64
-21.65
-11.67
-2.72
4.54
9.92
13.56
15.76
16.87
17.11
16.71
15.87
14.8
13.7
12.71
11.86
11.04
10.04
8.64
6.72
4.31
1.58
-1.19
-3.82
-6.3
-8.84
-11.8
-15.52
-20.16
-25.65
-31.67
-37.62
-42.75
-46.22
-47.15
-44.92
-39.33
-30.75
-20.11
-8.6
2.71
13.09
22.32
30.48
37.71
43.96
49.04
52.7
54.85
55.71
55.71
55.41
55.24
55.4
55.81
56.18
56.12
55.24
53.18
49.68
44.53
37.63
28.94
18.59
6.88
-5.68
-18.4
-30.52
-41.33
-50.15
-56.46
-59.8
-59.86
-56.64
-50.5
-42.23
-32.84
-23.33
-14.49
-6.71
-0.13
5.25
9.35
12.02
13.14
12.74
11.13
8.82
6.45
4.52
3.24
2.54
2.13
1.72
1.11
0.31
-0.6
-1.56
-2.62
-4
-5.97
-8.72
-12.34
-16.77
-21.81
-27.22
-32.72
-38.01
-42.75
-46.49
-48.76
-49.07
-46.99
-42.32
-35.26
-26.46
-16.95
-7.85
0.01
6.14
10.53
13.33
14.72
14.81
13.79
12.05
10.32
9.55
10.6
13.94
19.5
26.63
34.39
41.86
48.37
53.58
57.48
60.19
61.73
61.93
60.36
56.55
50.19
41.32
30.35
17.94
4.91
-7.88
-19.53
-29.1
-35.69
-38.78
-38.46
-35.54
-31.37
-27.39
-24.64
-23.51
-23.78
-25.02
-26.9
-29.38
-32.5
-36.2
-40.01
-43.12
-44.67
-44.14
-41.54
-37.42
-32.61
-27.91
-23.8
-20.46
-17.75
-15.45
-13.28
-11.02
-8.49
-5.49
-1.89
2.29
6.75
10.99
14.4
16.68
18.09
19.58
22.61
28.61
38.47
52.11
68.44
85.71
102.05
115.98
126.65
133.89
137.95
139.31
138.43
135.78
131.75
126.76
121.26
115.75
110.72
106.61
103.68
101.98
101.29
100.9
99.68
96.08
88.53
75.87
57.78
34.96
9.01
-17.92
-43.8
-67.11
-87.23
-104.33
-119.02
-131.96
-143.45
-153.22
-160.48
-164.22
-163.6
-158.53
-149.56
-137.78
-124.56
-111.22
-98.86
-88.15
-79.37
-72.52
-67.75
-64.84
-63.32
-62.64
-62.42
-62.49
-62.82
-63.34
-63.89
-64.73
-65.75
-66.59
-66.95
-66.8
-66.37
-65.98
-65.88
-66.01
-66.55
-66.7
-64.82
-58.99
-48.02
-32.19
-13.36
5.5
25.27
44.26
60.2
71.89
80.22
86.96
93.11
98.36
101.73
102.49
100.17
95.27
88.62
81.04
73.08
65.03
57.09
49.26
41.18
31.52
19.83
6.23
-8.19
-21.44
-31.25
-35.74
-34.03
-26.47
-14.7
-0.61
13.95
27.4
38.4
45.94
49.77
50.63
50.24
50.65
53.58
59.73
68.56
78.47
87.12
91.98
90.62
81.24
63.27
38.09
9.21
-18.3
-39.27
-50.1
-49.93
-40.77
-26.59
-11.8
0.01
6.74
7.78
3.64
-4.46
-14.84
-25.52
-34.55
-40.38
-42.21
-40.01
-34.55
-26.96
-18.42
-9.86
-1.79
5.67
12.53
18.74
24.13
28.35
31.05
32.1
31.61
30.04
28.04
26.35
25.54
25.85
26.96
27.86
27
22.65
13.53
-0.54
-18.31
-37.2
-54.03
-65.85
-70.84
-68.77
-60.91
-49.71
-38.05
-28.62
-23.38
-23.27
-28.16
-36.89
-47.64
-58.22
-66.54
-71.04
-71.14
-67.3
-60.9
-53.74
-47.47
-43.17
-41.12
-40.92
-41.67
-42.5
-42.81
-42.55
-42.22
-42.57
-44.3
-47.59
-51.79
-55.61
-57.47
-56.21
-51.54
-44.29
-36.05
-28.73
-23.99
-22.72
-24.65
-28.2
-30.57
-28.44
-19.07
-1.42
23.25
51.62
79.61
103.77
122.45
135.79
144.99
151.25
155.11
156.48
155.16
151.36
145.77
139.44
133.36
128.23
124.52
122.43
122.03
123.11
125.02
126.59
126.35
122.82
114.94
102.46
86.21
68.09
50.95
37.92
31.56
33.09
41.87
55.4
70.09
82.18
88.8
88.52
81.59
69.73
55.55
41.87
30.99
24.16
21.29
21.13
21.75
21.22
18.27
12.51
4.51
-4.48
-13.04
-20
-24.88
-28.15
-31.19
-35.82
-43.56
-54.88
-68.99
-84.14
-98.49
-110.96
-121.59
-131.28
-140.97
-150.86
-160.17
-167.5
-171.65
-172.31
-170.29
-167.16
-164.49
-163.2
-163.33
-164.17
-164.76
-164.31
-162.47
-159.34
-155.4
-151.28
-147.55
-144.46
-141.67
-138.13
-132.3
-122.55
-107.81
-88.04
-64.31
-38.45
-12.46
12
33.91
52.74
68.09
79.5
86.3
88.02
84.76
77.46
67.91
58.37
50.87
46.66
45.88
47.68
50.73
53.78
56.05
57.39
58.04
58.23
58.03
57.13
55.07
51.55
46.7
41.15
35.8
31.4
28.19
25.78
23.4
20.15
15.49
9.37
2.31
-4.72
-10.61
-14.3
-15.04
-12.56
-7.14
0.44
9.12
17.74
25.3
31.03
34.51
35.67
34.66
31.89
27.9
23.28
18.56
14.1
10.08
6.5
3.12
-0.43
-4.64
-9.87
-16.22
-23.36
-30.64
-37.41
-43.42
-49.02
-55.03
-62.29
-71.13
-81.09
-91.13
-100.18
-107.76
-114.22
-120.57
-127.82
-136.39
-145.89
-155.4
-163.86
-170.54
-175.01
-177.02
-176.29
-172.69
-166.47
-158.43
-149.69
-141.07
-132.47
-122.68
-109.84
-92.32
-69.63
-42.62
-13.03
17.43
47.75
77.69
107.25
135.76
161.61
182.65
197.28
205.54
209.41
212.07
216.27
222.86
230.27
235.29
234.74
227.1
212.93
194.14
172.63
149.24
123.63
95.27
64.45
32.85
3.05
-22.55
-42.72
-57.7
-68.67
-76.74
-82.24
-84.74
-83.48
-78.26
-69.82
-59.64
-49.34
-39.94
-31.67
-24.27
-17.61
-12.03
-8.26
-6.81
-7.39
-8.79
-9.34
-7.8
-3.95
1.34
6.71
11.12
14.38
17.03
19.92
23.55
27.76
31.84
34.93
36.45
36.24
34.4
31.06
26.11
19.14
9.68
-2.54
-17.34
-34.02
-51.34
-67.74
-81.54
-91.21
-95.7
-94.68
-88.67
-78.97
-67.3
-55.44
-44.75
-36.05
-29.53
-24.89
-21.59
-19
-16.59
-13.98
-11
-7.69
-4.19
-0.69
2.71
6.1
9.71
13.78
18.51
23.91
29.84
36.06
42.35
48.48
54.19
59.11
62.72
64.54
64.27
61.91
57.77
52.22
45.54
37.7
28.5
17.83
6.03
-5.9
-16.46
-23.93
-26.94
-24.9
-18.22
-8.19
3.41
14.78
24.55
31.99
37.07
40.17
41.79
42.31
41.88
40.5
38.16
35.06
31.67
28.69
26.74
26.27
27.26
29.34
31.91
34.4
36.57
38.41
40.1
41.71
43.09
43.97
44.1
43.5
42.4
41
39.14
36.24
31.62
24.99
17
9.28
4
2.98
6.85
14.77
24.72
34.24
41.31
44.82
44.62
41.27
35.61
28.6
21.11
13.95
7.69
2.54
-1.74
-5.75
-10.21
-15.52
-21.58
-27.79
-33.23
-36.98
-38.38
-37.14
-33.41
-27.84
-21.44
-15.6
-11.72
-11.05
-14.32
-21.57
-32.01
-44.04
-55.45
-63.84
-67.12
-64.14
-54.99
-41.04
-24.53
-7.92
6.74
18.19
25.99
30.33
31.85
31.34
29.55
27.12
24.41
21.58
18.7
15.91
13.44
11.55
10.33
9.56
8.8
7.6
5.74
3.41
1.11
-0.72
-1.83
-2.38
-2.75
-3.39
-4.67
-6.83
-10.03
-14.28
-19.33
-24.4
-28.23
-29.42
-26.9
-20.42
-10.69
0.82
12.46
22.87
31.29
37.45
41.33
42.93
42.2
39.28
34.54
28.75
22.85
17.74
14.04
11.9
11.07
10.98
11.05
10.86
10.33
9.62
8.95
8.37
7.65
6.38
4.11
0.63
-4.01
-9.54
-15.63
-22.05
-28.61
-34.94
-40.47
-44.38
-45.81
-44.16
-39.36
-31.87
-22.69
-13.04
-4.13
3.18
8.53
12.08
14.27
15.56
16.23
16.24
15.35
13.38
10.3
6.39
2.19
-1.72
-4.84
-6.91
-8
-8.53
-9.14
-10.68
-13.85
-19.07
-26.21
-34.59
-43.2
-51.03
-57.41
-62.27
-66.2
-70.15
-74.97
-81
-87.62
-93.15
-95.05
-90.63
-77.83
-56.13
-26.89
6.88
41.29
72.84
99.2
119.59
134.48
144.93
151.93
156.12
157.88
157.52
155.49
152.37
148.79
145.36
142.52
140.63
139.96
140.64
142.58
145.29
147.78
148.64
146.35
139.72
128.5
113.67
97.37
82.31
70.81
64.01
61.47
61.34
61.11
58.59
52.7
43.76
33.3
23.38
15.89
11.92
11.52
13.92
17.93
22.42
26.6
30.23
33.31
35.95
38.15
39.81
40.85
41.4
41.78
42.44
43.77
45.89
48.64
51.59
54.18
55.91
56.35
55.26
52.49
48.14
42.49
36.05
29.45
23.32
18.04
13.72
10.09
6.63
2.77
-2.03
-8.09
-15.57
-24.42
-34.42
-45.1
-55.7
-65.22
-72.54
-76.78
-77.53
-75.03
-70.08
-63.76
-57.18
-51.22
-46.44
-43.16
-41.55
-41.64
-43.45
-46.93
-51.95
-58.29
-65.57
-73.34
-81.05
-88.28
-94.77
-100.52
-105.68
-110.4
-114.73
-118.47
-121.35
-123.2
-124.17
-124.68
-125.33
-126.61
-128.65
-131.24
-133.96
-136.44
-138.52
-140.25
-141.71
-142.92
-143.8
-144.33
-144.69
-145.11
-145.78
-146.37
-146.07
-143.7
-138.28
-129.48
-117.86
-104.7
-91.57
-79.77
-70.03
-62.54
-57.13
-53.55
-51.58
-51.06
-51.72
-53.24
-55.24
-57.41
-59.58
-61.76
-64.07
-66.67
-69.67
-73.06
-76.7
-80.37
-83.83
-86.97
-89.73
-92.26
-94.82
-97.73
-101.2
-105.29
-109.86
-114.59
-119.15
-123.15
-126.32
-128.45
-129.45
-129.32
-128.18
-126.09
-123
-118.59
-112.21
-103.08
-90.41
-73.74
-53.11
-29.24
-3.41
22.65
47.1
68.38
85.48
98.21
107.07
113.04
117.15
120.19
122.63
124.85
127.25
130.23
134.01
138.31
142.23
144.64
144.64
142.1
137.74
132.84
128.59
125.64
123.88
122.68
121.3
119.07
115.45
109.95
102.14
91.8
79.11
64.82
50.1
36.24
24.12
13.97
5.2
-3.17
-12.05
-21.72
-31.62
-40.35
-46.07
-47.16
-42.66
-32.7
-18.45
-1.82
15.03
30.21
42.53
51.6
57.68
61.32
63.06
63.19
61.94
59.69
57.1
54.94
53.85
53.9
54.57
54.96
54.26
52.1
48.63
44.37
39.9
35.62
31.61
27.73
23.7
19.22
14.03
7.98
1.13
-6.31
-13.91
-21.19
-27.67
-33.07
-37.32
-40.73
-43.96
-47.77
-52.78
-59.09
-66.03
-72.19
-75.75
-75.1
-69.36
-58.74
-44.52
-28.64
-13.14
0.37
10.97
18.51
23.38
26.25
27.79
28.67
29.3
29.99
30.79
31.56
32.1
32.27
32.02
31.48
30.77
29.99
29.15
28.27
27.39
26.61
25.98
25.3
24.2
22.2
18.97
14.51
9.3
4.06
-0.61
-4.49
-7.82
-11.15
-14.98
-19.53
-24.7
-30.25
-35.93
-41.46
-46.41
-50.04
-51.29
-49.15
-43.13
-33.55
-21.59
-8.85
3.18
13.51
21.74
27.88
31.97
34.06
34.14
32.31
28.96
24.8
20.75
17.69
16.2
16.34
17.73
19.75
21.88
23.88
25.77
27.66
29.46
30.81
31.12
29.92
27.16
23.34
19.27
15.72
13.03
10.96
8.88
5.99
1.67
-4.45
-12.48
-22.27
-33.3
-44.64
-54.84
-62.23
-65.4
-63.69
-57.47
-48.06
-37.2
-26.49
-17.01
-9.25
-3.3
0.95
3.62
4.97
5.36
5.28
5.22
5.5
6.16
7.14
8.29
9.57
10.99
12.49
13.96
15.17
15.78
15.56
14.38
12.32
9.63
6.6
3.48
0.4
-2.68
-5.97
-9.71
-14.2
-19.66
-26.17
-33.55
-41.25
-48.25
-53.14
-54.37
-50.67
-41.57
-27.69
-10.63
7.44
24.42
38.9
50.32
58.87
65.16
69.75
73.17
75.94
78.8
82.76
88.72
96.98
106.84
116.6
124.06
127.28
125.29
118.31
107.53
94.46
80.49
66.56
53.26
40.92
29.69
19.43
9.73
-0.01
-10.35
-21.48
-33.25
-45.13
-56.42
-66.3
-73.76
-77.71
-77.17
-71.63
-61.38
-47.65
-32.24
-16.97
-3.29
7.95
16.25
21.17
22.21
19.14
12.24
2.63
-8.02
-17.98
-25.98
-31.53
-34.76
-36.15
-36.16
-35.18
-33.55
-31.62
-29.79
-28.29
-27.07
-25.82
-24.12
-21.8
-19.11
-16.69
-15.32
-15.53
-17.38
-20.39
-23.67
-26.23
-27.23
-26.14
-22.84
-17.58
-10.83
-3.17
4.81
12.57
19.56
25.19
28.89
30.22
29.06
25.67
20.74
15.22
10.13
6.31
4.29
4.2
5.81
8.51
11.52
14.08
15.65
16.12
15.73
14.92
14.03
13.09
11.78
9.67
6.43
2.1
-2.82
-7.46
-10.79
-11.83
-9.85
-4.58
3.68
14.09
25.4
36.23
45.41
52.19
56.27
57.66
56.48
52.88
47.14
39.77
31.62
23.72
17.03
12.08
8.84
6.77
5.06
3.02
0.26
-3.19
-7.05
-10.93
-14.63
-18.2
-21.98
-26.38
-31.73
-38.19
-45.61
-53.57
-61.41
-68.2
-72.87
-74.33
-71.81
-65.12
-54.88
-42.41
-29.3
-16.92
-6.11
2.88
10.18
15.94
20.13
22.59
23.3
22.47
20.69
18.74
17.28
16.68
16.88
17.56
18.32
18.86
19.06
18.94
18.56
18.02
17.39
16.68
15.87
14.85
13.39
11.08
7.48
2.33
-4.29
-11.76
-18.98
-24.57
-27.28
-26.36
-21.81
-14.34
-5.14
4.5
13.5
21.08
26.86
30.67
32.58
32.77
31.56
29.32
26.41
23.09
19.59
16.08
12.75
9.9
7.79
6.52
5.96
5.68
5.25
4.3
2.7
0.58
-1.82
-4.32
-6.85
-9.5
-12.56
-16.31
-20.96
-26.59
-32.98
-39.58
-45.53
-49.76
-51.22
-49.19
-43.47
-34.61
-23.7
-12.17
-1.36
7.77
14.81
19.87
23.33
25.59
26.89
27.27
26.69
25.22
23.09
20.73
18.54
16.85
15.81
15.37
15.3
15.32
15.05
14.14
12.41
9.83
6.55
2.84
-0.98
-4.68
-8.1
-11.2
-14.06
-16.84
-19.89
-23.59
-28.2
-33.62
-39.07
-43.21
-44.41
-41.47
-34.1
-23.22
-10.62
1.74
12.36
20.73
27.13
32.18
36.3
39.43
41.16
41.14
39.4
36.45
33.07
30.03
27.78
26.39
25.68
25.35
25.13
24.84
24.34
23.54
22.24
20.28
17.51
13.9
9.57
4.89
0.31
-3.83
-7.38
-10.51
-13.67
-17.38
-22.07
-27.87
-34.46
-41.12
-46.75
-50.12
-50.16
-46.34
-38.85
-28.65
-17.18
-5.95
3.89
11.71
17.48
21.46
23.98
25.29
25.43
24.41
22.26
19.21
15.72
12.45
9.99
8.75
8.76
9.64
10.82
11.76
12.14
11.96
11.37
10.51
9.32
7.59
5.15
2.01
-1.63
-5.46
-9.32
-13.36
-17.85
-23.01
-28.67
-34.12
-38.23
-39.79
-37.92
-32.38
-23.65
-12.82
-1.31
9.46
18.35
