20.92
22.06
21.93
21.01
19.82
18.75
17.91
17.1
16.05
14.61
12.93
11.35
10.27
9.86
9.94
10.05
9.68
8.55
6.66
4.27
1.67
-0.98
-3.73
-6.71
-10.07
-13.92
-18.27
-23.05
-28.04
-32.86
-36.95
-39.7
-40.56
-39.22
-35.72
-30.45
-24.07
-17.36
-11.07
-5.82
-1.92
0.56
1.86
2.29
2.14
1.54
0.45
-1.18
-3.34
-5.81
-8.28
-10.46
-12.24
-13.76
-15.44
-17.62
-20.54
-24.06
-27.9
-31.68
-35.17
-38.18
-40.57
-42.17
-42.73
-42.27
-41.21
-40.35
-40.67
-42.85
-46.89
-52.05
-57.17
-61.09
-63.01
-62.68
-60.16
-55.71
-49.55
-42.02
-33.62
-25.16
-17.54
-11.57
-7.57
-5.2
-3.59
-1.57
1.86
7.27
14.7
23.74
33.76
44.15
54.36
63.98
72.67
80.08
85.93
89.98
92.21
92.83
92.33
91.43
90.84
91.04
92.09
93.48
94.42
94.07
91.88
87.81
82.47
76.83
71.98
68.65
66.97
66.35
65.65
63.62
59.41
52.98
45.11
37.09
30.16
25.12
22.11
20.91
21.18
22.74
25.47
29.14
33.18
36.76
39.07
39.6
38.39
35.89
32.69
29.14
25.29
20.99
16.16
10.9
5.58
0.67
-3.37
-6.26
-7.99
-8.78
-9.01
-9.09
-9.31
-9.72
-10.08
-10.01
-9.19
-7.64
-5.86
-4.72
-5.17
-7.8
-12.61
-18.96
-26
-32.91
-39.2
-44.59
-48.9
-51.8
-52.91
-51.89
-48.75
-43.9
-38.05
-31.9
-25.93
-20.3
-14.96
-9.83
-5.01
-0.75
2.63
4.88
6
6.17
5.75
5.14
4.55
4.1
3.65
3.06
2.25
1.27
0.26
-0.64
-1.4
-2.2
-3.28
-4.87
-7.06
-9.73
-12.59
-15.35
-17.87
-20.11
-22.29
-24.63
-27.37
-30.54
-33.98
-37.29
-39.95
-41.37
-41.13
-39.02
-35.1
-29.68
-23.25
-16.29
-9.28
-2.59
3.47
8.61
12.48
14.83
15.53
14.74
12.88
10.51
8.21
6.38
5.18
4.58
4.43
4.6
4.96
5.42
5.86
6.22
6.4
6.32
5.89
5.03
3.66
1.82
-0.37
-2.71
-5.04
-7.38
-9.81
-12.57
-15.8
-19.54
-23.67
-27.91
-31.9
-35.13
-37.12
-37.42
-35.79
-32.22
-27.02
-20.67
-13.72
-6.67
0.06
6.12
11.2
15.03
17.52
18.69
18.78
18.12
17.11
16.11
15.34
14.89
14.73
14.68
14.58
14.3
13.87
13.43
13.12
13.05
13.26
13.58
13.8
13.63
12.85
11.29
8.97
6.02
2.71
-0.63
-3.68
-6.31
-8.59
-10.81
-13.36
-16.59
-20.61
-25.21
-29.9
-34
-36.83
-37.82
-36.66
-33.32
-27.98
-21.07
-13.17
-5.08
2.44
8.71
13.38
16.45
18.27
19.25
19.7
19.7
19.18
18.1
16.61
15.08
13.95
13.52
13.82
14.55
15.29
15.72
15.69
15.33
14.86
14.48
14.19
13.88
13.33
12.38
10.99
9.24
7.23
5.04
2.66
0.04
-2.8
-5.81
-8.83
-11.71
-14.46
-17.22
-20.23
-23.64
-27.4
-31.1
-34.16
-35.94
-35.91
-33.82
-29.77
-24.17
-17.62
-10.79
-4.22
1.73
6.89
11.22
14.66
17.1
18.4
18.49
17.52
15.84
13.98
12.42
11.4
10.95
10.88
11.01
11.23
11.55
11.99
12.53
13.03
13.33
13.3
12.9
12.17
11.13
9.72
7.81
5.34
2.36
-0.92
-4.22
-7.31
-10.21
-13.09
-16.28
-20.02
-24.32
-28.86
-33.07
-36.18
-37.51
-36.58
-33.3
-27.96
-21.16
-13.61
-6
1.11
7.31
12.33
16.02
18.33
19.35
19.29
18.44
17.12
15.7
14.47
13.65
13.31
13.36
13.62
13.92
14.18
14.41
14.63
14.78
14.73
14.22
13.1
11.33
9.05
6.47
3.76
1.03
-1.61
-4.07
-6.31
-8.39
-10.56
-13.18
-16.53
-20.65
-25.26
-29.91
-34.15
-37.73
-40.57
-42.57
-43.46
-42.72
-39.82
-34.46
-26.89
-17.9
-8.6
-0.05
7.12
12.77
17.18
20.7
23.5
25.45
26.27
25.79
24.18
21.96
19.84
18.41
17.9
18.16
18.85
19.59
20.19
20.63
21.01
21.37
21.67
21.73
21.39
20.56
19.25
17.57
15.65
13.61
11.5
9.31
7.05
4.76
2.43
0.13
-2.21
-4.64
-7.27
-10.12
-13.06
-15.9
-18.46
-20.68
-22.71
-24.86
-27.53
-30.97
-35.11
-39.52
-43.43
-45.92
-46.15
-43.63
-38.42
-31.06
-22.45
-13.6
-5.31
1.89
7.83
12.58
16.3
19.1
21.08
22.3
22.89
23.01
22.83
22.46
21.93
21.22
20.41
19.68
19.28
19.44
20.24
21.52
22.97
24.2
24.92
25.01
24.47
23.34
21.67
19.52
16.97
14.16
11.28
8.47
5.82
3.36
1.11
-0.94
-2.78
-4.46
-6.01
-7.47
-8.91
-10.37
-11.88
-13.5
-15.36
-17.66
-20.62
-24.37
-28.76
-33.35
-37.41
-40.07
-40.57
-38.49
-33.92
-27.31
-19.42
-11.08
-3
4.28
10.38
15.1
18.36
20.2
20.82
20.5
19.54
18.19
16.68
15.2
13.91
13
12.56
12.69
13.36
14.47
15.84
17.22
18.27
18.66
18.16
16.76
14.69
12.4
10.27
8.48
6.86
5.05
2.72
-0.21
-3.53
-6.85
-9.9
-12.61
-15.13
-17.66
-20.36
-23.29
-26.51
-30.02
-33.77
-37.51
-40.68
-42.42
-41.92
-38.69
-32.79
-24.96
-16.27
-7.77
-0.21
6.11
11.2
15.24
18.35
20.54
21.76
21.95
21.15
19.54
17.51
15.58
14.29
13.96
14.57
15.73
16.85
17.43
17.35
16.88
16.51
16.57
17.02
17.4
17.14
15.89
13.76
11.22
8.8
6.76
5.02
3.16
0.76
-2.36
-6.07
-10
-13.71
-16.94
-19.73
-22.37
-25.32
-28.89
-33.13
-37.72
-41.97
-45.06
-46.24
-45.01
-41.26
-35.29
-27.63
-18.98
-10.05
-1.5
6.09
12.35
17.08
20.31
22.25
23.22
23.47
23.29
22.84
22.25
21.63
21.05
20.55
20.12
19.76
19.47
19.31
19.3
19.44
19.66
19.8
19.69
19.19
18.27
16.99
15.41
13.57
11.47
9.14
6.61
3.97
1.35
-1.18
-3.62
-6.04
-8.5
-10.97
-13.32
-15.38
-17.1
-18.68
-20.54
-23.25
-27.19
-32.24
-37.73
-42.52
-45.34
-45.23
-41.89
-35.7
-27.54
-18.44
-9.33
-0.85
6.58
12.66
17.16
19.89
20.84
20.27
18.69
16.76
15.08
14.04
13.66
13.69
13.74
13.56
13.15
12.81
12.94
13.79
15.27
16.87
17.95
17.95
16.76
14.66
12.23
9.96
8.08
6.46
4.8
2.81
0.42
-2.22
-4.88
-7.36
-9.67
-11.97
-14.52
-17.58
-21.27
-25.51
-29.99
-34.22
-37.61
-39.53
-39.46
-37.07
-32.35
-25.59
-17.46
-8.79
-0.5
6.73
12.43
16.51
19.08
20.39
20.73
20.29
19.3
17.92
16.41
15.02
13.99
13.42
13.28
13.47
13.81
14.18
14.47
14.66
14.74
14.72
14.57
14.24
13.66
12.76
11.51
9.85
7.64
4.81
1.3
-2.7
-6.88
-10.81
-14.16
-16.79
-18.86
-20.75
-22.92
-25.85
-29.76
-34.56
-39.8
-44.68
-48.18
-49.31
-47.4
-42.37
-34.7
-25.37
-15.46
-5.94
2.55
9.63
15.16
19.15
21.68
22.85
22.96
22.35
21.47
20.76
20.51
20.74
21.28
21.77
21.91
21.57
20.91
20.26
19.93
20.04
20.45
20.84
20.88
20.37
19.28
17.7
15.77
13.54
11.01
8.16
4.98
1.58
-1.84
-5.08
-7.98
-10.55
-12.96
-15.54
-18.59
-22.37
-26.92
-32.05
-37.28
-41.86
-44.91
-45.55
-43.28
-38.08
-30.54
-21.63
-12.42
-3.77
3.79
10.04
14.93
18.45
20.65
21.63
21.67
21.07
20.14
19.06
17.97
16.93
16.1
15.67
15.83
16.66
18.09
19.89
21.76
23.38
24.48
24.81
24.23
22.76
20.58
18.04
15.49
13.18
11.2
9.41
7.58
5.5
3.02
0.15
-3.04
-6.39
-9.72
-12.91
-15.9
-18.77
-21.72
-25.03
-28.9
-33.25
-37.59
-41.03
-42.62
-41.59
-37.71
-31.34
-23.29
-14.51
-5.8
2.29
9.39
15.25
19.59
22.23
23.18
22.67
21.21
19.37
17.61
16.23
15.28
14.7
14.42
14.32
14.36
14.52
14.76
15.06
15.39
15.74
16.05
16.2
15.96
15.02
13.15
10.27
6.55
2.42
-1.63
-5.15
-7.97
-10.15
-11.96
-13.7
-15.61
-17.9
-20.71
-24.2
-28.46
-33.38
-38.49
-43.01
-46.01
-46.65
-44.46
-39.44
-32.1
-23.32
-14.05
-5.15
2.82
9.54
14.87
18.81
21.45
22.86
23.24
22.88
22.1
21.19
20.38
19.74
19.29
18.97
18.8
18.82
19.16
19.87
20.9
22.05
22.96
23.21
22.53
20.88
18.54
16
13.7
11.87
10.37
8.81
6.74
3.89
0.31
-3.73
-7.85
-11.63
-14.86
-17.49
-19.76
-22.09
-25.02
-28.96
-33.92
-39.41
-44.38
-47.61
-48.08
-45.38
-39.81
-32.23
-23.68
-15.01
-6.7
1.02
7.99
13.91
18.46
21.37
22.71
22.86
22.37
21.7
21.07
20.46
19.82
19.2
18.81
18.92
19.62
20.77
21.99
22.85
23.06
22.56
21.53
20.24
18.9
17.67
16.54
15.4
14.07
12.35
10.1
7.27
4
0.5
-2.93
-6.08
-8.85
-11.33
-13.68
-16.12
-18.85
-22
-25.64
-29.76
-34.13
-38.27
-41.4
-42.67
-41.35
-37.23
-30.63
-22.39
-13.61
-5.25
2.08
8.17
13.07
16.87
19.57
21.06
21.27
20.28
18.44
16.26
14.3
12.95
12.37
12.45
12.97
13.66
14.37
15.04
15.63
16.12
16.39
16.27
15.65
14.48
12.82
10.82
8.62
6.21
3.53
0.5
-2.85
-6.35
-9.71
-12.69
-15.23
-17.54
-20.05
-23.24
-27.35
-32.23
-37.25
-41.42
-43.64
-43.04
-39.25
-32.52
-23.67
-13.82
-4.11
4.65
11.96
17.65
21.63
23.88
24.48
23.67
21.9
19.7
17.6
15.89
14.65
13.83
13.36
13.26
13.6
14.35
15.38
16.35
16.99
17.09
16.63
15.73
14.48
12.92
11.04
8.89
6.53
4.05
1.5
-1.23
-4.24
-7.58
-11.15
-14.67
-17.91
-20.78
-23.52
-26.55
-30.3
-34.82
-39.63
-43.75
-46.06
-45.63
-42.11
-35.85
-27.71
-18.74
-9.83
-1.55
5.86
12.27
17.56
21.58
24.15
25.28
25.13
24.04
22.45
20.74
19.25
18.15
17.54
17.46
17.91
18.89
20.3
21.96
23.57
24.75
25.15
24.58
23.05
20.82
18.24
15.58
12.99
10.41
7.72
4.81
1.72
-1.45
-4.52
-7.41
-10.1
-12.71
-15.5
-18.69
-22.5
-26.97
-31.95
-37.1
-41.81
-45.35
-47.03
-46.33
-43.07
-37.47
-30.06
-21.58
-12.87
-4.58
2.74
8.84
13.62
17.15
19.57
21.01
21.59
21.39
20.5
19.13
17.54
16.06
15
14.48
14.52
15.03
15.82
16.77
17.78
18.77
19.64
20.16
20.11
19.19
17.33
14.61
11.35
7.91
4.64
1.7
-0.99
-3.67
-6.6
-9.88
-13.46
-17.16
-20.84
-24.55
-28.41
-32.46
-36.41
-39.58
-41.06
-40.06
-36.22
-29.8
-21.6
-12.62
-3.85
4.04
10.7
15.99
19.83
22.19
23.08
22.61
21.05
18.81
16.37
14.16
12.53
11.64
11.5
12.03
13.09
14.51
16.06
17.45
18.37
18.57
17.95
16.54
14.45
11.83
8.78
5.42
1.93
-1.52
-4.75
-7.74
-10.6
-13.6
-17
-20.87
-25.15
-29.67
-34.24
-38.7
-42.81
-46.15
-48.03
-47.7
-44.61
-38.73
-30.65
-21.42
-12.18
-3.78
3.41
9.43
14.44
18.52
21.58
23.43
24.03
23.55
22.4
21.07
19.94
19.17
18.74
18.55
18.55
18.76
19.2
19.83
20.51
21
21.03
20.48
19.36
17.82
16
13.98
11.72
9.15
6.24
3.1
-0.1
-3.16
-6.02
-8.82
-11.77
-15.13
-19.08
-23.67
-28.76
-34.07
-39.17
-43.46
-46.29
-47.03
-45.28
-40.95
-34.36
-26.16
-17.15
-8.17
0.08
7.16
12.84
17.18
20.34
22.53
23.86
24.39
24.14
23.24
21.98
20.68
19.63
19
18.78
18.93
19.43
20.3
21.5
22.84
23.98
24.53
24.26
23.14
21.38
19.3
17.15
14.97
12.66
10.05
7.02
3.62
-0.04
-3.74
-7.26
-10.43
-13.17
-15.59
-17.96
-20.73
-24.32
-28.9
-34.23
-39.58
-43.93
-46.21
-45.73
-42.34
-36.47
-28.91
-20.52
-12.01
-3.87
3.55
9.99
15.19
18.92
21.11
21.84
21.39
20.09
18.34
16.51
15.01
14.23
14.39
15.5
17.22
18.98
20.22
20.6
20.15
19.19
18.13
17.17
16.28
15.21
13.73
11.77
9.45
6.98
4.51
1.99
-0.7
-3.76
-7.18
-10.86
-14.63
-18.44
-22.41
-26.69
-31.35
-36.02
-39.95
-42.14
-41.71
-38.25
-32.01
-23.81
-14.79
-5.99
1.87
8.46
13.78
17.86
20.71
22.23
22.36
21.26
19.34
17.21
15.43
14.33
13.94
13.98
14.14
14.2
14.19
14.28
14.61
15.21
15.91
16.47
16.64
16.29
15.35
13.83
11.79
9.26
6.29
2.96
-0.6
-4.26
-7.86
-11.38
-14.9
-18.61
-22.78
-27.58
-32.99
-38.72
-44.17
-48.53
-50.98
-50.92
-48.05
-42.55
-34.9
-25.79
-15.96
-6.16
2.94
10.79
16.97
21.3
23.85
24.91
24.93
24.37
23.61
22.85
22.24
21.78
21.44
21.2
21.05
21.03
21.15
21.4
21.65
21.75
21.51
20.91
20.06
19.13
18.2
17.11
15.51
13.04
9.52
5.12
0.33
-4.26
-8.14
-11.14
-13.39
-15.28
-17.3
-19.95
-23.67
-28.66
-34.76
-41.34
-47.33
-51.47
-52.69
-50.43
-44.81
-36.55
-26.73
-16.42
-6.54
2.29
9.68
15.44
19.58
22.32
23.98
24.91
25.33
25.29
24.72
23.65
22.25
20.9
20.05
19.99
20.79
22.2
23.82
25.21
26.07
26.28
25.88
24.94
23.53
21.66
19.39
16.79
14.02
11.21
8.44
5.64
2.69
-0.58
-4.21
-8.05
-11.84
-15.32
-18.42
-21.35
-24.54
-28.38
-32.93
-37.76
-41.96
-44.48
-44.47
-41.63
-36.24
-28.96
-20.57
-11.81
-3.26
4.56
11.16
16.16
19.34
20.79
20.82
19.9
18.52
17.03
15.72
14.67
13.99
13.67
13.71
14.04
14.54
15.12
15.67
16.09
16.3
16.33
16.16
15.76
14.94
13.47
11.11
7.86
3.99
-0.08
-3.95
-7.41
-10.46
-13.31
-16.18
-19.3
-22.85
-27.03
-31.89
-37.2
-42.35
-46.33
-48.03
-46.69
-42.09
-34.69
-25.39
-15.29
-5.32
3.78
11.54
17.7
22.17
24.98
26.3
26.34
25.38
23.75
21.72
19.65
17.87
16.67
16.19
16.4
17.08
17.9
18.51
18.7
18.42
17.75
16.77
15.53
13.95
11.87
9.19
5.89
2.08
-1.97
-5.96
-9.66
-12.89
-15.62
-18.05
-20.56
-23.61
-27.65
-32.73
-38.45
-43.89
-47.87
-49.34
-47.69
-42.94
-35.69
-26.88
-17.51
-8.38
-0.04
7.21
13.21
17.89
21.24
23.29
24.2
24.19
23.54
22.5
21.22
19.81
18.4
17.21
16.48
16.4
16.99
17.99
19.01
19.65
19.68
19.17
18.3
17.29
16.16
14.81
13.04
10.76
8.01
4.97
1.81
-1.36
-4.55
-7.83
-11.31
-15.12
-19.36
-24.12
-29.38
-34.89
-40.08
-44.1
-46.03
-45.09
-40.96
-33.92
-24.73
-14.53
-4.47
4.5
11.78
17.13
20.57
22.34
22.77
22.3
21.37
20.37
19.55
19
18.7
18.58
18.62
18.83
19.25
19.81
20.34
20.59
20.43
19.82
18.84
17.61
16.17
14.48
12.45
10.05
7.37
4.56
1.78
-0.95
-3.64
-6.36
-9.19
-12.24
-15.7
-19.78
-24.56
-29.81
-34.92
-38.99
-41.15
-40.79
-37.74
-32.32
-25.13
-16.86
-8.23
0.12
7.61
13.72
18.18
20.9
22.03
21.91
20.92
19.38
17.62
15.9
14.44
13.35
12.63
12.18
11.85
11.56
11.37
11.36
11.57
11.81
11.76
11.01
9.34
6.79
3.7
0.51
-2.45
-5.09
-7.57
-10.18
-13.2
-16.79
-20.97
-25.62
-30.42
-34.9
-38.45
-40.4
-40.22
-37.69
-32.92
-26.31
-18.43
-9.86
-1.23
6.81
13.62
18.66
21.6
22.5
21.75
19.97
17.85
15.9
14.42
13.5
13.1
13.06
13.2
13.3
13.15
12.6
11.64
10.38
9.02
7.71
6.46
5.13
3.46
1.3
-1.37
-4.39
-7.55
-10.71
-13.93
-17.38
-21.28
-25.76
-30.74
-35.85
-40.49
-43.9
-45.31
-44.14
-40.15
-33.57
-25.07
-15.63
-6.25
2.26
9.45
15.23
19.61
22.67
24.43
24.95
24.44
23.22
21.75
20.42
19.44
18.81
18.37
17.95
17.47
16.94
16.43
15.96
15.47
14.86
13.95
12.65
10.9
8.72
6.2
3.47
0.64
-2.23
-5.14
-8.24
-11.71
-15.74
-20.45
-25.79
-31.58
-37.4
-42.64
-46.58
-48.53
-47.95
-44.66
-38.86
-31.09
-22.11
-12.65
-3.37
5.18
12.61
18.6
22.95
25.61
26.75
26.7
25.95
24.93
23.97
23.21
22.65
22.3
22.18
22.32
22.8
23.58
24.53
25.39
25.93
25.95
25.31
23.99
22.08
19.74
17.13
14.37
11.49
8.41
5.09
1.52
-2.22
-5.97
-9.61
-13.1
-16.59
-20.34
-24.61
-29.54
-34.95
-40.3
-44.84
-47.73
-48.3
-46.24
-41.58
-34.75
-26.37
-17.13
-7.66
1.46
9.71
16.62
21.84
25.22
26.89
27.22
26.71
25.86
25.01
24.31
23.74
23.23
22.71
22.27
22.05
22.26
22.95
24.08
25.38
26.52
27.16
27.06
26.1
24.34
21.91
19.03
15.93
12.83
9.9
7.24
4.84
2.61
0.41
-1.93
-4.54
-7.51
-10.81
-14.31
-17.78
-21.04
-24.02
-26.92
-30.09
-33.85
-38.2
-42.66
-46.29
-48.02
-47.04
-43.08
-36.46
-27.95
-18.48
-8.96
-0.1
7.6
13.79
18.34
21.26
22.73
23.09
22.64
21.62
20.17
18.29
16
13.42
10.82
8.7
7.62
8.13
10.48
14.5
19.54
24.56
28.43
30.29
29.73
26.94
22.52
17.21
11.61
6.13
0.96
-3.77
-7.93
-11.43
-14.22
-16.45
-18.47
-20.75
-23.74
-27.67
-32.42
-37.43
-41.76
-44.3
-44.1
-40.71
-34.31
-25.71
-16.05
-6.39
2.51
10.22
16.48
21.11
23.93
24.87
24.1
22.1
19.48
16.88
14.77
13.4
12.82
12.94
13.53
14.31
14.96
15.23
15
14.33
13.42
12.5
11.69
10.94
10.07
8.84
7.01
4.45
1.21
-2.45
-6.17
-9.64
-12.7
-15.47
-18.35
-21.83
-26.3
-31.88
-38.29
-44.82
-50.46
-54.11
-54.86
-52.2
-46.21
-37.56
-27.28
-16.57
-6.47
2.33
9.52
15.09
19.24
22.26
24.48
26.09
27.12
27.43
26.78
25.09
22.58
19.81
17.54
16.4
16.67
18.09
20.08
21.9
23.04
23.27
22.65
21.3
19.39
17.04
14.35
11.41
8.33
5.13
1.79
-1.67
-5.16
-8.53
-11.61
-14.41
-17.13
-20.17
-23.93
-28.62
-34.09
-39.72
-44.64
-47.86
-48.57
-46.3
-41.03
-33.19
-23.6
-13.29
-3.28
5.58
12.79
18.21
22.02
24.54
26.13
27.02
27.33
27.08
26.32
25.15
23.8
22.53
21.6
21.16
21.29
21.94
22.98
24.16
25.24
25.89
25.86
24.94
23.13
20.56
17.57
14.52
11.73
9.34
7.25
5.2
2.84
-0.04
-3.55
-7.51
-11.6
-15.43
-18.75
-21.56
-24.17
-27.1
-30.79
-35.4
-40.52
-45.3
-48.63
-49.53
-47.46
-42.49
-35.15
-26.24
-16.63
-7.06
1.8
9.43
15.47
19.74
22.28
23.31
23.09
21.89
19.95
17.56
15.14
13.15
12.03
12.01
12.99
14.55
16.09
17.18
17.56
17.29
16.55
15.53
14.33
12.98
11.44
9.66
7.6
5.23
2.57
-0.32
-3.29
-6.22
-9.03
-11.77
-14.6
-17.75
-21.41
-25.64
-30.3
-35.02
-39.21
-42.14
-43.08
-41.45
-37.03
-30.1
-21.38
-11.85
-2.53
5.8
12.65
17.88
21.55
23.82
24.83
24.69
23.54
21.58
19.13
16.63
14.53
13.15
12.6
12.7
13.11
13.51
13.67
13.59
13.39
13.19
12.98
12.6
11.81
10.4
8.3
5.59
2.5
-0.8
-4.18
-7.6
-11.14
-14.87
-18.82
-23.02
-27.47
-32.17
-37.04
-41.85
-46.15
-49.25
-50.37
-48.81
-44.22
-36.8
-27.22
-16.49
-5.73
4.13
12.45
18.88
23.36
26.02
27.11
26.94
25.85
24.13
22.05
19.92
18.05
16.78
16.34
16.75
17.76
18.91
19.74
19.97
19.61
18.87
18
17.06
15.89
14.2
11.8
8.73
5.3
1.93
-1.05
-3.61
-5.99
-8.57
-11.64
-15.29
-19.42
-23.9
-28.67
-33.71
-38.94
-43.95
-48
-50.16
-49.55
-45.75
-38.95
-29.91
-19.76
-9.58
-0.21
7.9
14.66
20.13
24.33
27.22
28.67
28.61
27.23
24.94
22.39
20.14
18.61
17.88
17.79
18.1
18.55
19.01
19.35
19.5
19.36
18.92
18.21
17.34
16.41
15.42
14.25
12.67
10.53
7.76
4.51
0.97
-2.64
-6.23
-9.83
-13.52
-17.42
-21.55
-25.97
-30.64
-35.37
-39.77
-43.18
-44.83
-43.98
-40.25
-33.75
-25.17
-15.5
-5.78
3.13
10.71
16.67
20.89
23.34
24.12
23.48
21.95
20.06
18.34
17.04
16.21
15.69
15.31
15
14.76
14.67
14.74
14.92
15.07
15.06
14.76
14.1
12.98
11.35
9.17
6.52
3.5
0.32
-2.86
-5.93
-8.85
-11.65
-14.48
-17.56
-21.13
-25.31
-30.03
-34.9
-39.31
-42.45
-43.58
-42.18
-38.13
-31.72
-23.57
-14.52
-5.39
3.09
10.42
16.3
20.56
23.16
24.16
23.76
22.34
20.4
18.47
16.97
16.1
15.84
16.03
16.47
17
17.5
17.93
18.19
18.22
17.94
17.27
16.15
14.52
12.4
9.82
6.83
3.52
0.01
-3.58
-7.09
-10.35
-13.29
-15.97
-18.61
-21.58
-25.22
-29.73
-34.97
-40.41
-45.24
-48.51
-49.38
-47.3
-42.15
-34.25
-24.38
-13.6
-3.08
6.14
13.36
18.33
21.3
22.85
23.59
23.95
24.02
23.67
22.77
21.4
19.9
18.75
18.26
18.42
18.91
19.34
19.45
19.29
19.09
19
19
18.84
18.21
16.92
15.02
12.66
9.99
7.07
3.87
0.4
-3.28
-6.95
-10.43
-13.68
-16.9
-20.46
-24.74
-29.91
-35.73
-41.44
-45.94
-48.07
-46.96
-42.41
-34.88
-25.41
-15.19
-5.28
3.59
11.01
16.83
21.01
23.64
24.91
25.1
24.53
23.42
21.88
19.9
17.57
15.15
13.11
11.95
11.93
12.99
14.71
16.51
17.86
18.45
18.23
17.31
15.85
14.01
11.83
9.35
6.57
3.56
0.39
-2.85
-6.08
-9.25
-12.37
-15.52
-18.84
-22.49
-26.5
-30.59
-34.2
-36.54
-36.91
-34.91
-30.62
-24.52
-17.32
-9.69
-2.19
4.77
10.79
15.5
18.62
20.02
19.91
18.72
16.91
14.83
12.62
10.26
7.86
5.64
4.02
3.38
3.89
5.37
7.39
9.44
11.12
12.25
12.73
12.49
11.38
9.27
6.19
2.49
-1.33
-4.74
-7.53
-9.89
-12.36
-15.51
-19.66
-24.77
-30.43
-36.03
-40.86
-44.27
-45.62
-44.41
-40.39
-33.71
-24.97
-15.2
-5.56
2.97
9.86
15.08
18.93
21.71
23.6
24.52
24.34
23.14
21.22
19.14
17.41
16.37
15.96
15.86
15.69
15.27
14.73
14.38
14.49
15.1
15.91
16.42
16.12
14.76
12.36
9.26
5.83
2.41
-0.83
-3.89
-6.88
-9.97
-13.36
-17.25
-21.81
-27.05
-32.64
-37.9
-41.88
-43.54
-42.17
-37.59
-30.32
-21.31
-11.73
-2.57
5.53
12.35
17.92
22.28
25.44
27.36
28.01
27.47
25.98
23.9
21.61
19.41
17.46
15.84
14.57
13.66
13.16
13.07
13.31
13.66
13.83
13.52
12.53
10.77
8.26
5.11
1.54
-2.17
-5.75
-8.99
-11.87
-14.57
-17.43
-20.79
-24.85
-29.58
-34.64
-39.45
-43.25
-45.24
-44.81
-41.7
-36.06
-28.43
-19.64
-10.5
-1.71
6.3
13.32
19.23
23.94
27.34
29.35
29.95
29.24
27.44
24.93
22.22
19.8
18
16.86
16.2
15.79
15.46
15.25
15.32
15.74
16.35
16.71
16.29
14.73
12.03
8.62
5.08
1.91
-0.72
-3.01
-5.41
-8.39
-12.26
-17.07
-22.55
-28.19
-33.23
-36.84
-38.21
-36.83
-32.56
-25.78
-17.24
-7.91
1.27
9.56
16.47
21.79
25.53
27.83
28.88
28.94
28.29
27.18
25.85
24.49
23.15
21.85
20.55
19.26
17.99
16.84
15.84
14.87
13.73
12.15
9.97
7.18
3.99
0.68
-2.52
-5.54
-8.5
-11.56
-14.87
-18.58
-22.81
-27.64
-33.11
-39
-44.74
-49.39
-51.9
-51.37
-47.42
-40.35
-31.05
-20.7
-10.45
-1.06
7.07
13.91
19.55
24.1
27.54
29.8
30.84
30.73
29.71
28.17
26.52
25.02
23.77
22.63
21.38
19.9
18.17
16.34
14.65
13.32
12.4
11.73
10.92
9.5
7.07
3.53
-0.86
-5.52
-9.77
-13.19
-15.78
-17.92
-20.23
-23.22
-27.12
-31.66
-36.28
-40.13
-42.37
-42.29
-39.47
-33.85
-25.81
-16.1
-5.69
4.47
13.67
21.52
27.93
32.99
36.81
39.43
40.89
41.2
40.39
38.56
35.82
32.28
28.14
23.74
19.55
16.05
13.61
12.3
11.81
11.67
11.38
10.63
9.35
7.6
5.49
3.07
0.33
-2.7
-5.89
-9.05
-12.02
-14.78
-17.43
-20.14
-23.04
-26.18
-29.59
-33.3
-37.34
-41.62
-45.8
-49.21
-50.87
-49.83
-45.47
-37.82
-27.6
-16.03
-4.42
6.16
15.17
22.57
28.63
33.56
37.39
39.91
40.89
40.26
38.34
35.69
32.92
30.34
27.94
25.49
22.8
20.01
17.55
15.86
15.16
15.14
15.2
14.7
13.31
11.16
8.64
6.1
3.62
0.95
-2.22
-6.01
-10.3
-14.73
-19.02
-23.11
-27.21
-31.6
-36.37
-41.27
-45.61
-48.46
-48.88
-46.24
-40.38
-31.73
-21.21
-9.98
0.82
10.34
18.2
24.29
28.7
31.55
32.88
32.76
31.31
28.88
25.91
22.9
20.13
17.75
15.71
13.96
12.49
11.35
10.63
10.3
10.27
10.23
9.83
8.73
6.71
3.75
0.15
-3.63
-7.09
-9.89
-12.06
-13.97
-16.22
-19.37
-23.71
-29.09
-34.95
-40.5
-44.78
-46.92
-46.29
-42.62
-36.04
-27.14
-16.87
-6.31
3.54
11.96
18.64
23.6
27.04
29.22
30.31
30.39
29.54
27.91
25.7
23.28
20.96
18.98
17.41
16.16
15.09
14.1
13.18
12.39
11.77
11.27
10.72
9.84
8.37
6.14
3.21
-0.18
-3.74
-7.15
-10.27
-13.12
-15.82
-18.51
-21.37
-24.56
-28.27
-32.65
-37.65
-42.88
-47.52
-50.51
-50.82
-47.85
-41.62
-32.76
-22.32
-11.41
-0.92
8.55
16.63
23.12
27.91
30.94
32.33
32.28
31.16
29.34
27.23
25.12
23.23
21.63
20.3
19.18
18.23
17.48
17.03
16.95
17.23
17.67
17.94
17.66
16.58
14.68
12.19
9.43
6.72
4.17
1.7
-0.82
-3.53
-6.39
-9.29
-12.15
-14.92
-17.69
-20.61
-23.87
-27.69
-32.25
-37.63
-43.6
-49.53
-54.36
-56.91
-56.23
-51.92
-44.28
-34.19
-22.77
-11.14
-0.24
9.22
16.82
22.39
26.09
28.3
29.53
30.22
30.51
30.34
29.54
28.06
26.09
24.06
22.41
21.46
21.26
21.57
22.09
22.54
22.8
22.81
22.62
22.18
21.46
20.44
19.13
17.54
15.74
13.68
11.26
8.45
5.3
2.02
-1.14
-3.94
-6.37
-8.59
-10.88
-13.53
-16.63
-20.04
-23.44
-26.56
-29.27
-31.73
-34.31
-37.34
-40.98
-45
-48.83
-51.63
-52.6
-51.18
-47.11
-40.58
-32.09
-22.38
-12.28
-2.63
5.93
12.98
18.41
22.36
25.1
26.88
27.93
28.29
27.99
27.02
25.47
23.51
21.42
19.47
17.9
16.87
16.4
16.43
16.8
17.36
17.93
18.38
18.64
18.61
18.13
17.08
15.38
13.16
10.63
8.14
5.93
4.07
2.4
0.64
-1.42
-3.83
-6.43
-9.03
-11.48
-13.78
-15.99
-18.26
-20.63
-23.21
-26.12
-29.52
-33.54
-38.04
-42.59
-46.43
-48.66
-48.53
-45.67
-40.14
-32.44
-23.28
-13.5
-3.9
4.79
12
17.39
20.89
22.77
23.43
23.29
22.7
21.77
20.53
18.91
16.96
14.82
12.75
10.98
9.62
8.77
8.39
8.48
8.96
9.65
10.24
10.32
9.57
7.93
5.61
3.01
0.59
-1.46
-3.17
-4.79
-6.61
-8.77
-11.27
-14.04
-17.03
-20.25
-23.75
-27.6
-31.71
-35.86
-39.65
-42.53
-43.89
-43.17
-40.03
-34.47
-26.88
-18
-8.74
0.08
7.81
14.12
18.9
22.14
23.97
24.56
24.19
23.18
21.85
20.44
19.05
17.68
16.27
14.85
13.53
12.41
11.56
10.92
10.39
9.85
9.3
8.78
8.33
7.92
7.31
6.24
4.45
1.87
-1.31
-4.69
-7.86
-10.57
-12.82
-14.92
-17.25
-20.12
-23.66
-27.81
-32.37
-37.08
-41.59
-45.42
-47.92
-48.38
-46.2
-41.2
-33.72
-24.57
-14.82
-5.47
2.82
9.78
15.47
20.04
23.63
26.19
27.64
27.94
27.21
25.77
24.04
22.38
20.98
19.85
18.88
17.92
16.93
15.96
15.11
14.45
14.01
13.68
13.27
12.6
11.58
10.23
8.66
6.97
5.13
3.01
0.45
-2.67
-6.24
-9.94
-13.38
-16.31
-18.83
-21.41
-24.63
-28.86
-33.94
-39.15
-43.35
-45.41
-44.6
-40.81
-34.49
-26.44
-17.52
-8.47
0.1
7.7
13.95
18.65
21.82
23.66
24.47
24.51
23.92
22.78
21.18
19.26
17.28
15.49
14.02
12.89
12.02
11.33
10.87
10.78
11.17
11.92
12.68
12.85
11.86
9.49
6
2.11
-1.36
-3.86
-5.36
-6.33
-7.47
-9.32
-12.09
-15.67
-19.82
-24.36
-29.12
-33.76
-37.72
-40.15
-40.22
-37.35
-31.51
-23.24
-13.49
-3.37
6.14
14.33
20.79
25.41
28.25
29.42
29.17
27.74
25.43
22.69
19.99
17.77
16.28
15.47
15.1
14.85
14.47
13.9
13.27
12.74
12.42
12.27
12.05
11.47
10.26
8.34
5.76
2.76
-0.4
-3.51
-6.43
-9.19
-11.88
-14.64
-17.68
-21.25
-25.53
-30.58
-36.15
-41.57
-45.88
-48.02
-47.23
-43.2
-36.3
-27.37
-17.51
-7.79
1.06
8.63
14.86
19.85
23.72
26.5
28.19
28.82
28.52
27.53
26.16
24.66
23.2
21.86
20.72
19.85
19.36
19.29
19.54
19.85
19.88
19.43
18.45
17.15
15.82
14.66
13.71
12.81
11.65
9.99
7.67
4.69
1.23
-2.41
-5.97
-9.21
-12.06
-14.66
-17.3
-20.38
-24.27
-29.1
-34.67
-40.31
-45.07
-47.91
-48.01
-44.96
-38.87
-30.35
-20.3
-9.8
0.16
8.79
15.69
20.75
24.17
26.31
27.47
27.92
27.76
27.15
26.26
25.36
24.7
24.41
24.44
24.68
24.97
25.25
25.53
25.84
26.14
26.34
26.28
25.81
24.89
23.62
22.11
20.52
18.88
17.18
15.33
13.25
10.94
8.42
5.72
2.84
-0.23
-3.48
-6.85
-10.23
-13.52
-16.7
-19.81
-23.03
-26.51
-30.44
-34.87
-39.6
-44.15
-47.81
-49.7
-49.17
-45.93
-40.2
-32.61
-23.92
-14.84
-5.94
2.33
9.53
15.25
19.12
21.07
21.3
20.28
18.56
16.57
14.59
12.7
10.96
9.51
8.56
8.38
9.12
10.66
12.64
14.55
15.92
16.43
15.99
14.71
12.81
10.52
8.17
6.06
4.48
3.55
3.17
2.99
2.5
1.25
-0.97
-4.04
-7.54
-10.91
-13.75
-15.94
-17.69
-19.38
-21.35
-23.62
-25.73
-26.89
-26.23
-23.2
-17.8
-10.7
-2.83
4.85
11.72
17.55
22.36
26.2
28.98
30.54
30.75
29.72
27.81
25.49
23.19
21.09
19.21
17.54
16.15
15.25
15.07
15.68
16.93
18.48
19.96
21.11
21.75
21.78
21.14
19.84
17.9
15.48
12.76
9.88
6.85
3.62
0.2
-3.32
-6.76
-10.02
-13.18
-16.48
-20.16
-24.31
-28.77
-33.28
-37.66
-41.88
-45.98
-49.78
-52.74
-53.99
-52.65
-48.31
-41.16
-32.08
-22.22
-12.58
-3.78
3.99
10.76
16.53
21.16
24.46
26.3
26.77
26.25
25.21
24.13
23.26
22.61
22.02
21.33
20.54
19.79
19.32
19.33
19.86
20.72
21.61
22.18
22.24
21.73
20.77
19.49
17.99
16.28
14.29
11.97
9.32
6.42
3.37
0.3
-2.73
-5.65
-8.43
-11.01
-13.4
-15.68
-17.99
-20.57
-23.65
-27.42
-31.93
-36.99
-42.14
-46.64
-49.58
-50.11
-47.7
-42.42
-34.89
-26.11
-17.14
-8.79
-1.47
4.75
9.97
14.26
17.53
19.64
20.57
20.44
19.59
18.41
17.21
16.18
15.36
14.78
14.51
14.7
15.46
16.74
18.3
19.72
20.58
20.62
19.81
18.37
16.65
14.93
13.33
11.76
9.99
7.8
5.06
1.83
-1.65
-5.1
-8.21
-10.83
-12.9
-14.57
-16.18
-18.17
-21.02
-25.02
-30.04
-35.46
-40.18
-43.03
-43.1
-40.1
-34.38
-26.77
-18.25
-9.64
-1.5
5.81
12.05
17.02
20.55
22.64
23.48
23.43
22.87
22.12
21.25
20.28
19.14
17.9
16.76
16.01
15.89
16.48
17.66
19.14
20.58
21.63
22.08
21.79
20.71
18.86
16.38
13.54
10.67
8.1
6.01
4.34
2.79
0.93
-1.6
-4.92
-8.86
-13.08
-17.17
-20.9
-24.26
-27.39
-30.55
-33.88
-37.41
-41
-44.38
-47.11
-48.68
-48.48
-46.04
-41.14
-33.98
-25.2
-15.66
-6.22
2.5
10.13
16.51
21.52
25.02
26.88
27.16
26.16
24.43
22.63
21.28
20.61
20.54
20.78
21.03
21.09
20.98
20.89
21.04
21.55
22.37
23.31
24.04
24.3
23.91
22.88
21.28
19.28
16.96
14.4
11.67
8.87
6.1
3.55
1.32
-0.6
-2.32
-4.03
-5.9
-8.05
-10.42
-12.97
-15.61
-18.38
-21.37
-24.65
-28.29
-32.3
-36.57
-40.88
-44.79
-47.7
-48.84
-47.56
-43.53
-36.94
-28.51
-19.25
-10.16
-1.96
5.04
10.86
15.59
19.29
21.82
23.06
22.98
21.74
19.76
17.62
15.86
14.8
14.47
14.66
15.07
15.51
15.91
16.41
17.13
18.04
18.93
19.45
19.27
18.17
16.25
13.75
11.06
8.5
6.18
4.01
1.76
-0.74
-3.58
-6.61
-9.6
-12.3
-14.63
-16.71
-18.79
-21.2
-24.19
-27.86
-32.08
-36.46
-40.37
-42.91
-43.2
-40.57
-34.98
-27.02
-17.78
-8.53
-0.26
6.54
11.86
15.97
19.15
21.56
23.15
23.86
23.69
22.85
21.65
20.38
19.21
18.18
17.25
16.38
15.66
15.17
15.03
15.27
15.8
16.37
16.68
16.45
15.53
14.01
12.15
10.4
9.12
8.47
8.25
7.97
6.99
4.85
1.42
-3.04
-7.96
-12.68
-16.66
-19.6
-21.59
-23.02
-24.53
-26.78
-30.3
-35.13
-40.8
-46.32
-50.39
-51.8
-49.86
-44.55
-36.58
-27.12
-17.34
-8.17
-0.05
6.86
12.55
16.95
19.99
21.72
22.39
22.52
22.58
22.85
23.26
23.52
23.35
22.67
21.63
20.59
19.86
19.64
19.94
20.61
21.41
22.08
22.36
22.07
21.13
19.64
17.85
15.98
14.24
12.65
11.13
9.53
7.73
5.71
3.48
1.04
-1.68
-4.82
-8.41
-12.27
-16.09
-19.47
-22.19
-24.4
-26.52
-29.09
-32.48
-36.62
-41.01
-44.85
-47.31
-47.72
-45.74
-41.3
-34.66
-26.37
-17.16
-7.92
0.51
7.51
12.78
16.37
18.6
19.89
20.54
20.66
20.19
19.08
17.45
15.6
14
13.01
12.8
13.2
13.84
14.36
14.61
14.66
14.76
15.08
15.6
16.03
16.03
15.34
13.92
11.91
9.58
7.1
4.53
1.83
-1
-3.83
-6.4
-8.51
-10.17
-11.73
-13.76
-16.84
-21.26
-26.78
-32.62
-37.7
-40.96
-41.68
-39.63
-35.09
-28.71
-21.28
-13.58
-6.16
0.6
6.56
11.65
15.87
19.14
21.37
22.5
22.55
21.65
20.08
18.18
16.24
14.54
13.25
12.5
12.34
12.71
13.38
13.97
14.11
13.57
12.43
11.01
9.77
9.03
8.81
8.74
8.28
6.91
4.46
1.15
-2.57
-6.23
-9.6
-12.64
-15.49
-18.28
-21.14
-24.18
-27.56
-31.48
-35.88
-40.38
-44.16
-46.26
-45.81
-42.48
-36.5
-28.57
-19.59
-10.44
-1.88
5.53
11.43
15.68
18.4
19.91
20.64
20.88
20.86
20.65
20.33
19.94
19.51
19.08
18.65
18.31
18.2
18.54
19.44
20.8
22.24
23.25
23.28
22.07
19.75
16.72
13.59
10.81
8.67
7.09
5.77
4.36
2.55
0.16
-2.79
-6.17
-9.77
-13.43
-17
-20.39
-23.67
-26.97
-30.53
-34.53
-39.01
-43.67
-47.88
-50.88
-51.96
-50.72
-47.12
-41.39
-33.94
-25.24
-15.83
-6.43
2.18
9.31
14.55
18
20.09
21.48
22.63
23.76
24.81
25.61
26.02
26.08
25.96
25.92
26.12
26.66
27.43
28.21
28.77
29.01
28.98
28.83
28.72
28.63
28.34
27.43
25.62
22.91
19.67
16.52
14.01
12.3
11.06
9.71
7.67
4.72
1.08
-2.72
-6.24
-9.25
-11.92
-14.6
-17.63
-21.09
-24.9
-28.96
-33.22
-37.74
-42.46
-47
-50.67
-52.6
-51.97
-48.36
-41.87
-33.09
-22.95
-12.52
-2.74
5.64
12.29
17.18
20.51
22.61
23.73
24.03
23.63
22.69
21.49
20.43
19.85
19.88
20.41
21.14
21.81
22.32
22.77
23.29
23.91
24.48
24.79
24.66
24.06
23.02
21.63
19.97
18.1
16.08
14
11.9
9.78
7.5
5
2.25
-0.65
-3.56
-6.43
-9.35
-12.45
-15.8
-19.41
-23.2
-27.12
-31.19
-35.39
-39.42
-42.64
-44.21
-43.37
-39.8
-33.79
-26.12
-17.7
-9.32
-1.45
5.69
11.95
17.14
21.05
23.5
24.48
24.17
22.8
20.68
18.12
15.55
13.35
11.92
11.48
11.98
13.13
14.5
15.67
16.36
16.5
16.12
15.31
14.18
12.86
11.51
10.26
9.15
7.96
6.39
4.07
0.85
-3.12
-7.45
-11.64
-15.38
-18.71
-22.01
-25.74
-30.19
-35.22
-40.24
-44.39
-46.79
-46.81
-44.2
-39.08
-31.86
-23.18
-13.73
-4.26
4.57
12.23
18.4
22.95
26.01
27.8
28.51
28.32
27.34
25.69
23.57
21.28
19.13
17.43
16.34
15.94
16.23
17.14
18.5
20.04
21.38
22.13
22.02
21.02
19.33
17.26
15.09
12.91
10.65
8.19
5.42
2.35
-0.97
-4.55
-8.44
-12.69
-17.22
-21.77
-26.03
-29.83
-33.33
-36.93
-41.08
-45.89
-50.88
-55.03
-57.1
-56.08
-51.57
-43.89
-33.96
-23
-12.23
-2.58
5.4
11.58
16.23
19.81
22.84
25.67
28.4
30.9
32.96
34.45
35.3
35.58
35.42
34.96
34.4
33.92
33.65
33.62
33.7
33.73
33.51
32.93
32
30.76
29.24
27.39
25.19
22.65
19.9
17.09
14.34
11.68
9.06
6.5
4.08
1.91
0.06
-1.59
-3.37
-5.68
-8.81
-12.77
-17.21
-21.58
-25.29
-28.07
-29.97
-31.45
-33.21
-35.91
-39.9
-45.02
-50.57
-55.44
-58.43
-58.56
-55.29
-48.66
-39.29
-28.18
-16.59
-5.76
3.35
10.17
14.72
17.47
19.18
20.52
21.88
23.22
24.21
24.53
23.97
22.72
21.13
19.64
18.53
17.87
17.61
17.65
18
18.66
19.58
20.54
21.17
21.02
19.83
17.61
14.73
11.76
9.21
7.32
5.97
4.75
3.14
0.76
-2.37
-5.96
-9.52
-12.67
-15.31
-17.67
-20.21
-23.31
-27.18
-31.7
-36.46
-40.82
-44.08
-45.54
-44.73
-41.45
-35.94
-28.7
-20.39
-11.65
-3.02
5.04
12.16
17.94
22.09
24.57
25.57
25.51
24.85
23.91
22.81
21.55
20.19
18.89
17.84
17.24
17.05
17.17
17.44
17.81
18.31
18.97
19.68
20.15
20
18.91
16.83
14.01
10.97
8.15
5.79
3.71
1.44
-1.52
-5.41
-10.03
-14.84
-19.17
-22.55
-24.99
-26.96
-29.23
-32.49
-37.11
-42.87
-49.12
-54.89
-59.16
-61.1
-60.2
-56.33
-49.73
-40.97
-30.84
-20.32
-10.4
-1.9
4.72
9.56
13.12
16.1
18.98
21.86
24.43
26.27
27.21
27.45
27.51
27.94
28.98
30.53
32.21
33.72
34.98
36.13
37.35
38.69
39.96
40.79
40.87
40.05
38.41
36.16
33.54
30.68
27.65
24.42
20.96
17.3
13.48
9.53
5.47
1.27
-3.13
-7.71
-12.44
-17.18
-21.74
-25.88
-29.46
-32.53
-35.33
-38.23
-41.57
-45.41
-49.4
-52.83
-54.76
-54.33
-51.01
-44.85
-36.34
-26.41
-16.16
-6.68
1.22
7.09
10.96
13.19
14.24
14.54
14.36
13.86
13.15
12.32
11.42
10.49
9.51
8.52
7.68
7.24
7.46
8.44
10.01
11.79
13.36
14.38
14.81
14.74
14.27
13.39
12
9.98
7.35
4.32
1.19
-1.78
-4.46
-6.94
-9.42
-12.11
-15.09
-18.34
-21.83
-25.59
-29.66
-34.08
-38.54
-42.41
-44.78
-44.76
-41.82
-36
-27.92
-18.57
-8.97
0.04
7.9
14.39
19.36
22.82
24.74
25.21
24.45
22.81
20.81
18.98
17.66
16.97
16.75
16.67
16.56
16.35
16.24
16.38
16.8
17.28
17.48
17.11
16.09
14.55
12.67
10.6
8.29
5.61
2.44
-1.13
-4.86
-8.4
-11.49
-14.12
-16.49
-18.94
-21.81
-25.3
-29.47
-34.21
-39.23
-44.02
-47.91
-50.12
-49.98
-47.09
-41.51
-33.76
-24.65
-15.11
-5.9
2.48
9.82
15.97
20.82
24.2
25.98
26.21
25.27
23.79
22.48
21.89
22.13
22.95
23.83
24.34
24.32
23.9
23.39
23.11
23.16
23.44
23.69
23.65
23.15
22.18
20.83
19.23
17.38
15.24
12.7
9.78
6.55
3.18
-0.19
-3.57
-7
-10.52
-14.06
-17.48
-20.66
-23.71
-26.96
-30.84
-35.59
-41.04
-46.53
-51.04
-53.52
-53.19
-49.79
-43.58
-35.24
-25.69
-15.84
-6.49
1.82
8.8
14.38
18.62
21.67
23.69
24.86
25.39
25.46
25.32
25.15
25.05
25
24.87
24.48
23.77
22.86
22.02
21.55
21.61
22.11
22.75
23.14
23.04
22.38
21.29
19.93
18.35
16.5
14.23
11.49
8.35
4.99
1.58
-1.78
-5.09
-8.27
-11.21
-13.76
-15.81
-17.51
-19.32
-21.85
-25.55
-30.43
-35.89
-40.96
-44.55
-45.86
-44.56
-40.77
-34.94
-27.68
-19.6
-11.22
-3.01
4.66
11.44
17.04
21.23
23.87
25
24.86
23.88
22.49
20.99
19.54
18.14
16.84
15.79
15.28
15.46
16.27
17.36
18.34
18.88
18.91
18.52
17.85
16.92
15.66
13.98
11.98
9.89
7.93
6.16
4.38
2.17
-0.84
-4.74
-9.26
-13.84
-17.95
-21.3
-24.02
-26.6
-29.62
-33.45
-38.04
-42.86
-46.96
-49.34
-49.12
-45.88
-39.71
-31.22
-21.31
-11
-1.2
7.43
14.46
19.64
22.94
24.52
24.75
24.21
23.44
22.8
22.38
21.97
21.37
20.59
19.87
19.66
20.28
21.76
23.78
25.81
27.34
28.07
28
27.34
26.38
25.3
24.12
22.72
20.93
18.68
16.05
13.25
10.53
8
5.6
3.09
0.24
-2.99
-6.43
-9.71
-12.54
-14.78
-16.57
-18.26
-20.24
-22.73
-25.74
-29.12
-32.76
-36.68
-41
-45.68
-50.3
-54.02
-55.67
-54.29
-49.47
-41.52
-31.43
-20.43
-9.67
0.13
8.61
15.75
21.53
25.92
28.84
30.27
30.36
29.43
27.94
26.34
24.93
23.83
23.02
22.52
22.38
22.71
23.49
24.57
25.65
26.42
26.72
26.56
26.11
25.53
24.87
24.1
23.17
22.04
20.71
19.18
17.41
15.42
13.3
11.25
9.44
7.97
6.69
5.39
3.86
2.01
-0.11
-2.35
-4.61
-6.9
-9.31
-12
-15.01
-18.27
-21.56
-24.69
-27.45
-29.86
-32.14
-34.66
-37.8
-41.66
-45.96
-50.03
-52.99
-54.05
-52.67
-48.73
-42.45
-34.27
-24.84
-14.88
-5.15
3.66
10.99
16.53
20.21
22.23
22.9
22.69
21.98
21.08
20.16
19.23
18.29
17.32
16.39
15.68
15.4
15.68
16.56
17.91
19.51
21.13
22.5
23.47
23.84
23.44
22.18
20
17.04
13.6
10.11
6.89
4.23
2.15
0.52
-0.93
-2.49
-4.38
-6.66
-9.27
-12.07
-14.84
-17.48
-19.94
-22.35
-24.87
-27.69
-30.98
-34.78
-38.95
-43.18
-46.97
-49.65
-50.51
-48.96
-44.67
-37.79
-28.88
-18.85
-8.75
0.52
8.33
14.39
18.72
21.53
23.05
23.55
23.3
22.6
21.75
20.93
20.12
19.2
18.07
16.75
15.46
14.53
14.28
14.84
16.08
17.68
19.25
20.43
21.01
20.88
20.04
18.61
16.81
14.98
13.41
12.3
11.58
10.97
10
8.25
5.46
1.71
-2.63
-7.03
-11.03
-14.33
-16.89
-18.88
-20.56
-22.29
-24.37
-27.04
-30.51
-34.86
-39.93
-45.29
-50.16
-53.6
-54.69
-52.89
-48.13
-40.82
-31.77
-21.95
-12.25
-3.4
4.13
10.12
14.55
17.53
19.29
20.09
20.19
19.85
19.28
18.64
18.04
17.51
17.06
16.68
16.45
16.54
17.1
18.18
19.66
21.27
22.66
23.57
23.87
23.55
22.69
21.41
19.84
18.12
16.36
14.62
12.91
11.14
9.19
6.91
4.22
1.1
-2.33
-5.92
-9.49
-12.87
-15.88
-18.39
-20.27
-21.54
-22.47
-23.58
-25.53
-28.82
-33.5
-38.99
-44.23
-47.92
-48.98
-46.94
-42.01
-34.92
-26.7
-18.22
-10.17
-2.95
3.2
8.1
11.6
13.65
14.39
14.14
13.41
12.68
12.28
12.26
12.38
12.27
11.76
10.91
10.13
9.86
10.37
11.59
13.14
14.51
15.44
15.97
16.4
17.04
17.97
18.85
19.17
18.45
16.45
13.32
9.4
5.11
0.77
-3.37
-7.12
-10.4
-13.18
-15.66
-18.17
-21.15
-24.91
-29.55
-34.81
-40.14
-44.71
-47.64
-48.13
-45.72
-40.45
-32.86
-23.9
-14.61
-5.82
1.96
8.61
14.1
18.42
21.42
23
23.24
22.46
21.22
20.01
19.17
18.71
18.47
18.29
18.09
18
18.22
18.89
19.95
21.11
21.97
22.12
21.35
19.76
17.74
15.76
14.18
13.05
12.01
10.62
8.42
5.3
1.44
-2.73
-6.77
-10.42
-13.69
-16.74
-19.81
-23.05
-26.48
-30.09
-33.92
-38.04
-42.36
-46.52
-49.78
-51.2
-49.98
-45.8
-38.98
-30.37
-21.02
-11.81
-3.25
4.44
11.23
17
21.62
25
27.18
28.41
29.05
29.37
29.49
29.38
28.91
28.05
26.86
25.49
24.23
23.29
22.86
22.99
23.58
24.39
25.1
25.41
25.11
24.13
22.58
20.67
18.57
16.4
14.22
12.03
9.85
7.63
5.3
2.72
-0.25
-3.58
-7.13
-10.6
-13.77
-16.61
-19.31
-22.25
-25.83
-30.27
-35.5
-41.07
-46.22
-50.02
-51.64
-50.54
-46.64
-40.32
-32.35
-23.54
-14.65
-6.16
1.65
8.61
14.53
19.27
22.69
24.84
25.86
26
25.53
24.7
23.69
22.66
21.76
21.12
20.86
21.06
21.73
22.76
23.96
25.08
25.83
25.94
25.29
23.89
21.92
19.61
17.18
14.83
12.63
10.57
8.56
6.39
3.89
0.89
-2.58
-6.33
-10.05
-13.43
-16.35
-18.93
-21.47
-24.36
-27.85
-32.05
-36.79
-41.64
-45.87
-48.56
-48.82
-46.06
-40.25
-31.93
-22.12
-11.98
-2.47
5.78
12.56
17.86
21.8
24.45
25.83
25.97
25.05
23.41
21.57
20.06
19.23
19.07
19.36
19.75
20.03
20.23
20.59
21.22
22.04
22.65
22.57
21.54
19.71
17.52
15.46
13.83
12.52
11.16
9.31
6.72
3.42
-0.35
-4.27
-8.09
-11.68
-15.06
-18.32
-21.61
-25.11
-29.01
-33.43
-38.36
-43.61
-48.72
-53.02
-55.66
-55.84
-53.02
-47.14
-38.72
-28.75
-18.41
-8.65
-0.06
7.27
13.48
18.71
22.99
26.16
28.09
28.82
28.58
27.74
26.67
25.69
25.05
24.98
25.62
26.95
28.71
30.5
31.85
32.47
32.37
31.81
31.13
30.56
30.07
29.49
28.59
27.28
25.65
23.86
22.07
20.29
18.43
16.36
14.02
11.49
8.9
6.35
3.83
1.19
-1.7
-4.87
-8.22
-11.49
-14.45
-17.02
-19.32
-21.57
-23.98
-26.6
-29.39
-32.33
-35.58
-39.47
-44.29
-50.02
-56.09
-61.4
-64.63
-64.69
-61.08
-54.05
-44.45
-33.48
-22.29
-11.77
-2.46
5.39
11.78
16.79
20.59
23.35
25.21
26.33
26.84
26.87
26.57
26.14
25.71
25.4
25.27
25.37
25.79
26.61
27.92
29.64
31.56
33.3
34.43
34.6
33.73
32.03
29.86
27.63
25.64
23.95
22.39
20.67
18.48
15.65
12.3
8.79
5.55
2.87
0.74
-1.12
-3.07
-5.33
-7.89
-10.52
-12.95
-15.07
-16.95
-18.8
-20.82
-23.15
-25.89
-29.13
-32.99
-37.51
-42.53
-47.56
-51.9
-54.7
-55.23
-53.04
-48.07
-40.7
-31.62
-21.74
-11.91
-2.79
5.21
11.87
17.09
20.81
22.97
23.63
23.02
21.57
19.76
18
16.5
15.29
14.33
13.65
13.32
13.46
14.05
14.94
15.89
16.69
17.25
17.59
17.72
17.6
17.14
16.22
14.83
13.09
11.16
9.16
7.09
4.83
2.23
-0.77
-4.09
-7.55
-10.96
-14.21
-17.31
-20.41
-23.7
-27.35
-31.46
-36
-40.76
-45.24
-48.7
-50.23
-49.01
-44.61
-37.27
-27.79
-17.37
-7.14
2.12
10.09
16.72
22.04
25.95
28.33
29.17
28.72
27.51
26.09
24.84
23.86
23.03
22.25
21.45
20.77
20.37
20.39
20.83
21.49
22.11
22.43
22.34
21.85
21.14
20.36
19.52
18.52
17.12
15.13
12.52
9.49
6.35
3.37
0.65
-1.89
-4.48
-7.29
-10.37
-13.67
-17.06
-20.44
-23.72
-26.89
-29.98
-33.11
-36.46
-40.27
-44.71
-49.72
-54.88
-59.42
-62.31
-62.58
-59.57
-53.19
-43.89
-32.66
-20.67
-9.07
1.29
9.88
16.63
21.7
25.3
27.7
29.06
29.54
29.32
28.64
27.78
26.98
26.39
26.11
26.17
26.59
27.36
28.43
29.62
30.72
31.48
31.74
31.51
30.87
29.91
28.72
27.35
25.82
24.24
22.7
21.27
19.93
18.56
17.01
15.13
12.85
10.2
7.33
4.44
1.7
-0.78
-3.05
-5.3
-7.79
-10.69
-13.94
-17.26
-20.27
-22.79
-24.92
-27.06
-29.67
-33.08
-37.33
-42.22
-47.49
-52.84
-57.92
-62.22
-64.95
-65.21
-62.21
-55.71
-46.16
-34.68
-22.63
-11.29
-1.43
6.75
13.37
18.72
22.95
26.03
27.85
28.47
28.12
27.29
26.45
25.89
25.69
25.72
25.81
25.85
25.86
25.94
26.22
26.77
27.55
28.35
28.88
28.86
28.14
26.79
25.05
23.26
21.67
20.31
19.03
17.6
15.8
13.55
10.87
7.86
4.66
1.48
-1.52
-4.14
-6.37
-8.3
-10.15
-12.16
-14.45
-16.96
-19.55
-22.1
-24.59
-27.13
-29.9
-33.06
-36.69
-40.63
-44.48
-47.6
-49.19
-48.56
-45.3
-39.53
-31.76
-22.81
-13.5
-4.49
3.78
10.96
16.72
20.69
22.69
22.85
21.74
20.13
18.63
17.5
16.61
15.67
14.57
13.51
12.88
12.96
13.71
14.73
15.57
16
16.08
16.08
16.1
16
15.39
14.03
11.97
9.55
7.2
5.11
3.15
0.92
-1.85
-5.15
-8.64
-11.86
-14.52
-16.75
-19.03
-22
-26.06
-31.11
-36.4
-40.85
-43.33
-43.09
-39.98
-34.38
-26.95
-18.47
-9.64
-1.07
6.67
13.02
17.6
20.37
21.58
21.76
21.4
20.78
19.97
18.91
17.62
16.28
15.18
14.57
14.57
15.08
15.85
16.59
17.11
17.27
17.05
16.51
15.67
14.58
13.24
11.67
9.88
7.85
5.52
2.79
-0.45
-4.23
-8.46
-12.89
-17.21
-21.2
-24.82
-28.19
-31.6
-35.34
-39.56
-44.19
-48.81
-52.7
-54.97
-54.84
-51.8
-45.88
-37.66
-28.07
-18.1
-8.56
0.05
7.54
13.88
19.1
23.2
26.13
27.88
28.5
28.16
27.17
25.92
24.76
23.93
23.49
23.37
23.47
23.8
24.37
25.24
26.36
27.56
28.53
28.97
28.64
27.51
25.7
23.41
20.9
18.33
15.83
13.43
11.13
8.87
6.56
4.07
1.25
-1.93
-5.4
-9.01
-12.58
-15.95
-19.07
-21.95
-24.68
-27.42
-30.4
-33.86
-38.08
-43.11
-48.68
-54.09
-58.36
-60.45
-59.64
-55.69
-48.94
-40.07
-29.96
-19.48
-9.37
-0.19
7.76
14.34
19.59
23.65
26.69
28.86
30.25
30.99
31.24
31.16
30.93
30.69
30.51
30.43
30.46
30.56
30.72
30.9
31.11
31.4
31.8
32.23
32.51
32.39
31.63
30.16
28.1
25.71
23.28
20.95
18.72
16.47
14.07
11.51
8.85
6.21
3.61
1.06
-1.55
-4.22
-6.93
-9.58
-12.12
-14.56
-16.93
-19.34
-21.82
-24.42
-27.14
-30.1
-33.46
-37.43
-42.06
-47.17
-52.17
-56.2
-58.24
-57.47
-53.47
-46.36
-36.75
-25.61
-14.01
-2.98
6.69
14.53
20.4
24.44
26.96
28.25
28.52
27.93
26.65
24.96
23.29
22.06
21.52
21.63
22.04
22.31
22.16
21.65
21.14
21.09
21.73
22.93
24.25
25.1
25.07
24.05
22.23
19.87
17.19
14.28
11.11
7.72
4.28
1.04
-1.82
-4.29
-6.55
-8.75
-11.02
-13.31
-15.5
-17.6
-19.67
-21.96
-24.75
-28.19
-32.25
-36.68
-40.93
-44.21
-45.65
-44.46
-40.25
-33.19
-24.06
-13.99
-4.21
4.38
11.35
16.66
20.52
23.14
24.64
24.99
24.27
22.68
20.65
18.72
17.3
16.59
16.42
16.5
16.59
16.57
16.57
16.73
17.07
17.39
17.36
16.67
15.27
13.35
11.24
9.25
7.46
5.68
3.62
1.02
-2.22
-5.9
-9.71
-13.3
-16.42
-19.15
-21.78
-24.78
-28.55
-33.24
-38.56
-43.79
-47.94
-49.95
-49.08
-45.08
-38.24
-29.33
-19.37
-9.34
-0.07
7.91
14.38
19.27
22.7
24.88
26.06
26.54
26.59
26.38
25.99
25.45
24.79
24.19
23.86
24.02
24.72
25.84
27.08
28.08
28.56
28.36
27.45
25.89
23.84
21.54
19.28
17.28
15.66
14.27
12.77
10.79
8.11
4.76
1.07
-2.57
-5.81
-8.5
-10.75
-12.76
-14.73
-16.79
-18.97
-21.25
-23.6
-26.05
-28.67
-31.59
-35.01
-39.03
-43.65
-48.62
-53.36
-57.04
-58.71
-57.59
-53.33
-46.08
-36.54
-25.77
-14.82
-4.62
4.28
11.62
17.42
21.79
24.88
26.82
27.8
27.99
27.67
27.13
26.64
26.37
26.32
26.43
26.55
26.56
26.46
26.35
26.34
26.55
26.98
27.47
27.79
27.72
27.14
26.07
24.66
23.07
21.39
19.59
17.61
15.37
12.9
10.3
7.68
5.13
2.64
0.19
-2.23
-4.59
-6.81
-8.87
-10.86
-12.95
-15.32
-18.09
-21.15
-24.35
-27.43
-30.22
-32.67
-34.95
-37.38
-40.37
-44.21
-48.84
-53.71
-57.81
-59.91
-58.97
-54.52
-46.83
-36.78
-25.63
-14.61
-4.59
3.92
10.81
16.18
20.24
23.2
25.21
26.4
26.93
26.96
26.7
26.31
25.89
25.44
24.96
24.51
24.23
24.33
24.91
25.93
27.16
28.29
29.05
29.34
29.13
28.43
27.27
25.66
23.71
21.6
19.55
17.65
15.87
14
11.87
9.44
6.89
4.56
2.74
1.49
0.62
-0.29
-1.66
-3.75
-6.5
-9.69
-13
-16.25
-19.4
-22.5
-25.6
-28.65
-31.53
-34.13
-36.48
-38.77
-41.26
-44.1
-47.18
-50.02
-51.92
-52.11
-50.02
-45.44
-38.62
-30.2
-21.02
-11.9
-3.51
3.76
9.78
14.52
18.07
20.48
21.83
22.19
21.7
20.47
18.77
16.91
15.26
14.2
13.96
14.53
15.68
17.07
18.33
19.28
19.83
19.98
19.8
19.36
18.75
18.08
17.41
16.7
15.75
14.3
12.24
9.69
6.95
4.41
2.27
0.48
-1.21
-3.14
-5.51
-8.35
-11.45
-14.55
-17.34
-19.68
-21.65
-23.58
-25.92
-29.05
-33.02
-37.45
-41.56
-44.42
-45.26
-43.71
-39.84
-33.99
-26.72
-18.6
-10.19
-2.08
5.19
11.24
15.87
19.1
21.02
21.78
21.53
20.52
19.08
17.59
16.35
15.55
15.18
15.08
15.04
14.94
14.8
14.71
14.85
15.36
16.24
17.29
18.19
18.47
17.76
15.95
13.25
10.15
7.23
4.83
2.98
1.37
-0.45
-2.72
-5.47
-8.43
-11.31
-13.99
-16.58
-19.31
-22.31
-25.52
-28.77
-31.91
-34.97
-38.17
-41.6
-45
-47.63
-48.54
-46.85
-42.25
-35.12
-26.38
-17.15
-8.34
-0.48
6.2
11.67
15.92
18.96
20.81
21.71
21.94
21.85
21.69
21.57
21.43
21.2
20.93
20.76
20.88
21.41
22.26
23.19
23.89
24.2
24.12
23.78
23.32
22.79
22.12
21.24
20.14
18.9
17.62
16.3
14.82
12.99
10.68
7.91
4.93
2.03
-0.6
-2.94
-5.17
-7.53
-10.15
-13.01
-15.99
-18.95
-21.76
-24.38
-26.85
-29.25
-31.71
-34.43
-37.66
-41.55
-46.06
-50.68
-54.54
-56.53
-55.69
-51.61
-44.51
-35.23
-24.9
-14.59
-5.06
3.24
10.19
15.75
19.96
22.88
24.66
25.54
25.84
25.81
25.62
25.32
24.94
24.5
24.18
24.24
24.9
26.22
27.98
29.72
30.99
31.53
31.38
30.89
30.4
30.11
29.93
29.54
28.62
27.06
24.91
22.35
19.59
16.74
13.85
11.05
8.55
6.51
4.99
3.81
2.59
1.01
-1.13
-3.75
-6.59
-9.43
-12.14
-14.68
-17.03
-19.13
-20.9
-22.4
-23.9
-25.87
-28.76
-32.76
-37.65
-42.79
-47.35
-50.54
-51.79
-50.84
-47.67
-42.51
-35.71
-27.66
-18.81
-9.69
-0.84
7.13
13.65
18.3
20.98
21.92
21.66
20.9
20.15
19.69
19.43
19.12
18.55
17.8
17.18
17.1
17.82
19.23
20.97
22.53
23.54
23.91
23.7
23.03
21.88
20.19
17.93
15.29
12.67
10.53
9.06
8.1
7.08
5.39
2.69
-0.91
-4.84
-8.44
-11.26
-13.24
-14.77
-16.37
-18.5
-21.31
-24.79
-28.71
-32.87
-36.98
-40.62
-43.16
-43.84
-42
-37.38
-30.29
-21.5
-12.08
-3.06
4.87
11.37
16.45
20.24
22.87
24.43
25.06
24.89
24.15
23.04
21.76
20.36
18.9
17.4
15.95
14.69
13.78
13.36
13.48
14.1
15.09
16.2
17.13
17.54
17.16
15.87
13.79
11.19
8.44
5.8
3.38
1.08
-1.27
-3.82
-6.69
-9.78
-12.99
-16.15
-19.14
-21.96
-24.74
-27.76
-31.28
-35.52
-40.34
-45.23
-49.28
-51.49
-51.04
-47.57
-41.29
-32.89
-23.33
-13.65
-4.67
3.05
9.29
14.08
17.63
20.19
22
23.23
23.97
24.31
24.34
24.13
23.73
23.13
22.3
21.28
20.25
19.5
19.29
19.77
20.89
22.34
23.7
24.56
24.58
23.64
21.83
19.39
16.65
13.86
11.27
8.94
6.84
4.85
2.81
0.6
-1.83
-4.44
-7.15
-9.89
-12.61
-15.3
-17.95
-20.54
-23.05
-25.61
-28.5
-32.08
-36.52
-41.62
-46.62
-50.42
-51.92
-50.44
-45.91
-38.87
-30.21
-20.85
-11.62
-3.15
4.08
9.87
14.25
17.5
20.03
22.18
24.07
25.59
26.54
26.76
26.34
25.52
24.65
24.05
23.94
24.37
25.26
26.4
27.51
28.33
28.68
28.5
27.86
26.87
25.61
24.16
22.55
20.84
19.06
17.22
15.27
13.19
11
8.83
6.87
5.23
3.78
2.21
0.1
-2.79
-6.32
-10.06
-13.42
-16.01
-17.8
-19.13
-20.5
-22.35
-24.91
-28.24
-32.24
-36.79
-41.52
-45.82
-48.73
-49.23
-46.55
-40.59
-31.96
-21.94
-11.94
-3.1
4.05
9.6
13.93
17.46
20.34
22.48
23.69
23.83
22.98
21.47
19.77
18.35
17.56
17.51
18.11
19.12
20.24
21.2
21.8
22
21.89
21.56
21.1
20.5
19.69
18.63
17.39
16.03
14.62
13.11
11.37
9.25
6.73
4.03
1.48
-0.64
-2.3
-3.82
-5.65
-8.15
-11.28
-14.71
-17.94
-20.71
-23.13
-25.68
-28.87
-32.95
-37.74
-42.63
-46.81
-49.41
-49.75
-47.49
-42.63
-35.53
-26.92
-17.74
-8.88
-1
5.64
11.09
15.59
19.24
21.94
23.46
23.73
22.98
21.81
20.9
20.73
21.35
22.39
23.36
23.94
24.18
24.36
24.82
25.65
26.64
27.44
27.74
27.41
26.55
25.34
23.95
22.44
20.86
19.12
17.18
14.97
12.48
9.75
6.88
4.04
1.37
-1.08
-3.32
-5.46
-7.64
-9.98
-12.54
-15.3
-18.19
-21.02
-23.65
-26.01
-28.16
-30.4
-33.06
-36.38
-40.34
-44.52
-48.23
-50.61
-50.9
-48.57
-43.54
-36.17
-27.13
-17.36
-7.81
0.72
7.72
13
16.66
19
20.42
21.34
22.07
22.73
23.27
23.59
23.59
23.27
22.74
22.15
21.67
21.45
21.62
22.29
23.48
25.09
26.83
28.28
28.99
28.68
27.37
25.3
22.83
20.29
17.86
15.63
13.6
11.72
9.96
8.29
6.71
5.21
3.71
2.08
0.21
-1.99
-4.51
-7.23
-9.97
-12.55
-14.83
-16.83
-18.68
-20.55
-22.7
-25.34
-28.65
-32.64
-37.17
-41.79
-45.88
-48.72
-49.67
-48.27
-44.43
-38.33
-30.51
-21.69
-12.68
-4.24
3.07
8.98
13.46
16.64
18.67
19.63
19.58
18.65
17.13
15.44
14.08
13.37
13.32
13.73
14.29
14.75
15.12
15.52
16.13
16.98
17.95
18.76
19.15
18.92
18.03
16.55
14.61
12.37
9.98
7.64
5.51
3.68
2.05
0.39
-1.64
-4.29
-7.58
-11.26
-14.93
-18.22
-20.96
-23.32
-25.65
-28.35
-31.7
-35.64
-39.83
-43.65
-46.31
-47.04
-45.22
-40.63
-33.55
-24.75
-15.28
-6.2
1.74
8.24
13.32
17.19
20.03
21.88
22.76
22.78
22.21
21.45
20.87
20.58
20.46
20.29
19.9
19.42
19.18
19.51
20.51
21.91
23.21
23.92
23.85
23.12
22.06
20.92
19.72
18.25
16.25
13.65
10.66
7.67
5.07
3.06
1.49
0.01
-1.79
-4.19
-7.21
-10.65
-14.16
-17.45
-20.3
-22.72
-24.87
-27.07
-29.71
-33.08
-37.25
-41.94
-46.52
-50.07
-51.63
-50.46
-46.35
-39.61
-31.07
-21.73
-12.54
-4.21
2.84
8.44
12.69
15.75
17.93
19.5
20.67
21.55
22.12
22.34
22.17
21.66
20.98
20.34
19.96
19.97
20.4
21.17
22.1
23.06
23.92
24.64
25.2
25.5
25.44
24.85
23.61
21.73
19.33
16.6
13.74
10.91
8.19
5.66
3.35
1.21
-0.78
-2.73
-4.66
-6.56
-8.43
-10.33
-12.39
-14.77
-17.5
-20.55
-23.77
-27.06
-30.45
-34
-37.75
-41.41
-44.48
-46.22
-45.97
-43.32
-38.28
-31.27
-22.96
-14.2
-5.78
1.66
7.67
12.13
15.13
16.88
17.65
17.67
17.16
16.37
15.56
15.01
14.86
15.15
15.79
16.66
17.61
18.53
19.36
20.09
20.68
21.08
21.15
20.73
19.7
18.09
16.1
14.05
12.21
10.69
9.36
7.88
5.88
3.18
-0.2
-3.92
-7.6
-10.93
-13.74
-16.09
-18.14
-20.15
-22.38
-25.05
-28.29
-32.07
-36.2
-40.25
-43.65
-45.74
-45.91
-43.73
-39.1
-32.35
-24.1
-15.15
-6.29
1.83
8.81
14.43
18.6
21.36
22.8
23.17
22.81
22.1
21.39
20.85
20.51
20.24
19.96
19.66
19.52
19.74
20.47
21.66
22.99
24.05
24.42
23.97
22.84
21.39
19.97
18.75
17.66
16.46
14.96
13.09
11.01
8.9
6.86
4.87
2.77
0.39
-2.36
-5.43
-8.69
-11.97
-15.08
-17.9
-20.43
-22.79
-25.27
-28.28
-32.07
-36.69
-41.72
-46.38
-49.73
-51.01
-49.81
-46.19
-40.56
-33.48
-25.47
-17.03
-8.62
-0.75
6.11
11.57
15.52
18.15
19.86
21.03
21.9
22.47
22.63
22.29
21.55
20.68
20
19.75
20.01
20.68
21.62
22.64
23.63
24.52
25.26
25.75
25.88
25.52
24.56
22.97
20.79
18.2
15.47
12.88
10.59
8.62
6.82
4.94
2.79
0.36
-2.24
-4.84
-7.35
-9.77
-12.23
-14.8
-17.52
-20.37
-23.36
-26.55
-30.09
-34.01
-38.14
-42.02
-44.94
-46.16
-45.13
-41.7
-36.1
-28.91
-20.87
-12.7
-4.98
1.89
7.76
12.53
16.22
18.78
20.23
20.56
19.98
18.83
17.53
16.49
15.98
16.07
16.64
17.52
18.48
19.35
20.01
20.39
20.45
20.24
19.89
19.49
19.12
18.73
18.18
17.31
15.99
14.19
11.99
9.5
6.82
4.01
1.08
-2.05
-5.34
-8.71
-11.96
-14.94
-17.64
-20.2
-22.87
-25.93
-29.52
-33.58
-37.93
-42.2
-45.98
-48.71
-49.78
-48.6
-44.85
-38.63
-30.57
-21.62
-12.78
-4.76
2.16
8.04
13
17.11
20.27
22.38
23.44
23.68
23.46
23.12
22.86
22.7
22.6
22.51
22.49
22.67
23.15
23.89
24.79
25.62
26.18
26.35
26.14
25.61
24.88
24.03
23.04
21.85
20.36
18.49
16.24
13.7
11.04
8.45
6.12
4.13
2.43
0.77
-1.2
-3.8
-7.09
-10.83
-14.53
-17.75
-20.32
-22.4
-24.42
-26.72
-29.47
-32.61
-36.01
-39.6
-43.31
-46.88
-49.74
-51.03
-49.88
-45.82
-38.99
-30.15
-20.43
-10.91
-2.42
4.64
10.18
14.29
17.15
18.94
19.92
20.36
20.53
20.65
20.81
20.96
21
20.81
20.44
20.07
20.02
20.52
21.61
23.08
24.57
25.75
26.45
26.71
26.64
26.36
25.89
25.19
24.21
22.96
21.44
19.71
17.75
15.51
12.95
10.11
7.19
4.43
2.07
0.15
-1.5
-3.19
-5.23
-7.74
-10.62
-13.58
-16.36
-18.82
-21.05
-23.27
-25.76
-28.73
-32.3
-36.42
-40.84
-45.06
-48.39
-50.06
-49.48
-46.42
-41.07
-33.95
-25.77
-17.17
-8.75
-0.96
5.78
11.21
15.19
17.73
18.99
19.15
18.49
17.33
16.07
15.13
14.78
15.05
15.73
16.5
17.18
17.81
18.6
19.71
21.05
22.23
22.81
22.52
21.36
19.65
17.74
15.88
14.11
12.33
10.41
8.31
6.04
3.7
1.34
-0.98
-3.28
-5.61
-8.06
-10.75
-13.76
-17.05
-20.54
-24.09
-27.68
-31.39
-35.36
-39.62
-43.81
-47.23
-48.95
-48.12
-44.33
-37.79
-29.24
-19.74
-10.31
-1.73
5.6
11.54
16.17
19.57
21.8
22.92
23.05
22.37
21.19
19.89
18.8
18.15
18.02
18.33
18.9
19.54
20.13
20.64
21.09
21.52
21.96
22.38
22.68
22.76
22.5
21.85
20.8
19.35
17.57
15.52
13.25
10.81
8.25
5.59
2.82
-0.09
-3.16
-6.41
-9.81
-13.26
-16.58
-19.67
-22.47
-25.12
-27.89
-31.13
-35.12
-39.88
-45.07
-50.11
-54.19
-56.58
-56.71
-54.29
-49.36
-42.26
-33.54
-23.95
-14.28
-5.22
2.78
9.43
14.68
18.6
21.32
23.02
23.96
24.41
24.66
24.86
25.06
25.21
25.26
25.23
25.21
25.32
25.59
25.99
26.4
26.73
26.9
26.9
26.73
26.33
25.65
24.64
23.27
21.55
19.55
17.33
14.95
12.49
10.05
7.74
5.63
3.68
1.69
-0.6
-3.48
-7.01
-10.96
-14.94
-18.49
-21.38
-23.73
-26.01
-28.78
-32.47
-37.1
-42.26
-47.18
-50.93
-52.67
-51.82
-48.18
-42
-33.93
-24.87
-15.78
-7.42
-0.22
5.69
10.41
14.07
16.76
18.53
19.42
19.56
19.12
18.35
17.47
16.66
16.06
15.71
15.64
15.83
16.27
16.88
17.61
18.35
18.89
18.98
18.36
16.96
14.93
12.67
10.63
9.05
7.83
6.56
4.76
2.13
-1.21
-4.83
-8.2
-11.06
-13.53
-16.12
-19.43
-23.81
-29.24
-35.14
-40.71
-44.96
-47.11
-46.62
-43.37
-37.59
-29.86
-21.04
-12.03
-3.67
3.5
9.3
13.88
17.54
20.53
22.9
24.52
25.23
25.02
24.04
22.64
21.15
19.8
18.72
17.95
17.57
17.66
18.2
19.1
20.09
20.85
21.14
20.82
19.9
18.37
16.3
13.75
10.87
7.91
5.12
2.6
0.26
-2.16
-4.99
-8.42
-12.36
-16.51
-20.53
-24.21
-27.66
-31.24
-35.37
-40.21
-45.43
-50.25
-53.51
-54.13
-51.45
-45.5
-36.97
-26.96
-16.69
-7.1
1.25
8.23
13.95
18.6
22.3
25.1
26.97
27.97
28.17
27.75
26.94
25.96
24.98
24.11
23.42
22.99
22.93
23.28
24.06
25.12
26.25
27.18
27.63
27.42
26.5
24.91
22.85
20.48
17.99
15.49
13.03
10.57
8.04
5.26
2.08
-1.57
-5.55
-9.58
-13.31
-16.48
-19.15
-21.66
-24.5
-28.16
-32.81
-38.21
-43.76
-48.65
-51.99
-53.09
-51.47
-47.05
-40.17
-31.53
-22.02
-12.51
-3.68
4.11
10.71
16.11
20.28
23.2
24.88
25.43
25.11
24.25
23.2
22.22
21.45
20.94
20.68
20.66
20.87
21.29
21.82
22.37
22.77
22.89
22.64
22
20.99
19.62
17.93
15.93
13.62
11.04
8.25
5.3
2.27
-0.79
-3.86
-6.98
-10.22
-13.7
-17.54
-21.77
-26.35
-31.11
-35.77
-40.01
-43.38
-45.44
-45.74
-43.96
-39.94
-33.8
-25.92
-16.92
-7.56
1.38
9.24
15.59
20.27
23.36
25.07
25.64
25.31
24.34
23.06
21.81
20.92
20.51
20.49
20.6
20.61
20.43
20.2
20.13
20.32
20.63
20.81
20.62
20
19.04
17.92
16.68
15.25
13.45
11.13
8.28
5.01
1.47
-2.21
-5.97
-9.82
-13.75
-17.73
-21.75
-25.87
-30.21
-34.94
-40.12
-45.71
-51.33
-56.34
-59.85
-60.97
-59.08
-54.08
-46.39
-36.85
-26.43
-16.01
-6.2
2.65
10.32
16.73
21.84
25.7
28.49
30.37
31.54
32.12
32.17
31.75
30.95
29.97
29.07
28.52
28.54
29.18
30.29
31.59
32.77
33.59
33.95
33.84
33.24
32.07
30.18
27.55
24.35
20.92
17.65
14.8
12.31
9.94
7.37
4.45
1.27
-1.96
-5.06
-8.05
-11.11
-14.52
-18.41
-22.81
-27.61
-32.71
-38.1
-43.75
-49.49
-54.82
-58.93
-60.88
-59.79
-55.3
-47.66
-37.74
-26.78
-16.01
-6.38
1.63
8.01
13.01
16.97
20.12
22.52
24.14
24.93
24.98
24.51
23.82
23.15
22.62
22.23
21.91
21.66
21.59
21.86
22.55
23.54
24.52
25.04
24.75
23.52
21.47
18.92
16.19
13.54
11.08
8.75
6.44
3.95
1.12
-2.18
-5.91
-9.95
-14.01
-17.9
-21.55
-25.1
-28.89
-33.21
-38.08
-43.12
-47.59
-50.59
-51.35
-49.44
-44.88
-38.02
-29.46
-19.86
-9.86
-0.05
9.01
16.87
23.16
27.65
30.25
31.08
30.41
28.64
26.28
23.87
21.9
20.66
20.25
20.53
21.21
21.95
22.52
22.8
22.83
22.67
22.34
21.76
20.72
19.12
16.98
14.55
12.21
10.23
8.63
7.13
5.25
2.57
-1.1
-5.58
-10.43
-15.13
-19.33
-22.95
-26.17
-29.4
-33.08
-37.55
-42.89
-48.81
-54.58
-59.18
-61.48
-60.66
-56.33
-48.8
-38.82
-27.52
-16
-5.2
4.25
11.98
17.91
22.13
24.93
26.69
27.82
28.66
29.39
30.04
30.41
30.33
29.71
28.64
27.49
26.7
26.65
27.42
28.79
30.29
31.46
31.97
31.76
30.92
29.59
27.94
26.08
24.14
22.27
20.57
18.97
17.31
15.3
12.73
9.51
5.75
1.68
-2.46
-6.48
-10.33
-13.98
-17.45
-20.69
-23.64
-26.18
-28.31
-30.19
-32.22
-34.94
-38.82
-43.99
-50.15
-56.49
-61.98
-65.51
-66.23
-63.64
-57.77
-49.11
-38.53
-27.11
-15.85
-5.48
3.59
11.27
17.59
22.57
26.16
28.35
29.21
28.99
28.06
26.78
25.41
24.06
22.82
21.84
21.33
21.51
22.48
24.1
26.01
27.79
29.08
29.67
29.53
28.73
27.32
25.39
23.03
20.38
17.6
14.81
12.06
9.28
6.4
3.31
0.02
-3.42
-6.88
-10.21
-13.24
-15.9
-18.23
-20.44
-22.9
-25.96
-29.84
-34.52
-39.66
-44.75
-49.11
-52.06
-52.96
-51.41
-47.26
-40.74
-32.41
-23.03
-13.36
-4.04
4.5
11.95
18.11
22.82
25.98
27.62
27.92
27.2
25.84
24.22
22.63
21.24
20.09
19.2
18.56
18.19
18.15
18.44
19.06
19.86
20.66
21.2
21.26
20.66
19.4
17.57
15.42
13.19
11.05
8.96
6.69
3.98
0.6
-3.44
-7.89
-12.36
-16.46
-19.95
-22.88
-25.55
-28.4
-31.87
-36.25
-41.54
-47.49
-53.44
-58.55
-61.87
-62.56
-60.08
-54.32
-45.69
-35.04
-23.47
-12.13
-1.89
6.83
13.99
19.83
24.58
28.28
30.78
31.87
31.48
29.91
27.71
25.58
24.08
23.45
23.6
24.3
25.28
26.37
27.48
28.5
29.36
29.87
29.95
29.55
28.7
27.44
25.79
23.72
21.19
18.24
14.99
11.67
8.47
5.52
2.74
-0.09
-3.19
-6.69
-10.52
-14.44
-18.21
-21.71
-24.96
-28.14
-31.38
-34.81
-38.53
-42.61
-47.13
-51.95
-56.63
-60.29
-61.87
-60.41
-55.43
-47.15
-36.39
-24.4
-12.49
-1.71
7.34
14.5
20.03
24.33
27.76
30.44
32.26
32.99
32.57
31.16
29.18
27.15
25.5
24.4
23.87
23.83
24.22
25
26.1
27.34
28.43
29.04
28.85
27.74
25.79
23.31
20.7
18.32
16.28
14.42
12.37
9.82
6.64
3.03
-0.65
-4.04
-6.99
-9.59
-12.01
-14.42
-16.91
-19.52
-22.44
-25.92
-30.27
-35.66
-41.89
-48.34
-53.98
-57.64
-58.29
-55.35
-48.88
-39.58
-28.59
-17.21
-6.52
2.74
10.27
16.12
20.47
23.55
25.52
26.52
26.61
25.89
24.51
22.72
20.85
19.26
18.23
17.81
17.86
18.19
18.57
18.93
19.25
19.53
19.69
19.58
18.98
17.78
15.91
13.43
10.43
7.02
3.35
-0.4
-4.01
-7.36
-10.43
-13.31
-16.25
-19.47
-23.18
-27.52
-32.53
-38
-43.47
-48.18
-51.15
-51.52
-48.74
-42.8
-34.29
-24.15
-13.44
-3.16
5.96
13.47
19.15
23.08
25.48
26.69
26.98
26.58
25.61
24.14
22.28
20.22
18.21
16.48
15.26
14.67
14.7
15.22
16
16.76
17.25
17.34
16.98
16.18
14.94
13.2
10.9
7.99
4.56
0.83
-2.92
-6.46
-9.76
-12.92
-16.18
-19.79
-23.93
-28.74
-34.29
-40.52
-47.06
-53.22
-57.94
-60.07
-58.67
-53.41
-44.68
-33.53
-21.37
-9.58
0.8
9.24
15.71
20.52
24.08
26.75
28.72
30.01
30.64
30.68
30.32
29.78
29.15
28.41
27.43
26.23
25
24.13
24
24.75
26.15
27.61
28.4
27.97
26.12
23.13
19.52
15.86
12.55
9.67
7.05
4.36
1.32
-2.17
-6.06
-10.11
-14.09
-17.84
-21.36
-24.84
-28.6
-33.01
-38.31
-44.42
-50.82
-56.6
-60.61
-61.75
-59.27
-53.06
-43.64
-32.08
-19.73
-7.88
2.54
11.1
17.8
22.9
26.71
29.45
31.25
32.16
32.28
31.78
30.86
29.71
28.5
27.34
26.32
25.5
24.91
24.56
24.49
24.72
25.24
25.94
26.52
26.56
25.73
23.92
21.39
18.56
15.88
13.54
11.45
9.24
6.55
3.19
-0.77
-5.02
-9.19
-12.98
-16.26
-19.12
-21.87
-24.91
-28.65
-33.27
-38.64
-44.19
-49.07
-52.32
-53.14
-51.02
-45.88
-38.09
-28.44
-17.92
-7.57
1.79
9.65
15.86
20.54
23.9
26.06
27.1
27.09
26.19
24.71
23
21.42
20.16
19.27
18.77
18.65
18.91
19.48
20.22
20.91
21.29
21.16
20.41
19.02
17.04
14.57
11.73
8.63
5.41
2.17
-1.04
-4.22
-7.41
-10.65
-13.97
-17.4
-20.98
-24.82
-29.07
-33.85
-39.13
-44.59
-49.59
-53.19
-54.42
-52.57
-47.37
-39.12
-28.61
-16.92
-5.22
5.42
14.26
20.94
25.47
28.22
29.68
30.37
30.61
30.52
30.05
29.13
27.8
26.19
24.54
23.09
22.02
21.47
21.49
22.07
23.03
24.09
24.86
24.95
24.08
22.21
19.52
16.36
13.13
10.14
7.46
5
2.46
-0.44
-3.97
-8.12
-12.68
-17.27
-21.47
-24.97
-27.79
-30.22
-32.8
-36.09
-40.47
-45.92
-52
-57.82
-62.25
-64.12
-62.47
-56.88
-47.57
-35.43
-21.86
-8.38
3.69
13.58
21.13
26.61
30.52
33.32
35.27
36.45
36.88
36.58
35.69
34.39
32.94
31.58
30.52
29.93
29.88
30.35
31.25
32.36
33.41
34.13
34.31
33.88
32.88
31.43
29.64
27.57
25.2
22.51
19.55
16.44
13.36
10.4
7.54
4.65
1.64
-1.42
-4.39
-7.04
-9.39
-11.6
-13.96
-16.69
-19.79
-23.06
-26.33
-29.51
-32.8
-36.48
-40.8
-45.76
-51.12
-56.34
-60.7
-63.4
-63.67
-60.92
-54.94
-46.06
-35.1
-23.22
-11.58
-1.04
7.93
15.27
21.06
25.41
28.36
29.96
30.28
29.56
28.14
26.42
24.77
23.45
22.62
22.28
22.41
22.96
23.87
25.04
26.27
27.33
27.93
27.81
26.84
25.07
22.68
19.95
17.15
14.49
12.09
9.91
7.82
5.61
3.05
0.02
-3.42
-7.07
-10.7
-14.13
-17.33
-20.37
-23.37
-26.41
-29.55
-32.93
-36.73
-41.1
-45.98
-50.89
-54.95
-57.06
-56.21
-51.9
-44.33
-34.26
-22.86
-11.29
-0.46
9.06
17.02
23.32
27.96
30.99
32.48
32.68
31.92
30.53
28.83
27.01
25.18
23.47
22.02
20.99
20.53
20.65
21.29
22.24
23.32
24.37
25.3
25.99
26.31
26.06
25.05
23.24
20.7
17.62
14.25
10.79
7.37
4.06
0.89
-2.16
-5.13
-8.09
-11.14
-14.33
-17.64
-20.99
-24.28
-27.41
-30.43
-33.46
-36.78
-40.66
-45.27
-50.64
-56.36
-61.65
-65.38
-66.39
-63.84
-57.61
-48.31
-37.11
-25.38
-14.2
-4.16
4.66
12.38
19.16
24.93
29.45
32.45
33.89
33.94
33.02
31.65
30.24
28.97
27.89
26.99
26.31
25.99
26.17
26.87
27.95
29.09
29.96
30.35
30.23
29.69
28.85
27.78
26.41
24.69
22.57
20.07
17.28
14.28
11.18
8.07
5.03
2.16
-0.44
-2.81
-5.01
-7.23
-9.66
-12.44
-15.53
-18.8
-22.03
-25.07
-27.83
-30.41
-32.98
-35.78
-39.08
-43.05
-47.69
-52.64
-57.1
-59.98
-60.19
-56.97
-50.31
-40.92
-30.03
-18.96
-8.76
0.05
7.37
13.33
18.07
21.6
23.87
24.83
24.62
23.55
22.06
20.57
19.36
18.54
18.04
17.79
17.81
18.19
19.03
20.32
21.83
23.18
23.97
23.88
22.83
20.99
18.63
16.1
13.67
11.49
9.54
7.65
5.51
2.78
-0.74
-4.99
-9.58
-14
-17.67
-20.37
-22.22
-23.8
-25.84
-29
-33.55
-39.27
-45.47
-51.13
-55.22
-56.79
-55.23
-50.36
-42.49
-32.38
-21.08
-9.75
0.65
9.5
16.6
22.02
25.97
28.63
30.08
30.32
29.42
27.56
25.11
22.57
20.43
18.97
18.28
18.19
18.5
19.04
19.71
20.47
21.18
21.61
21.5
20.64
19.04
16.92
14.65
12.57
10.87
9.53
8.33
6.94
5.01
2.29
-1.29
-5.5
-9.93
-14.08
-17.66
-20.7
-23.51
-26.51
-30.04
-34.15
-38.67
-43.41
-48.26
-53.05
-57.45
-60.69
-61.73
-59.51
-53.54
-44.14
-32.43
-19.99
-8.23
1.99
10.42
17.27
22.79
27.07
30.01
31.54
31.76
31.06
29.97
28.96
28.25
27.8
27.48
27.18
26.91
26.8
26.94
27.28
27.65
27.85
27.77
27.42
26.88
26.2
25.33
24.13
22.45
20.25
17.58
14.59
11.46
8.35
5.37
2.59
-0.05
-2.68
-5.51
-8.75
-12.43
-16.4
-20.25
-23.6
-26.24
-28.35
-30.48
-33.36
-37.53
-43.04
-49.23
-54.9
-58.62
-59.21
-56.12
-49.55
-40.31
-29.53
-18.37
-7.75
1.69
9.58
15.83
20.53
23.85
25.99
27.09
27.23
26.46
24.91
22.85
20.64
18.63
17.13
16.27
16.04
16.4
17.22
18.42
19.8
21.17
22.2
22.64
22.28
21.1
19.22
16.9
14.4
11.88
9.41
6.88
4.19
1.28
-1.82
-5.11
-8.53
-12.03
-15.55
-19.01
-22.38
-25.76
-29.44
-33.73
-38.8
-44.31
-49.36
-52.71
-53.22
-50.28
-44.03
-35.3
-25.23
-14.89
-5.03
3.95
11.82
18.48
23.78
27.65
30.07
31.15
31.1
30.19
28.67
26.82
24.92
23.2
21.88
21.11
20.96
21.45
22.45
23.72
24.92
25.64
25.49
24.3
22.16
19.39
16.46
13.74
11.41
9.4
7.41
5.13
2.35
-0.96
-4.69
-8.57
-12.35
-15.83
-18.91
-21.58
-24
-26.45
-29.38
-33.26
-38.4
-44.77
-51.84
-58.49
-63.33
-64.97
-62.55
-56.01
-46.14
-34.35
-22.18
-10.81
-0.9
7.39
14.26
19.89
24.41
27.83
30.16
31.53
32.14
32.19
31.81
31
29.8
28.31
26.82
25.68
25.22
25.52
26.4
27.49
28.38
28.76
28.49
27.61
26.21
24.38
22.17
19.6
16.66
13.39
9.88
6.31
2.91
-0.08
-2.53
-4.47
-6.17
-7.96
-10.15
-12.89
-16.08
-19.44
-22.61
-25.37
-27.71
-29.86
-32.22
-35.21
-39.08
-43.76
-48.67
-52.81
-54.95
-54.05
-49.53
-41.51
-30.75
-18.42
-5.78
6.08
16.38
24.68
30.85
35
37.48
38.81
39.55
40.17
40.95
41.89
42.79
43.35
43.3
42.54
41.18
39.55
38.01
36.87
36.22
35.96
35.79
35.35
34.36
32.66
30.32
27.49
24.36
21.14
17.97
14.92
11.93
8.84
5.46
1.64
-2.57
-6.94
-11.12
-14.86
-18.1
-21.08
-24.2
-27.91
-32.44
-37.66
-43.02
-47.67
-50.63
-51.08
-48.63
-43.46
-36.27
-28.01
-19.6
-11.73
-4.84
0.88
5.3
8.38
10.2
11
11.12
10.93
10.64
10.3
9.89
9.38
8.87
8.53
8.57
9.14
10.21
11.69
13.32
14.83
15.93
16.34
15.93
14.66
12.7
10.31
7.81
5.5
3.58
2.06
0.8
-0.49
-2.11
-4.34
-7.25
-10.72
-14.48
-18.22
-21.74
-25.04
-28.28
-31.77
-35.82
-40.6
-46.03
-51.74
-57.01
-60.94
-62.6
-61.2
-56.42
-48.44
-38.01
-26.27
-14.43
-3.5
5.91
13.62
19.75
24.5
28.06
30.51
31.92
32.37
32.02
31.1
29.91
28.72
27.79
27.26
27.24
27.69
28.49
29.49
30.53
31.49
32.3
32.87
33.04
32.65
31.6
29.94
27.85
25.64
23.44
21.27
18.94
16.28
13.25
10
6.76
3.72
0.85
-2.05
-5.19
-8.53
-11.86
-14.89
-17.51
-19.97
-22.67
-26
-30.12
-34.88
-40.02
-45.21
-50.19
-54.58
-57.76
-58.97
-57.48
-52.94
-45.58
-36.18
-25.77
-15.31
-5.43
3.51
11.31
17.77
22.67
25.86
27.4
27.57
26.76
25.46
24.03
22.73
21.66
20.82
20.2
19.81
19.72
20.01
20.72
21.78
23
24.1
24.78
24.83
24.13
22.77
20.82
18.44
15.66
12.52
9.05
5.33
1.49
-2.28
-5.81
-8.99
-11.85
-14.51
-17.22
-20.28
-23.92
-28.25
-33.18
-38.44
-43.49
-47.63
-50.04
-49.96
-46.88
-40.78
-32.18
-22.08
-11.63
-1.84
6.69
13.79
19.55
24.09
27.33
29.08
29.17
27.76
25.35
22.72
20.61
19.43
19.17
19.41
19.67
19.63
19.29
18.93
18.87
19.23
19.85
20.34
20.28
19.43
17.82
15.7
13.36
11.04
8.75
6.34
3.61
0.46
-3.1
-6.96
-10.97
-14.99
-18.93
-22.75
-26.48
-30.28
-34.4
-39.08
-44.44
-50.27
-55.89
-60.23
-62.11
-60.62
-55.48
-47.14
-36.58
-25.07
-13.66
-3.14
6.12
13.96
20.35
25.32
28.92
31.27
32.54
32.93
32.67
31.94
30.91
29.71
28.5
27.44
26.68
26.37
26.61
27.41
28.7
30.24
31.7
32.73
33.03
32.52
31.27
29.51
27.45
25.26
23
20.7
18.3
15.79
13.16
10.44
7.64
4.79
1.81
-1.39
-4.97
-8.99
-13.36
-17.8
-21.87
-25.23
-27.77
-29.78
-31.84
-34.67
-38.79
-44.34
-50.87
-57.46
-62.84
-65.7
-65.03
-60.39
-52.07
-41.03
-28.66
-16.42
-5.43
3.74
11.03
16.74
21.24
24.74
27.31
28.89
29.48
29.22
28.41
27.36
26.33
25.44
24.77
24.42
24.53
25.25
26.59
28.33
29.99
31.09
31.24
30.36
28.64
26.44
24.11
21.82
19.6
17.32
14.84
12.05
8.98
5.8
2.69
-0.19
-2.78
-5.1
-7.32
-9.64
-12.25
-15.19
-18.43
-21.81
-25.24
-28.76
-32.62
-37.04
-42.09
-47.39
-52.05
-54.89
-54.76
-51.05
-43.88
-34.14
-23.15
-12.2
-2.24
6.27
13.3
18.97
23.42
26.66
28.63
29.29
28.78
27.44
25.67
23.92
22.4
21.19
20.24
19.5
19.03
18.99
19.5
20.55
21.92
23.23
24.02
23.93
22.84
20.87
18.36
15.69
13.13
10.71
8.2
5.29
1.75
-2.36
-6.7
-10.87
-14.57
-17.78
-20.73
-23.7
-26.84
-30.16
-33.64
-37.39
-41.63
-46.54
-51.92
-57.03
-60.71
-61.74
-59.33
-53.48
-44.88
-34.68
-24.02
-13.74
-4.3
4.1
11.36
17.37
21.98
25.2
27.2
28.35
29.04
29.55
29.97
30.22
30.23
30.02
29.86
30.04
30.76
31.91
33.11
33.89
33.87
32.99
31.45
29.64
27.89
26.35
24.98
23.53
21.79
19.63
17.03
14.15
11.11
7.98
4.73
1.26
-2.44
-6.29
-10.08
-13.55
-16.55
-19.12
-21.48
-23.9
-26.7
-30.12
-34.33
-39.34
-44.96
-50.68
-55.73
-59.17
-60.1
-57.95
-52.58
-44.36
-34.11
-22.94
-11.96
-2.13
6.01
12.39
17.23
20.92
23.75
25.8
27.01
27.32
26.82
25.73
24.41
23.18
22.24
21.68
21.48
21.54
21.74
21.96
22.14
22.24
22.25
22.11
21.71
20.87
19.52
17.67
15.47
13.11
10.66
8.07
5.2
1.95
-1.63
-5.31
-8.81
-11.9
-14.51
-16.8
-19.02
-21.5
-24.51
-28.25
-32.74
-37.72
-42.63
-46.64
-48.82
-48.36
-44.89
-38.59
-30.19
-20.7
-11.17
-2.35
5.36
11.94
17.43
21.84
25.08
26.98
27.51
26.8
25.19
23.09
20.87
18.81
17.05
15.69
14.76
14.26
14.13
14.22
14.37
14.4
14.21
13.77
13.05
12.05
10.76
9.1
7.06
4.62
1.75
-1.51
-5.15
-9.05
-13.02
-16.81
-20.23
-23.24
-26.04
-29.04
-32.73
-37.35
-42.67
-47.94
-52.06
-53.94
-52.82
-48.54
-41.52
-32.56
-22.55
-12.3
-2.43
6.56
14.31
20.51
25
27.82
29.24
29.59
29.25
28.47
27.44
26.25
25.01
23.85
22.94
22.41
22.28
22.5
22.9
23.35
23.71
23.86
23.67
22.99
21.77
20.04
17.98
15.79
13.64
11.54
9.36
6.96
4.28
1.34
-1.74
-4.92
-8.24
-11.79
-15.6
-19.53
-23.36
-26.89
-30.21
-33.65
-37.65
-42.45
-47.84
-53.02
-56.87
-58.3
-56.58
-51.62
-43.92
-34.41
-24.1
-13.86
-4.32
4.16
11.38
17.28
21.81
25.02
27.06
28.14
28.55
28.52
28.22
27.64
26.79
25.67
24.44
23.36
22.7
22.66
23.27
24.38
25.73
27.04
28.05
28.54
28.34
27.33
25.49
22.96
20.02
17.02
14.24
11.74
9.39
6.9
3.99
0.58
-3.24
-7.17
-10.92
-14.32
-17.34
-20.15
-22.96
-25.99
-29.47
-33.54
-38.24
-43.34
-48.29
-52.15
-53.86
-52.58
-47.98
-40.4
-30.73
-20.11
-9.63
-0.09
8.01
14.41
19.01
21.87
23.21
23.39
22.8
21.76
20.42
18.81
17.05
15.38
14.21
13.87
14.45
15.69
17.13
18.33
19.09
19.48
19.67
19.73
19.51
18.72
17.2
15.03
12.55
10.06
7.66
5.12
2.08
-1.63
-5.86
-10.14
-13.99
-17.19
-20
-22.98
-26.8
-31.8
-37.76
-43.89
-48.97
-51.8
-51.51
-47.89
-41.32
-32.7
-23.08
-13.35
-4.13
4.26
11.67
18
23.09
26.83
29.15
30.18
30.14
29.33
28
26.41
24.74
23.24
22.13
21.61
21.76
22.47
23.43
24.28
24.75
24.69
24.16
23.29
22.17
20.82
19.21
17.37
15.35
13.23
10.98
8.47
5.47
1.73
-2.76
-7.82
-13
-17.84
-21.98
-25.34
-28.19
-30.97
-34.26
-38.44
-43.57
-49.27
-54.69
-58.63
-59.89
-57.63
-51.71
-42.73
-31.87
-20.44
-9.56
0.17
8.56
15.7
21.72
26.58
30.19
32.44
33.35
33.13
32.12
30.67
29.11
27.63
26.39
25.49
25.05
25.2
26.01
27.41
29.14
30.77
31.89
32.16
31.58
30.3
28.7
27.04
25.43
23.76
21.79
19.33
16.31
12.9
9.37
5.98
2.81
-0.24
-3.38
-6.75
-10.36
-14.02
-17.48
-20.56
-23.22
-25.64
-28.05
-30.69
-33.73
-37.29
-41.34
-45.71
-49.99
-53.51
-55.48
-55.18
-52.17
-46.41
-38.28
-28.41
-17.6
-6.67
3.6
12.51
19.57
24.51
27.37
28.42
28.07
26.75
24.85
22.75
20.76
19.19
18.2
17.8
17.89
18.3
18.93
19.78
20.86
22.09
23.23
23.87
23.63
22.28
19.88
16.82
13.59
10.68
8.39
6.72
5.39
3.97
2.07
-0.6
-4.04
-8
-12.11
-16.01
-19.46
-22.42
-25.08
-27.76
-30.88
-34.7
-39.2
-44
-48.31
-51.19
-51.78
-49.48
-44.17
-36.2
-26.26
-15.28
-4.27
5.86
14.36
20.78
24.99
27.26
28.03
27.84
27.09
26.04
24.84
23.54
22.25
21.12
20.33
20.02
20.26
21
22.11
23.35
24.47
25.18
25.3
24.7
23.4
21.54
19.31
16.85
14.24
11.58
8.93
6.42
4.09
1.84
-0.57
-3.46
-7.02
-11.18
-15.59
-19.82
-23.57
-26.85
-29.97
-33.39
-37.46
-42.19
-47.22
-51.85
-55.29
-56.79
-55.84
-52.3
-46.32
-38.27
-28.68
-18.2
-7.56
2.41
10.96
17.59
22.13
24.83
26.17
26.68
26.78
26.67
26.43
25.98
25.27
24.26
23.01
21.68
20.51
19.76
19.59
19.92
20.48
20.95
21.11
20.94
20.53
19.94
19.11
17.87
16.06
13.69
10.93
8.01
5.09
2.17
-0.87
-4.1
-7.47
-10.83
-14.04
-17.04
-19.96
-23
-26.32
-30.06
-34.24
-38.83
-43.58
-47.95
-51.07
-51.93
-49.7
-44.1
-35.6
-25.29
-14.5
-4.4
4.31
11.33
16.7
20.54
22.94
24.01
23.84
22.7
20.91
18.84
16.84
15.14
13.93
13.28
13.18
13.52
14.13
14.81
15.4
15.8
15.93
15.76
15.19
14.12
12.51
10.33
7.66
4.63
1.4
-1.86
-4.99
-7.9
-10.56
-13.05
-15.59
-18.47
-22.08
-26.68
-32.27
-38.42
-44.28
-48.69
-50.59
-49.28
-44.67
-37.24
-27.84
-17.48
-6.99
2.96
11.79
19.04
24.34
27.6
29.01
29.1
28.46
27.56
26.56
25.35
23.76
21.74
19.5
17.44
16.01
15.48
15.84
16.79
17.83
18.48
18.43
17.64
16.28
14.59
12.71
10.57
8.03
4.94
1.35
-2.49
-6.25
-9.72
-12.86
-15.85
-18.93
-22.24
-25.88
-29.89
-34.42
-39.61
-45.36
-51.07
-55.61
-57.6
-55.98
-50.45
-41.68
-31.02
-20.03
-9.9
-1.25
5.85
11.6
16.21
19.75
22.21
23.62
24.12
23.98
23.43
22.68
21.79
20.74
19.47
18
16.49
15.2
14.41
14.25
14.56
14.95
14.84
13.72
11.29
7.7
3.39
-1.02
-5
-8.34
-11.15
-13.79
-16.65
-20.02
-23.96
-28.31
-32.77
-36.98
-40.7
-43.91
-46.82
-49.81
-53.22
-57.07
-60.93
-63.85
-64.64
-62.05
-55.23
-43.92
-28.66
-10.68
8.13
25.68
40.08
50.07
55.34
56.58
55.15
52.65
50.39
49.09
48.9
49.53
50.61
51.86
53.12
54.38
55.62
56.81
57.91
58.91
59.9
61.04
62.44
64.1
65.74
66.88
66.99
65.68
62.87
58.86
54.21
49.55
45.35
41.75
38.63
35.7
32.7
29.5
26.04
22.14
17.49
11.68
4.43
-4.04
-12.95
-21.01
-26.94
-29.88
-29.79
-27.46
-24.18
-21.25
-19.57
-19.38
-20.44
-22.29
-24.53
-26.96
-29.57
-32.37
-35.2
-37.72
-39.46
-40.05
-39.39
-37.74
-35.53
-33.19
-30.96
-28.86
-26.71
-24.37
-21.88
-19.41
-17.26
-15.69
-14.86
-14.81
-15.4
-16.36
-17.29
-17.75
-17.36
-16
-13.92
-11.75
-10.29
-10.34
-12.35
-16.26
-21.44
-26.77
-30.9
-32.54
-30.77
-25.28
-16.49
-5.46
6.32
17.32
26.35
32.82
36.82
38.91
39.83
40.18
40.24
39.99
39.2
37.66
35.27
32.19
28.73
25.33
22.42
20.29
19.05
18.53
18.35
17.94
16.75
14.44
10.9
6.39
1.45
-3.25
-7.16
-9.97
-11.84
-13.24
-14.8
-17.04
-20.14
-23.86
-27.73
-31.29
-34.26
-36.64
-38.65
-40.56
-42.64
-44.97
-47.42
-49.58
-50.81
-50.31
-47.51
-42.31
-35.24
-27.38
-19.97
-14.04
-10.09
-8.18
-8.09
-9.62
-12.63
-17.03
-22.56
-28.67
-34.71
-40.07
-44.44
-47.9
-50.76
-53.28
-55.57
-57.65
-59.59
-61.81
-65.05
-70.12
-77.55
-87.26
-98.58
-110.68
-123.03
-135.5
-148.08
-160.36
-171.11
-178.52
-180.86
-177.31
-168.23
-155.08
-139.61
-123.1
-105.98
-87.8
-67.65
-44.57
-17.98
12.05
44.54
77.58
108.47
134.29
152.68
162.65
164.88
161.42
155.01
148.07
142.11
137.53
133.93
130.58
126.75
121.86
115.5
107.46
97.75
86.75
75.16
63.82
53.4
44.18
35.94
28.21
20.66
13.37
6.81
1.73
-1.27
-1.93
-0.39
2.95
7.55
12.82
18.09
22.61
25.68
26.9
26.37
24.7
22.79
21.39
20.83
20.97
21.45
22.03
22.66
23.43
24.32
25.03
25.07
24.03
21.86
18.93
15.85
13.23
11.37
10.25
9.6
9.14
8.84
9.07
10.53
14.01
19.96
28.24
37.96
47.86
56.74
63.98
69.51
73.63
76.53
78.01
77.58
74.75
69.38
61.76
52.49
42.18
31.27
20.09
9
-1.44
-10.6
-17.81
-22.69
-25.22
-25.76
-24.8
-22.88
-20.41
-17.7
-14.94
-12.24
-9.66
-7.08
-4.25
-0.87
3.3
8.23
13.48
18.39
22.31
24.93
26.47
27.49
28.55
29.85
30.93
30.95
29.03
24.78
18.48
11.06
3.63
-2.99
-8.52
-13.29
-17.84
-22.59
-27.57
-32.39
-36.57
-39.96
-42.67
-44.87
-46.68
-47.9
-47.94
-46.16
-42.01
-35.42
-26.9
-17.16
-6.76
3.86
14.39
24.42
33.36
40.75
46.3
49.73
51.45
52.28
52.91
53.59
54.12
54.22
54.5
56.1
59.44
65.02
73.05
82.5
91.26
96.76
96.72
91.05
80.76
65.95
48
29.68
13.35
0.56
-8.13
-13.06
-13.52
-9.55
-4.83
-2.23
-2.63
-6.67
-14.44
-25.23
-37.44
-46.8
-49.48
-46.83
-40.03
-28.61
-12.82
6.59
28.42
37.62
24.2
7.25
-4.64
-15.81
-26.31
-35.66
-43.56
-50.34
-56.66
-60.98
-61.63
-60.99
-60.27
-58.62
-55.99
-53.04
-50.65
-49.47
-48.01
-44.66
-41.2
-38.8
-37.07
-35.99
-35.62
-35.94
-36.78
-36.85
-35.17
-33.2
-32.08
-31.8
-32.19
-32.85
-33.2
-32.8
-31.09
-28.13
-25.47
-24.49
-25.66
-28.93
-33.59
-38.5
-42.36
-43.82
-42.07
-37.36
-30.55
-22.86
-15.68
-10.21
-7.08
-6.24
-7.03
-8.58
-10.07
-10.97
-11.16
-10.75
-10.02
-9.23
-8.51
-7.81
-7
-5.98
-4.81
-3.76
-3.11
-3.01
-3.38
-3.97
-4.6
-5.35
-6.57
-8.75
-12.25
-17.12
-23.17
-30.13
-37.69
-45.63
-53.63
-61.24
-67.89
-72.99
-76.13
-77.17
-76.19
-73.4
-69.09
-63.53
-56.99
-49.85
-42.52
-35.61
-29.7
-25.24
-22.39
-20.84
-19.78
-18.04
-14.38
-7.89
1.68
13.89
27.81
42.42
56.95
71.05
84.72
97.97
110.59
122.06
131.69
138.93
143.65
146.22
147.24
147.19
146.19
144.01
140.32
135.08
128.78
122.34
116.8
112.93
110.94
110.42
110.41
109.76
107.32
102.26
94.31
83.86
71.86
59.54
47.96
37.65
28.55
20.22
12.23
4.48
-2.8
-9.19
-14.47
-18.67
-22.13
-25.28
-28.49
-32.07
-36.21
-40.96
-46.16
-51.36
-55.82
-58.85
-60.04
-59.54
-57.85
-55.58
-52.98
-49.82
-45.54
-39.62
-31.95
-22.82
-12.8
-2.43
7.94
18.05
27.61
36.26
43.66
49.64
54.38
58.43
62.44
67.02
72.43
78.6
85.07
91.14
95.92
98.64
98.73
96.06
90.93
83.99
75.95
67.26
58.06
48.27
37.86
27.13
16.82
7.77
0.65
-4.32
-7.48
-9.44
-10.91
-12.42
-14.31
-16.82
-20.11
-24.16
-28.67
-33.11
-36.91
-39.86
-42.28
-44.64
-47.28
-49.89
-51.67
-51.74
-49.83
-46.64
-43.56
-42.01
-42.66
-45.16
-48.42
-51.21
-52.92
-53.72
-54.28
-55.26
-56.84
-58.76
-60.48
-61.65
-62.24
-62.55
-62.84
-63.21
-63.46
-63.21
-62.23
-60.54
-58.46
-56.39
-54.62
-53.16
-51.77
-50.13
-48.03
-45.55
-42.93
-40.52
-38.62
-37.35
-36.72
-36.66
-37.05
-37.68
-38.19
-37.92
-36.16
-32.41
-26.67
-19.61
-12.31
-5.82
-0.75
2.84
5.33
7.19
8.64
9.7
10.38
10.8
11.35
12.4
14.18
16.46
18.73
20.36
20.97
20.51
19.31
17.78
16.22
14.79
13.42
12.01
10.51
8.99
7.63
6.56
5.8
5.06
3.87
1.6
-2.18
-7.53
-14.07
-20.98
-27.36
-32.46
-35.96
-38.02
-39.2
-40.18
-41.5
-43.37
-45.64
-47.84
-49.41
-49.68
-47.96
-43.66
-36.37
-26.11
-13.5
0.17
13.22
23.89
30.94
34
33.54
30.68
26.62
22.36
18.52
15.45
13.39
12.6
13.24
15.18
17.81
20.19
21.3
20.51
17.88
14.04
9.9
6.01
2.21
-2.23
-8.28
-16.49
-26.64
-37.67
-47.99
-55.97
-60.36
-60.62
-57.02
-50.59
-42.93
-35.7
-30.23
-26.94
-25.17
-23.43
-20.05
-14.02
-5.51
4.09
12.93
19.52
23.29
24.73
24.85
24.49
23.92
22.89
21.02
18.25
14.93
11.53
8.32
5.13
1.47
-2.97
-8
