-46.7
-48.86
-47.53
-42.4
-33.92
-23.2
-11.59
-0.32
9.75
18.15
24.69
29.36
32.22
33.46
33.38
32.38
30.87
29.16
27.39
25.55
23.62
21.66
19.85
18.41
17.43
16.8
16.18
15.19
13.59
11.33
8.63
5.74
2.87
0.02
-2.94
-6.16
-9.74
-13.7
-18.14
-23.21
-29
-35.31
-41.43
-46.14
-48.03
-46.07
-39.98
-30.45
-18.83
-6.7
4.6
14.25
21.93
27.67
31.49
33.45
33.52
31.86
28.87
25.22
21.66
18.82
16.96
15.93
15.35
14.81
14.14
13.43
12.95
12.87
13.02
12.91
11.96
9.79
6.36
2.06
-2.58
-7.07
-11.15
-14.82
-18.21
-21.47
-24.79
-28.39
-32.56
-37.45
-42.97
-48.42
-52.62
-54.13
-51.8
-45.23
-35
-22.51
-9.51
2.43
12.32
19.85
25.24
28.91
31.18
32.14
31.76
30.05
27.36
24.35
21.77
20.13
19.41
19.11
18.57
17.4
15.74
14.11
13.03
12.6
12.45
11.85
10.25
7.5
3.94
0.15
-3.4
-6.49
-9.22
-11.92
-14.99
-18.81
-23.65
-29.53
-36.1
-42.52
-47.63
-50.2
-49.31
-44.65
-36.63
-26.23
-14.76
-3.43
6.77
15.3
21.97
26.85
30.12
31.95
32.53
32.08
30.9
29.34
27.69
26.12
24.62
23.15
21.67
20.29
19.18
18.49
18.27
18.39
18.6
18.59
18.06
16.71
14.31
10.76
6.23
1.17
-3.84
-8.29
-12.05
-15.41
-18.93
-23.16
-28.38
-34.47
-40.97
-47.12
-51.97
-54.54
-54.05
-50.13
-43.03
-33.59
-23.03
-12.48
-2.7
5.91
13.25
19.24
23.72
26.52
27.61
27.18
25.69
23.68
21.53
19.47
17.53
15.6
13.56
11.34
8.96
6.52
4.22
2.29
0.94
0.27
0.14
0.23
-0.01
-1.13
-3.43
-6.88
-11
-15.07
-18.48
-20.97
-22.8
-24.58
-27.01
-30.44
-34.75
-39.34
-43.32
-45.87
-46.33
-44.39
-40.03
-33.5
-25.29
-16
-6.32
3.01
11.31
18
22.55
24.45
23.32
18.98
11.73
2.58
-6.89
-14.88
-19.95
-21.45
-19.58
-15.19
-9.25
-2.46
4.91
12.86
21.53
30.93
41
51.57
62.25
72.37
80.82
86.32
87.82
84.94
78.21
68.9
58.49
48.21
38.74
30.19
22.47
15.44
9.15
3.82
-0.18
-2.3
-1.87
1.8
9.06
19.53
31.85
43.85
53.12
57.86
57.4
52.17
43.09
30.72
14.85
-5.27
-30.07
-58.81
-89.41
-119
-145.14
-166.67
-183.81
-197.43
-207.99
-215.02
-217.48
-214.51
-206.13
-193.21
-176.59
-156.22
-131.03
-100.19
-64.97
-29.89
-1.99
12.05
9.42
-6.64
-27.54
-42.75
-44.26
-29.62
-2.15
31.63
65.5
96.01
122.73
146.62
167.97
185.58
197.31
201.73
199.38
192.73
185.21
179.54
176.47
174.63
171.29
163.7
150.41
131.9
110.44
89.15
70.94
57.49
48.87
43.87
40.79
38.34
36.21
34.88
35.21
37.66
41.96
47.16
52.13
55.97
58.31
59.22
59.04
58.21
57.19
56.42
56.21
56.6
57.32
57.94
58.24
58.6
60.11
64.24
72.32
84.91
101.54
120.78
140.68
159.12
174.3
184.97
190.57
191.36
188.36
183.08
177.03
171.23
165.91
160.51
154.15
146.13
136.17
124.43
111.13
96.33
79.82
61.27
40.52
17.7
-6.79
-32.42
-58.64
-84.86
-110.24
-133.71
-154.02
-170.05
-181.19
-187.47
-189.51
-188.34
-185.07
-180.75
-176.18
-171.88
-168.06
-164.65
-161.38
-157.92
-154.09
-149.88
-145.54
-141.43
-137.93
-135.31
-133.65
-132.86
-132.72
-132.92
-133.11
-132.78
-131.34
-128.12
-122.62
-114.61
-104.28
-92.14
-78.83
-65.02
-51.35
-38.46
-27.05
-17.77
-10.92
-6.29
-3.1
-0.32
2.9
6.82
11.12
15.12
18.18
20.04
20.81
20.84
20.47
19.93
19.41
19.25
19.99
22.37
27.04
34.27
43.82
54.96
66.47
76.81
84.22
86.97
83.79
74.33
59.64
41.93
23.97
7.9
-5.47
-16.82
-27.36
-37.73
-47.24
-54.05
-56.41
-53.69
-47.06
-38.89
-31.55
-26.34
-22.81
-19.37
-14.08
-5.65
6.14
20.47
35.9
50.79
63.7
73.75
80.77
85.41
88.9
92.64
97.57
103.8
110.58
116.55
120.36
121.06
118.39
112.57
104.05
93.2
80.2
65.15
48.23
29.6
9.28
-12.86
-36.44
-59.66
-78.58
-87.82
-82.48
-60.87
-26.13
14.12
50.48
75.34
85.59
82.85
71.41
55.28
36.31
14.38
-10.71
-37.31
-61.44
-78.3
-84.66
-80.74
-70.23
-58.77
-51.48
-50.97
-56.83
-66.52
-77.03
-86.3
-93.83
-100.28
-106.61
-113.12
-119.26
-123.83
-125.61
-124.14
-120.08
-115.1
-111.3
-110.32
-112.65
-117.47
-123.05
-127.66
-130.41
-131.6
-132.49
-134.5
-138.46
-144.11
-150.22
-155.31
-158.19
-158.4
-156.12
-151.97
-146.75
-141.7
-138.52
-139.09
-144.61
-154.38
-165.36
-172.82
-172.43
-162.65
-145.97
-128.12
-115.74
-113.16
-120.6
-134.37
-148.71
-158.09
-158.84
-149.64
-131.25
-106.07
-77.54
-49.6
-25.76
-8.08
3.45
10.65
16.16
22.18
29.64
38.26
47.06
55.06
61.4
65.28
65.87
62.49
55.01
44.32
32.13
20.45
10.65
3.04
-3.25
-9.54
-16.52
-23.39
-27.89
-27.18
-19.26
-4.13
16.08
37.85
57.8
73.59
84.16
89.14
88.28
81.68
70.68
58.52
49.92
49.16
57.84
73.47
89.93
99.98
98.17
83.16
58.02
28.85
2.11
-17.9
-30.42
-37.66
-43.18
-49.9
-58.78
-68.9
-78.57
-86.71
-93.55
-100.31
-107.98
-116.33
-123.86
-128.87
-130.78
-130.59
-130.1
-130.19
-129.32
-123.64
-108.54
-81.14
-42.06
4.32
51.36
92.6
123.92
144.51
156.31
162.72
167.25
172.52
179.86
189.43
200.24
210.35
217.47
219.64
215.94
207.06
195.05
182.58
172.06
164.93
161.31
160.11
159.38
156.82
150.16
137.77
119.16
95.28
68.42
41.51
17.22
-2.95
-19.12
-32.88
-46.55
-62.13
-80.33
-100.05
-118.51
-132.05
-137.34
-132.68
-118.75
-98.45
-75.76
-54.21
-35.44
-18.91
-2.45
16.6
40.29
69.32
102.53
136.44
165.17
181.25
177.68
150.67
102.06
39.72
-24.49
-78.84
-115.85
-134.35
-138.58
-134.9
-128.15
-119.53
-107.03
-87.78
-60.43
-26.48
10.25
45.16
74.39
95.68
108.06
111.17
104.98
90.17
68.74
44.49
22.34
6.84
0.49
2.67
9.9
17.34
20.87
18.72
12.17
4.75
0.56
2.43
10.82
23.86
38.46
51.63
61.51
67.71
71
72.64
74.04
76.46
80.89
87.79
96.77
106.49
114.9
119.9
120.11
115.4
106.73
95.79
84.32
73.68
64.7
57.65
52.27
47.84
43.32
37.67
30.32
21.41
11.67
1.99
-7.12
-15.94
-25.41
-36.57
-49.98
-65.22
-80.89
-95.05
-105.7
-111.48
-111.98
-107.9
-100.8
-92.63
-85.08
-79.05
-74.62
-71.23
-68.32
-65.74
-63.83
-63.01
-63.32
-64.08
-64.07
-62.15
-57.79
-51.52
-44.63
-38.71
-34.96
-33.78
-34.68
-36.57
-38.21
-38.71
-37.81
-35.79
-33.33
-31.08
-29.37
-28.21
-27.28
-26.34
-25.32
-24.29
-23.39
-22.58
-21.72
-20.59
-19.09
-17.27
-15.26
-13.1
-10.76
-8.22
-5.61
-3.2
-1.17
0.49
2.16
4.29
7.17
10.68
14.44
18.02
21.32
24.48
27.55
30.36
32.26
32.55
30.88
27.49
23.21
18.97
15.38
12.64
10.79
9.98
10.51
12.71
16.54
21.51
26.79
31.59
35.43
38.24
40.15
41.3
41.74
41.42
40.44
39.01
37.45
35.9
34.4
32.8
31.01
29.04
27.03
25.15
23.42
21.67
19.52
16.57
12.49
7.22
1.04
-5.51
-11.63
-16.46
-19.3
-19.81
-18.08
-14.59
-9.89
-4.43
1.51
7.65
13.53
18.47
21.7
22.82
21.95
19.83
17.44
15.55
14.39
13.7
12.99
11.96
10.67
9.44
8.63
8.41
8.68
9.25
9.9
10.43
10.6
10.18
8.95
6.96
4.66
2.88
2.63
4.66
9.11
15.44
22.64
29.62
35.69
40.59
44.38
47.13
48.77
49.18
48.34
46.42
43.79
40.76
37.45
33.69
29.15
23.5
16.5
8.1
-1.58
-12.22
-23.41
-34.78
-46.12
-57.55
-69.4
-81.96
-94.86
-106.88
-116
-119.88
-116.55
-104.86
-84.7
-56.85
-23.07
13.9
50.51
83.03
108.41
125.31
134.57
138.86
141.72
146.12
153.46
163.2
173.43
181.8
186.59
187.24
184.24
178.6
171.27
162.73
153.07
142.37
131
119.57
108.59
97.86
86.38
72.66
55.61
35.29
13.1
-8.49
-26.82
-39.93
-47.1
-48.92
-46.97
-43.15
-38.98
-35.05
-30.84
-25
-15.85
-2.35
15.39
35.7
55.75
72.34
83.02
86.79
84.43
78.24
71.18
65.91
64.04
65.79
70.43
76.95
84.8
94.14
105.6
119.78
136.69
155.43
174.26
190.98
203.42
210.01
210.09
203.91
192.47
177.05
158.82
138.62
116.88
93.87
69.97
45.79
22
-0.98
-23.29
-45.62
-68.9
-93.86
-120.86
-149.92
-180.82
-213.09
-245.74
-276.99
-304.39
-325.32
-338.02
-342.22
-339.32
-331.75
-321.97
-311.7
-301.69
-292.09
-282.97
-274.64
-267.49
-261.55
-256.15
-249.99
-241.66
-230.35
-216.27
-200.63
-185.25
-171.72
-160.75
-151.94
-144.01
-135.51
-125.52
-114.04
-101.94
-90.56
-80.94
-73.53
-68.13
-64.14
-60.85
-57.65
-53.98
-49.29
-43.09
-35.01
-25.14
-14.19
-3.39
5.77
12.03
14.69
13.77
9.96
4.31
-2.09
-8.41
-14.22
-19.49
-24.43
-29.27
-34.06
-38.57
-42.46
-45.34
-46.99
-47.06
-45.11
-40.48
-32.46
-20.85
-6.29
9.59
24.54
36.4
43.91
47.02
46.79
44.78
42.33
40.17
38.31
36.45
34.4
32.31
30.59
29.6
29.31
29.13
28.21
25.71
21.38
15.57
9.14
2.95
-2.59
-7.61
-12.72
-18.42
-24.74
-30.96
-35.75
-37.7
-35.85
-30.13
-21.35
-11.08
-1.1
7.12
12.69
15.38
15.5
13.57
10.1
5.51
0.17
-5.34
-10.4
-14.3
-16.54
-17.01
-15.81
-13.01
-8.26
-1.07
8.8
20.46
31.79
39.95
42.59
38.99
30.44
19.61
9.27
1.07
-4.92
-9.89
-15.26
-21.99
-30.14
-39.04
-47.59
-54.63
-59.06
-60.05
-57.11
-50.21
-39.81
-26.56
-11.5
4.12
18.9
31.37
40.37
45.26
46.28
44.27
40.39
35.64
30.58
25.29
19.75
13.99
8.22
2.67
-2.67
-8.18
-14.29
-21.21
-28.55
-35.57
-41.46
-45.88
-49.12
-51.94
-55.06
-58.7
-62.44
-65.6
-67.82
-69.56
-72.17
-77.29
-86.08
-98.57
-113.48
-128.67
-141.73
-150.84
-155.03
-154.19
-148.72
-139.09
-125.64
-108.65
-88.65
-66.6
-43.94
-22.37
-3.3
12.44
24.93
35.04
44.22
54.16
66.37
81.76
100.14
119.91
138.04
150.7
154.54
147.86
131.5
108.71
84.05
61.83
44.7
33.16
25.89
20.82
16.05
10.47
3.87
-3.29
-9.96
-14.72
-15.98
-12.4
-3.27
10.98
28.91
48.38
67.19
83.61
96.57
105.66
110.93
112.71
111.54
108.24
103.76
98.99
94.6
90.77
87.31
83.77
79.61
74.41
67.94
60.18
51.33
41.74
31.9
22.3
13.37
5.41
-1.41
-7.09
-11.7
-15.38
-18.25
-20.42
-21.86
-22.45
-21.96
-20.18
-17.01
-12.61
-7.26
-1.27
5.29
12.71
21.57
32.43
45.53
60.44
76.1
91.08
103.96
113.67
119.63
121.74
120.35
116.3
110.84
105.47
101.42
99.35
98.98
99.34
99.22
97.77
94.87
90.94
86.7
82.59
78.6
74.29
69.04
62.4
54.11
44.24
33.02
20.96
8.9
-1.93
-10.11
-14.31
-13.82
-8.79
-0.27
10.04
20.38
29.38
36.45
41.63
45.35
47.97
49.55
49.77
48.27
44.92
40.05
34.45
29.1
24.81
21.98
20.51
19.87
19.41
18.54
16.85
14.1
10.25
5.42
-0.05
-5.65
-10.8
-15.1
-18.53
-21.5
-24.72
-28.89
-34.41
-41.17
-48.5
-55.39
-60.65
-63.2
-62.27
-57.54
-49.31
-38.44
-26.19
-13.88
-2.55
7.2
15.19
21.5
26.28
29.62
31.57
32.25
31.83
30.55
28.69
26.5
24.29
22.34
20.9
20.07
19.73
19.5
18.86
17.36
14.75
11.15
7.01
2.94
-0.47
-2.95
-4.65
-6.14
-8.2
-11.59
-16.79
-23.93
-32.58
-41.79
-49.97
-55.15
-55.41
-49.64
-38.11
-22.55
-5.71
9.65
21.83
30.52
36.67
41.61
46.37
51.14
55.43
58.53
59.92
59.61
57.99
55.64
52.99
50.27
47.46
44.51
41.48
38.54
35.89
33.56
31.3
28.63
25.07
20.45
15.01
9.44
4.49
0.69
-1.95
-4.06
-6.75
-11.35
-18.92
-29.88
-43.69
-58.98
-73.86
-86.48
-95.45
-99.98
-99.8
-94.99
-85.86
-72.92
-56.97
-39.03
-20.2
-1.34
16.97
34.35
50.43
64.62
76.19
84.46
89.07
90.11
87.98
83.35
76.9
69.45
61.82
54.89
49.33
45.46
43.07
41.53
40.13
38.34
36
33.31
30.52
27.78
25.05
22.17
19.06
15.77
12.46
9.17
5.67
1.47
-4.02
-11.16
-20.02
-30.27
-41.29
-52.27
-62.3
-70.42
-75.76
-77.75
-76.35
-72.13
-66.09
-59.24
-52.28
-45.31
-38.14
-30.58
-22.84
-15.65
-10.05
-6.9
-6.45
-8.19
-10.96
-13.49
-14.77
-14.41
-12.6
-9.94
-7.1
-4.59
-2.65
-1.31
-0.55
-0.38
-0.88
-2.11
-4.06
-6.53
-9.15
-11.53
-13.29
-14.21
-14.26
-13.57
-12.36
-10.83
-9.16
-7.43
-5.69
-3.86
-1.78
0.75
3.8
7.14
10.1
11.8
11.42
8.56
3.59
-2.46
-8.21
-12.37
-14.21
-13.7
-11.44
-8.37
-5.34
-2.8
-0.67
1.65
4.9
9.71
16.2
23.93
32.03
39.44
45.27
48.95
50.33
49.5
46.75
42.49
37.19
31.38
25.51
19.88
14.55
9.34
3.96
-1.84
-8.12
-14.6
-20.75
-25.87
-29.3
-30.72
-30.18
-28.21
-25.62
-23.28
-21.85
-21.69
-22.76
-24.68
-26.89
-28.81
-30.05
-30.55
-30.52
-30.34
-30.19
-29.84
-28.57
-25.45
-19.76
-11.4
-0.97
10.37
21.38
31.1
39.06
45.22
49.82
53.09
55.17
56.13
56.01
54.91
53.07
50.78
48.37
46.04
43.83
41.54
38.8
35.21
30.57
24.91
18.6
12.17
6.13
0.79
-3.83
-7.96
-11.99
-16.33
-21.19
-26.56
-32.17
-37.61
-42.49
-46.57
-49.89
-52.78
-55.8
-59.46
-64.04
-69.4
-74.8
-79.16
-81.21
-80
-75.15
-66.98
-56.4
-44.63
-33
-22.64
-14.4
-8.81
-6
-5.82
-7.73
-11.08
-15.11
-19.16
-22.77
-25.72
-28.03
-29.96
-32.02
-34.85
-39.18
-45.52
-53.84
-63.36
-72.5
-79.19
-81.43
-77.92
-68.58
-54.7
-38.63
-23.13
-10.57
-2.33
1.38
1.33
-1.24
-5.13
-9.54
-14.07
-18.59
-22.93
-26.68
-29.22
-29.82
-28.05
-23.85
-17.69
-10.28
-2.39
5.37
12.59
19.04
24.53
28.9
32.05
34.02
35.07
35.65
36.23
37.18
38.51
39.84
40.44
39.45
36.19
30.56
23.19
15.45
9.04
5.44
5.42
8.69
14.1
20.06
25.09
28.35
29.7
29.58
28.61
27.24
25.55
23.33
20.25
16.06
10.86
4.98
-0.97
-6.34
-10.52
-13.03
-13.59
-12.1
-8.74
-4
1.4
6.66
11.15
14.56
16.9
18.32
18.9
18.51
16.86
13.75
9.27
3.85
-1.81
-7.14
-11.86
-15.94
-19.48
-22.52
-24.94
-26.63
-27.66
-28.36
-29.21
-30.64
-32.82
-35.68
-38.92
-42.22
-45.28
-47.84
-49.64
-50.52
-50.54
-50.07
-49.7
-49.89
-50.65
-51.34
-50.8
-47.9
-42.06
-33.5
-23.23
-12.55
-2.65
5.82
12.68
18.08
22.31
25.55
27.84
29.17
29.49
28.85
27.36
25.14
22.34
19.05
15.36
11.38
7.29
3.3
-0.41
-3.77
-6.85
-9.91
-13.29
-17.29
-22.15
-27.99
-34.85
-42.57
-50.79
-58.88
-66
-71.27
-73.96
-73.71
-70.63
-65.39
-59
-52.6
-47.13
-43.01
-40
-37.23
-33.48
-27.55
-18.61
-6.43
8.53
25.21
42.2
58.01
71.38
81.56
88.54
93.04
96.35
99.95
104.85
111.25
118.33
124.52
128.1
127.88
123.61
115.99
106.33
96.05
86.27
77.66
70.47
64.7
60.16
56.49
53.19
49.72
45.83
41.69
38.02
35.82
36.02
39.06
44.7
52.09
60.04
67.42
73.34
77.24
78.77
77.71
73.83
66.92
56.91
43.98
28.68
11.98
-4.86
-20.53
-33.92
-44.39
-51.83
-56.55
-59.14
-60.34
-60.85
-61.39
-62.5
-64.53
-67.52
-71.24
-75.25
-79.22
-83.09
-87.1
-91.68
-97.1
-103.2
-109.31
-114.32
-117.1
-116.85
-113.47
-107.48
-99.8
-91.35
-82.69
-74.01
-65.22
-56.28
-47.5
-39.52
-33.11
-28.91
-27.12
-27.48
-29.31
-31.75
-33.95
-35.26
-35.38
-34.33
-32.44
-30.17
-27.91
-25.92
-24.21
-22.65
-21.09
-19.44
-17.65
-15.65
-13.25
-10.08
-5.8
-0.16
6.84
15.09
24.49
35.17
47.35
61
75.57
89.68
101.38
108.82
110.9
107.73
100.62
91.46
82.14
73.92
67.23
61.81
57.01
52.18
46.82
40.68
33.73
26.06
17.79
8.96
-0.58
-11.19
-23.39
-37.85
-55.19
-75.54
-98.01
-120.22
-138.41
-148.28
-146.24
-130.82
-103.25
-67.06
-26.82
13.39
51.14
85.88
118.35
149.75
180.85
211.74
241.84
270.13
295.36
316.38
332.14
341.83
344.98
341.58
332.37
318.78
302.69
285.64
268.1
248.9
225.53
195.29
156.82
111.25
62.28
15
-25.94
-57.96
-81.09
-97.31
-109.2
-118.67
-126.44
-132.5
-136.92
-140.43
-144.31
-149.79
-157.2
-165.58
-173.17
-178.2
-179.83
-178.5
-175.65
-172.96
-171.46
-171.12
-171
-169.77
-166.3
-160.11
-151.28
-140.32
-127.79
-114.21
-100.09
-86.01
-72.7
-60.97
-51.43
-44.26
-39.23
-35.74
-33.09
-30.78
-28.57
-26.54
-24.97
-24.08
-23.84
-23.99
-24.12
-23.86
-23.09
-21.95
-20.84
-20.35
-20.94
-22.63
-25.07
-27.65
-29.7
-30.89
-31.34
-31.53
-32.31
-34.12
-36.7
-39.3
-41.24
-42.17
-42.14
-41.03
-38.29
-33.8
-27.58
-20.4
-14
-10.87
-13.16
-21.84
-36.03
-53.63
-73.36
-94.25
-115.13
-134.22
-149.16
-157.21
-156.34
-145.78
-126.55
-102.65
-78.29
-56.32
-37.55
-21.32
-6.03
9.49
25.89
50.34
83.55
119.91
151.21
172.66
183.29
188.62
193.2
199.68
209.18
221.12
234.76
249.91
266.38
282.6
295.51
300.69
294.59
276
245.38
205.56
160.72
114.8
70.14
27.78
-12
-48.07
-78.15
-100.14
-112.31
-113.95
-105.83
-90.11
-69.58
-47.27
-25.69
-6.74
7.77
16.56
19.37
17.13
11.78
5.84
1.51
0.23
2.35
7.06
12.94
18.71
23.48
26.9
28.85
29.11
27.1
21.97
12.86
-0.66
-18.06
-37.74
-57.22
-73.87
-85.68
-91.79
-92.61
-89.38
-83.57
-76.37
-68.56
-60.57
-52.75
-45.4
-38.75
-32.6
-26.2
-18.45
-8.3
4.65
19.95
36.42
52.68
67.78
81.48
94.3
106.93
119.74
132.3
143.38
151.27
154.25
151.09
141.28
125.29
104.46
80.78
56.51
33.56
13.07
-4.66
-19.97
-33.33
-45.01
-54.86
-62.61
-68.19
-72
-74.85
-77.58
-80.72
-84.24
-87.67
-90.4
-92.04
-92.58
-92.3
-91.62
-90.85
-90.09
-89.26
-88.2
-86.79
-84.96
-82.64
-79.78
-76.26
-72.03
-67.18
-61.95
-56.74
-52
-48.05
-44.99
-42.68
-40.94
-39.69
-39.05
-39.3
-40.72
-43.35
-46.79
-50.29
-53.08
-54.61
-54.78
-54.12
-53.19
-52.05
-50.42
-47.93
-44.48
-40.44
-36.52
-33.42
-31.77
-31.62
-32.5
-33.73
-34.87
-35.84
-36.8
-38.03
-39.73
-42.67
-47.27
-53.3
-59.94
-66.2
-71.17
-74.22
-75.06
-73.71
-72.35
-72.59
-74.81
-78.28
-82.16
-85.98
-89.61
-93.11
-96.73
-104.58
-119.08
-139.52
-162.58
-184.68
-203.65
-218.84
-230.62
-239.81
-252.94
-273.54
-300.16
-327.89
-352.12
-370.66
-383.11
-389.48
-389.43
-389.95
-394.65
-401.77
-406.12
-403.86
-394.89
-381.81
-367.84
-311.6
-200.19
-52.43
94.4
212.69
295
346.55
376.08
389.83
395.97
391.57
375.09
350.17
324.4
304.82
295.58
296.06
304.71
319.56
332.11
336.29
330.68
317.9
301.43
283.9
267.06
252.53
241.38
229.8
214.92
196.47
176.62
157.98
142.29
130.19
121.58
115.54
108.56
97.83
82.33
62.75
40.28
15.65
-11.05
-39.89
-70.75
-103.59
-137.12
-169
-196.65
-218.45
-234.31
-245.1
-251.62
-253.67
-249.98
-238.86
-219.56
-193.1
-162.09
-129.52
-97.4
-66.03
-34.34
-0.95
34.81
72.68
111.9
151.75
191.79
231.17
267.94
298.69
319.27
326.43
319.43
300.62
274.63
246.57
220.23
197.11
176.78
158.06
140.29
123.99
110.62
101.57
97.26
96.85
98.66
101.08
103.2
104.94
106.54
108.04
108.96
108.59
106.39
102.39
97.22
91.83
86.97
82.84
79.06
75.06
70.45
65.37
60.25
55.57
51.27
46.68
40.85
33.13
23.68
13.59
4.48
-2.41
-6.79
-9.57
-12.5
-17.35
-25.03
-35.36
-47.21
-59.11
-69.93
-79.18
-86.92
-93.72
-100.67
-109.87
-124.37
-147.17
-179.44
-218.86
-259.23
-292.21
-310.65
-311.61
-297.67
-275.44
-252.15
-232.28
-215.92
-199.62
-178.75
-149.87
-111.88
-66.08
-15.35
36.56
85.45
127.1
157.96
175.84
180.31
172.94
156.71
135.52
113.35
93.6
78.61
69.2
64.63
62.75
60.88
56.61
48.69
37.28
23.73
9.98
-2.04
-10.87
-15.67
-16.23
-12.85
-6.31
2.36
11.95
21.39
29.8
36.66
41.76
45.13
46.94
47.32
46.34
43.99
40.37
35.84
30.99
26.58
23.13
20.89
19.65
19.01
18.63
18.35
18.17
18.03
17.72
16.87
15.1
12.33
8.79
4.96
1.31
-1.94
-4.87
-7.83
-11.31
-15.73
-21.37
-28.1
-35.29
-41.83
-46.31
-47.41
-44.35
-37.07
-26.27
-13.14
0.93
14.69
27.16
37.72
46.1
52.36
56.71
59.49
60.95
61.24
60.41
58.57
56.03
53.28
50.96
49.59
49.41
50.24
51.57
52.81
53.53
53.63
53.31
52.96
52.84
53.05
53.49
54.08
54.77
55.51
55.94
55.22
52.1
45.31
34.12
18.75
0.38
-19.19
-37.99
-54.27
-66.64
-73.95
-75.33
-70.3
-59.15
-43.09
-24.25
-5.18
12.01
26.22
37.65
47.57
57.57
68.73
81.08
93.52
104.17
111.06
112.69
108.43
98.53
84
66.3
47.05
27.68
9.17
-8.09
-24.34
-40.12
-55.89
-71.75
-87.17
-101.25
-112.94
-121.56
-127.03
-130.12
-132.21
-134.93
-139.62
-146.68
-155.15
-162.85
-166.97
-165.17
-156.7
-142.74
-126
-109.61
-95.55
-83.83
-72.46
-58.47
-39.08
-12.74
20.39
58.38
97.72
133.71
161.28
176.47
178.27
170.1
159.46
155.35
164.33
187.04
217.25
244.18
257.31
251.16
227.39
193.39
157.94
126.76
100.28
74.86
46.2
12.7
-23.19
-56.53
-82.85
-100.51
-110.84
-116.54
-119.02
-117.25
-108.46
-90.44
-63.85
-32.84
-3.67
17.95
29.04
30.29
25.23
18.31
13.18
11.64
13.57
17.64
22.11
25.55
27.14
26.72
24.6
21.18
16.77
11.37
4.86
-2.79
-11.3
-19.99
-27.95
-34.43
-39.05
-41.96
-43.59
-44.36
-44.52
-44.26
-43.89
-43.9
-44.94
-47.35
-50.95
-54.92
-58.11
-59.6
-59.06
-56.79
-53.57
-50.1
-46.73
-43.39
-39.78
-35.63
-30.98
-26.15
-21.48
-17.29
-13.66
-10.54
-7.93
-5.96
-4.93
-5.16
-6.7
-9.2
-11.96
-14.23
-15.54
-16.05
-16.47
-17.72
-20.62
-25.44
-31.83
-39.03
-45.97
-51.66
-55.39
-56.86
-56.4
-54.91
-53.66
-53.95
-56.61
-61.73
-68.7
-76.47
-83.88
-89.91
-93.78
-94.89
-92.87
-87.67
-79.7
-69.95
-59.76
-50.55
-43.52
-39.42
-38.49
-40.56
-45.04
-51
-57.24
-62.57
-65.95
-66.94
-65.87
-63.68
-61.61
-60.58
-60.84
-61.78
-62.3
-61.33
-58.35
-53.57
-47.85
-42.23
-37.55
-34.23
-32.14
-30.84
-29.71
-28.21
-26.04
-23.29
-20.51
-18.59
-18.5
-20.79
-25.43
-31.53
-37.8
-42.88
-45.71
-45.74
-42.78
-37
-28.77
-18.69
-7.47
4
14.74
23.9
30.9
35.47
37.57
37.16
34.19
28.85
21.55
12.78
3.27
-6.09
-14.49
-21.43
-27.1
-32.42
-38.37
-46.32
-57.73
-73.4
-92.7
-113.37
-132.34
-146.81
-155.14
-156.1
-150.2
-139.68
-127.34
-114.97
-102.43
-88.17
-70.41
-48.42
-21.39
9.17
39.2
64.17
81.77
93.65
104.51
120.06
145.18
185.08
241.11
309.28
380.98
445.81
495.05
523.48
530.38
504
443.78
363.38
283.64
219.07
172.16
138.9
114.76
97.03
84.28
77.48
75.84
75.9
73.56
66.08
53.86
39.31
24.97
12.05
1.84
-6.57
-17.04
-30.77
-49.73
-74.2
-102.98
-133.89
-164.05
-188.89
-204.24
-207.85
-199.86
-182.92
-160.4
-135.65
-111.4
-89.35
-69.66
-52.15
-37.07
-25
-16.74
-12.17
-10.37
-10.1
-10.41
-10.67
-10.74
-10.86
-11.13
-11.63
-12.04
-11.93
-11.19
-10.03
-9.02
-8.79
-9.84
-12.39
-16.39
-21.43
-26.79
-31.69
-35.53
-38.1
-39.68
-40.95
-42.77
-45.9
-50.65
-56.6
-62.62
-67
-67.9
-64.04
-55.17
-42.26
-27.21
-12.18
1.16
12.09
20.8
27.91
33.96
38.98
42.59
44.3
43.88
41.59
38.05
34.05
30.23
26.94
24.23
22.07
20.39
19.1
18.04
16.88
15.12
12.34
8.21
2.77
-3.66
-10.52
-17.2
-23.24
-28.56
-33.4
-38.3
-43.94
-50.86
-59.24
-68.71
-78.31
-86.46
-91.34
-91.34
-85.65
-74.48
-59.14
-41.61
-23.82
-7.25
7.47
20.16
30.86
39.43
45.64
49.32
50.74
50.62
49.97
49.71
50.36
51.82
53.58
54.99
55.67
55.67
55.49
55.66
56.4
57.32
57.41
55.42
50.34
41.95
30.99
18.93
7.42
-2.3
-9.9
-16.09
-22.31
-30.36
-41.8
-57.62
-77.81
-101.28
-125.82
-148.5
-166.28
-176.7
-178.75
-173.27
-162.77
-150.72
-140.42
-134.04
-132.15
-134.02
-138.37
-144.16
-151.04
-159.4
-169.87
-182.88
-198.27
-215.07
-231.56
-245.57
-254.95
-258.15
-254.68
-245.28
-231.74
-216.21
-200.42
-185.31
-170.81
-156.22
-140.68
-123.69
-105.46
-86.84
-69.1
-53.45
-40.53
-30.07
-20.94
-11.52
-0.39
13.13
28.71
45.28
61.44
76.01
88.36
98.37
106.27
112.4
117.02
120.35
122.69
124.47
126.65
130.34
136.29
144.86
156.18
170.42
187.85
208.56
231.92
256.53
279.71
297.98
308.24
309.02
301.06
286.83
269.34
250.97
233.72
218.24
204.11
190.49
176.84
163.14
149.52
135.83
121.62
108.71
98.42
90.74
84.49
78.74
73.8
70.86
71.07
74.65
85.7
106.03
133.61
163.37
190.55
213.08
231.26
246.1
257.99
274.54
300.35
334.26
370.08
401.57
426.28
445.38
461.37
476.33
502.14
546.27
607.4
675.72
739.24
789.54
823.03
839.59
780.53
620.71
380.01
115.53
-118.19
-295.97
-418.4
-497.23
-542.44
-569.34
-576.56
-562.58
-532.3
-497.46
-470.3
-458.05
-458.96
-467.63
-477.65
-474.85
-450.49
-405.36
-348.8
-292.4
-244.31
-207.86
-183.58
-170.88
-163.02
-154.43
-142.53
-127.47
-110.12
-91.07
-71.56
-54.73
-45.02
-43.31
-49.04
-60.53
-75.54
-91.36
-105
-113.98
-117.18
-115.01
-107.84
-97.35
-86.39
-78.29
-75.63
-78.97
-86.51
-94.64
-98.98
-95.57
-82.14
-58.69
-27.22
9.02
46.61
82.75
115.53
143.93
167.45
185.84
198.91
206.54
208.83
206.12
199
188.19
174.45
158.5
141.1
123.13
105.56
89.35
75.12
62.97
52.46
42.78
33.15
23.25
13.27
3.92
-3.97
-9.74
-13.17
-14.57
-14.7
-14.62
-15.41
-17.85
-22.22
-28.11
-34.68
-40.95
-46.08
-49.65
-51.51
-51.6
-49.75
-45.89
-40.33
-33.98
-28.3
-24.84
-24.63
-27.9
-34.19
-42.71
-52.82
-64.15
-76.4
-88.95
-100.77
-110.71
-117.95
-122.51
-125.22
-127.23
-129.5
-132.27
-135.06
-137.15
-137.99
-137.61
-136.55
-135.7
-135.83
-137.45
-140.74
-145.6
-151.68
-158.32
-164.63
-169.53
-172.04
-171.62
-168.27
-162.59
-155.6
-148.56
-142.66
-138.84
-137.68
-139.37
-143.87
-150.88
-159.89
-169.97
-179.71
-187.11
-190.07
-186.92
-177.16
-161.83
-143.35
-124.78
-108.8
-97.08
-90.01
-87.13
-87.75
-91.41
-97.98
-107.34
-119.02
-132.08
-145.22
-157.16
-166.9
-173.69
-176.9
-175.75
-169.24
-156.41
-136.76
-110.72
-79.87
-46.82
-14.67
13.81
37.06
55.2
69.75
82.86
96.12
109.81
122.81
133.35
140.1
142.92
142.88
141.67
140.71
140.65
141.41
142.7
144.39
146.55
149.09
151.42
152.4
150.82
146.02
138.3
128.73
118.56
108.45
98.19
86.85
73.48
57.82
40.73
23.97
9.69
-0.18
-4.55
-3.41
2.16
10.2
18.5
25.21
29.5
31.69
32.87
34.21
36.26
38.58
40.06
39.57
36.77
32.38
28.05
25.56
26.08
29.74
35.64
42.4
48.76
53.89
57.49
59.5
59.93
58.68
55.69
51.05
45.17
38.55
31.59
24.34
16.58
8.04
-1.05
-9.69
-16.15
-18.5
-15.44
-6.9
5.82
20.37
34.28
45.71
53.95
59.31
62.58
64.59
65.75
66.17
65.75
64.49
62.55
60.24
57.91
55.85
54.19
52.98
52.17
51.65
51.43
51.48
51.77
52.06
51.82
50.29
46.62
40.16
30.82
19.26
6.71
-5.39
-15.97
-24.68
-31.92
-38.3
-44.04
-48.45
-50.13
-47.49
-39.76
-27.53
-12.69
2.24
15.19
25.21
32.64
38.57
43.97
49.13
53.45
55.94
55.85
53.2
48.84
44.07
40
37.06
34.92
32.8
30
26.25
21.82
17.09
12.33
7.37
1.78
-4.85
-12.52
-20.83
-29.19
-37.15
-44.75
-52.46
-60.94
-70.63
-81.4
-92.3
-101.78
-108.01
-109.41
-105.08
-95.1
-80.43
-62.57
-43.23
-23.92
-5.85
10.15
23.51
33.93
41.32
45.82
47.83
47.93
46.76
44.99
43.12
41.49
40.15
39
37.88
36.76
35.79
35.26
35.35
35.96
36.66
36.79
35.78
33.35
29.56
24.71
19.04
12.64
5.36
-3.05
-12.68
-23.28
-34.12
-44.07
-51.82
-56.14
-56.27
-52.11
-44.18
-33.56
-21.47
-9.09
2.69
13.23
22.02
28.59
32.49
33.45
31.5
27.1
20.97
13.92
6.63
-0.48
-7.14
-13.1
-17.87
-20.78
-21.15
-18.59
-13.31
-6.16
1.57
8.56
13.86
17.24
19.15
20.48
22
23.94
25.83
26.62
25.24
21
14
5.06
-4.39
-12.61
-17.9
-18.83
-14.68
-5.71
6.68
20.03
31.41
38.14
38.53
32.19
20.05
3.93
-13.89
-31.02
-45.22
-54.57
-57.87
-54.92
-46.7
-35.02
-22
-9.42
1.66
10.76
17.7
22.22
23.93
22.54
18.15
11.36
3.13
-5.49
-13.63
-20.71
-26.45
-30.81
-33.98
-36.46
-38.94
-42.02
-45.79
-49.62
-52.26
-52.23
-48.34
-40.06
-27.72
-12.48
4.09
20.34
35.05
47.81
59.01
69.51
80.02
90.7
101.05
110.33
118.05
124.31
129.61
134.27
138
139.93
139.13
135.17
128.35
119.33
108.64
96.49
83.04
69.05
56.08
46.15
40.68
39.62
41.07
41.86
38.71
29.34
13.07
-9.19
-35.26
-62.2
-86.51
-104.57
-113.23
-110.64
-96.95
-74.53
-47.37
-19.78
5.18
26.61
45.87
65.64
88.55
115.82
146.69
178.53
207.71
230.69
245.02
249.86
246.1
235.84
221.73
206.09
190.39
175.01
159.37
142.3
122.38
98.42
69.85
37.14
1.93
-33.17
-65.17
-91.52
-110.84
-123.2
-129.95
-133.06
-134.4
-135.11
-135.44
-134.88
-132.58
-127.71
-119.82
-109.02
-95.94
-81.52
-66.82
-52.69
-39.76
-28.51
-19.32
-12.61
-8.67
-7.53
-8.84
-11.81
-15.3
-18.11
-19.35
-18.7
-16.51
-13.53
-10.64
-8.47
-7.27
-6.92
-7.23
-8.07
-9.37
-11.13
-13.17
-15.21
-16.94
-18.19
-19.16
-20.27
-21.99
-24.49
-27.43
-29.97
-31.06
-29.76
-25.58
-18.66
-9.72
0.17
9.93
18.75
26.36
32.78
38.24
42.77
46.13
47.77
47.17
43.97
38.16
30.13
20.45
9.82
-0.95
-11
-19.49
-25.75
-29.48
-30.88
-30.61
-29.49
-28.33
-27.71
-27.92
-29
-30.8
-33.02
-35.34
-37.48
-39.37
-41.12
-43.05
-45.43
-48.22
-50.97
-52.91
-53.28
-51.7
-48.36
-43.87
-38.93
-33.99
-29.08
-24.01
-18.74
-13.61
-9.42
-7.05
-7.11
-9.63
-14.02
-19.4
-25
-30.37
-35.34
-39.76
-43.35
-45.72
-46.67
-46.36
-45.4
-44.56
-44.46
-45.35
-47.14
-49.64
-52.73
-56.39
-60.54
-65
-69.46
-73.66
-77.57
-81.37
-85.2
-88.83
-91.59
-92.52
-90.86
-86.44
-79.78
-71.95
-64.11
-57.21
-51.82
-48.16
-46.27
-46.15
-47.7
-50.47
-53.64
-56
-56.4
-54.24
-49.73
-43.91
-38.17
-33.6
-30.57
-28.6
-26.74
-24.18
-20.69
-16.76
-13.22
-10.78
-9.76
-10.02
-11.3
-13.4
-16.29
-19.93
-23.97
-27.61
-29.71
-29.09
-25.06
-17.7
-7.82
3.3
14.39
24.53
33.31
40.67
46.72
51.52
55.01
57.02
57.51
56.67
54.96
53.1
51.67
50.94
50.78
50.73
50.26
49.16
47.53
45.86
44.6
43.96
43.65
42.96
41.03
37.21
31.29
23.65
15.16
6.86
-0.34
-6.01
-10.32
-13.9
-17.43
-21.16
-24.56
-26.4
-25.16
-19.65
-9.49
4.69
21.09
36.9
48.41
51.48
42.79
21.34
-10.16
-45.33
-75.69
-93.67
-95.55
-82.81
-61.21
-38.01
-18.88
-6.02
1.48
5.96
9.31
12.13
14.21
15.65
17.38
20.64
25.79
31.34
34.11
30.48
18.25
-2.2
-28
-55.16
-80.42
-102.46
-122.04
-141.03
-161.11
-182.88
-205.56
-227.48
-246.51
-260.6
-268.08
-268.01
-260.45
-246.66
-228.89
-209.67
-190.99
-173.58
-156.85
-139.45
-120.2
-98.76
-75.88
-52.89
-31.18
-11.53
6
21.87
36.64
50.53
63.08
73.19
79.23
79.61
73.41
60.84
43.35
23.2
2.61
-16.85
-34.46
-49.88
-62.55
-71.29
-74.66
-71.62
-62.28
-47.97
-30.87
-13.19
3.53
18.45
31.41
42.54
52.06
60.28
67.69
74.79
82
89.36
96.48
102.82
107.9
111.58
114.07
115.65
116.35
115.47
111.52
102.62
87.53
66.69
42.84
20.59
4.99
-0.04
6.91
24.6
49.73
78.03
105.22
127.59
142.41
148.03
144.16
131.99
114.11
93.74
73.86
56.41
41.91
29.89
19.54
10.55
3.43
-0.66
-0.61
3.94
12.23
22.63
33.24
42.69
50.45
56.7
61.81
65.88
68.6
69.53
68.5
65.84
62.27
58.58
55.14
51.89
48.39
44.34
39.81
35.36
31.77
29.67
29.2
29.97
31.2
32.05
31.88
30.38
27.53
23.53
18.72
13.58
8.6
4.2
0.57
-2.37
-4.98
-7.73
-11
-14.87
-19.01
-22.66
-24.81
-24.32
-20.31
-12.3
-0.47
14.36
30.9
47.85
64.23
79.64
94.18
108.11
121.46
133.85
144.54
152.75
158.13
160.82
161.44
160.69
159.09
156.84
153.91
150.25
145.88
140.83
134.94
127.8
118.78
107.29
92.93
75.51
55.13
32.23
7.56
-17.88
-42.94
-66.58
-87.84
-106.29
-122.01
-135.44
-146.98
-156.7
-164.25
-168.96
-170
-166.38
-157.48
-143.33
-124.59
-102.33
-77.8
-52.34
-27.34
-4.08
17.6
38.08
57.85
77.23
96.6
116.1
135.23
152.64
166.54
177.43
185.83
191.88
195
194.71
191.03
184.37
175.29
164.39
155.58
151.37
151.7
153.92
154.93
152.91
147.54
139.57
130.23
124.84
126.44
134.5
145.03
153.96
159.72
163.54
168.07
149.12
95.75
13.78
-77.38
-160.08
-226.35
-275.23
-308.42
-327.96
-335.69
-328.04
-304.11
-265.29
-217.17
-167.73
-125.12
-95.91
-83.68
-87.72
-99.91
-114.03
-123.25
-124.5
-118.55
-108.42
-97.87
-89.77
-85.24
-81.74
-76.74
-68.8
-58.79
-48.28
-38.11
-28.01
-17.15
-4.71
10.36
27.81
46.34
63.48
76.95
85.86
91.12
95.11
100.75
110.59
125.18
142.7
159.02
169.31
169.93
159.55
139.23
111.78
80.74
49.77
22.4
1.57
-10.99
-15.49
-14.48
-12.35
-13.78
-21.84
-36.75
-55.82
-74.97
-90.51
-100.59
-105.24
-105.73
-103.41
-98.98
-92.6
-84.33
-74.68
-64.91
-56.84
-52.24
-52.15
-56.49
-64.01
-72.85
-81.38
-88.91
-95.83
-103.07
-111.28
-120.08
-128.07
-133.43
-134.9
-132.47
-127.31
-121.1
-115.15
-109.83
-104.7
-99.05
-92.57
-85.6
-79.05
-73.89
-70.86
-70.15
-71.48
-74.23
-77.47
-80.04
-80.81
-78.96
-74.13
-66.43
-56.23
-43.83
-29.46
-13.47
3.38
19.75
33.98
44.49
50.33
51.31
47.98
41.18
31.94
21.41
10.91
1.98
-3.99
-6.23
-4.89
-0.97
4.13
9.33
14.23
19
24.04
29.34
34.37
38.2
40.11
39.99
38.46
36.48
34.85
33.77
32.87
31.59
29.65
27.27
25.09
23.81
23.75
24.8
26.5
28.27
29.69
30.43
30.3
29.16
27
23.97
20.44
16.92
13.86
11.5
9.79
8.37
6.75
4.46
1.1
-3.42
-8.77
-14.18
-18.44
-20.22
-18.44
-12.78
-3.88
6.7
16.99
25.28
30.7
33.54
34.85
35.85
37.28
39.02
40.27
40.18
38.37
35.29
32.08
29.93
29.52
30.71
32.66
34.33
35.07
34.77
33.74
32.42
30.91
28.9
25.88
21.55
16.05
10.04
4.23
-1.03
-5.94
-11.12
-17.06
-23.63
-29.86
-34.22
-35.34
-32.59
-26.45
-18.24
-9.5
-1.41
5.52
11.22
15.77
19.05
20.67
20.21
17.46
12.63
6.29
-0.82
-7.99
-14.67
-20.45
-25.06
-28.38
-30.44
-31.55
-32.21
-33.07
-34.7
-37.43
-41.24
-45.82
-50.78
-55.81
-60.9
-66.36
-72.59
-79.95
-88.4
-97.48
-106.35
-113.98
-119.38
-121.82
-120.97
-116.96
-110.25
-101.61
-91.86
-81.82
-72.25
-63.95
-57.8
-54.73
-55.46
-60.23
-68.59
-79.41
-91
-101.47
-109.01
-112.15
-109.93
-102.14
-89.41
-73.13
-55.15
-37.16
-20.04
-3.63
12.95
30.39
48.31
64.83
77.16
82.8
80.86
72.59
60.93
49.2
39.51
32.03
25.22
17.1
6.6
-5.61
-17.31
-25.8
-29.11
-26.82
-19.95
-10.25
0.74
12.26
24.31
36.98
49.8
61.53
70.54
75.64
76.79
75.35
73.41
72.95
74.79
78.31
81.81
83.36
81.7
76.75
69.48
61.39
53.79
47.44
42.37
38.15
34.14
29.83
24.83
18.84
11.53
2.61
-8.02
-19.92
-31.94
-42.33
-49.14
-50.71
-46.21
-35.73
-20.24
-1.33
19.25
39.79
58.88
75.55
89.18
99.58
106.85
111.29
113.4
113.78
113.17
112.36
112.06
112.7
114.31
116.55
118.84
120.62
121.57
121.69
121.15
120.19
118.83
116.81
113.67
108.92
102.41
94.54
86.24
78.79
73.35
70.42
69.72
70.24
70.67
69.93
67.59
64.03
60.38
58.16
58.92
63.73
72.84
85.42
99.53
112.33
120.69
122.13
115.51
101.36
81.56
58.56
34.52
10.75
-12.22
-34.23
-54.92
-73.44
-88.7
-99.88
-106.91
-110.61
-112.33
-113.35
-114.37
-115.34
-115.79
-115.39
-114.24
-112.95
-112.29
-112.74
-114.38
-116.88
-119.87
-123.11
-126.52
-129.92
-132.88
-134.81
-135.3
-134.48
-133.21
-132.83
-134.68
-139.5
-147.15
-156.69
-166.66
-175.48
-181.74
-184.63
-183.99
-180.43
-175.16
-169.54
-164.37
-159.21
-152.28
-140.96
-123.16
-98.46
-68.82
-38.18
-11.05
9.18
21.47
27.2
29.28
30.68
33.2
37.07
41.43
45.25
48.15
50.61
53.68
58.2
64.3
71.16
77.36
81.58
83.25
82.72
81.01
79.01
76.9
73.91
68.74
60.29
48.44
34.32
19.91
7.33
-2.07
-8.11
-11.65
-14.16
-16.96
-20.88
-25.93
-31.39
-36.1
-38.73
-38.28
-34.37
-27.43
-18.49
-8.83
0.51
9.06
16.75
23.71
29.89
34.88
38.09
39.18
38.39
36.59
35.03
34.82
36.44
39.54
43.13
46.01
47.3
46.72
44.6
41.68
38.72
36.28
34.53
33.4
32.66
32.15
31.79
31.5
31.12
30.34
28.71
25.93
22.02
17.49
13.1
9.54
7.13
5.69
4.67
3.42
1.52
-1.26
-4.84
-8.86
-12.61
-14.96
-14.52
-10.12
-1.26
11.48
26.52
41.73
55.18
65.57
72.43
75.96
76.66
75.08
71.67
66.84
60.94
54.34
47.3
40.15
33.12
26.46
20.35
14.86
9.88
5.08
-0.02
-5.97
-13.13
-21.48
-30.54
-39.45
-47.25
-53.16
-56.94
-59.03
-60.32
-61.81
-64.13
-67.26
-70.47
-72.68
-72.92
-70.75
-66.43
-60.8
-54.95
-49.9
-46.27
-44.2
-43.4
-43.13
-42.34
-39.78
-34.28
-25.04
-12.01
4.05
21.66
38.98
54.37
66.8
76.04
82.55
87.1
90.37
92.72
94.14
94.57
94.1
93.13
92.24
91.84
91.95
92.13
91.7
90.09
87.09
82.83
77.63
71.73
65.3
58.35
50.87
42.77
33.87
23.87
12.49
-0.31
-14.14
-28.19
-41.46
-53.18
-63.12
-71.7
-79.77
-88.12
-97.19
-106.81
-116.34
-124.8
-131.06
-134.06
-132.98
-127.46
-117.71
-104.57
-89.26
-73.11
-57.12
-41.85
-27.44
-13.99
-1.88
8.25
15.7
20.21
22.23
22.89
23.49
24.95
27.47
30.51
33.27
35.11
35.84
35.77
35.36
34.95
34.58
34.08
33.14
31.59
29.43
26.78
23.83
20.69
17.44
14.03
10.4
6.5
2.34
-2.07
-6.65
-11.23
-15.48
-18.85
-20.69
-20.33
-17.43
-12.09
-4.88
3.28
11.51
19.12
25.86
31.72
36.84
41.19
44.52
46.43
46.64
45.16
42.4
39.09
36
33.64
32.02
30.79
29.47
27.78
25.82
24.02
22.83
22.34
22.25
21.91
20.59
17.86
13.71
8.57
3.11
-1.95
-6.11
-9.2
-11.49
-13.62
-16.45
-20.88
-27.33
-35.5
-44.27
-52.01
-57.01
-58.17
-55.28
-49.01
-40.55
-31.21
-22.02
-13.64
-6.37
-0.38
4.17
7.11
8.26
7.59
5.26
1.7
-2.53
-6.81
-10.61
-13.61
-15.71
-17
-17.7
-18.09
-18.42
-18.86
-19.5
-20.3
-21.16
-22.04
-22.98
-24.13
-25.73
-27.97
-30.87
-34.3
-37.93
-41.27
-43.77
-44.82
-43.78
-40.15
-33.78
-24.93
-14.39
-3.28
7.27
16.37
23.56
28.77
32.12
33.69
33.47
31.45
27.77
22.86
17.38
12.04
7.39
3.74
1.08
-0.76
-2.03
-3.02
-3.95
-5.01
-6.24
-7.51
-8.57
-9.18
-9.2
-8.75
-8.14
-7.82
-8.2
-9.51
-11.73
-14.5
-17.16
-18.88
-18.87
-16.62
-12.04
-5.51
2.32
10.74
19.15
27.17
34.51
40.92
46.16
50.02
52.43
53.46
53.26
51.98
49.66
46.39
42.33
37.71
32.75
27.53
21.92
15.7
8.86
1.74
-4.91
-10.19
-13.39
-14.32
-13.37
-11.33
-9.1
-7.42
-6.74
-7.23
-8.85
-11.35
-14.23
-16.8
-18.19
-17.66
-14.71
-9.35
-2.09
6.29
14.83
22.69
29.23
34.09
37.21
38.77
39.11
38.57
37.35
35.38
32.44
28.32
23.08
17.16
11.36
6.53
3.26
1.63
1.2
1.23
1.03
0.1
-1.73
-4.38
-7.75
-11.69
-16.13
-21.01
-26.24
-31.7
-37.32
-43.03
-48.69
-53.94
-58.11
-60.34
-59.77
-55.88
-48.68
-38.73
-26.93
-14.24
-1.47
10.8
22.27
32.73
42.03
49.97
56.42
61.38
65.06
67.83
70.15
72.39
74.66
76.82
78.59
79.72
80.22
80.25
80.01
79.56
78.73
77.29
75.09
72.23
68.97
65.52
61.85
57.62
52.34
45.49
36.48
24.57
8.82
-11.59
-36.61
-64.61
-92.18
-114.8
-128.29
-130.27
-121.05
-103.38
-81.26
-58.62
-38.2
-21.36
-8.39
0.95
7.06
10.43
11.66
11.49
10.72
9.99
9.65
9.63
9.45
8.25
5.02
-1.09
-10.5
-23.05
-38.03
-54.29
-70.42
-84.81
-95.94
-102.38
-103.07
-97.43
-85.53
-68.27
-47.49
-26.09
-7.59
4.65
8.39
3.45
-8.15
-22.77
-36.49
-46.34
-51.15
-51.35
-48.28
-43.27
-37.15
-30.32
-23.14
-16.17
-10.2
-5.9
-3.53
-2.77
-2.84
-2.91
-2.47
-1.54
-0.61
-0.25
-0.7
-1.59
-2.12
-1.38
1.2
5.63
11.29
17.35
23.01
27.82
31.71
34.84
37.42
39.43
40.56
40.39
38.58
35.03
30
24.02
17.76
11.9
6.95
3.34
1.38
1.26
2.87
5.62
8.41
9.78
8.29
3.01
-6.17
-18.36
-31.79
-44.23
-53.47
-57.96
-57.22
-51.84
-43.08
-32.23
-20.06
-6.74
7.73
22.88
37.5
49.8
58.25
62.35
63.03
62.33
62.56
65.34
71.09
79.08
87.92
96.22
103.12
108.58
113.25
118.25
124.56
132.47
141.3
149.52
155.31
157.23
154.83
148.76
140.52
131.97
124.77
119.99
117.91
117.99
118.91
118.79
115.6
107.67
94.34
76.23
55.19
33.88
15
0.65
-8.13
-11.45
-10.38
-6.49
-1.37
3.73
8.16
11.81
14.93
17.79
20.51
22.84
24.18
23.86
21.35
16.57
9.88
1.99
-6.28
-14.13
-20.98
-26.42
-30.3
-32.74
-34.22
-35.51
-37.49
-40.79
-45.55
-51.33
-57.23
-62.27
-65.76
-67.47
-67.67
-66.94
-66.01
-65.58
-66.13
-67.91
-70.88
-74.72
-78.93
-82.82
-85.5
-85.87
-82.74
-74.97
-61.78
-43.09
-19.61
7.16
35.18
62.3
86.45
105.85
119.22
126.01
126.66
122.75
116.46
109.85
103.85
97.96
90.45
79.51
64.29
45.41
24.61
3.78
-16.01
-34.92
-53.86
-73.68
-94.54
-115.67
-135.96
-154.41
-170.71
-185.25
-198.95
-212.9
-228.07
-245.13
-264.2
-284.65
-304.79
-322.03
-333.32
-336.04
-329.01
-313.11
-291.08
-266.54
-242.79
-221.68
-203.35
-186.65
-170.07
-152.56
-133.85
-114.38
-94.75
-75.54
-57.09
-39.7
-23.84
-10.24
0.21
6.79
9.28
8.24
4.77
0.26
-4.25
-8.37
-12.37
-16.79
-21.88
-27.31
-32.19
-35.62
-37.21
-37.42
-37.45
-38.69
-41.98
-47.21
-53.23
-58.08
-59.62
-56.05
-46.35
-30.62
-10.17
12.67
35.01
54.1
68.13
76.6
80.19
80.19
77.77
73.49
67.55
60.1
51.8
43.94
38
35.14
35.79
39.65
45.92
53.66
61.93
69.86
76.79
82.55
87.58
92.97
99.93
109.05
119.55
129.23
135.15
134.76
127.04
112.95
95.01
76.2
58.93
44.23
31.88
20.98
10.73
0.8
-8.58
-17.09
-24.74
-31.96
-39.34
-47.17
-54.92
-61.23
-64.27
-62.38
-54.81
-41.99
-25.44
-7.16
10.94
27.47
41.65
53.03
61.4
66.64
68.96
69.08
68.08
67.02
66.41
65.95
64.65
61.35
55.41
47.08
37.47
28.12
20.39
14.91
11.47
9.13
6.76
3.5
-0.96
-6.29
-11.91
-17.32
-22.3
-27.01
-31.68
-36.42
-41.22
-45.97
-50.68
-55.44
-60.31
-65.09
-69.25
-71.98
-72.48
-70.23
-65.21
-57.97
-49.56
-41.28
-34.26
-29.17
-26.22
-25.3
-26.45
-30
-36.31
-45.17
-55.31
-64.51
-70.25
-70.73
-65.47
-55.27
-41.69
-26.43
-10.98
3.34
15.26
23.65
27.86
28.01
24.93
19.79
13.69
7.42
1.65
-2.89
-5.37
-5.29
-2.94
0.32
2.43
1.5
-3.34
-11.4
-20.72
-28.85
-33.93
-35.23
-33.25
-29.09
-23.7
-17.47
-10.29
-1.99
7.17
16.24
23.9
29.1
31.49
31.52
30.09
28.05
25.88
23.72
21.61
19.65
18.07
16.95
16.09
14.92
12.77
9.2
4.15
-2
-8.77
-15.78
-22.83
-29.84
-36.69
-43.19
-49.1
-54.21
-58.23
-60.52
-60.04
-55.49
-45.93
-31.29
-12.6
8.21
28.83
47.07
61.2
70.27
74.27
74.32
72.65
72.05
75.12
83.38
96.76
113.77
132.06
149.23
163.21
172.43
175.82
172.92
164.26
151.49
137.11
123.67
112.97
105.49
100.47
96.37
91.68
85.43
77.35
67.65
56.82
45.48
34.15
23.44
13.81
5.54
-1.57
-8.26
-15.65
-24.89
-36.65
-50.7
-65.76
-79.78
-90.53
-96.33
-96.57
-91.83
-83.52
-73.32
-62.64
-52.3
-42.62
-33.6
-25.25
-17.79
-11.65
-7.48
-5.82
-6.89
-10.41
-15.57
-21.16
-25.96
-29.16
-30.56
-30.51
-29.61
-28.33
-26.78
-24.85
-22.45
-19.75
-17.38
-16.27
-17.45
-21.81
-29.93
-41.67
-56.24
-72.35
-88.3
-102.32
-112.87
-119.01
-120.44
-117.5
-110.64
-100.56
-88.15
-74.62
-61.24
-49.1
-38.8
-30.34
-23.3
-16.75
-10.1
-3.21
4.04
12.37
23.37
38.8
59.61
85.05
113.75
142.82
168.71
188.45
200.94
207.2
209.41
209.62
208.91
209.92
214.03
220.76
228.27
234.53
238.13
238.06
233.61
224.59
215.74
211.27
212.09
215.13
215.2
207.96
192.11
170.48
149.35
141.31
154.9
189.78
237.37
286.11
327.54
358.79
381.65
366.32
298.47
185.2
51.91
-74.73
-179.04
-256.07
-307.6
-339.38
-359.3
-369.74
-371.42
-367.41
-360.99
-354.26
-347.45
-340.1
-332.26
-324.71
-314.35
-298.92
-278.78
-256.36
-234.9
-216.42
-201.53
-189.95
-181.05
-171.61
-159.36
-144.22
-127.84
-112.2
-98.18
-85.47
-73.09
-59.99
-44.27
-25
-2.88
20.26
42.25
61.58
77.62
90.5
100.74
109.48
117.64
125.54
132.98
139.44
144.55
148.18
150.45
151.62
151.98
151.73
151.04
150.26
149.97
151
154.07
159.5
166.81
174.94
182.48
188.21
191.29
191.3
187.95
180.86
169.68
154.24
134.94
112.68
88.5
63.08
36.41
8.11
-21.75
-51.87
-79.48
-101.03
-113.44
-115.28
-107.33
-92.18
-73.21
-53.51
-35.24
-19.6
-7.11
2.07
8.01
11.13
12.23
12.29
12.13
11.99
11.41
9.45
5.1
-2.27
-12.64
-25.33
-39.26
-53.29
-66.53
-78.44
-88.85
-97.78
-105.26
-111.11
-115.06
-116.72
-115.74
-111.96
-105.51
-96.97
-87.41
-78.39
-71.72
-69.03
-71.14
-77.64
-86.73
-95.7
-101.75
-102.92
-98.61
-89.62
-77.64
-64.55
-51.86
-40.5
-30.87
-22.97
-16.62
-11.53
-7.41
-4.01
-1.2
1
2.47
3.14
3.03
2.47
2.12
2.82
5.46
10.63
18.41
28.38
39.7
51.51
63.25
74.7
85.97
97.19
108.33
119.15
129.22
138.01
145.06
149.98
152.59
152.89
151.12
147.74
143.4
138.85
134.9
132.3
131.7
133.36
137.12
142.21
147.44
151.66
154.02
154.35
153.11
151
148.57
145.88
142.34
136.95
128.58
116.26
99.35
77.73
51.89
23.13
-6.41
-34.05
-57.3
-74.54
-85.59
-91.58
-94.28
-95.37
-95.86
-96.14
-96.42
-97.08
-98.85
-102.4
-107.92
-114.85
-122.26
-129.29
-135.75
-142.05
-148.71
-155.84
-162.81
-168.37
-171.3
-170.95
-167.53
-161.86
-154.86
-146.97
-137.93
-126.93
-113.06
-95.9
-75.76
-53.63
-30.81
-8.61
11.91
29.94
44.74
55.6
61.85
63.23
60.05
53.35
44.65
35.42
26.53
17.98
8.96
-1.59
-14.33
-29.02
-44.55
-59.48
-72.79
-84.43
-95.4
-107.2
-121.16
-137.77
-156.63
-176.72
-197.01
-216.66
-235.16
-251.93
-266.24
-277.11
-283.63
-285.16
-281.47
-272.52
-258.31
-238.62
-213.3
-182.66
-147.89
-111.28
-76.02
-45.62
-23.09
-10.12
-6.6
-10.57
-18.69
-27.13
-32.65
-33.42
-29.38
-22.1
-14.22
-8.74
-8.41
-15.2
-30.08
-52.52
-80.33
-109.63
-135.51
-153.23
-159.84
-155.09
-141.56
-123.39
-104.47
-86.89
-70.45
-53.45
-34.23
-12.46
10.52
32.34
50.98
65.71
77.5
88.32
100.01
113.22
127.07
139.34
147.36
149.17
144.32
134.11
121.22
108.71
98.9
92.65
89.19
86.73
83.44
78.23
71.03
62.54
53.55
44.49
35.26
25.53
15.2
4.61
-5.62
-14.95
-23.19
-30.46
-36.97
-42.58
-46.64
-48.21
-46.52
-41.46
-33.81
-25.19
-17.24
-10.96
-6.27
-2.13
2.77
9.11
16.5
23.61
28.75
30.78
29.59
26.02
21.38
16.75
12.63
9
5.57
2.17
-1.16
-4.18
-6.62
-8.2
-8.76
-8.26
-6.95
-5.39
-4.23
-4.03
-5.17
-7.65
-11.28
-15.79
-20.88
-26.03
-30.43
-32.77
-31.61
-25.82
-15.16
-0.48
16.52
33.97
50.54
65.62
79.2
91.34
101.85
110.21
115.96
119.06
120.18
120.52
121.42
123.82
127.94
133.23
138.6
143.05
146.09
148.17
150.44
154.14
159.73
166.35
171.85
173.42
168.45
155.25
133.33
103.38
66.99
26.58
-14.76
-53.47
-85.99
-109.35
-121.69
-122.4
-112.05
-92.12
-64.87
-33.28
-0.9
28.79
52.98
70.33
81.03
86.47
88.35
88.02
86.07
82.57
77.41
70.7
62.79
54.09
44.98
35.76
26.82
18.74
12.29
8.11
6.33
6.45
7.38
7.89
7.08
4.8
1.74
-0.88
-1.77
-0.21
3.64
8.74
13.53
16.59
17.16
15.45
12.58
10.23
10.07
13.35
20.63
31.69
45.57
60.8
75.7
88.86
99.55
107.89
114.61
120.51
125.86
130.04
131.72
129.31
121.71
108.75
91.2
70.51
48.34
26.05
4.39
-16.53
-37.21
-58.26
-80.05
-102.3
-124
-143.71
-160.05
-172.13
-179.67
-182.83
-181.87
-177.02
-168.58
-157.2
-144.19
-131.32
-120.39
-112.49
-107.48
-104.1
-100.46
-94.91
-86.7
-76.25
-64.79
-53.75
-44.03
-35.82
-28.7
-22.1
-15.76
-9.81
-4.69
-0.7
2.1
3.97
5.27
6.24
6.9
7.09
6.72
5.9
5.1
4.87
5.62
7.35
9.54
11.4
12.16
11.37
8.91
4.94
-0.42
-7.18
-15.64
-26.19
-39.09
-54.35
-71.54
-89.72
-107.51
-123.13
-134.71
-140.68
-140.26
-133.72
-122.48
-108.67
-94.5
-81.57
-70.52
-61.15
-52.87
-45.18
-37.91
-31.28
-25.66
-21.28
-18.12
-15.85
-14.07
-12.25
-9.72
-5.69
0.53
9.13
19.82
31.76
43.92
55.05
64.2
71.06
75.98
79.71
82.56
84.44
84.81
83.25
79.12
72.06
62.16
49.91
35.85
19.77
1.67
-17.81
-36.62
-52.62
-63.98
-69.81
-70.41
-67.12
-62.27
-57.32
-52.37
-46
-37.75
-28.56
-20.6
-15.92
-11.06
-3.18
9.75
24.45
41.27
60.16
80.76
101.29
120.55
138.37
154.47
168.53
179.72
187.4
190.35
188.01
180.99
171.27
161.18
151.91
143.66
135.79
127.86
119.08
108.98
97.47
84.98
72.14
59.32
47.18
36.75
29.47
26.09
26.5
29.71
34.26
38.73
42.01
43.7
44.01
43.45
42.21
40.19
37.13
32.94
27.8
21.99
15.87
9.65
3.51
-2.47
-8.16
-13.34
-17.79
-21.39
-24.21
-26.43
-28.31
-30.13
-32.22
-34.87
-38.28
-42.37
-46.74
-50.92
-54.61
-58.04
-61.8
-66.55
-72.45
-78.82
-84.29
-87.3
-86.79
-82.51
-75.12
-65.73
-55.42
-44.97
-34.84
-25.38
-17.05
-10.32
-5.6
-2.96
-2.07
-2.28
-2.96
-3.74
-4.54
-5.57
-7.03
-8.85
-10.69
-12.08
-12.68
-12.51
-11.98
-11.67
-12.16
-13.75
-16.47
-20.11
-24.44
-29.31
-34.74
-40.76
-47.35
-54.51
-62.2
-70.38
-78.89
-87.35
-94.99
-100.75
-103.49
-102.49
-97.76
-90.18
-81.31
-72.76
-65.72
-60.49
-56.4
-52.18
-46.49
-38.46
-28.07
-16.05
-3.59
8.17
18.38
26.6
32.57
36.17
37.44
36.8
35.04
33.08
31.49
30.18
28.43
25.31
20.45
14.28
7.8
1.92
-3.09
-7.82
-13.17
-19.88
-27.96
-36.78
-45.29
-52.46
-57.4
-59.53
-58.61
-54.86
-48.94
-41.79
-34.34
-27.19
-20.51
-14.15
-8.03
-2.37
2.44
6.19
9.17
12.23
16.36
22.14
29.38
37.13
44.22
49.84
53.93
57.17
60.55
64.86
70.22
76
80.91
83.24
81.2
73.43
59.49
40.41
18.76
-1.89
-17.98
-27.2
-28.96
-24.42
-15.67
-4.77
6.84
18.31
29.13
38.8
46.76
52.58
56.23
58
58.23
57.1
54.54
50.35
44.54
37.48
29.87
22.54
16.18
11.13
7.44
4.83
2.84
1.01
-1.13
-3.89
-7.42
-11.61
-16.26
-21.08
-25.85
-30.5
-35.04
-39.46
-43.53
-46.7
-48.15
-46.99
-42.57
-34.76
-24.02
-11.29
2.17
15.08
26.4
35.43
41.94
46.06
48.16
48.54
47.25
44.08
38.85
31.7
23.28
14.62
6.79
0.42
-4.49
-8.43
-12.06
-15.7
-19.25
-22.41
-24.95
-27.05
-29.31
-32.43
-36.97
-43.12
-50.85
-59.98
-70.22
-81.1
-91.81
-101.08
-107.44
-109.6
-107.08
-100.41
-91.1
-81.14
-72.33
-65.79
-61.75
-59.83
-59.46
-60.31
-62.44
-66.26
-72.21
-80.57
-91.44
-104.99
-121.42
-140.59
-161.41
-181.34
-196.67
-203.46
-199.09
-183.23
-158.06
-127.25
-94.57
-62.79
-33.5
-7.71
13.59
29.36
38.91
42.63
42.12
39.73
37.48
36.14
35.11
33.02
28.65
21.93
14.25
8.14
6.55
11.85
25.03
45.31
70.23
96.26
119.74
137.78
148.82
152.8
150.79
144.53
136.01
127.18
119.84
115.43
114.78
117.69
122.85
128.07
130.98
129.84
124.16
114.78
103.38
91.76
81.07
71.57
62.76
53.97
44.75
35.11
25.37
15.88
6.94
-1.2
-8.05
-12.91
-14.83
-13.02
-7.22
2.12
13.88
26.63
38.99
50.04
59.36
66.9
72.77
76.95
79.27
79.48
77.38
72.96
66.64
59.09
51.34
44.51
39.49
36.64
35.54
35.21
34.48
32.52
29.09
24.34
18.37
10.7
0.35
-13.72
-31.87
-53.25
-75.92
-97.57
-116.58
-132.64
-146.77
-160.57
-175.11
-190.1
-203.65
-212.74
-214.18
-205.54
-185.71
-154.99
-114.7
-67.16
-15.61
35.59
81.25
116.3
137.22
143.27
136.94
123.11
107.36
94.18
85.81
82.25
82.07
83.55
85.36
86.71
87.15
86.23
83.5
78.74
72.14
64.36
56.36
48.92
42.37
36.51
30.77
24.68
18.11
11.51
5.63
1.26
-1.21
-2
-1.88
-1.95
-3.17
-5.91
-9.8
-13.76
-16.36
-16.39
-13.29
-7.34
0.59
9.33
17.94
25.82
32.77
38.76
43.68
47.19
48.79
47.97
44.46
38.3
29.87
19.77
8.68
-2.79
-14.07
-24.63
-33.98
-41.62
-47.03
-49.69
-49.11
-45.02
-37.61
-27.55
-15.91
-3.78
8.17
19.92
31.94
44.86
59.07
74.62
91.26
108.74
126.8
144.94
162.07
176.39
185.85
189.05
186.18
179.23
171.39
165.72
164
166.27
171.16
176.86
181.96
185.67
187.55
187.09
183.43
175.6
162.93
145.36
123.22
96.83
66.13
30.93
-8.51
-50.96
-94.37
-136.61
-176.35
-213.55
-248.83
-282.47
-313.4
-339.03
-356.27
-363.01
-359.31
-347.63
-331.84
-315.59
-300.75
-286.75
-271.04
-250.21
-221.43
-183.28
-136.24
-82.43
-25.24
31.31
83.28
127.51
162.18
187.06
203.29
212.75
217.4
218.8
218.06
216.02
213.52
211.4
210.3
210.11
209.89
208.09
203.13
193.91
180.23
162.91
143.65
124.76
108.67
97.23
91.1
89.57
90.75
92.28
92.11
88.82
81.81
70.98
56.55
38.98
19.01
-2.34
-23.85
-44.44
-63.46
-80.66
-95.94
-108.89
-118.67
-124.17
-124.51
-119.6
-110.37
-98.9
-87.98
-80.52
-78.49
-82.02
-88.78
-94.19
-92.69
-79.6
-53.09
-14.98
29.67
74.24
112.82
141.75
160.23
169.56
172.06
169.84
164.32
156.24
145.91
133.38
118.41
100.52
79.19
54.35
26.97
-0.73
-25.63
-44.65
-55.81
-58.99
-55.92
-49.44
-42.51
-37.32
-35
-35.79
-39.4
-45.35
-52.94
-61.18
-68.61
-73.42
-74.05
-69.78
-61.35
-51.09
-42.15
-37.31
-37.65
-42.01
-47.47
-50.87
-50.58
-47.51
-44.92
-46.83
-56.07
-72.93
-94.75
-116.98
-134.96
-145.55
-147.8
-142.69
-132.48
-119.91
-107.95
-99.3
-95.9
-98.59
-106.72
-118.23
-130.35
-140.53
-147.37
-151.12
-152.83
-153.25
-152.44
-149.93
-145.39
-139.17
-132.7
-127.99
-128.1
-134.67
-147.01
-162.37
-176.95
-187.22
-190.61
-186.59
-176.49
-165.55
-158.58
-158.29
-164.58
-175.67
-188.94
-201.19
-209.86
-212.81
-212.74
-212.28
-213.19
-216.59
-224.3
-238.41
-258.92
-283.72
-307.28
-327.43
-340.84
-343.91
-334.25
-312.92
-284.34
-253.34
-225.02
-171.77
-84.56
25.09
132.48
218.38
277.5
310.46
330.99
347.85
364.95
377.53
381.34
373.91
356.93
334.36
310.39
289.29
272.75
261.38
251.31
240.33
229.5
222.56
222.66
229.98
242.16
253.85
259.81
253.95
233.74
201.06
161.51
121.78
87.34
61.4
43.69
31.93
21.99
10.96
-1.62
-14.15
-24.76
-32.72
-38.28
-42.3
-45.07
-46.48
-45.91
-42.64
-36.75
-29.51
-22.63
-17.02
-12.27
-7.04
-0.15
8.55
18.91
30.31
42.09
53.89
65.9
78.51
91.47
103.53
112.79
118.68
121.36
121.11
117.86
111.44
101.93
89.78
75.99
62.25
52.46
50.77
59.39
77.39
100.98
124.77
143.15
151.95
140.23
104.75
53.22
0.7
-40.34
-66.4
-81.44
-92
-103.38
-117.84
-133.58
-146.73
-153.88
-153.17
-144.2
-127.77
-105.99
-82.09
-58.74
-38.64
-23.43
-13.54
-8.33
-6.18
-4.87
-2.41
2.31
9.35
18.45
28.79
38.57
45.37
47.15
43.14
34.27
22.79
11.56
3.28
-0.42
0.25
3.3
6.02
6.24
3.3
-1.75
-6.49
-8.09
-4.38
5
18.23
31.82
41.92
45.74
42.55
33.92
22.88
12.7
5.46
1.46
-0.43
-1.7
-2.99
-3.62
-1.97
3.48
13.21
26.19
40.04
51.67
57.75
55.33
42.38
18.48
-14.63
-53.17
-92.19
-127.03
-154.91
-175.64
-191.27
-204.7
-218.1
-231.81
-244.21
-252.5
-253.91
-246.68
-230.64
-207.1
-178.28
-146.72
-114.55
-83.3
-54.01
-27.54
-4.83
13.41
27.01
36.7
43.96
50.42
57.1
63.95
70.08
74.58
77.25
78.86
80.74
83.77
87.53
90.17
89.18
82.72
70.81
55.73
41.27
31.36
28.58
33.32
43.84
57.14
69.95
79.62
84.43
83.56
77.08
65.84
51.53
36.62
23.93
15.82
13.4
16.18
22.24
29.13
34.82
38.36
39.82
39.77
38.58
36.06
31.65
24.96
16.18
6.32
-3.29
-11.43
-17.54
-21.77
-24.55
-25.97
-25.51
-22.15
-15.02
-4.2
8.84
21.51
31.06
35.68
35.35
31.72
27.44
25.03
25.94
30.12
35.95
40.49
39.98
30.68
10.04
-21.97
-62.19
-104.7
-142.42
-169.3
-182.05
-180.82
-168.51
-149.41
-127.75
-106.84
-88.8
-74.67
-64.55
-57.8
-53.17
-49
-43.62
-35.79
-24.93
-11.35
3.87
19.17
33.04
44.68
54.23
62.72
71.41
81
91.06
100.19
106.62
108.99
106.89
100.9
92.2
82.07
71.53
61.18
51.18
41.3
31.08
20.06
8.18
-3.93
-14.82
-22.68
-25.99
-24.1
-17.57
-7.83
3.45
15
26.31
37.42
48.41
59.02
68.49
75.92
80.76
83.14
83.81
83.75
83.65
83.59
83.12
81.59
78.62
74.32
69.17
63.72
58.24
52.79
47.3
41.87
36.85
32.75
29.99
28.71
28.66
29.35
30.17
30.67
30.64
30.17
29.57
29.26
29.6
30.72
32.49
34.48
36.18
37.13
37.12
36.2
34.65
32.76
30.68
28.2
24.86
20.12
13.8
6.27
-1.44
-8.14
-12.95
-15.79
-17.38
-18.9
-21.29
-24.83
-29.03
-32.98
-35.87
-37.3
-37.3
-36.17
-34.22
-31.77
-29.33
-27.67
-27.82
-30.63
-36.47
-44.84
-54.52
-63.84
-71.32
-76.22
-78.76
-79.97
-81.22
-83.58
-87.28
-91.67
-95.39
-96.94
-95.2
-89.72
-80.74
-69.01
-55.57
-41.49
-27.82
-15.51
-5.34
2.18
6.93
9.13
9.38
8.54
7.56
7.3
8.21
10.21
12.66
14.64
15.34
14.49
12.48
10.07
7.94
6.24
4.39
1.39
-3.68
-11.17
-20.61
-31.01
-41.34
-50.93
-59.65
-67.82
-75.77
-83.53
-90.67
-96.35
-99.63
-99.69
-96.08
-88.74
-78.11
-64.99
-50.5
-35.87
-22.16
-10.1
0.04
8.34
15.05
20.37
24.44
27.32
29.1
29.97
30.13
29.69
28.56
26.54
23.44
19.35
14.7
10.17
6.5
4.24
3.47
3.82
4.44
4.14
1.7
-3.8
-12.51
-23.38
-34.25
-42.29
-45
-41.13
-31.08
-16.73
-0.68
14.56
27.12
35.92
40.63
41.54
39.59
36.22
33.09
31.62
32.5
35.61
40.2
45.37
50.49
55.19
59.29
62.41
63.94
63.17
59.58
53
43.73
32.52
20.32
8.26
-2.61
-11.34
-17.2
-19.78
-19.07
-15.5
-10.13
-4.52
-0.41
0.78
-1.62
-7.25
-14.99
-23.48
-31.59
-38.7
-44.63
-49.36
-52.81
-54.92
-55.82
-56
-56.3
-57.65
-60.69
-65.69
-72.38
-80.17
-88.12
-94.94
-99
-98.45
-91.64
-77.59
-56.41
-29.43
0.81
30.95
57.36
76.82
87.31
88.5
81.87
70.35
57.41
45.96
37.51
31.85
27.29
21.64
13.19
1.55
-11.96
-24.69
-33.37
-35.18
-28.79
-14.86
4.16
24.92
44.24
60.11
72.03
80.76
87.62
93.73
99.64
105.25
110.12
113.63
115.28
114.61
111.32
105.5
97.89
89.99
83.84
81.36
83.64
90.62
101.05
113.09
124.87
135.02
142.78
147.72
149.54
147.91
142.51
133.23
120.27
104.22
85.91
66.3
46.46
27.47
10.47
-3.51
-13.88
-20.75
-25.24
-29.31
-35.24
-44.71
-58.01
-73.68
-88.92
-100.68
-106.67
-106.1
-99.69
-89.09
-76.24
-62.88
-50.43
-40.02
-32.49
-28.35
-27.76
-30.64
-36.93
-46.71
-60.09
-76.79
-95.78
-115.18
-132.63
-145.86
-153.32
-154.46
-149.56
-139.45
-125.15
-107.67
-87.97
-66.89
-45.06
-22.86
-0.54
21.63
43.18
63.41
81.45
96.56
108.28
116.56
121.61
123.85
123.8
121.98
118.95
115.14
110.7
105.34
98.4
89.05
76.74
61.57
44.39
26.62
9.75
-5.12
-17.66
-28.38
-38.43
-49.16
-61.64
-76.24
-92.39
-108.62
-122.87
-132.97
-137.28
-135.12
-127.13
-114.99
-101.17
-88.1
-77.77
-71.23
-68.59
-69.15
-71.57
-74.24
-75.53
-74.11
-69.14
-60.39
-48.36
-33.98
-18.36
-2.43
13.13
27.98
41.84
54.44
65.52
74.84
82.43
88.46
93.31
97.28
100.53
102.98
104.43
104.56
103.01
99.54
94.21
87.35
79.52
71.35
63.36
55.77
48.49
41.05
32.97
24.09
14.69
5.45
-2.75
-9
-12.48
-12.56
-9.28
-2.99
5.73
16
26.66
36.19
42.9
45.37
42.78
34.26
20.01
1.48
-18.99
-38.95
-56.8
-71.98
-84.84
-96.3
-109.45
-126.96
-149.89
-177.21
-206.45
-234.95
-260.64
-282.68
-301.67
-322.38
-348.97
-382.26
-418.25
-449.76
-469.6
-472.85
-457.75
-425.19
-381.32
-332.12
-281.62
-232.2
-186.9
-150.82
-129.31
-124.97
-111.52
-70.1
3.13
94.02
182.4
255.24
309.75
350.06
382.11
409.09
429.15
437.31
430.22
409.25
379.54
347.17
317.19
292.36
273.05
256.26
238.77
219.35
199.47
181.81
168.32
159.61
155.06
153.38
151.5
146.7
138.21
127.23
115.9
105.75
97.21
89.68
81.95
71.86
57.43
37.91
14.13
-11.86
-37.55
-60.64
-79.49
-93.51
-103.37
-110.53
-116.23
-120.82
-123.73
-123.9
-120.51
-113.58
-104.13
-93.76
-84.25
-76.7
-71.36
-67.74
-65.09
-62.78
-60.58
-58.51
-56.53
-54.43
-51.74
-48.07
-43.5
-38.75
-35.08
-33.83
-35.78
-40.73
-47.57
-54.69
-60.6
-64.44
-66.09
-65.92
-64.55
-62.63
-60.91
-60.33
-61.91
-66.4
-73.83
-83.12
-92.26
-98.89
-101.02
-97.78
-89.58
-77.75
-64.01
-49.8
-36
-22.92
-10.52
1.26
12.32
22.43
31.24
38.45
43.94
47.8
50.14
51.16
50.95
49.62
47.35
44.47
41.39
38.55
36.3
34.66
33.41
32.07
30.12
27.16
23.07
18.06
12.55
7.09
2.16
-1.93
-5.12
-7.51
-9.38
-10.97
-12.46
-13.91
-15.07
-15.39
-14.02
-10.1
-3.36
5.52
14.93
22.88
27.96
29.99
30.08
30.06
31.52
35.1
40.37
46.23
51.63
56.04
59.5
62.26
64.41
65.78
66.09
65.25
63.57
61.59
59.82
58.51
57.48
56.22
54.16
50.79
45.9
39.49
31.74
22.87
13.15
2.86
-7.75
-18.49
-29.28
-40
-50.24
-59.09
-65.11
-66.73
-62.8
-53.18
-39.03
-22.56
-6.31
7.63
18.3
25.9
31.43
36.06
40.49
44.88
48.78
51.61
53.01
53.03
52.2
51.25
50.73
50.7
50.6
49.43
46.16
40.04
30.8
18.5
3.5
-13.63
-31.97
-50.11
-66.19
-78.35
-85.43
-87.45
-85.68
-82.28
-79.36
-78.34
-79.43
-81.69
-83.43
-82.79
-78.32
-69.43
-56.54
-40.77
-23.55
-6.09
10.82
26.69
41
53
61.68
66.23
66.45
62.93
56.86
49.52
41.85
34.37
27.43
21.49
17.34
15.85
17.47
21.9
27.92
33.87
38.06
39.41
37.64
33.25
27.3
21.1
15.94
12.81
11.98
12.68
13.16
11.24
5.14
-5.69
-20.27
-36.49
-51.91
-64.72
-74.1
-79.99
-82.62
-82.01
-78.03
-70.65
-60.48
-48.81
-37.39
-27.8
-20.95
-16.82
-14.74
-13.71
-12.98
-12.15
-11.32
-10.81
-10.91
-11.7
-13.04
-14.66
-16.27
-17.67
-18.76
-19.46
-19.67
-19.33
-18.5
-17.42
-16.57
-16.63
-18.29
-22.05
-28.01
-35.67
-43.84
-50.89
-54.97
-54.47
-48.31
-36.37
-19.69
-0.29
19.24
36.42
49.58
58.3
63.38
66.21
68.1
69.63
70.69
70.72
69.33
66.71
63.57
60.74
58.77
57.63
56.81
55.61
53.51
50.31
46.18
41.42
36.24
30.64
24.51
17.8
10.64
3.35
-3.75
-10.6
-17.48
-25.01
-33.73
-43.69
-54.09
-63.38
-69.6
-71.16
-67.28
-58.38
-45.8
-31.38
-16.99
-4.01
6.65
14.66
20.09
23.3
24.84
25.41
25.75
26.51
28.08
30.5
33.43
36.26
38.28
38.99
38.18
36.08
33.2
30.1
27.13
24.33
21.43
18.07
14.03
9.35
4.36
-0.53
-5.03
-9.2
-13.5
-18.65
-25.42
-34.33
-45.33
-57.7
-70.14
-80.93
-88.38
-91.24
-88.97
-81.87
-70.95
-57.61
-43.25
-28.99
-15.47
-2.85
8.95
20.06
30.39
39.6
47.18
52.72
56.14
57.85
58.57
59.08
59.92
61.28
63.07
65.15
67.46
70
72.67
75.14
76.84
77.1
75.51
72.14
67.54
62.55
58.04
54.48
51.92
49.92
47.76
44.57
39.65
32.67
23.96
14.64
6.52
1.71
1.99
8.17
19.81
35.35
52.72
69.99
85.91
100
112.25
122.8
131.51
137.93
141.37
141.08
136.51
127.38
113.86
96.51
76.35
54.74
33.25
13.4
-3.59
-17.06
-27.03
-34.14
-39.41
-43.84
-48.14
-52.53
-56.79
-60.56
-63.52
-65.63
-67.11
-68.46
-70.27
-73.23
-77.87
-84.55
-93.21
-103.28
-113.58
-122.43
-127.96
-128.53
-123.23
-112.18
-96.53
-78.12
-58.93
-40.54
-23.77
-8.74
4.76
16.84
27.3
35.7
41.67
45.19
46.76
47.18
47.24
47.38
47.53
47.27
46.09
43.81
40.61
37.06
33.78
31.09
28.88
26.63
23.6
19.23
13.29
5.98
-2.19
-10.64
-18.94
-26.94
-34.79
-42.8
-51.29
-60.39
-69.89
-79.19
-87.27
-92.94
-95.03
-92.72
-85.74
-74.54
-60.15
-43.95
-27.4
-11.73
2.18
13.93
23.44
30.87
36.49
40.52
43.11
44.41
44.62
44.05
43.19
42.5
42.35
42.82
43.71
44.67
45.34
45.51
45.12
44.17
42.64
40.47
37.58
34.03
30
25.81
21.82
18.27
15.23
12.54
9.8
6.43
1.81
-4.54
-12.69
-22.1
-31.53
-39.22
-43.33
-42.46
-36.16
-25.15
-11.07
3.95
18.01
29.92
39.33
46.62
52.38
57.16
61.12
64.16
66.08
66.76
66.29
64.87
62.79
60.27
57.5
54.66
51.9
49.42
47.32
45.59
43.98
42.06
39.26
35.09
29.28
22.02
13.84
5.48
-2.42
-9.53
-15.94
-22.06
-28.49
-35.66
-43.69
-52.23
-60.53
-67.55
-72.18
-73.53
-71.13
-65.06
-55.99
-45.04
-33.45
-22.38
-12.67
-4.79
1.12
5.13
7.42
8.16
7.47
5.52
2.54
-1.14
-5.06
-8.75
-11.88
-14.27
-15.89
-16.84
-17.23
-17.17
-16.79
-16.31
-16.04
-16.36
-17.57
-19.79
-22.83
-26.29
-29.69
-32.74
-35.43
-38.15
-41.54
-46.25
-52.53
-60.05
-67.68
-73.78
-76.62
-74.91
-68.29
-57.49
-44.09
-30.07
-17.15
-6.37
2.01
8.34
13.17
16.93
19.74
21.41
21.68
20.47
18.06
15.13
12.68
11.75
13.08
16.84
22.56
29.21
35.56
40.57
43.68
44.89
44.55
43.2
41.23
38.86
36.15
33.09
29.67
25.8
21.38
16.23
10.31
3.9
-2.36
-7.52
-10.6
-10.97
-8.62
-4.2
1.19
6.41
10.59
13.29
14.52
14.54
13.64
12
9.72
6.8
3.31
-0.58
-4.58
-8.32
-11.44
-13.61
-14.67
-14.67
-13.87
-12.75
-11.88
-11.77
-12.74
-14.77
-17.61
-20.83
-24.07
-27.17
-30.19
-33.44
-37.17
-41.54
-46.45
-51.52
-56.04
-59.14
-59.89
-57.56
-51.85
-43.02
-31.92
-19.78
-7.81
2.96
12.03
19.25
24.76
28.69
31.07
31.78
30.76
28.17
24.47
20.4
16.76
14.18
12.96
12.9
13.44
13.82
13.39
11.72
8.82
4.96
0.62
-3.79
-7.99
-11.88
-15.45
-18.82
-22.18
-25.85
-30.18
-35.5
-41.81
-48.59
-54.67
-58.51
-58.65
-54.17
-45.18
-32.77
-18.73
-4.93
7.22
17.07
24.63
30.29
34.39
37.03
38.13
37.61
35.62
32.63
29.25
26.08
23.44
21.43
19.95
18.86
18.1
17.59
17.23
16.81
15.99
14.4
11.79
8.09
3.47
-1.7
-7.02
-12.17
-17.1
-21.98
-27.21
-33.19
-40.24
-48.31
-56.91
-65
-71.21
-74.13
-72.82
-67.12
-57.77
-46.14
-33.76
-21.79
-10.84
-1.01
7.82
15.67
22.32
27.41
30.63
31.98
31.83
30.75
29.32
27.97
26.82
25.76
24.65
23.54
22.88
23.45
26.12
31.41
39.1
48.12
56.85
63.64
67.33
67.65
65.03
60.25
53.97
46.42
37.5
27.01
15.01
2.01
-11.02
-22.79
-31.91
-37.26
-38.23
-34.92
-28.15
-19.23
-9.56
-0.27
8.13
15.62
22.42
28.59
33.89
37.79
39.85
40.03
38.81
36.97
35.28
34.06
33.14
32.05
30.46
28.43
26.6
25.81
26.67
29.14
32.43
35.29
36.55
35.67
32.99
29.55
26.65
25.22
25.49
26.91
28.43
28.95
27.77
24.76
20.39
15.69
12.15
11.3
14.15
20.43
28.29
34.59
36.13
31.07
19.91
5.49
-8.16
-17.53
-20.84
-18.52
-12.58
-5.48
0.8
5.08
6.77
5.58
1.39
-5.57
-14.41
-23.63
-31.35
-35.99
-36.82
-34.35
-30.11
-26.09
-24.13
-25.24
-29.43
-35.78
-42.85
-49.1
-53.47
-55.67
-56.35
-56.88
-58.87
-63.4
-70.5
-78.99
-86.82
-91.83
-92.46
-88.36
-80.22
-69.5
-57.8
-46.38
-35.99
-26.95
-19.24
-12.75
-7.34
-2.99
0.17
1.76
1.3
-1.57
-6.88
-14.12
-22.32
-30.41
-37.51
-43.21
-47.62
-50.99
-53.47
-54.85
-54.71
-52.64
-48.64
-43.25
-37.5
-32.65
-29.7
-29.12
-30.61
-33.35
-36.24
-38.23
-38.58
-36.84
-32.82
-26.56
-18.38
-8.87
1.16
10.77
19.2
26.08
31.33
35.05
37.22
37.53
35.55
31.02
24.2
15.98
7.79
1.07
-3.12
-4.43
-3.36
-0.8
2.28
5.26
7.94
10.36
12.52
14.17
14.68
13.36
9.73
3.8
-3.94
-12.7
-21.78
-30.76
-39.62
-48.53
-57.6
-66.67
-75.28
-82.62
-87.75
-89.76
-88
-82.25
-72.86
-60.69
-46.93
-32.85
-19.37
-6.97
4.36
14.87
24.68
33.61
41.06
46.23
48.4
47.3
43.23
37.04
29.9
22.97
17.1
12.71
9.85
8.37
8.07
8.77
10.23
12.06
13.65
14.41
14
12.53
10.48
8.47
6.83
5.31
3.2
-0.45
-6.36
-14.68
-24.92
-36
-46.5
-54.91
-59.83
-60.18
-55.5
-46.05
-32.88
-17.57
-1.86
12.86
25.85
37.07
46.98
56.16
64.91
73.11
80.24
85.57
88.48
88.63
86.03
81.02
74.18
66.26
58.16
50.71
44.52
39.72
35.92
32.35
28.22
23.07
17.04
10.71
4.78
-0.35
-4.76
-8.99
-13.74
-19.54
-26.63
-34.85
-43.9
-53.29
-62.41
-70.42
-76.28
-78.93
-77.5
-71.75
-62.12
-49.67
-35.81
-21.79
-8.5
3.65
14.64
24.45
32.96
39.81
44.57
46.98
47.1
45.37
42.44
39.08
35.83
33
30.54
28.04
24.88
20.48
14.55
7.31
-0.4
-7.33
-12.19
-14.09
-12.96
-9.64
-5.62
-2.6
-1.83
-3.71
-7.7
-12.68
-17.46
-21.35
-24.38
-27.28
-31.02
-36.37
-43.53
-51.97
-60.58
-67.72
-71.57
-70.42
-63.11
-49.5
-30.61
-8.37
15.12
38.33
60.65
82.04
102.11
119.3
130.78
133.35
124.96
106.12
80.08
51.95
26.88
8.37
-2.55
-7.05
-7.43
-5.88
-3.73
-1.35
1.43
4.75
8.28
11.29
12.84
12.41
10.28
7.53
5.69
6.07
9.14
14.27
19.98
24.71
27.37
27.71
26.06
22.74
17.7
10.47
0.61
-11.62
-24.9
-37.08
-45.85
-49.54
-47.75
-41.27
-31.6
-20.36
-8.74
2.58
13.24
22.88
30.94
36.61
39.08
37.78
32.73
24.54
14.32
3.3
-7.51
-17.61
-27.04
-36.15
-45.39
-54.91
-64.36
-72.9
-79.23
-81.91
-79.88
-73.03
-62.58
-51.02
-41.46
-36.58
-37.57
-43.62
-52.24
-60.29
-65.22
-65.86
-62.44
-55.94
-47.28
-36.88
-24.62
-10.33
5.82
23.07
40.21
55.8
68.46
77.15
81.29
80.9
76.64
69.62
61.08
52.06
43.24
35.04
27.84
22.19
18.79
18.15
20.33
24.73
30.11
34.8
37.09
35.58
29.65
19.81
7.78
-3.69
-11.65
-13.91
-9.96
-1.2
9.61
19.4
26.04
28.88
28.57
26.45
23.76
21.27
19.39
18.41
18.58
19.94
21.97
23.55
23.29
20.17
14.21
6.51
-1.23
-7.46
-11.5
-13.62
-14.66
-15.51
-16.7
-18.37
-20.65
-23.82
-28.33
-34.2
-40.45
-44.89
-44.7
-37.53
-22.74
-1.97
21.29
42.9
59.52
69.54
73.08
71.26
65.31
56.07
44.2
30.73
17.45
6.74
0.78
0.59
5.58
13.73
22.51
29.95
35.41
39.66
44.25
50.68
59.66
70.91
83.43
95.97
107.59
117.81
126.64
134.46
141.97
150.03
159.6
171.32
185.04
199.57
212.74
221.9
224.81
220.37
208.95
192.11
171.95
150.3
128.25
106.1
83.67
60.87
38.07
16.24
-3.34
-19.43
-31.23
-38.65
-42.16
-42.48
-40.25
-35.93
-29.92
-23.05
-16.65
-12.47
-12.17
-16.72
-26
-38.86
-53.64
-68.78
-83.28
-96.73
-108.99
-119.92
-129.13
-136.19
-140.81
-143.12
-143.48
-142.4
-140.33
-137.54
-134.28
-130.84
-127.66
-125.2
-123.86
-123.77
-124.72
-126.18
-127.28
-127.01
-124.24
-118.08
-107.94
-93.75
-76.07
-55.95
-34.9
-14.6
3.4
17.95
28.48
34.89
37.34
35.96
30.77
21.82
9.48
-5.39
-21.39
-36.95
-50.69
-61.69
-69.62
-74.54
-76.69
-76.34
-73.79
-69.46
-63.99
-58.3
-53.35
-50.02
-48.84
-49.96
-53.07
-57.53
-62.46
-66.78
-69.42
-69.44
-66.34
-60.28
-52.14
-43.36
-35.45
-29.6
-26.37
-25.75
-27.46
-31.3
-37.35
-45.85
-57.02
-70.83
-86.87
-104.47
-122.83
-141.36
-159.77
-178.14
-196.82
-216.3
-236.98
-259.02
-282.06
-304.97
-325.66
-341.24
-348.66
-345.57
-331.37
-307.52
-277.32
-244.91
-213.95
-186.68
-163.57
-143.78
-125.9
-108.68
-91.36
-73.6
-55.22
-35.96
-15.47
6.57
30.3
55.71
82.76
111.71
143.06
177.03
212.82
248.14
279.29
302.29
314.22
314.41
304.75
288.84
270.58
252.88
237.06
223.08
210.33
198.21
186.37
174.53
162.22
148.88
134.2
118.59
103.3
90.15
80.96
76.74
77.4
81.63
87.46
92.91
96.58
97.92
97.18
95.09
92.41
89.65
86.86
83.83
80.23
75.93
71.05
66.03
61.36
57.47
54.62
52.84
52.01
51.92
52.3
52.78
52.92
52.3
50.58
47.73
44.05
40.2
36.9
34.65
33.49
32.99
32.63
32.27
32.56
34.98
41.22
52.39
68.23
86.86
105.31
120.63
130.96
136.26
138.07
138.6
139.74
142.28
145.82
148.98
149.62
144.8
130.77
103.78
61.87
6.86
-54.68
-112.8
-157.57
-183.07
-189.65
-183.09
-171.33
-160.54
-153.06
-147.99
-143.57
-139.38
-136.81
-137.55
-141.56
-146.21
-147.26
-141.05
-126.58
-106
-83.46
-63.28
-48.14
-38.5
-32.99
-29.62
-26.71
-23.46
-19.85
-16.32
-13.3
-11.09
-9.71
-9.06
-8.95
-9.13
-9.48
-9.93
-10.58
-11.67
-13.4
-15.85
-18.81
-21.91
-24.66
-26.86
-28.51
-29.9
-31.31
-32.69
-33.65
-33.53
-31.7
-27.8
-21.9
-14.39
-5.7
3.79
13.87
24.41
35.31
46.33
57.19
67.49
76.67
84
88.61
89.67
86.74
80.09
70.78
60.33
50.25
41.56
34.53
28.83
23.99
19.6
15.62
12.11
8.97
5.73
1.6
-4.19
-12.08
-21.8
-32.44
-42.65
-50.91
-55.96
-56.91
-53.52
-46.21
-35.91
-23.94
-11.66
-0.15
9.87
18.14
24.72
29.78
33.48
35.85
36.85
36.49
34.99
32.77
30.39
28.35
26.83
25.6
24.17
22.01
18.87
14.94
10.63
6.4
2.31
-2
-7.13
-13.61
-21.59
-30.65
-40.08
-49.11
-57.28
-64.39
-70.33
-74.77
-76.98
-76.11
-71.49
-63.14
-51.96
-39.62
-28.09
-19.19
-14.22
-13.78
-17.84
-25.73
-36.12
-46.87
-55.08
-57.62
-52.18
-38.15
-17.28
6.86
30.11
49.33
63.51
73.82
82.54
91.65
101.78
112.01
120.52
125.57
126.19
122.31
114.42
103.13
88.96
72.46
54.45
36.28
19.76
6.8
-1.14
-3.58
-1.27
4.07
10.25
15.41
18.57
19.73
19.59
18.95
18.28
17.52
16.32
14.33
11.57
8.47
5.69
3.77
2.92
2.9
3.2
3.23
2.58
1.07
-1.23
-4.12
-7.32
-10.53
-13.53
-16.21
-18.74
-21.59
-25.36
-30.45
-36.73
-43.3
-48.72
-51.44
-50.41
-45.4
-37.11
-26.81
-15.93
-5.66
3.31
10.68
16.39
20.44
22.8
23.4
22.29
19.7
16.15
12.41
9.22
7.15
6.38
6.7
7.6
8.54
9.05
8.81
7.65
5.56
2.68
-0.69
-4.17
-7.46
-10.54
-13.64
-17.24
-21.71
-27.2
-33.32
-39.3
-44.03
-46.31
-45.22
-40.29
-31.78
-20.62
-8.21
3.96
14.67
23.25
29.53
33.64
35.74
35.91
34.21
30.77
26.05
20.73
15.57
11.21
7.94
5.69
4.13
2.89
1.72
0.54
-0.54
-1.44
-2.29
-3.43
-5.3
-8.25
-12.38
-17.48
-23.21
-29.32
-35.71
-42.41
-49.24
-55.63
-60.53
-62.68
-61.04
-55.26
-45.94
-34.46
-22.54
-11.74
-3
3.4
7.71
10.33
11.56
11.44
9.94
7.19
3.59
-0.2
-3.48
-5.82
-7.26
-8.23
-9.29
-10.91
-13.26
-16.22
-19.42
-22.44
-24.91
-26.53
-27.32
-27.68
-28.57
-31.29
-37.08
-46.38
-58.37
-70.83
-80.77
-85.44
-83.38
-75.05
-62.64
-49.22
-37.65
-29.7
-25.52
-23.81
-22.44
-19.43
-13.85
-6.48
0.17
2.61
-2.28
-15.84
-36.67
-60.88
-83.1
-98.03
-101.89
-93.36
-74.07
-48.13
-21.18
1.3
15.6
20.9
19.18
13.92
8.28
3.71
-0.21
-4.72
-10.4
-16.27
-20.07
-19.53
-13.67
-3.3
9.49
22.33
33.6
42.74
50.05
56.12
61.33
65.62
68.62
69.83
69.02
66.39
62.73
59.15
56.66
55.69
55.81
55.87
54.57
51.1
45.63
39.25
33.41
29.19
26.83
25.65
24.45
22.01
17.62
11.3
3.7
-4.06
-10.67
-14.9
-15.88
-13.35
-7.7
0.17
9.13
18.22
26.79
34.6
41.5
47.33
51.74
54.3
54.72
53.04
49.71
45.51
41.23
37.52
34.65
32.59
31.04
29.61
27.97
25.88
23.37
20.66
18.05
15.77
13.79
11.77
9.16
5.41
0.17
-6.51
-14.13
-21.85
-28.6
-33.21
-34.75
-32.71
-27.22
-19.1
-9.61
-0.07
8.58
15.93
21.94
26.73
30.27
32.37
32.78
31.48
28.82
25.43
22.11
19.45
17.78
17.04
16.95
17.13
17.2
16.84
15.82
13.97
11.27
7.8
3.79
-0.43
-4.55
-8.34
-11.71
-14.82
-17.92
-21.23
-24.81
-28.4
-31.33
-32.66
-31.39
-26.87
-19.11
-8.89
2.44
13.36
22.6
29.5
34.04
36.64
37.87
38.27
38.2
37.89
37.48
37.08
36.77
36.57
36.48
36.52
36.77
37.39
38.57
40.38
42.71
45.12
46.99
47.76
47.2
45.63
43.79
42.54
42.46
43.54
45.24
46.79
47.57
47.45
46.81
46.43
47.35
50.56
56.94
66.89
80.23
96.03
112.83
129
143.12
154.31
162.2
166.74
167.84
165.26
158.66
147.97
133.71
117.19
100.3
85.01
72.57
62.92
54.62
45.41
33.2
16.99
-2.84
-24.86
-47.38
-69.19
-89.78
-109.1
-126.99
-142.92
-156.01
-165.44
-170.93
-172.94
-172.58
-171.24
-170.14
-170.11
-171.37
-173.51
-175.69
-176.78
-175.72
-171.83
-164.87
-155.19
-143.56
-130.93
-118.15
-105.83
-94.24
-83.41
-73.33
-64.21
-56.64
-51.41
-49.18
-50.08
-53.4
-57.58
-60.67
-60.85
-56.97
-48.72
-36.49
-21.18
-3.86
14.35
32.24
48.45
61.66
70.77
75.26
75.5
72.54
67.79
62.53
57.38
52.2
46.25
38.68
28.88
16.75
2.59
-13.02
-29.35
-45.47
-60.12
-71.7
-78.63
-79.88
-75.37
-66.07
-53.66
-39.89
-26.15
-13.2
-1.39
9.07
17.88
24.64
28.98
30.75
30.09
27.41
23.29
18.39
13.41
8.97
5.42
2.86
1.1
-0.28
-1.64
-3.2
-4.91
-6.55
-7.84
-8.6
-8.81
-8.62
-8.24
-7.79
-7.34
-6.92
-6.61
-6.62
-7.3
-9.11
-12.53
-17.89
-25.26
-34.27
-44.14
-53.63
-61.28
-65.7
-65.9
-61.56
-53.12
-41.58
-28.29
-14.58
-1.57
9.96
19.51
26.82
31.78
34.49
35.28
34.82
34.06
34.05
35.6
39.07
44.16
49.91
54.93
57.77
57.33
53.28
46.13
37.12
27.73
19.15
11.97
6.05
0.84
-4.32
-9.87
-15.94
-22.55
-29.61
-37.04
-44.73
-52.5
-60.01
-66.9
-72.7
-76.91
-78.99
-78.43
-74.96
-68.66
-59.92
-49.37
-37.58
-24.95
-11.78
1.55
14.35
25.63
34.37
39.88
42.12
41.72
39.67
36.94
34.21
31.79
29.75
28.06
26.72
25.68
24.8
23.78
22.28
20.03
17.01
13.36
9.36
5.25
1.23
-2.46
-5.53
-7.72
-8.9
-9.33
-9.69
-10.89
-13.75
-18.57
-24.91
-31.71
-37.59
-41.28
-42.05
-39.77
-34.89
-28.2
-20.57
-12.82
-5.57
0.7
5.63
9.02
10.89
11.53
11.58
11.86
13.11
15.7
19.41
23.57
27.26
29.77
30.89
30.89
30.26
29.34
28.03
25.93
22.65
18.23
13.23
8.61
5.32
3.86
4.17
5.8
8.14
10.58
12.6
13.63
13
10.25
5.43
-0.69
-6.66
-10.79
-11.84
-9.38
-4.03
2.96
10.18
16.52
21.42
24.76
26.69
27.34
26.73
24.86
21.78
17.69
12.99
8.18
3.75
0.04
-2.82
-4.87
-6.24
-7.13
-7.65
-7.9
-8.03
-8.25
-8.9
-10.28
-12.52
-15.52
-18.9
-22.14
-24.96
-27.46
-30.25
-34.21
-40.05
-47.87
-56.95
-65.75
-72.28
-74.58
-71.37
-62.48
-49.01
-33.2
-17.8
-5.19
3.36
8.05
10.26
11.72
13.68
16.32
18.87
20.1
19.02
15.24
9.04
1.14
-7.48
-15.78
-22.78
-27.76
-30.58
-31.7
-32.09
-32.72
-34.09
-35.98
-37.65
-38.33
-37.66
-35.9
-33.7
-31.73
-30.32
-29.41
-28.65
-27.55
-25.69
-22.61
-17.94
-11.51
-3.5
5.57
14.92
23.95
32.42
40.52
48.56
56.69
64.62
71.73
77.33
81.08
83.1
83.96
84.23
84.12
83.33
81.19
77.04
70.74
62.81
54.3
46.4
39.9
34.87
30.71
26.38
20.99
14
5.42
-4.49
-15.49
-27.56
-40.89
-55.55
-71.16
-86.62
-100.19
-109.82
-113.79
-111.23
-102.41
-88.62
-71.75
-53.75
-36.13
-19.94
-5.66
6.63
17.1
26.17
34.43
42.47
50.7
59.21
67.71
75.63
82.4
87.57
90.99
92.69
92.81
91.5
88.87
85.12
80.61
75.84
71.29
67.24
63.5
59.35
53.6
45.03
32.79
16.9
-1.58
-20.76
-38.35
-52.42
-61.87
-66.76
-68.03
-67.09
-65.12
-62.71
-59.72
-55.66
-50.04
-42.89
-34.68
-26.22
-18.16
-10.76
-3.83
3
9.91
16.65
22.57
26.98
29.49
30.21
29.74
28.75
27.71
26.76
25.74
24.41
22.61
20.32
17.6
14.5
10.93
6.59
1.07
-6.1
-15.24
-26.12
-37.78
-48.4
-55.7
-57.62
-52.98
-41.96
-26.02
-7.44
11.34
28.17
41.46
50.25
54.3
54.06
50.69
45.78
40.93
37.32
35.4
34.92
35.29
35.83
36.03
35.52
34.01
31.3
27.33
22.24
16.33
10.02
3.61
-2.75
-9.06
-15.39
-21.7
-27.88
-33.81
-39.48
-45
-50.5
-56.02
-61.27
-65.58
-67.99
-67.57
-63.73
-56.52
-46.71
-35.49
-24.1
-13.45
-3.91
4.57
12.12
18.73
24.12
28
30.35
31.61
32.59
34.08
36.55
39.9
43.61
47.01
49.66
51.46
52.68
53.71
54.97
56.68
58.9
61.52
64.32
67.12
69.84
72.55
75.49
78.77
82.19
84.96
85.86
83.42
76.53
64.89
49.39
31.94
15.07
1.18
-8.01
-11.82
-10.52
-5.07
3.34
13.56
24.58
35.6
45.99
55.3
63.23
69.64
74.59
78.25
80.92
82.95
84.58
85.93
86.78
86.71
85.25
82.11
77.35
71.4
64.78
57.94
50.95
43.53
35.26
25.75
14.88
2.84
-9.84
-22.53
-34.53
-45.22
-54.19
-61.34
-66.99
-71.9
-77.02
-83.27
-91.16
-100.57
-110.67
-120.19
-127.67
-131.91
-132.21
-128.49
-121.34
-111.85
-101.37
-91.19
-82.26
-74.94
-69.06
-64.12
-59.7
-55.72
-52.47
-50.39
-49.77
-50.49
-52.05
-53.77
-55.05
-55.5
-54.97
-53.46
-51.14
-48.29
-45.4
-42.96
-41.43
-40.99
-41.49
-42.62
-44.02
-45.55
-47.16
-48.85
-50.52
-52.03
-53.31
-54.55
-56.19
-58.72
-62.39
-66.89
-71.22
-73.99
-73.84
-69.96
-62.42
-52.2
-40.8
-29.7
-19.96
-11.91
-5.28
0.53
6.01
11.37
16.4
20.74
24.03
26.12
27.21
27.8
28.64
30.5
33.94
39
45.18
51.4
56.31
58.58
57.26
52.06
43.37
32.16
19.87
7.94
-2.38
-10.39
-16.02
-19.84
-22.81
-26.02
-30.24
-35.68
-41.85
-47.76
-52.21
-54.17
-53.06
-48.97
-42.61
-35
-27.31
-20.46
-14.93
-10.7
-7.45
-4.66
-1.95
0.8
3.37
5.35
6.4
6.42
5.65
4.43
3.11
1.83
0.56
-0.84
-2.41
-4.19
-6.14
-8.37
-11.04
-14.31
-18.1
-22.02
-25.54
-28.18
-29.84
-30.9
-32.08
-34.1
-37.35
-41.78
-46.85
-51.72
-55.42
-57.03
-55.84
-51.49
-44.14
-34.5
-23.72
-13.07
-3.55
4.38
10.79
15.99
20.19
23.24
24.75
24.34
21.99
18.21
13.83
9.73
6.43
3.99
2.1
0.29
-1.77
-4.21
-6.96
-9.84
-12.67
-15.4
-18.01
-20.7
-23.55
-26.57
-29.36
-31.19
-31.13
-28.43
-22.87
-14.99
-6.13
1.92
7.46
9.45
7.89
3.85
-0.86
-4.23
-4.67
-1.43
5.31
14.65
25.33
36.14
46.11
54.58
61.09
65.44
67.63
67.92
66.78
64.86
62.83
61.19
60.18
59.74
59.55
59.22
58.42
56.98
54.87
52.22
49.18
45.94
42.69
39.48
36.21
32.61
28.4
23.45
17.98
12.51
7.67
3.8
0.77
-2.03
-5.38
-9.81
-15.44
-21.9
-28.56
-34.69
-39.59
-42.56
-42.99
-40.37
-34.58
-26.03
-15.65
-4.67
5.78
14.93
22.52
28.56
33.16
36.35
38.11
38.48
37.73
36.3
34.71
33.37
32.47
31.93
31.54
31.08
30.47
29.74
29.1
28.76
28.86
29.29
29.76
29.81
29.1
27.61
25.66
23.81
22.51
21.85
21.46
20.71
18.94
15.73
11.06
5.19
-1.33
-7.83
-13.5
-17.44
-18.75
-16.81
-11.41
-2.9
7.89
19.81
31.63
42.27
50.84
56.61
59.06
58.04
53.87
47.58
40.71
34.87
31.27
30.26
31.27
33
33.96
33.08
30.34
26.96
25.27
27.88
36.7
51.8
71.06
90.51
105.58
112.63
110.09
98.65
80.46
58.05
33.33
7.53
-18.59
-44.18
-68.21
-89.55
-107.37
-121.25
-131.24
-137.52
-140.26
-139.6
-135.69
-128.91
-119.82
-109.07
-97.39
-85.47
-74.07
-64
-55.97
-50.34
-46.91
-45.03
-43.81
-42.58
-41.03
-39.25
-37.46
-35.67
-33.57
-30.65
-26.53
-21.28
-15.55
-10.34
-6.64
-5.02
-5.37
-7.14
-9.59
-12.2
-14.72
-17.16
-19.53
-21.82
-24
-26.17
-28.66
-31.84
-35.97
-40.78
-45.42
-48.6
-49.03
-45.84
-38.95
-29.02
-17.29
-5.14
6.3
16.3
24.6
31.26
36.4
40.06
42.2
42.8
42
40.23
38.05
36.05
34.59
33.7
33.18
32.79
32.39
32.05
31.89
31.9
31.86
31.43
30.38
28.73
26.82
25.04
23.65
22.47
21.05
18.82
15.31
10.28
3.75
-4.13
-12.95
-21.97
-30.13
-36.16
-38.93
-37.85
-33.09
-25.52
-16.41
-7
1.81
9.56
16.11
21.53
25.87
29.16
31.41
32.65
33.06
32.83
32.25
31.49
30.71
29.92
29.13
28.35
27.56
26.75
25.86
24.72
23.19
21.16
18.65
15.9
13.23
11.01
9.48
8.6
8
7.04
5
1.3
-4.23
-11.26
-19.02
-26.43
-32.38
-35.92
-36.48
-34
-28.88
-21.91
-14.08
-6.3
0.76
6.78
11.75
15.74
18.83
21.01
22.22
22.44
21.72
20.19
18.03
15.45
12.7
10.01
7.62
5.65
4.12
2.96
2.05
1.36
0.98
1.04
1.58
2.41
3.1
3.2
2.39
0.69
-1.57
-3.92
-5.97
-7.66
-9.24
-11.19
-13.92
-17.47
-21.35
-24.5
-25.56
-23.34
-17.35
-8.09
2.96
13.82
22.68
28.58
31.72
33.22
34.59
36.96
40.66
45.01
48.81
50.7
49.85
46.14
40.34
33.97
29.15
28.31
33.57
45.88
64.07
84.34
100.78
106.82
97.58
71.88
33.11
-11.73
-54.31
-87.81
-108.87
-117.97
-118.35
-114.09
-108.56
-103.47
-99.17
-95.23
-91.13
-86.61
-81.41
-75.26
-67.71
-58.42
-47.35
-35.07
-22.7
-11.68
-3.32
1.76
3.71
3.42
2.03
0.58
-0.34
-0.69
-0.78
-0.95
-1.07
-0.76
0.36
2.31
4.8
7.35
9.55
11.23
12.45
13.98
16.35
19.48
22.6
24.61
24.69
22.38
17.68
10.86
3.62
-2.39
-6.25
-8.08
-8.78
-9.58
-11.77
-16.49
-24.33
-32.97
-39.37
-40.94
-36.44
-25.87
-9.81
10.95
35.63
63.62
96.92
136.82
182.17
228.92
271.67
306.1
330.4
345.3
337.77
301.06
238.26
162.5
89.29
29.07
-14.3
-41.61
-56.44
-63.86
-66.63
-66.57
-64.82
-62.39
-60.07
-58.25
-57.32
-57.67
-59.88
-62.15
-62.43
-59.75
-54.89
-49.7
-45.91
-44.48
-45.51
-48.3
-51.03
-51.92
-50.27
-46.79
-43.14
-41.05
-41.88
-46.82
-52.96
-58.45
-61.97
-63.07
-62.21
-60.23
-57.84
-55.33
-52.6
-49.32
-45.57
-41.36
-36.89
-32.49
-28.44
-24.9
-21.86
-19.3
-17.11
-15.67
-15.15
-15.66
-17.14
-19.46
-22.35
-25.42
-28.22
-30.21
-31.18
-31.01
-29.73
-27.48
-24.45
-20.72
-16.33
-11.23
-5.45
0.74
7.08
13.38
19.63
25.97
32.55
39.41
46.3
52.75
58.31
62.87
66.77
70.67
75.22
80.8
87.46
94.9
102.75
110.81
119.1
127.89
137.47
147.98
159.2
170.4
180.47
188.16
192.54
193.33
191.03
186.75
181.77
177.04
172.92
169
164.26
157.4
147.16
132.69
113.85
91.35
66.62
41.4
17.25
-4.8
-24.38
-41.63
-56.86
-70.37
-82.32
-92.82
-101.92
-109.58
-115.68
-119.9
-121.86
-121.36
-118.59
-114.26
-109.45
-105.25
-102.31
-100.69
-99.77
-98.69
-96.7
-93.48
-89.2
-84.46
-79.96
-76.28
-73.74
-72.43
-72.33
-73.52
-76.13
-80.26
-85.92
-92.95
-101.05
-109.71
-118.06
-124.56
-127.09
-123.48
-112.56
-95.05
-73.91
-53.56
-38.32
-30.8
-31.11
-37.17
-46.07
-55.64
-65.25
-75.54
-87.41
-100.94
-114.9
-127.09
-135.35
-138.5
-137
-132.84
-128.75
-127.22
-129.5
-135.1
-141.98
-147.38
-148.69
-144.38
-134.34
-119.73
-102.36
-84.05
-66.1
-49.13
-33.32
-18.77
-5.75
5.29
13.9
19.88
23.41
24.98
25.41
25.74
27.28
31.32
38.82
49.88
63.52
77.88
90.89
101.2
108.86
115.33
122.75
133.1
147.33
165.3
185.99
207.97
229.73
249.73
266.5
278.78
285.81
287.63
285
278.87
269.71
257.14
240.13
217.77
190.16
158.87
126.51
95.73
68.22
44.25
22.99
3.5
-14.45
-30.06
-42.02
-49.37
-52.19
-51.59
-49.09
-45.65
-41.18
-34.73
-25.23
-12.39
2.83
18.38
32.03
42.35
49.32
54.38
59.89
68.25
80.98
98.14
117.89
136.81
150.58
155.2
148.26
129.72
101.83
68.31
32.93
-1.66
-34.41
-65.67
-96.6
-128.66
-163.01
-200.09
-239.15
-277.75
-311.99
-337.35
-349.99
-348.08
-332.28
-305.45
-271.52
-234.48
-197.6
-163.32
-133.27
-108.5
-89.47
-75.93
-67.08
-61.74
-58.69
-56.92
-55.69
-54.46
-52.97
-51.05
-48.63
-45.69
-42.16
-37.96
-33.08
-27.67
-22.07
-16.73
-12.19
-8.84
-6.9
-6.36
-6.82
-7.65
-8.18
-7.99
-7.13
-6.12
-5.59
-5.88
-6.72
-7.31
-6.72
-4.52
-1.07
2.53
4.87
4.76
1.49
-5.21
-15.41
-29.13
-46.16
-65.81
-86.79
-107.66
-127.37
-145.78
-163.69
-182.1
-201.34
-220.56
-237.96
-251.39
-259.05
-259.7
-252.65
-237.75
-215.63
-188.14
-158.52
-130.81
-108.7
-94.38
