-60.48
-59.77
-55.28
-46.81
-34.94
-20.86
-6
8.29
20.99
31.5
39.51
44.91
47.76
48.31
47.06
44.67
41.8
38.92
36.19
33.5
30.67
27.67
24.73
22.25
20.64
20.02
20.14
20.44
20.29
19.25
17.23
14.55
11.7
9.14
7.1
5.45
3.8
1.63
-1.51
-5.8
-11.09
-16.98
-22.91
-28.42
-33.24
-37.46
-41.41
-45.63
-50.63
-56.75
-63.87
-71.27
-77.62
-81.26
-80.65
-74.91
-64.18
-49.59
-32.9
-15.95
-0.15
13.7
25.33
34.72
41.82
46.53
48.75
48.59
46.45
43.02
39.1
35.38
32.28
29.94
28.25
27.05
26.24
25.77
25.64
25.77
25.91
25.76
25
23.5
21.32
18.69
15.87
13.02
10.13
6.99
3.34
-1.05
-6.15
-11.77
-17.5
-22.97
-27.94
-32.39
-36.57
-40.87
-45.79
-51.76
-58.98
-67.19
-75.43
-82.11
-85.33
-83.45
-75.72
-62.59
-45.59
-26.89
-8.51
8.07
22.13
33.48
42.2
48.36
51.99
53.2
52.26
49.66
46.03
42.01
38.07
34.51
31.47
28.95
26.93
25.32
24.01
22.87
21.85
20.96
20.18
19.45
18.51
16.97
14.42
10.62
5.63
-0.2
-6.35
-12.31
-17.76
-22.68
-27.27
-31.91
-37.06
-43.17
-50.44
-58.67
-67.07
-74.31
-78.72
-78.74
-73.41
-62.67
-47.42
-29.29
-10.17
8.21
24.56
38.08
48.39
55.36
59.02
59.6
57.51
53.4
48.05
42.33
36.94
32.33
28.62
25.66
23.18
20.93
18.87
17.07
15.65
14.56
13.59
12.28
10.12
6.76
2.2
-3.24
-8.98
-14.48
-19.45
-23.99
-28.49
-33.53
-39.58
-46.94
-55.56
-64.96
-74.13
-81.54
-85.35
-83.81
-75.91
-61.83
-43.01
-21.77
-0.59
18.61
34.74
47.48
56.9
63.06
65.94
65.57
62.33
57.03
50.8
44.76
39.7
35.85
32.95
30.51
28.03
25.34
22.58
20.12
18.31
17.25
16.61
15.69
13.7
10.02
4.54
-2.34
-9.86
-17.22
-23.86
-29.68
-35.01
-40.47
-46.85
-54.85
-64.77
-76.24
-87.92
-97.6
-102.66
-100.83
-90.99
-73.65
-50.83
-25.44
-0.44
21.9
40.34
54.55
64.76
71.34
74.6
74.81
72.34
67.8
62.09
56.17
50.86
46.62
43.43
40.93
38.62
36.2
33.64
31.23
29.3
28.05
27.28
26.39
24.59
21.13
15.67
8.4
0.01
-8.61
-16.65
-23.71
-29.87
-35.64
-41.76
-48.95
-57.76
-68.37
-80.31
-92.38
-102.6
-108.5
-107.78
-98.98
-82.13
-58.88
-32.02
-4.74
20.26
41.32
57.85
70.01
78.26
83
84.58
83.37
79.92
74.98
69.39
63.89
59.01
55.02
52
49.84
48.35
47.25
46.18
44.82
42.91
40.35
37.19
33.52
29.37
24.68
19.29
13.08
6.07
-1.54
-9.4
-17.12
-24.41
-31.19
-37.56
-43.83
-50.51
-58.13
-67.14
-77.56
-88.63
-98.68
-105.28
-105.87
-98.55
-82.89
-60.19
-33.16
-5.15
20.87
42.93
60.23
72.82
81.18
85.77
86.96
85.13
80.85
74.96
68.47
62.34
57.24
53.45
50.89
49.31
48.38
47.85
47.49
47.07
46.25
44.7
42.15
38.54
34.01
28.85
23.28
17.41
11.16
4.44
-2.8
-10.42
-18.15
-25.71
-32.94
-39.81
-46.42
-53
-59.9
-67.61
-76.51
-86.55
-96.82
-105.33
-109.37
-106.3
-94.69
-74.94
-49.36
-21.39
5.53
28.99
47.9
62.25
72.49
78.91
81.6
80.65
76.46
69.91
62.28
54.87
48.66
44.17
41.37
39.96
39.47
39.45
39.5
39.26
38.46
36.92
34.57
31.47
27.71
23.34
18.31
12.51
5.91
-1.43
-9.2
-17.02
-24.49
-31.34
-37.54
-43.26
-48.86
-54.84
-61.76
-70.08
-79.79
-90.11
-99.29
-104.85
-104.22
-95.6
-78.76
-55.23
-27.92
-0.19
25.09
46.16
62.37
73.89
81.15
84.55
84.51
81.57
76.56
70.47
64.27
58.65
53.89
49.94
46.63
43.84
41.61
40.07
39.2
38.79
38.37
37.3
35.1
31.54
26.81
21.36
15.74
10.28
5
-0.41
-6.36
-13.18
-20.86
-29.1
-37.36
-45.13
-52.05
-58.08
-63.52
-68.95
-75.11
-82.7
-92.01
-102.48
-112.52
-119.59
-120.84
-114.1
-98.7
-75.9
-48.48
-19.9
6.83
29.74
48.16
62.2
72.31
78.83
81.98
82.02
79.49
75.23
70.18
65.21
60.83
57.17
54.14
51.56
49.35
47.58
46.41
45.92
45.96
46.11
45.76
44.27
41.2
36.51
30.53
23.88
17.25
11.12
5.68
0.71
-4.22
-9.61
-15.79
-22.81
-30.41
-38.07
-45.23
-51.47
-56.65
-61.06
-65.35
-70.44
-77.16
-85.89
-96.13
-106.36
-114.17
-116.87
-112.34
-99.77
-80.06
-55.51
-29.13
-3.77
18.57
36.95
51.24
61.69
68.62
72.27
72.91
71.05
67.45
63.03
58.65
54.85
51.81
49.35
47.12
44.85
42.45
40.13
38.21
36.95
36.37
36.13
35.67
34.33
31.69
27.66
22.62
17.21
12.08
7.6
3.72
-0.01
-4.25
-9.54
-15.99
-23.27
-30.7
-37.58
-43.5
-48.49
-52.99
-57.61
-62.97
-69.49
-77.34
-86.22
-95.25
-102.86
-106.94
-105.41
-96.92
-81.48
-60.61
-36.89
-13.21
8.16
25.95
39.91
50.3
57.46
61.59
62.77
61.28
57.65
52.71
47.35
42.27
37.9
34.34
31.54
29.34
27.62
26.24
25.1
24.12
23.15
22.12
20.92
19.47
17.73
15.65
13.14
10.13
6.52
2.29
-2.51
-7.71
-13.07
-18.41
-23.66
-28.9
-34.39
-40.43
-47.37
-55.38
-64.23
-73.03
-80.22
-83.76
-81.79
-73.27
-58.53
-39.21
-17.85
2.97
21.31
36.22
47.48
55.28
59.78
61.01
59.04
54.22
47.35
39.58
32.12
25.84
21.1
17.7
15.1
12.75
10.41
8.18
6.36
5.2
4.64
4.31
3.56
1.82
-1.24
-5.54
-10.73
-16.27
-21.74
-26.9
-31.75
-36.48
-41.41
-46.89
-53.32
-60.96
-69.68
-78.69
-86.41
-90.69
-89.41
-81.31
-66.51
-46.65
-24.33
-2.3
17.4
33.75
46.58
56.13
62.52
65.7
65.56
62.33
56.75
49.93
43.09
37.16
32.59
29.28
26.8
24.66
22.52
20.28
18.03
15.89
13.9
11.93
9.69
6.82
3.01
-1.97
-8.07
-15.02
-22.29
-29.3
-35.57
-40.9
-45.52
-49.97
-55
-61.29
-69.24
-78.71
-88.92
-98.32
-104.84
-106.25
-100.88
-88.19
-69.15
-46
-21.63
1.26
20.91
36.58
48.45
57.04
62.8
66
66.71
65.11
61.58
56.77
51.47
46.43
42.19
38.92
36.52
34.71
33.17
31.73
30.36
29.15
28.12
27.13
25.81
23.61
20.03
14.78
7.93
-0.09
-8.59
-16.9
-24.53
-31.38
-37.66
-43.8
-50.33
-57.71
-66.28
-76.06
-86.56
-96.54
-104.08
-106.88
-102.99
-91.55
-73.27
-50.29
-25.51
-1.68
19.32
36.71
50.53
61.11
68.6
72.97
74.21
72.68
69.24
65.07
61.24
58.42
56.65
55.57
54.71
53.78
52.8
52.02
51.65
51.7
51.93
51.92
51.21
49.47
46.52
42.45
37.57
32.38
27.45
23.37
20.57
19.25
19.37
20.67
22.72
24.98
26.96
28.16
28.29
27.2
24.94
21.73
17.86
13.68
9.55
5.85
2.9
0.88
-0.2
-0.54
-0.48
-0.41
-0.59
-1.12
-1.91
-2.82
-3.78
-4.78
-5.96
-7.43
-9.31
-11.67
-14.58
-18.01
-21.87
-25.92
-29.82
-33.26
-36.12
-38.57
-41.08
-44.16
-48.12
-52.98
-58.34
-63.66
-68.46
-72.53
-76.02
-79.38
-83.22
-88.22
-94.91
-103.38
-113.03
-122.32
-128.95
-130.36
-124.48
-110.56
-89.42
-63.35
-35.38
-8.43
15.29
34.55
48.9
58.4
63.36
64.26
61.81
56.94
50.7
44.07
37.81
32.38
27.95
24.49
21.94
20.27
19.44
19.36
19.79
20.23
20.09
18.81
16.04
11.83
6.58
0.89
-4.72
-9.96
-14.9
-19.93
-25.68
-32.82
-41.74
-52.28
-63.32
-72.83
-78.25
-77.23
-68.53
-52.55
-31.3
-7.71
15.23
35.31
51.34
63.02
70.58
74.39
74.85
72.44
67.74
61.4
54.11
46.45
38.93
31.99
26.01
21.26
17.83
15.52
13.93
12.51
10.68
7.97
4.15
-0.84
-6.84
-13.51
-20.47
-27.4
-34.2
-41.08
-48.6
-57.4
-67.83
-79.42
-90.63
-98.98
-101.68
-96.59
-83.08
-62.4
-37.31
-11.2
12.9
33.1
48.67
59.81
67.08
70.99
71.93
70.27
66.47
61.14
54.92
48.37
41.91
35.82
30.28
25.45
21.45
18.25
15.63
13.14
10.15
6.16
0.94
-5.29
-11.93
-18.26
-23.69
-28.02
-31.65
-35.44
-40.47
-47.63
-57.11
-68.03
-78.35
-85.3
-86.14
-79.06
-63.94
-42.44
-17.47
7.69
30.39
49.1
63.42
73.64
80.17
83.29
83.16
80.09
74.76
68.27
61.88
56.54
52.63
49.88
47.71
45.51
43.12
40.75
38.84
37.68
37.13
36.53
34.92
31.43
25.59
17.54
7.97
-2.16
-11.99
-21
-29.11
-36.69
-44.32
-52.68
-62.31
-73.32
-85.15
-96.32
-104.59
-107.39
-102.69
-89.8
-69.73
-44.98
-18.72
6.21
27.99
45.96
60.19
70.9
78.08
81.55
81.29
77.85
72.4
66.41
61.23
57.54
55.28
53.74
52.09
49.76
46.69
43.24
39.98
37.3
35.17
33.1
30.36
26.26
20.5
13.34
5.46
-2.25
-9.11
-14.92
-19.97
-24.94
-30.61
-37.65
-46.41
-56.77
-67.97
-78.53
-86.4
-89.32
-85.55
-74.54
-57.16
-35.54
-12.33
10.09
30.11
46.97
60.42
70.31
76.46
78.71
77.25
72.81
66.57
59.94
54.14
49.95
47.58
46.63
46.22
45.26
42.75
38.17
31.68
24.16
16.92
11.1
7.32
5.35
4.3
3.07
0.83
-2.66
-7.03
-11.68
-16.12
-20.29
-24.58
-29.58
-35.83
-43.57
-52.63
-62.47
-72.14
-80.3
-85.31
-85.49
-79.56
-67.3
-49.81
-29.37
-8.85
9.25
23.52
33.78
40.81
45.63
49.02
51.26
52.3
52.08
50.81
48.94
47.05
45.56
44.62
44.08
43.64
43.01
42.01
40.61
38.86
36.82
34.48
31.72
28.43
24.56
20.14
15.31
10.19
4.84
-0.77
-6.7
-12.93
-19.35
-25.7
-31.76
-37.4
-42.71
-48
-53.72
-60.3
-67.9
-76.07
-83.69
-88.98
-90.02
-85.3
-74.42
-58.22
-38.67
-18.2
1.03
17.62
31.06
41.49
49.28
54.73
57.97
59.12
58.4
56.28
53.44
50.58
48.21
46.6
45.64
44.99
44.27
43.23
41.83
40.22
38.58
36.99
35.32
33.26
30.49
26.82
22.33
17.37
12.37
7.72
3.57
-0.25
-4.05
-8.27
-13.11
-18.56
-24.34
-30.03
-35.24
-39.73
-43.55
-46.97
-50.45
-54.51
-59.64
-66.09
-73.7
-81.71
-88.8
-93.25
-93.43
-88.25
-77.64
-62.56
-44.82
-26.48
-9.3
5.65
18.1
28.29
36.63
43.33
48.32
51.33
52.18
51.02
48.5
45.66
43.61
43.2
44.7
47.79
51.71
55.55
58.61
60.46
60.92
59.95
57.51
53.58
48.3
41.95
35.08
28.31
22.13
16.73
11.93
7.33
2.49
-2.76
-8.28
-13.64
-18.37
-22.15
-25.05
-27.49
-30.05
-33.23
-37.19
-41.74
-46.41
-50.71
-54.37
-57.44
-60.24
-63.29
-67.14
-72.1
-78.14
-84.64
-90.4
-93.83
-93.29
-87.78
-77.21
-62.64
-45.86
-28.85
-13.19
0.28
11.35
20.18
26.98
31.88
34.93
36.3
36.33
35.51
34.39
33.4
32.82
32.74
33.09
33.71
34.39
34.96
35.36
35.59
35.68
35.61
35.26
34.42
32.9
30.64
27.77
24.58
21.39
18.39
15.59
12.8
9.77
6.36
2.65
-1.06
-4.45
-7.36
-9.9
-12.4
-15.29
-18.8
-22.9
-27.29
-31.56
-35.43
-38.79
-41.78
-44.69
-47.84
-51.61
-56.29
-61.94
-68.22
-74.24
-78.62
-79.88
-76.88
-69.29
-57.72
-43.58
-28.54
-14.12
-1.26
9.63
18.56
25.63
30.91
34.43
36.21
36.45
35.52
33.91
32.13
30.57
29.42
28.73
28.43
28.45
28.76
29.32
30.07
30.84
31.39
31.49
30.94
29.76
28.07
26.13
24.11
22.1
19.97
17.48
14.41
10.74
6.69
2.7
-0.76
-3.46
-5.47
-7.2
-9.21
-11.94
-15.55
-19.86
-24.47
-28.94
-32.99
-36.54
-39.78
-43.04
-46.75
-51.29
-56.77
-62.95
-69
-73.66
-75.45
-73.14
-66.15
-54.84
-40.47
-24.8
-9.61
3.8
14.78
23.27
29.5
33.73
36.11
36.72
35.72
33.52
30.75
28.09
26.1
25.04
24.84
25.18
25.69
26.17
26.52
26.8
27.08
27.28
27.24
26.72
25.54
23.61
20.97
17.77
14.18
10.45
6.77
3.32
0.16
-2.86
-6.04
-9.65
-13.8
-18.33
-22.83
-26.91
-30.36
-33.28
-36
-38.94
-42.47
-46.87
-52.27
-58.59
-65.38
-71.69
-76.12
-77.12
-73.52
-64.98
-52.2
-36.75
-20.54
-5.25
8.07
19.02
27.69
34.28
38.93
41.63
42.4
41.45
39.2
36.31
33.43
31.04
29.33
28.22
27.54
27.11
26.88
26.9
27.21
27.75
28.3
28.54
28.09
26.69
24.26
20.87
16.83
12.51
8.31
4.52
1.2
-1.83
-4.97
-8.66
-13.19
-18.5
-24.22
-29.84
-34.91
-39.27
-43.06
-46.66
-50.56
-55.14
-60.65
-67.03
-73.84
-80.15
-84.56
-85.51
-81.73
-72.72
-59.06
-42.27
-24.36
-7.17
8.05
20.78
30.97
38.75
44.23
47.42
48.44
47.61
45.5
42.8
40.13
37.9
36.25
35.1
34.32
33.75
33.31
33.03
32.96
33.2
33.66
34.11
34.08
33.07
30.7
26.92
22.06
16.69
11.43
6.7
2.6
-1.12
-4.88
-9.13
-14.12
-19.81
-25.87
-31.85
-37.31
-42.09
-46.33
-50.48
-55.14
-60.88
-68
-76.28
-84.79
-91.96
-95.82
-94.54
-87.02
-73.4
-55.02
-34.09
-12.93
6.62
23.49
37.28
47.97
55.62
60.31
62.19
61.66
59.37
56.12
52.63
49.44
46.78
44.68
43
41.57
40.27
39.09
38.11
37.45
37.13
36.96
36.51
35.31
32.99
29.58
25.48
21.35
17.76
14.91
12.52
9.93
6.37
1.35
-5.21
-12.85
-20.89
-28.58
-35.45
-41.4
-46.74
-52.07
-58.05
-65.25
-73.76
-83.01
-91.63
-97.57
-98.63
-93.11
-80.48
-61.71
-39.04
-15.3
6.9
25.8
40.72
51.71
59.23
63.76
65.65
65.26
63
59.45
55.23
50.93
47
43.75
41.33
39.76
38.98
38.78
38.92
39.1
39.04
38.47
37.22
35.16
32.29
28.76
24.8
20.67
16.5
12.24
7.67
2.54
-3.27
-9.61
-16.09
-22.25
-27.7
-32.43
-36.8
-41.53
-47.41
-54.92
-63.84
-72.97
-80.32
-83.55
-80.75
-71.18
-55.57
-35.91
-14.82
5.31
22.8
36.89
47.44
54.55
58.37
59.06
56.93
52.69
47.32
41.93
37.41
34.24
32.39
31.51
31.1
30.75
30.26
29.65
29.03
28.51
28.04
27.38
26.14
23.87
20.26
15.28
9.2
2.56
-4.06
-10.16
-15.56
-20.43
-25.19
-30.39
-36.58
-44.09
-52.88
-62.3
-71.06
-77.27
-78.9
-74.4
-63.31
-46.57
-26.26
-5.01
14.84
31.76
45.15
55.11
61.95
65.88
67.01
65.46
61.6
56.17
50.1
44.35
39.55
35.95
33.41
31.52
29.88
28.23
26.54
24.93
23.57
22.52
21.68
20.76
19.38
17.14
13.66
8.65
2.03
-6.03
-15.05
-24.29
-32.99
-40.6
-47.09
-52.94
-58.98
-66.02
-74.32
-83.23
-91.09
-95.73
-94.98
-87.57
-73.56
-54.36
-32.37
-10.18
10.08
27.18
40.74
50.96
58.19
62.69
64.6
64.09
61.55
57.62
53.14
48.89
45.42
42.94
41.4
40.46
39.64
38.42
36.25
32.72
27.78
21.7
15.1
8.7
3.01
-1.82
-5.98
-9.81
-13.48
-16.86
-19.51
-21.01
-21.22
-20.43
-19.3
-18.65
-19.27
-21.77
-26.46
-33.37
-42
-51.25
-59.38
-64.26
-63.96
-57.41
-44.85
-27.91
-9.05
9.17
24.83
37.02
45.69
51.3
54.43
55.49
54.77
52.59
49.38
45.73
42.19
39.18
36.91
35.37
34.46
33.98
33.67
33.12
31.93
29.75
26.48
22.36
17.84
13.48
9.73
6.74
4.39
2.39
0.34
-2.1
-5.15
-8.88
-13.24
-18.11
-23.29
-28.65
-34.11
-39.75
-45.7
-52.05
-58.65
-64.88
-69.66
-71.66
-69.82
-63.74
-53.93
-41.68
-28.49
-15.53
-3.29
8.27
19.36
29.89
39.33
46.85
51.7
53.57
52.68
49.7
45.48
40.84
36.49
32.98
30.65
29.65
29.85
30.71
31.33
30.58
27.46
21.53
13.15
3.47
-5.92
-13.54
-18.53
-20.83
-21.08
-20.19
-19.01
-18.13
-17.87
-18.45
-20.06
-22.94
-27.28
-33.09
-40.07
-47.52
-54.29
-58.88
-59.83
-56.14
-47.66
-35.23
-20.47
-5.27
8.77
20.65
30.06
37.07
41.86
44.46
44.82
42.97
39.27
34.39
29.26
24.77
21.49
19.5
18.47
17.81
16.99
15.75
14.12
12.45
11.04
10.04
9.27
8.28
6.5
3.51
-0.78
-6.04
-11.6
-16.73
-20.86
-23.83
-25.92
-27.83
-30.43
-34.51
-40.47
-48.09
-56.38
-63.72
-68.19
-68.16
-62.85
-52.67
-39.16
-24.48
-10.72
0.79
9.78
16.99
23.67
30.86
38.91
47.16
54.19
58.43
58.82
55.35
48.97
41.21
33.52
26.74
20.93
15.63
10.29
4.64
-1.03
-5.85
-8.48
-7.57
-2.24
7.38
19.97
33.24
44.56
51.78
53.78
50.56
42.8
31.38
16.94
-0.11
-19.28
-39.68
-59.79
-77.61
-91.08
-98.61
-99.48
-94.03
-83.5
-69.61
-54.09
-38.28
-23.06
-9.01
3.37
13.49
20.75
24.78
25.67
24.09
21.06
17.68
14.86
13.07
12.37
12.54
13.26
14.26
15.4
16.63
17.92
19.13
20.04
20.37
19.84
18.32
15.82
12.56
8.88
5.1
1.51
-1.71
-4.5
-6.88
-8.92
-10.77
-12.67
-14.98
-18.16
-22.61
-28.51
-35.49
-42.59
-48.32
-51.08
-49.66
-43.65
-33.6
-20.88
-7.23
5.73
16.9
25.78
32.39
37.01
39.97
41.5
41.73
40.78
38.84
36.15
33.02
29.74
26.58
23.76
21.47
19.87
19.03
18.81
18.85
18.69
17.92
16.32
13.97
11.16
8.2
5.28
2.38
-0.7
-4.15
-8.09
-12.45
-17.03
-21.59
-25.93
-29.95
-33.66
-37.21
-40.91
-45.16
-50.3
-56.37
-62.76
-68.15
-70.7
-68.59
-60.76
-47.33
-29.76
-10.31
8.67
25.45
39.22
49.87
57.68
62.87
65.51
65.7
63.78
60.45
56.64
53.22
50.68
48.92
47.36
45.19
41.79
37.02
31.38
25.79
21.16
18.02
16.19
14.96
13.44
10.99
7.54
3.53
-0.45
-3.98
-7.07
-10.11
-13.7
-18.29
-23.98
-30.44
-37.03
-43.01
-47.82
-51.31
-53.8
-56.04
-58.93
-63.21
-69.18
-76.42
-83.75
-89.32
-90.96
-86.73
-75.57
-57.79
-35.12
-10.35
13.47
33.9
49.61
60.46
67.12
70.53
71.5
70.61
68.31
65.07
61.44
57.9
54.67
51.69
48.63
45.19
41.23
36.9
32.54
28.51
25.02
22.01
19.27
16.48
13.38
9.82
5.87
1.75
-2.17
-5.53
-8.1
-9.89
-11.26
-12.74
-14.86
-17.87
-21.64
-25.76
-29.76
-33.34
-36.53
-39.68
-43.26
-47.76
-53.47
-60.3
-67.65
-74.37
-78.91
-79.7
-75.66
-66.61
-53.42
-37.81
-21.72
-6.83
5.91
16.21
24.2
30.12
34.12
36.25
36.65
35.59
33.56
31.1
28.67
26.59
24.97
23.9
23.36
23.37
23.85
24.62
25.35
25.65
25.2
23.83
21.62
18.82
15.82
12.89
10.15
7.51
4.73
1.59
-2.03
-6.09
-10.43
-14.83
-19.11
-23.15
-26.93
-30.53
-34.21
-38.35
-43.3
-49.13
-55.3
-60.65
-63.55
-62.49
-56.64
-46.21
-32.42
-17.11
-2.13
11.18
22.14
30.62
36.77
40.82
42.94
43.33
42.23
39.98
36.99
33.64
30.3
27.27
24.83
23.18
22.38
22.35
22.85
23.49
23.86
23.62
22.59
20.72
18.18
15.25
12.22
9.29
6.46
3.54
0.18
-3.89
-8.74
-14.16
-19.76
-25.08
-29.83
-33.98
-37.75
-41.61
-46.05
-51.42
-57.67
-64.15
-69.62
-72.54
-71.48
-65.63
-55.17
-41.22
-25.45
-9.62
4.89
17.27
27.23
34.76
39.95
42.91
43.81
42.91
40.61
37.42
33.87
30.42
27.39
24.96
23.18
22.01
21.34
21.01
20.84
20.61
20.11
19.23
17.94
16.34
14.59
12.78
10.88
8.67
5.86
2.2
-2.34
-7.51
-12.89
-18.04
-22.68
-26.82
-30.69
-34.67
-39.17
-44.54
-50.9
-58.06
-65.25
-71.24
-74.46
-73.44
-67.39
-56.48
-41.85
-25.26
-8.58
6.71
19.7
30.04
37.75
43.01
46.05
47.15
46.63
44.83
42.15
38.96
35.57
32.24
29.19
26.6
24.6
23.29
22.67
22.61
22.88
23.11
22.99
22.28
20.94
19.04
16.73
14.11
11.19
7.89
4.09
-0.26
-5.13
-10.31
-15.55
-20.55
-25.11
-29.2
-32.96
-36.78
-41.19
-46.64
-53.26
-60.62
-67.58
-72.51
-73.7
-69.89
-60.84
-47.38
-31.24
-14.46
1.19
14.7
25.73
34.45
41.09
45.74
48.32
48.76
47.17
43.95
39.74
35.17
30.76
26.83
23.51
20.85
18.93
17.76
17.33
17.51
18.08
18.75
19.23
19.26
18.64
17.26
15.07
12.11
8.48
4.37
-0.01
-4.46
-8.85
-13.13
-17.38
-21.8
-26.68
-32.34
-38.95
-46.41
-54.1
-60.82
-65.05
-65.27
-60.54
-50.87
-37.27
-21.47
-5.37
9.5
22.25
32.52
40.29
45.56
48.29
48.48
46.43
42.72
38.15
33.59
29.62
26.48
24.07
22.08
20.24
18.45
16.79
15.42
14.44
13.75
13.04
11.93
10.08
7.37
3.92
-0
-4.08
-8.09
-11.94
-15.64
-19.3
-23.07
-27.21
-32.11
-38.13
-45.48
-53.85
-62.32
-69.32
-73.02
-71.89
-65.2
-53.37
-37.81
-20.49
-3.37
12.17
25.45
36.31
44.82
51.01
54.75
55.93
54.64
51.33
46.79
41.93
37.49
33.92
31.2
29.03
26.99
24.78
22.32
19.81
17.51
15.62
14.13
12.77
11.12
8.77
5.49
1.35
-3.37
-8.27
-13.07
-17.64
-22.04
-26.44
-31.07
-36.14
-41.89
-48.51
-55.94
-63.78
-71.01
-76.07
-77.25
-73.17
-63.41
-48.76
-31.01
-12.41
5.05
20.12
32.33
41.79
48.71
53.17
55.1
54.5
51.7
47.39
42.57
38.11
34.61
32.15
30.43
28.96
27.4
25.64
23.83
22.21
20.97
20.1
19.37
18.4
16.79
14.21
10.54
5.87
0.52
-5.11
-10.61
-15.73
-20.47
-25.05
-29.84
-35.29
-41.71
-49.2
-57.36
-65.26
-71.37
-73.91
-71.37
-63.07
-49.53
-32.43
-14.04
3.48
18.65
30.92
40.36
47.28
51.87
54.13
53.98
51.63
47.62
42.81
38.02
33.81
30.38
27.7
25.68
24.4
24.08
24.95
26.91
29.49
31.77
32.72
31.49
27.71
21.66
14.06
5.88
-2.06
-9.34
-15.94
-22.17
-28.41
-34.98
-42.02
-49.57
-57.54
-65.59
-72.93
-78.28
-80.07
-76.9
-68.14
-54.35
-37.11
-18.55
-0.65
15.27
28.63
39.37
47.53
53.06
55.82
55.86
53.56
49.69
45.13
40.62
36.52
32.89
29.58
26.53
23.82
21.65
20.24
19.55
19.29
18.89
17.7
15.2
11.23
6.02
0.16
-5.61
-10.7
-14.88
-18.34
-21.65
-25.55
-30.72
-37.48
-45.59
-54.17
-61.75
-66.53
-66.84
-61.66
-51.01
-35.96
-18.42
-0.54
15.83
29.52
40.04
47.4
51.83
53.63
53.09
50.66
46.89
42.48
38.08
34.17
30.9
28.18
25.82
23.65
21.61
19.79
18.28
17.04
15.81
14.15
11.65
8.12
3.73
-1.08
-5.77
-9.97
-13.71
-17.33
-21.43
-26.61
-33.21
-41.12
-49.62
-57.44
-62.94
-64.49
-60.98
-52.28
-39.23
-23.46
-6.87
8.91
22.76
34.09
42.63
48.23
50.85
50.6
47.93
43.61
38.64
33.94
30.16
27.44
25.57
24.06
22.48
20.66
18.7
16.92
15.64
14.93
14.53
13.92
12.53
9.96
6.18
1.56
-3.38
-8.08
-12.25
-15.93
-19.45
-23.32
-28.03
-33.88
-40.86
-48.45
-55.63
-60.92
-62.78
-59.96
-52.06
-39.69
-24.39
-8.18
7.06
20.12
30.53
38.39
44.02
47.62
49.22
48.84
46.73
43.4
39.55
35.87
32.78
30.41
28.64
27.25
26.08
25.04
24.05
23.04
21.9
20.58
19.01
17.16
14.97
12.36
9.25
5.65
1.62
-2.72
-7.18
-11.63
-15.98
-20.22
-24.4
-28.64
-33.14
-38.15
-43.83
-50.07
-56.33
-61.55
-64.33
-63.32
-57.67
-47.47
-33.77
-18.28
-2.9
10.84
22.1
30.66
36.68
40.43
42.08
41.77
39.74
36.47
32.61
28.88
25.81
23.65
22.32
21.55
21.01
20.49
19.91
19.3
18.72
18.19
17.6
16.74
15.34
13.16
10.08
6.14
1.59
-3.22
-7.89
-12.12
-15.81
-19.04
-22.05
-25.17
-28.71
-32.95
-38.03
-43.85
-49.93
-55.32
-58.68
-58.67
-54.37
-45.73
-33.71
-19.92
-6.18
6.11
16.27
24.24
30.29
34.6
37.19
37.88
36.66
33.83
30.03
26.11
22.82
20.54
19.23
18.53
17.96
17.15
15.96
14.53
13.11
11.97
11.17
10.59
9.91
8.76
6.83
4.02
0.45
-3.57
-7.67
-11.53
-14.99
-18.14
-21.24
-24.69
-28.9
-34.13
-40.36
-47.1
-53.4
-57.9
-59.21
-56.29
-48.89
-37.67
-24.09
-9.95
3.13
14.11
22.61
28.76
32.86
35.18
35.85
34.94
32.66
29.37
25.62
22.01
18.98
16.76
15.33
14.47
13.88
13.35
12.7
11.93
11.05
10.1
9.08
7.94
6.55
4.77
2.46
-0.47
-3.97
-7.83
-11.8
-15.59
-19.06
-22.27
-25.46
-28.98
-33.2
-38.33
-44.35
-50.82
-56.86
-61.22
-62.53
-59.75
-52.54
-41.52
-28.08
-14.03
-1.02
9.84
18.19
24.22
28.4
31.13
32.65
33.02
32.28
30.59
28.3
25.88
23.72
22.03
20.77
19.73
18.7
17.59
16.49
15.56
14.92
14.53
14.18
13.6
12.55
10.93
8.77
6.17
3.16
-0.26
-4.08
-8.21
-12.46
-16.54
-20.24
-23.58
-26.78
-30.33
-34.71
-40.16
-46.5
-52.99
-58.46
-61.56
-61.17
-56.65
-48.1
-36.34
-22.69
-8.67
4.38
15.56
24.39
30.8
34.95
37.11
37.59
36.68
34.7
32.02
29.03
26.13
23.67
21.86
20.68
19.93
19.31
18.53
17.5
16.26
14.99
13.84
12.8
11.7
10.29
8.32
5.69
2.48
-1.12
-4.88
-8.6
-12.15
-15.54
-18.85
-22.29
-26.14
-30.68
-36.11
-42.31
-48.76
-54.48
-58.2
-58.73
-55.35
-48.04
-37.57
-25.23
-12.49
-0.58
9.73
18.08
24.43
28.87
31.45
32.27
31.53
29.54
26.79
23.79
20.96
18.54
16.56
14.92
13.47
12.1
10.8
9.6
8.55
7.6
6.68
5.6
4.19
2.34
0.02
-2.72
-5.77
-8.98
-12.23
-15.45
-18.65
-21.94
-25.59
-29.94
-35.19
-41.19
-47.21
-51.98
-54.05
-52.27
-46.24
-36.56
-24.61
-12.05
-0.3
9.82
18.08
24.61
29.49
32.69
34.06
33.54
31.4
28.22
24.77
21.7
19.35
17.67
16.4
15.25
14.11
13.06
12.3
11.89
11.71
11.38
10.45
8.62
5.88
2.5
-1.08
-4.49
-7.55
-10.38
-13.34
-16.88
-21.39
-26.99
-33.4
-39.85
-45.14
-47.97
-47.26
-42.56
-34.18
-23.14
-10.85
1.35
12.41
21.74
29.04
34.2
37.21
38.16
37.3
35.05
31.94
28.51
25.15
22.04
19.21
16.59
14.17
12.04
10.35
9.19
8.51
8.05
7.42
6.27
4.38
1.76
-1.4
-4.8
-8.18
-11.42
-14.63
-18.07
-22.1
-27
-32.71
-38.67
-43.81
-46.75
-46.18
-41.39
-32.53
-20.65
-7.34
5.68
17.11
26.19
32.74
36.95
39.11
39.55
38.53
36.27
33.03
29.16
25.03
21.03
17.46
14.53
12.24
10.52
9.17
8.03
6.92
5.71
4.26
2.45
0.23
-2.36
-5.15
-7.97
-10.69
-13.38
-16.31
-19.94
-24.63
-30.4
-36.72
-42.49
-46.28
-46.71
-42.96
-35.09
-24.06
-11.43
1.1
12.19
21.06
27.49
31.63
33.73
34.03
32.72
30.03
26.35
22.16
18.02
14.42
11.65
9.74
8.51
7.61
6.65
5.37
3.69
1.71
-0.39
-2.45
-4.45
-6.56
-9.02
-12.12
-16.08
-20.98
-26.77
-33.11
-39.33
-44.41
-47.14
-46.42
-41.64
-33.01
-21.5
-8.64
3.94
14.91
23.51
29.51
33.02
34.35
33.82
31.75
28.56
24.67
20.56
16.67
13.32
10.65
8.61
7.02
5.66
4.29
2.74
0.91
-1.22
-3.61
-6.22
-9.02
-11.99
-15.21
-18.85
-23.13
-28.23
-34.14
-40.47
-46.34
-50.51
-51.63
-48.65
-41.24
-30
-16.3
-1.96
11.29
22.27
30.45
35.9
38.98
40.12
39.62
37.72
34.68
30.88
26.82
22.99
19.8
17.38
15.66
14.36
13.18
11.85
10.24
8.33
6.16
3.79
1.24
-1.52
-4.51
-7.75
-11.22
-15
-19.27
-24.37
-30.56
-37.8
-45.45
-52.17
-56.26
-56.17
-51.04
-41.15
-27.78
-12.8
1.91
15.01
25.81
34.21
40.35
44.38
46.41
46.54
45.07
42.5
39.49
36.64
34.3
32.47
30.9
29.3
27.47
25.46
23.49
21.8
20.49
19.46
18.38
16.9
14.75
11.79
8.06
3.74
-0.9
-5.61
-10.16
-14.45
-18.53
-22.6
-26.99
-32.09
-38.15
-45.11
-52.39
-58.91
-63.21
-63.86
-59.95
-51.42
-39.13
-24.68
-9.83
3.94
15.74
25.29
32.69
38.19
41.96
44.09
44.72
44.1
42.69
40.97
39.38
38.12
37.17
36.37
35.56
34.71
33.91
33.32
33.01
32.85
32.51
31.63
29.95
27.43
24.23
20.71
17.21
13.97
11.03
8.26
5.37
2.09
-1.76
-6.16
-10.88
-15.54
-19.76
-23.36
-26.43
-29.34
-32.6
-36.7
-41.87
-47.95
-54.29
-59.76
-62.94
-62.52
-57.62
-48.26
-35.38
-20.63
-5.86
7.43
18.43
27
33.41
37.97
40.83
42.04
41.69
40.14
37.94
35.76
34.1
33.13
32.67
32.37
31.96
31.32
30.55
29.81
29.21
28.65
27.88
26.63
24.75
22.32
19.56
16.78
14.16
11.68
9.12
6.23
2.82
-1.04
-5.09
-8.95
-12.31
-15.09
-17.44
-19.74
-22.4
-25.81
-30.1
-35.12
-40.38
-45.01
-47.94
-48.15
-44.99
-38.45
-29.16
-18.3
-7.2
3.02
11.68
18.55
23.7
27.28
29.41
30.14
29.57
27.95
25.69
23.32
21.3
19.88
19.04
18.57
18.19
17.74
17.22
16.75
16.41
16.14
15.76
15
13.69
11.86
9.67
7.34
5.01
2.68
0.23
-2.42
-5.26
-8.16
-11
-13.71
-16.35
-19.09
-22.09
-25.41
-29.09
-33.05
-37.13
-40.96
-43.93
-45.28
-44.28
-40.53
-34.17
-25.87
-16.65
-7.54
0.76
7.85
13.67
18.18
21.34
23.09
23.42
22.56
20.9
18.96
17.18
15.82
14.93
14.4
14.14
14.08
14.25
14.65
15.16
15.54
15.48
14.74
13.22
11.08
8.56
5.98
3.56
1.38
-0.57
-2.46
-4.46
-6.78
-9.5
-12.61
-15.97
-19.4
-22.76
-26.09
-29.55
-33.39
-37.83
-42.86
-48.22
-53.3
-57.29
-59.29
-58.52
-54.58
-47.55
-38
-26.87
-15.25
-4.1
5.87
14.25
20.87
25.71
28.86
30.48
30.82
30.18
28.92
27.36
25.72
24.14
22.71
21.45
20.41
19.64
19.18
19.01
19.03
19.04
18.74
17.87
16.31
14.1
11.5
8.81
6.31
4.11
2.16
0.27
-1.77
-4.14
-6.87
-9.86
-12.99
-16.1
-19.11
-22.01
-24.9
-27.94
-31.35
-35.31
-39.88
-44.85
-49.63
-53.33
-54.93
-53.61
-49.05
-41.59
-32.11
-21.77
-11.64
-2.43
5.54
12.22
17.62
21.74
24.51
25.9
26.01
25.11
23.57
21.73
19.9
18.27
16.96
15.99
15.38
15.11
15.09
15.19
15.26
15.13
14.65
13.79
12.56
11.11
9.53
7.9
6.18
4.24
1.99
-0.61
-3.42
-6.23
-8.83
-11.11
-13.15
-15.19
-17.51
-20.41
-24.03
-28.36
-33.13
-37.83
-41.66
-43.65
-42.97
-39.13
-32.27
-23.2
-13.2
-3.55
4.81
11.46
16.48
20.13
22.6
23.82
23.66
22.02
19.07
15.21
11.02
7.03
3.63
1.02
-0.73
-1.59
-1.61
-0.9
0.35
1.85
3.27
4.27
4.52
3.75
1.84
-1.15
-4.9
-8.88
-12.52
-15.44
-17.58
-19.29
-21.13
-23.66
-27.14
-31.48
-36.18
-40.5
-43.65
-44.89
-43.66
-39.64
-32.93
-24.01
-13.71
-3.05
7.05
15.88
23.06
28.44
31.99
33.72
33.72
32.24
29.74
26.8
24
21.7
19.99
18.74
17.7
16.66
15.57
14.48
13.44
12.45
11.34
9.86
7.72
4.71
0.82
-3.73
-8.55
-13.23
-17.5
-21.29
-24.83
-28.5
-32.74
-37.87
-43.99
-50.78
-57.59
-63.36
-66.84
-66.9
-62.86
-54.76
-43.43
-30.25
-16.74
-4.12
6.9
16.12
23.57
29.26
33.11
35.03
35.08
33.63
31.26
28.6
26.06
23.82
21.84
20.01
18.29
16.72
15.39
14.32
13.44
12.57
11.47
9.88
7.59
4.45
0.47
-4.17
-9.17
-14.17
-18.89
-23.25
-27.39
-31.62
-36.34
-41.92
-48.56
-56.13
-64.05
-71.16
-75.99
-76.99
-73.14
-64.25
-51.17
-35.45
-18.93
-3.11
11.08
23.34
33.67
42.03
48.22
51.96
53.11
51.89
48.9
45.03
41.14
37.9
35.58
34.12
33.22
32.48
31.46
29.87
27.6
24.84
22.02
19.63
18.01
17.12
16.49
15.39
13.14
9.42
4.35
-1.53
-7.59
-13.35
-18.7
-23.86
-29.31
-35.56
-42.98
-51.53
-60.57
-68.71
-74.02
-74.43
-68.39
-55.54
-36.95
-15
7.4
27.52
43.57
54.9
61.8
65.02
65.38
63.51
59.91
55.09
49.65
44.23
39.42
35.61
32.88
31.1
29.92
29.01
28.18
27.33
26.54
25.82
25.17
24.4
23.25
21.39
18.62
14.93
10.48
5.58
0.51
-4.58
-9.73
-15.1
-20.93
-27.37
-34.42
-41.94
-49.69
-57.32
-64.29
-69.82
-72.86
-72.25
-67
-56.77
-42.05
-24.22
-5.15
13.24
29.45
42.67
52.61
59.31
62.92
63.52
61.3
56.69
50.39
43.42
36.83
31.45
27.66
25.4
24.23
23.67
23.3
22.89
22.36
21.65
20.66
19.25
17.25
14.56
11.25
7.48
3.51
-0.43
-4.23
-7.88
-11.5
-15.37
-19.79
-25.1
-31.59
-39.35
-48.08
-56.98
-64.76
-69.77
-70.53
-66.17
-56.77
-43.4
-27.7
-11.39
4.26
18.62
31.5
42.72
51.85
58.2
61.06
60.19
56.04
49.79
42.97
36.97
32.66
30.18
29.02
28.3
27.06
24.54
20.37
14.57
7.61
0.24
-6.71
-12.56
-16.91
-19.76
-21.41
-22.32
-22.95
-23.66
-24.69
-26.21
-28.49
-31.83
-36.57
-42.87
-50.4
-58.17
-64.54
-67.52
-65.41
-57.38
-43.87
-26.5
-7.49
11.02
27.54
41.38
52.45
60.74
66.13
68.38
67.39
63.51
57.63
50.92
44.46
38.89
34.31
30.42
26.9
23.6
20.72
18.59
17.47
17.3
17.61
17.63
16.52
13.73
9.15
3.18
-3.43
-9.84
-15.44
-20.06
-23.96
-27.77
-32.3
-38.22
-45.81
-54.78
-64.04
-71.9
-76.25
-75.2
-67.69
-54.01
-35.94
-16.28
2.04
16.9
27.52
34.44
38.86
41.95
44.31
45.95
46.64
46.27
45.07
43.47
41.87
40.34
38.64
36.41
33.5
30.11
26.75
24.04
22.36
21.62
21.21
20.19
17.64
13.07
6.65
-0.86
-8.37
-14.97
-20.2
-24.25
-27.82
-31.86
-37.32
-44.77
-54.19
-64.78
-74.94
-82.53
-85.29
-81.47
-70.4
-52.84
-30.76
-6.86
16.22
36.43
52.65
64.52
72.1
75.6
75.22
71.38
64.84
56.82
48.8
42.07
37.38
34.66
33.22
32.11
30.69
28.82
26.87
25.36
24.54
24.16
23.5
21.71
18.14
12.71
5.89
-1.46
-8.48
-14.57
-19.52
-23.57
-27.23
-31.3
-36.73
-44.43
-54.83
-67.43
-80.56
-91.48
-97.12
-95.05
-84.35
-65.98
-42.51
-17.19
6.93
27.69
44.05
55.89
63.61
67.83
69.22
68.39
65.96
62.5
58.59
54.64
51
47.82
45.11
42.78
40.74
38.91
37.26
35.76
34.32
32.75
30.81
28.28
25.07
21.2
16.84
12.19
7.31
2.18
-3.31
-9.26
-15.6
-22.07
-28.32
-34.07
-39.32
-44.36
-49.77
-56.13
-63.73
-72.27
-80.69
-87.32
-90.22
-87.81
-79.36
-65.28
-47.11
-26.99
-7.11
10.87
26.03
38.12
47.28
53.7
57.54
58.98
58.31
56.06
52.9
49.53
46.44
43.81
41.55
39.5
37.54
35.75
34.33
33.44
33.04
32.79
32.18
30.65
27.92
24.07
19.47
14.69
10.17
6.11
2.32
-1.63
-6.18
-11.61
-17.82
-24.42
-30.85
-36.58
-41.33
-45.16
-48.47
-51.94
-56.25
-61.9
-68.85
-76.26
-82.55
-85.66
-83.73
-75.76
-62.05
-44.13
-24.29
-4.81
12.66
27.3
38.97
47.82
53.95
57.38
58.15
56.52
53.11
48.79
44.46
40.79
38.03
36.05
34.53
33.19
31.94
30.9
30.23
30
30.04
29.9
29.07
27.13
23.99
19.92
15.43
11.09
7.22
3.85
0.7
-2.66
-6.52
-10.97
-15.85
-20.9
-25.93
-30.9
-35.86
-40.92
-46.18
-51.73
-57.68
-64.12
-70.91
-77.45
-82.56
-84.65
-82.2
-74.34
-61.26
-44.31
-25.52
-7.01
9.62
23.58
34.74
43.23
49.19
52.58
53.37
51.7
48.11
43.41
38.5
34.09
30.55
27.88
25.88
24.27
22.85
21.53
20.3
19.2
18.29
17.6
17.11
16.7
16.14
15.16
13.42
10.67
6.85
2.11
-3.22
-8.71
-14.06
-19.13
-24.05
-29.03
-34.31
-39.93
-45.82
-51.73
-57.37
-62.38
-66.23
-68.24
-67.64
-63.88
-56.84
-46.96
-35.01
-21.58
-6.87
9.24
26.77
44.97
62.08
75.63
83.22
83.5
76.75
64.77
50.18
35.54
22.64
12.3
4.56
-0.87
-4.32
-6.03
-6.25
-5.36
-3.93
-2.65
-2.09
-2.56
-4.04
-6.19
-8.63
-11.06
-13.41
-15.77
-18.35
-21.35
-24.8
-28.65
-32.76
-37.1
-41.8
-47.05
-52.85
-58.81
-63.99
-67.04
-66.62
-61.86
-52.76
-40.22
-25.74
-10.96
2.78
14.69
24.44
32.01
37.47
40.83
42.09
41.35
38.87
35.17
30.9
26.72
23.14
20.35
18.24
16.53
14.94
13.35
11.82
10.53
9.54
8.68
7.57
5.74
2.89
-0.93
-5.37
-9.91
-14.09
-17.73
-20.95
-24.09
-27.63
-32.01
-37.47
-44
-51.17
-58.05
-63.32
-65.5
-63.37
-56.43
-45.14
-30.82
-15.27
-0.23
12.99
23.74
31.89
37.58
41
42.33
41.73
39.53
36.21
32.39
28.63
25.3
22.48
20.06
17.9
15.94
14.28
13.09
12.48
12.29
12.14
11.45
9.73
6.72
2.55
-2.35
-7.47
-12.32
-16.66
-20.44
-23.91
-27.45
-31.59
-36.81
-43.31
-50.79
-58.28
-64.24
-66.97
-65.1
-58.17
-46.71
-32.18
-16.43
-1.17
12.42
23.74
32.68
39.29
43.69
45.97
46.31
45.04
42.66
39.71
36.69
33.86
31.27
28.77
26.21
23.48
20.61
17.75
15.15
13.02
11.44
10.23
8.99
7.22
4.5
0.71
-3.92
-8.92
-13.81
-18.28
-22.33
-26.24
-30.44
-35.39
-41.41
-48.57
-56.53
-64.39
-70.76
-73.97
-72.56
-65.79
-54
-38.51
-21.24
-4.1
11.47
24.74
35.56
44.05
50.31
54.36
56.15
55.75
53.47
49.85
45.58
41.32
37.52
34.38
31.85
29.71
27.73
25.73
23.71
21.73
19.9
18.24
16.64
14.87
12.61
9.56
5.51
0.42
-5.57
-12.14
-18.89
-25.38
-31.33
-36.66
-41.5
-46.24
-51.35
-57.2
-63.7
-70.14
-75.16
-77.04
-74.24
-65.98
-52.61
-35.56
-16.91
1.24
17.36
30.67
41.07
48.79
54.12
57.29
58.41
57.7
55.46
52.13
48.2
44.13
40.26
36.8
33.84
31.41
29.44
27.78
26.29
24.81
23.23
21.51
19.61
17.54
15.24
12.66
9.66
6.11
1.96
-2.75
-7.85
-13.09
-18.26
-23.25
-28.1
-33.01
-38.28
-44.28
-51.32
-59.52
-68.63
-77.79
-85.53
-89.95
-89.27
-82.42
-69.52
-51.92
-31.79
-11.48
7.17
23.03
35.73
45.32
52.05
56.19
58.02
57.94
56.39
53.84
50.69
47.22
43.68
40.26
37.21
34.71
32.9
31.73
31
30.38
29.47
27.97
25.77
22.99
19.95
16.97
14.19
11.53
8.66
5.16
0.78
-4.48
-10.28
-16.2
-21.83
-27.02
-31.87
-36.66
-41.83
-47.78
-54.81
-62.82
-71.13
-78.4
-82.75
-82.31
-75.8
-63.15
-45.55
-25.22
-4.64
14.12
29.79
41.98
50.88
56.86
60.24
61.24
60.09
57.16
53
48.23
43.45
39.04
35.17
31.85
29.02
26.64
24.7
23.2
22.04
21.05
19.99
18.65
16.89
14.65
11.93
8.73
5.03
0.81
-3.88
-8.91
-14.08
-19.18
-24.09
-28.81
-33.51
-38.47
-43.99
-50.3
-57.42
-65.03
-72.3
-78
-80.58
-78.62
-71.26
-58.59
-41.77
-22.72
-3.62
13.71
28.17
39.45
47.72
53.25
56.21
56.63
54.62
50.55
45.18
39.44
34.25
30.19
27.38
25.55
24.24
23.03
21.68
20.18
18.64
17.22
15.99
14.94
13.92
12.65
10.64
7.36
2.3
-4.72
-13.42
-23.02
-32.42
-40.69
-47.3
-52.4
-56.65
-60.89
-65.63
-70.73
-75.25
-77.7
-76.48
-70.4
-59.2
-43.68
-25.51
-6.7
10.89
26.08
38.4
47.87
54.69
59
60.79
60.08
57.12
52.42
46.73
40.84
35.4
30.87
27.55
25.6
24.92
24.88
24.23
21.37
14.88
4.27
-9.58
-24.54
-37.93
-47.38
-51.58
-50.47
-44.98
-36.51
-26.58
-16.71
-8.45
-3.36
-2.79
-7.37
-16.59
-28.64
-40.73
-49.74
-53.1
-49.48
-39.21
-24.01
-6.36
11.28
27.17
40.48
51.14
59.36
65.34
69.03
70.29
69.15
65.92
61.28
56.05
50.93
46.39
42.56
39.38
36.81
34.91
33.76
33.35
33.41
33.37
32.58
30.52
27.11
22.77
18.2
14.15
11.15
9.42
8.95
9.63
11.35
13.95
17.16
20.52
23.43
25.32
25.87
25.05
23.12
20.47
17.46
14.38
11.42
8.71
6.38
4.54
3.24
2.41
1.93
1.54
1.01
0.18
-1.02
-2.51
-4.14
-5.72
-7.18
-8.54
-9.96
-11.65
-13.79
-16.45
-19.55
-22.89
-26.23
-29.41
-32.43
-35.44
-38.68
-42.41
-46.67
-51.37
-56.25
-60.99
-65.41
-69.52
-73.55
-77.93
-83.15
-89.59
-97.22
-105.38
-112.69
-117.17
-116.76
-109.96
-96.41
-77.1
-54.08
-29.9
-6.84
13.48
30.28
43.38
52.88
58.99
61.96
62.17
60.21
56.83
52.82
48.77
44.99
41.52
38.21
34.95
31.75
28.82
26.46
24.92
24.2
24.01
23.77
22.8
20.55
16.79
11.69
5.77
-0.33
-6.04
-11.1
-15.57
-19.84
-24.45
-29.98
-36.89
-45.22
-54.45
-63.32
-70.03
-72.59
-69.56
-60.45
-46.05
-28.11
-8.84
9.78
26.39
40.3
51.27
59.2
64.03
65.7
64.46
60.88
55.88
50.45
45.38
41.03
37.33
33.93
30.5
26.91
23.35
20.22
17.86
16.4
15.56
14.74
13.21
10.42
6.13
0.61
-5.57
-11.72
-17.28
-22.1
-26.38
-30.63
-35.52
-41.63
-49.33
-58.5
-68.38
-77.46
-83.73
-85.15
-80.28
-68.88
-52.02
-31.84
-10.8
8.96
26.06
39.96
50.57
57.98
62.28
63.55
62.09
58.46
53.53
48.26
43.45
39.51
36.45
33.91
31.42
28.69
25.71
22.74
20.2
18.35
17.17
16.32
15.21
13.29
10.17
5.83
0.52
-5.33
-11.3
-17.13
-22.72
-28.17
-33.73
-39.67
-46.38
-54.16
-63.05
-72.54
-81.35
-87.58
-89.15
-84.54
-73.38
-56.74
-36.75
-15.9
3.68
20.69
34.6
45.34
52.93
57.33
58.54
56.81
52.83
47.6
42.23
37.58
34.09
31.67
29.9
28.24
26.33
24.15
21.99
20.35
19.56
19.61
20.02
20.04
18.91
16.19
11.92
6.59
0.89
-4.61
-9.68
-14.53
-19.66
-25.69
-33.14
-42.24
-52.75
-63.8
-73.92
-81.2
-83.69
-79.98
-69.69
-53.67
-33.8
-12.53
7.77
25.35
39.21
49.09
55.12
57.68
57.23
54.34
49.74
44.25
38.72
33.79
29.81
26.75
24.34
22.25
20.27
18.4
16.81
15.63
14.85
14.22
13.24
11.43
8.4
4.11
-1.15
-6.85
-12.44
-17.52
-21.98
-26.1
-30.45
-35.72
-42.49
-50.83
-60.09
-68.78
-74.85
-76.24
-71.56
-60.64
-44.59
-25.52
-5.79
12.61
28.44
41.2
50.77
57.16
60.32
60.26
57.28
52.09
45.81
39.64
34.49
30.77
28.25
26.36
24.49
22.38
20.17
18.21
16.79
15.82
14.8
13
9.83
5.14
-0.71
-7.06
-13.2
-18.67
-23.42
-27.77
-32.29
-37.6
-44.29
-52.6
-62.25
-72.2
-80.63
-85.29
-84.12
-76.03
-61.37
-41.95
-20.37
0.79
19.7
35.57
48.35
58.23
65.29
69.38
70.34
68.34
64.02
58.42
52.65
47.54
43.49
40.43
37.95
35.63
33.14
30.45
27.72
25.2
23.01
21.04
18.91
16.05
12.03
6.65
0.1
-7.1
-14.34
-21.09
-27.13
-32.57
-37.8
-43.32
-49.62
-57.1
-65.85
-75.5
-85.02
-92.66
-96.29
-93.97
-84.7
-68.91
-48.35
-25.56
-3.06
17.32
34.66
48.75
59.7
67.62
72.55
74.64
74.28
72.09
68.83
65.13
61.41
57.86
54.53
51.48
48.88
46.88
45.56
44.8
44.21
43.29
41.53
38.59
34.47
29.44
23.99
18.6
13.53
8.73
3.75
-2.01
-9.1
-17.69
-27.41
-37.42
-46.68
-54.36
-60.19
-64.5
-68.19
-72.34
-77.83
-84.91
-92.96
-100.39
-104.96
-104.4
-97.17
-83.06
-63.31
-40.29
-16.67
5.33
24.45
40.33
53.08
62.92
69.91
73.99
75.26
74.18
71.44
67.9
64.27
61
58.21
55.85
53.83
52.13
50.78
49.86
49.34
49.06
48.74
48.05
46.67
44.36
41.03
36.76
31.72
26.19
20.47
14.79
9.3
3.95
-1.48
-7.31
-13.79
-20.98
-28.62
-36.23
-43.28
-49.35
-54.39
-58.67
-62.75
-67.38
-73.2
-80.59
-89.37
-98.59
-106.54
-111.05
-110.01
-102.15
-87.44
-67.29
-44.04
-20.36
1.55
20.35
35.53
47.24
55.8
61.53
64.7
65.61
64.71
62.6
59.95
57.33
55.08
53.29
51.82
50.51
49.26
48.13
47.23
46.66
46.33
45.96
45.16
43.58
41.08
37.82
34.07
30.18
26.27
22.29
18.07
13.47
8.54
3.5
-1.42
-6.09
-10.59
-15.2
-20.19
-25.71
-31.65
-37.72
-43.52
-48.76
-53.32
-57.31
-61.08
-65.15
-70.12
-76.44
-84.15
-92.55
-100.18
-104.92
-104.63
-97.81
-84.23
-65.04
-42.56
-19.45
1.99
20.33
35.04
46.19
54.07
58.85
60.67
59.77
56.63
52.1
47.1
42.45
38.68
35.9
33.96
32.59
31.58
30.81
30.32
30.11
30.13
30.17
29.97
29.23
27.75
25.45
22.43
18.91
15.19
11.5
7.97
4.55
1.03
-2.91
-7.54
-12.98
-19.07
-25.43
-31.55
-36.97
-41.5
-45.23
-48.61
-52.25
-56.83
-62.83
-70.29
-78.59
-86.37
-91.69
-92.57
-87.54
-76.25
-59.66
-39.73
-18.88
0.71
17.63
31.25
41.57
48.87
53.37
55.28
54.82
52.44
48.82
44.77
41.03
38.06
35.97
34.54
33.47
32.49
31.56
30.81
30.38
30.32
30.4
30.23
29.31
27.31
24.17
20.16
15.75
11.43
7.55
4.12
0.85
-2.71
-7.02
-12.29
-18.44
-25.07
-31.58
-37.46
-42.42
-46.55
-50.28
-54.25
-59.11
-65.34
-73.04
-81.7
-90.14
-96.62
-99.14
-96.02
-86.5
-71.07
-51.36
-29.67
-8.33
10.91
27.1
39.99
49.69
56.36
60.17
61.32
60.21
57.48
53.93
50.29
47.12
44.63
42.75
41.22
39.82
38.48
37.29
36.45
36.07
36.03
35.95
35.34
33.72
30.88
26.93
22.23
17.27
12.42
7.84
3.43
-1.06
-5.93
-11.37
-17.42
-23.87
-30.4
-36.64
-42.34
-47.45
-52.11
-56.62
-61.37
-66.83
-73.38
-81.21
-89.95
-98.49
-104.94
-107.07
-103.01
-91.94
-74.55
-52.85
-29.53
-7.11
12.7
29.17
42.27
52.25
59.3
63.53
65.1
64.42
62.15
59.08
55.86
52.91
50.32
48.02
45.89
43.9
42.08
40.56
39.44
38.82
38.6
38.57
38.32
37.41
35.47
32.39
28.37
23.79
19.12
14.68
10.53
6.48
2.2
-2.59
-8.07
-14.2
-20.8
-27.59
-34.29
-40.67
-46.62
-52.18
-57.57
-63.23
-69.7
-77.4
-86.37
-95.91
-104.48
-109.96
-110.15
-103.53
-89.87
-70.34
-47.19
-23.03
-0.15
19.95
36.58
49.56
58.92
64.68
66.95
66.09
62.87
58.38
53.77
49.83
46.89
44.78
43.12
41.67
40.46
39.76
39.86
40.84
42.39
43.91
44.7
44.18
42.06
38.41
33.62
28.26
22.9
17.9
13.27
8.69
3.63
-2.31
-9.26
-16.88
-24.6
-31.84
-38.23
-43.85
-49.04
-54.36
-60.4
-67.62
-76.19
-85.78
-95.34
-103.07
-106.77
-104.39
-94.76
-78.11
-56.08
-31.24
-6.37
16.33
35.62
51.11
63.02
71.77
77.75
81.3
82.69
82.24
80.24
77.08
73.16
68.93
64.81
61.11
57.92
55.14
52.57
50.06
47.55
44.97
42.2
38.92
34.81
29.73
23.9
17.74
11.63
5.63
-0.5
-7.06
-14.14
-21.4
-28.35
-34.68
-40.44
-46.01
-51.76
-57.85
-64.26
-70.9
-77.81
-84.91
-91.48
-95.87
-95.63
-88.52
-73.7
-52.51
-28.25
-4.85
14.78
29.77
41.07
50.2
57.91
63.6
65.95
64.16
58.78
51.7
45.05
39.96
36.16
32.49
28.07
23.09
18.71
16.24
16.17
17.79
19.65
20.41
19.55
17.42
14.8
12.42
10.61
9.29
8.21
7.01
5.25
2.44
-1.84
-7.64
-14.58
-21.82
-28.52
-34.08
-38.52
-42.38
-46.56
-51.97
-59.17
-67.9
-76.87
-83.73
-85.55
-79.8
-65.36
-43.14
-15.94
12.57
39.05
61.49
79.37
93.19
103.82
112.03
118.41
123.47
127.44
129.95
129.74
124.85
113.45
94.8
69.86
41.1
11.62
-15.94
-40.07
-60.24
-76.48
-88.88
-97.5
-102.65
-104.97
-105.4
-104.75
-103.35
-101.02
-97.29
-91.79
-84.52
-75.87
-66.51
-57.27
-49.05
-42.71
-38.81
-37.39
-37.91
-39.41
-41.11
-42.85
-45.33
-49.63
-56.46
-65.38
-74.61
-81.51
-83.54
-79.21
-68.5
-52.74
-33.88
-13.85
5.88
24.38
40.96
54.98
65.8
73.01
76.69
77.55
76.72
75.41
74.56
74.55
75.24
76.12
76.56
76.15
74.79
72.72
70.24
67.5
64.3
60.25
55.01
48.6
41.48
34.42
28.15
23.15
19.5
16.92
14.91
12.75
9.51
4.22
-3.79
-14.34
-26.06
-36.46
-42.85
-43.4
-38.26
-29.7
-21.44
-17.07
-18.58
-25.52
-35.2
-43.83
-47.95
-45.53
-36.36
-21.72
-3.8
15.01
32.49
46.85
56.83
61.82
61.93
57.96
51.15
42.84
34.13
25.7
17.88
10.92
5.08
0.73
-1.87
-2.71
-2.19
-0.94
0.35
1.21
1.52
1.39
0.99
0.42
-0.4
-1.59
-3.19
-5.14
-7.32
-9.59
-11.92
-14.29
-16.7
-19.08
-21.36
-23.56
-25.84
-28.58
-32.25
-37.28
-43.81
-51.4
-58.93
-64.64
-66.6
-63.15
-53.57
-38.34
-18.98
2.44
23.92
43.84
61.15
75.06
84.93
90.2
90.57
86.34
78.48
68.52
58.18
48.86
41.43
36.07
32.48
30.14
28.55
27.39
26.5
25.8
25.16
24.35
23.02
20.85
17.66
13.46
8.46
2.93
-2.85
-8.68
-14.48
-20.23
-25.92
-31.52
-37.07
-42.72
-48.77
-55.6
-63.36
-71.66
-79.36
-84.67
-85.62
-80.8
-69.89
-53.94
-35.05
-15.64
2.23
17.3
29.21
38.1
44.3
48
49.32
48.37
45.49
41.26
36.41
31.71
27.69
24.66
22.61
21.33
20.51
19.83
19
17.83
16.27
14.37
12.22
9.92
7.46
4.73
1.51
-2.38
-7.01
-12.27
-17.9
-23.61
-29.13
-34.36
-39.32
-44.18
-49.23
-54.87
-61.49
-69.2
-77.53
-85.2
-90.32
-90.8
-85.17
-73.15
-55.86
-35.5
-14.61
4.63
20.9
33.74
43.29
49.93
54.03
55.88
55.75
54
51.06
47.45
43.63
39.97
36.73
34.04
31.96
30.44
29.39
28.63
27.97
27.18
26.09
24.6
22.7
20.46
17.88
14.95
11.58
7.61
2.99
-2.24
-7.92
-13.81
-19.66
-25.31
-30.66
-35.8
-40.89
-46.26
-52.3
-59.34
-67.36
-75.66
-82.83
-86.91
-85.99
-78.9
-65.72
-47.82
-27.48
-7.15
11.23
26.53
38.41
47.03
52.69
55.71
56.44
55.31
52.85
49.66
46.2
42.79
39.58
36.67
34.14
32.13
30.75
30.04
29.83
29.81
29.58
28.73
27.05
24.54
21.35
17.74
13.95
10.1
6.15
1.96
-2.62
-7.65
-13.01
-18.44
-23.63
-28.37
-32.73
-37.05
-41.83
-47.61
-54.67
-62.73
-70.82
-77.36
-80.44
-78.47
-70.69
-57.53
-40.55
-21.89
-3.66
12.58
26.05
36.55
44.14
48.92
50.97
50.44
47.77
43.66
38.98
34.56
31
28.48
26.85
25.7
24.59
23.24
21.65
20.07
18.83
18.09
17.69
17.2
16.02
13.67
10.06
5.44
0.36
-4.6
-9.09
-13.07
-16.78
-20.61
-24.95
-30.1
-36.25
-43.39
-51.09
-58.48
-64.14
-66.46
-64.06
-56.39
-44.02
-28.54
-12.02
3.66
17.26
28.32
36.87
43.08
46.93
48.3
47.2
43.96
39.33
34.28
29.67
25.99
23.31
21.37
19.81
18.4
17.09
15.98
15.15
14.58
14.06
13.29
11.9
9.64
6.42
2.39
-2.16
-6.84
-11.36
-15.55
-19.44
-23.28
-27.4
-32.13
-37.78
-44.43
-51.88
-59.44
-65.91
-69.78
-69.54
-64.18
-53.67
-39.06
-22.21
-5.24
10.09
22.79
32.64
39.88
44.86
47.76
48.59
47.43
44.59
40.69
36.51
32.75
29.77
27.61
26.03
24.7
23.38
21.98
20.48
18.93
17.35
15.7
13.87
11.68
8.88
5.28
0.78
-4.51
-10.27
-16.08
-21.57
-26.61
-31.31
-35.99
-40.97
-46.58
-53
-60.32
-68.51
-77.28
-85.87
-93.01
-97.1
-96.67
-90.85
-79.71
-64.29
-46.23
-27.38
-9.3
6.9
20.62
31.72
40.44
47.37
53.4
59.58
66.88
75.92
86.77
98.88
111.2
122.47
131.55
137.72
140.84
141.25
139.49
135.89
130.29
122.07
110.43
94.99
76.11
55.04
33.55
13.33
-4.56
-19.9
-33.11
-44.76
-55.1
-63.93
-70.87
-75.73
-78.87
-81.15
-83.66
-87.3
-92.48
-99
-106.02
-112.27
-116.19
-116.32
-111.57
-101.64
-87.14
-69.48
-50.46
-31.83
-14.88
-0.33
11.56
20.79
27.49
31.86
34.19
34.92
34.55
33.59
32.43
31.26
30.14
29.01
27.84
26.64
25.55
24.8
24.58
24.97
25.8
26.66
27.02
26.47
24.83
22.23
19.05
15.7
12.5
9.52
6.64
3.59
0.12
-3.95
-8.58
-13.61
-18.75
-23.7
-28.23
-32.29
-36.03
-39.73
-43.81
-48.62
-54.35
-60.81
-67.26
-72.52
-75.06
-73.54
-67.18
-56.18
-41.64
-25.32
-9.04
5.76
18.3
28.42
36.29
42.14
46.03
47.97
48.01
46.39
43.65
40.44
37.39
34.89
33
31.56
30.35
29.26
28.37
27.81
27.65
27.77
27.83
27.43
26.27
24.29
21.67
18.72
15.76
12.92
10.17
7.3
4.03
0.16
-4.35
-9.34
-14.49
-19.43
-23.85
-27.66
-31
-34.25
-37.87
-42.32
-47.84
-54.31
-61.13
-67.2
-71.06
-71.29
-66.92
-57.83
-44.87
-29.6
-13.86
0.78
13.35
23.49
31.23
36.73
40.06
41.23
40.35
37.76
34.07
30
26.23
23.2
21.01
19.49
18.42
17.6
16.94
16.47
16.2
16.04
15.84
15.34
14.34
12.69
10.38
7.45
4.03
0.25
-3.78
-7.92
-12.05
-16.05
-19.86
-23.47
-27.03
-30.83
-35.25
-40.56
-46.63
-52.77
-57.7
-59.86
-57.96
-51.45
-40.75
-27.16
-12.41
1.89
14.55
24.93
32.82
38.19
41.1
41.69
40.25
37.28
33.43
29.39
25.74
22.79
20.59
18.9
17.4
15.79
13.93
11.92
10.01
8.45
7.35
6.54
5.62
4.15
1.79
-1.48
-5.45
-9.72
-13.96
-17.97
-21.79
-25.62
-29.76
-34.54
-40.21
-46.84
-54.18
-61.41
-67.28
-70.24
-68.92
-62.61
-51.56
-36.99
-20.7
-4.53
10.1
22.44
32.34
39.92
45.33
48.53
49.44
48.09
44.78
40.16
35.09
30.43
26.77
24.31
22.82
21.89
21.07
20.11
19.01
17.88
16.86
15.96
14.97
13.6
11.52
8.53
4.61
-0.07
-5.25
-10.68
-16.15
-21.57
-26.95
-32.35
-37.91
-43.85
-50.48
-58.03
-66.41
-74.99
-82.45
-87
-86.9
-81.02
-69.38
-53.13
-34.26
-14.96
2.96
18.39
30.94
40.65
47.74
52.4
54.76
54.98
53.36
50.39
46.7
42.96
39.68
37.12
35.23
33.71
32.22
30.54
28.69
26.84
25.24
23.95
22.8
21.41
19.35
16.35
12.37
7.61
2.41
-2.92
-8.18
-13.31
-18.34
-23.38
-28.61
-34.22
-40.51
-47.78
-56.11
-65.13
-73.86
-80.7
-83.77
-81.43
-72.89
-58.57
-40.05
-19.64
0.27
17.85
32.16
43.1
51.08
56.6
60.03
61.5
61.09
58.99
55.62
51.57
47.49
43.85
40.9
38.6
36.8
35.34
34.12
33.12
32.25
31.36
30.23
28.68
26.73
24.52
22.2
19.66
16.42
11.72
4.89
-4.24
-15.09
-26.45
-36.89
-45.38
-51.54
-55.79
-59
-62.16
-65.97
-70.64
-75.74
-80.18
-82.42
-80.76
-73.94
-61.57
-44.42
-24.24
-3.26
16.45
33.41
46.88
56.75
63.21
66.6
67.28
65.67
62.31
57.85
52.99
48.31
44.22
40.93
38.4
36.49
34.96
33.6
32.21
30.72
29.14
27.5
25.8
23.96
21.78
18.99
15.38
10.82
5.45
-0.46
-6.5
-12.34
-17.76
-22.73
-27.41
-32.07
-37.1
-42.88
-49.7
-57.48
-65.54
-72.56
-76.76
-76.35
-70.21
-58.28
-41.73
-22.61
-3.22
14.49
29.32
40.84
49.09
54.27
56.6
56.26
53.58
49.17
43.86
38.54
33.96
30.49
28.07
26.33
24.83
23.26
21.57
19.94
18.63
17.76
17.15
16.33
14.69
11.77
7.42
1.94
-4.05
-9.85
-14.98
-19.31
-23.14
-27.02
-31.61
-37.46
-44.83
-53.52
-62.73
-70.98
-76.41
-77.13
-71.89
-60.54
-44.2
-24.93
-5.14
13.13
28.61
40.86
49.96
56.17
59.67
60.51
58.88
55.15
50.02
44.33
38.9
34.3
30.73
28.11
26.14
24.53
23.06
21.64
20.26
18.92
17.56
16.05
14.18
11.69
8.38
4.18
-0.79
-6.23
-11.77
-17.08
-22.02
-26.64
-31.17
-35.97
-41.41
-47.85
-55.5
-64.24
-73.34
-81.42
-86.58
-86.9
-81.1
-69.02
-51.8
-31.52
-10.62
8.83
25.51
38.85
48.85
55.74
59.76
61.17
60.32
57.7
53.95
49.79
45.79
42.34
39.57
37.45
35.89
34.77
33.99
33.4
32.81
31.93
30.53
28.5
25.85
22.74
19.32
15.68
11.73
7.33
2.38
-3.11
-8.96
-14.88
-20.63
-26.1
-31.36
-36.62
-42.16
-48.31
-55.34
-63.3
-71.89
-80.2
-86.71
-89.54
-86.99
-78.21
-63.56
-44.67
-23.87
-3.5
14.71
29.91
41.91
50.86
56.91
60.16
60.78
59.19
56.08
52.28
48.52
45.28
42.67
40.57
38.79
37.24
35.99
35.17
34.88
35.07
35.44
35.54
34.85
33.02
29.95
25.89
21.33
16.82
12.73
9.06
5.46
1.4
-3.59
-9.61
-16.33
-23.09
-29.19
-34.22
-38.21
-41.65
-45.32
-49.99
-56.17
-63.84
-72.34
-80.38
-86.18
-87.85
-83.98
-74.03
-58.68
-39.66
-19.21
0.48
17.84
32.07
43.02
50.86
55.83
58.16
58.08
56.01
52.57
48.5
44.5
41.04
38.32
36.3
34.75
33.47
32.34
31.34
30.48
29.74
28.98
27.99
26.53
24.48
21.85
18.83
15.65
12.54
9.58
6.73
3.76
0.38
-3.7
-8.59
-14.12
-19.89
-25.36
-30.14
-34.09
-37.46
-40.81
-44.79
-49.93
-56.39
-63.75
-70.92
-76.29
-78
-74.58
-65.44
-51.21
-33.61
-14.93
2.7
17.89
30.1
39.44
46.19
50.5
52.38
51.9
49.4
45.62
41.44
37.62
34.51
32.05
29.95
27.95
26.05
24.49
23.58
23.46
23.94
24.5
24.54
23.6
21.52
18.54
15.09
11.63
8.41
5.33
2.09
-1.63
-6.03
-11.01
-16.23
-21.36
-26.18
-30.73
-35.28
-40.19
-45.78
-52.25
-59.61
-67.5
-75.14
-81.23
-84.12
-82.23
-74.63
-61.46
-44.08
-24.64
-5.43
11.78
26.04
37.21
45.53
51.3
54.64
55.63
54.45
51.53
47.53
43.18
39.12
35.71
33.06
31.06
29.55
28.35
27.41
26.76
26.4
26.26
26.12
25.61
24.37
22.19
19.1
15.39
11.47
7.71
4.32
1.26
-1.73
-4.98
-8.77
-13.26
-18.4
-23.95
-29.56
-34.89
-39.67
-43.87
-47.68
-51.57
-56.12
-61.85
-68.94
-76.94
-84.64
-90.23
-91.69
-87.45
-77.01
-61.12
-41.64
-20.98
-1.39
15.52
29.05
39.2
46.38
51.06
53.66
54.42
53.57
51.39
48.28
44.76
41.33
38.39
36.11
34.44
33.2
32.21
31.41
30.82
30.48
30.35
30.17
29.62
28.41
26.4
23.67
20.44
16.98
13.46
9.98
6.53
3.06
-0.52
-4.33
-8.56
-13.3
-18.54
-24.05
-29.47
-34.43
-38.73
-42.49
-46.07
-50.01
-54.81
-60.78
-67.93
-75.83
-83.53
-89.57
-92.26
-90.11
-82.32
-69.12
-51.76
-32.16
-12.39
5.92
21.71
34.56
44.4
51.35
55.54
57.17
56.58
54.25
50.84
46.99
43.25
39.96
37.28
35.17
33.55
32.36
31.58
31.24
31.34
31.75
32.2
32.33
31.75
30.23
27.72
24.37
20.52
16.51
12.66
9.12
5.87
2.72
-0.62
-4.49
-9.09
-14.39
-20.13
-25.87
-31.22
-35.97
-40.26
-44.41
-48.87
-54
-60.01
-66.92
-74.41
-81.75
-87.73
-90.76
-89.27
-82.27
-69.8
-53.04
-34
-14.86
2.6
17.39
29.23
38.24
44.65
48.61
50.26
49.8
47.58
44.13
40.01
35.75
31.79
28.47
25.97
24.37
23.62
23.58
24.01
24.63
25.15
25.28
24.8
23.59
21.61
18.92
15.68
12.02
8.06
3.85
-0.64
-5.46
-10.64
-16.09
-21.63
-27.05
-32.21
-37.2
-42.37
-48.24
-55.23
-63.33
-71.83
-79.3
-83.85
-83.68
-77.63
-65.62
-48.79
-29.13
-8.99
9.61
25.31
37.57
46.45
52.27
55.38
56.01
54.37
50.8
45.85
40.28
34.88
30.31
26.9
24.64
23.24
22.27
21.34
20.23
18.89
17.42
15.91
14.4
12.78
10.8
8.17
4.63
0.07
-5.4
-11.51
-17.85
-24.07
-29.99
-35.67
-41.4
-47.61
-54.76
-63.15
-72.7
-82.75
-91.92
-98.25
-99.65
-94.54
-82.45
-64.3
-42.23
-18.92
3.14
22.28
37.75
49.52
57.9
63.16
65.52
65.18
62.56
58.25
53.03
47.66
42.77
38.75
35.73
33.67
32.37
31.59
31.06
30.51
29.71
28.51
26.79
24.51
21.65
18.15
13.96
9.03
3.33
-3.07
-9.97
-17.06
-24.03
-30.62
-36.81
-42.78
-48.93
-55.81
-63.89
-73.39
-83.99
-94.55
-103.16
-107.47
-105.34
-95.55
-78.39
-55.63
-30.02
-4.51
18.58
37.97
53.3
64.75
72.63
77.11
78.37
76.76
72.97
67.96
62.67
57.81
53.68
50.28
47.51
45.4
44.11
43.8
44.4
45.41
46.04
45.51
43.35
39.64
34.89
29.78
24.83
20.13
15.37
10.07
3.88
-3.27
-11.1
-19.07
-26.66
-33.49
-39.5
-44.93
-50.34
-56.48
-64.06
-73.41
-84.11
-94.75
-103.04
-106.33
-102.45
-90.52
-71.33
-47.21
-21.22
3.73
25.65
43.65
57.69
68.1
75.21
79.15
80.08
78.36
74.68
69.97
65.14
60.84
57.31
54.44
51.97
49.76
47.91
46.67
46.31
46.81
47.72
48.26
47.59
45.14
40.85
35.23
29.08
23.2
18.05
13.61
9.41
4.79
-0.8
-7.57
-15.25
-23.24
-30.85
-37.56
-43.25
-48.21
-53.06
-58.47
-65.11
-73.34
-82.97
-93.05
-101.74
-106.63
-105.32
-96.29
-79.55
-56.81
-30.97
-5.17
18.02
37.15
51.78
62.12
68.55
71.45
71.26
68.61
64.36
59.43
54.6
50.38
46.94
44.3
42.42
41.31
40.95
41.24
41.88
42.44
42.4
41.33
39.04
35.61
31.41
26.84
22.26
17.72
13.03
7.87
1.99
-4.59
-11.58
-18.51
-24.96
-30.76
-36.02
-41.13
-46.63
-53.05
-60.74
-69.59
-78.82
-86.83
-91.44
-90.44
-82.4
-67.29
-46.6
-22.96
0.67
21.9
39.36
52.69
62.19
68.29
71.34
71.62
69.49
65.55
60.63
55.57
51.01
47.29
44.41
42.18
40.46
39.14
38.26
37.84
37.78
37.75
37.27
35.76
32.84
28.45
22.98
17.09
11.46
6.5
2.15
-2.05
-6.72
-12.34
-18.95
-26.22
-33.53
-40.33
-46.31
-51.52
-56.28
-61.11
-66.56
-73.07
-80.78
-89.32
-97.58
-103.83
-106.03
-102.41
-92.13
-75.54
-54.12
-29.89
-4.89
19.19
41.1
59.79
74.29
83.79
87.88
86.8
81.58
73.73
64.89
56.41
49.18
43.62
39.8
37.57
36.63
36.6
37.04
37.55
37.86
37.76
37.17
36.03
34.35
32.21
29.74
27.12
24.49
21.9
19.25
16.35
13
9.03
4.35
-1.09
-7.28
-14.16
-21.58
-29.26
-36.87
-44.04
-50.54
-56.33
-61.66
-67.05
-73.16
-80.5
-89.09
-98.11
-105.85
-109.98
-108.27
-99.41
-83.54
-62.35
-38.5
-14.78
6.61
24.49
38.58
49.14
56.54
61.12
63.12
62.92
61.06
58.17
54.86
51.56
48.51
45.76
43.37
41.45
40.16
39.62
39.81
40.52
41.38
41.97
41.9
40.95
39
36.09
32.33
27.93
23.2
18.47
14.03
9.97
6.16
2.25
-2.22
-7.58
-13.87
-20.78
-27.74
-34.17
-39.66
-44.18
-47.98
-51.55
-55.42
-60.13
-66.07
-73.37
-81.67
-89.89
-96.29
-98.75
-95.5
-85.73
-70.03
-50.23
-28.85
-8.3
9.75
24.57
36.13
44.74
50.67
54.1
55.2
54.28
51.88
48.68
45.34
42.31
39.74
37.57
35.63
33.84
32.31
31.25
30.85
31.13
31.76
32.19
31.79
30.12
27.08
23.02
18.53
14.19
10.37
7.05
3.89
0.42
-3.77
-8.85
-14.64
-20.74
-26.64
-31.98
-36.6
-40.65
-44.51
-48.72
-53.8
-60.07
-67.37
-74.94
-81.39
-84.97
-84.04
-77.64
-65.85
-49.86
-31.55
-13.02
4.01
18.48
29.98
38.55
44.43
47.86
49.05
48.3
46.06
42.93
39.53
36.36
33.7
31.53
29.71
28.1
26.69
25.66
25.22
25.46
26.17
26.86
26.9
25.76
23.23
19.47
14.95
10.27
5.87
1.95
-1.67
-5.38
-9.6
-14.51
-20.03
-25.79
-31.36
-36.41
-40.88
-45
-49.21
-54.02
-59.9
-67.07
-75.33
-83.87
-91.2
-95.36
-94.47
-87.37
-74.16
-56.26
-35.99
-15.86
2.23
17.28
29.18
38.29
45.01
49.53
51.91
52.22
50.75
48.03
44.72
41.46
38.66
36.49
34.89
33.68
32.71
31.92
31.36
31.15
31.32
31.69
31.92
31.52
30.08
27.41
23.62
19.09
14.32
9.7
5.46
1.54
-2.3
-6.4
-10.97
-16.11
-21.69
-27.45
-33.07
-38.34
-43.18
-47.7
-52.16
-56.95
-62.52
-69.22
-77.08
-85.5
-93.11
-97.94
-97.95
-91.74
-79.19
-61.5
-40.92
-19.94
-0.59
15.98
29.47
40.05
48.05
53.66
56.99
58.2
57.64
55.89
53.65
51.54
49.92
48.85
48.14
47.55
46.94
46.34
45.89
45.68
45.56
45.23
44.27
42.38
39.48
35.71
31.28
26.44
21.38
16.27
11.31
6.73
2.63
-1.09
-4.73
-8.69
-13.32
-18.73
-24.71
-30.86
-36.69
-41.88
-46.36
-50.38
-54.38
-58.94
-64.55
-71.5
-79.72
-88.56
-96.73
-102.4
-103.58
-98.72
-87.28
-70.02
-48.88
-26.41
-5.02
13.59
28.68
40.27
48.73
54.38
57.45
58.09
56.62
53.67
49.98
46.29
43.06
40.46
38.41
36.8
35.61
34.91
34.8
35.24
35.96
36.5
36.36
35.16
32.76
29.3
25.16
20.82
16.61
12.63
8.7
4.45
-0.47
-6.21
-12.61
-19.27
-25.69
-31.51
-36.63
-41.22
-45.73
-50.73
-56.72
-63.91
-71.95
-79.81
-85.85
-88.18
-85.21
-76.21
-61.61
-42.94
-22.36
-2.08
16.14
31.26
42.91
51.15
56.26
58.54
58.38
56.23
52.63
48.17
43.43
38.91
34.99
31.96
29.97
29
28.88
29.22
29.6
29.53
28.72
27.03
24.51
21.31
17.66
13.73
9.6
5.26
0.57
-4.64
-10.46
-16.89
-23.73
-30.68
-37.42
-43.76
-49.67
-55.44
-61.53
-68.49
-76.57
-85.38
-93.67
-99.41
-100.4
-94.94
-82.6
-64.41
-42.58
-19.76
1.75
20.5
35.91
47.98
56.89
62.78
65.71
65.87
63.7
59.91
55.34
50.72
46.57
43.08
40.28
38.17
36.79
36.22
36.43
37.13
37.8
37.74
36.41
33.62
29.58
24.87
20.09
15.63
11.52
7.43
2.86
-2.62
-9.11
-16.39
-23.95
-31.22
-37.8
-43.6
-48.91
-54.25
-60.26
-67.46
-75.99
-85.32
-94.16
-100.46
-101.99
-96.97
-84.73
-66.12
-43.21
-18.78
4.58
25.02
41.67
54.41
63.5
69.36
72.38
72.98
71.66
68.98
65.52
61.73
57.98
54.45
51.27
48.44
45.96
43.79
41.86
40.02
38.06
35.64
32.44
28.3
23.36
18.05
12.92
8.37
4.44
0.77
-3.23
-8.04
-13.8
-20.26
-26.87
-33.11
-38.6
-43.33
-47.52
-51.63
-56.28
-62.09
-69.49
-78.35
-87.7
-95.68
-99.88
-98.05
-88.94
-72.79
-51.37
-27.41
-3.76
17.41
34.94
48.58
58.65
65.53
69.51
70.79
69.62
66.47
62.02
57.03
52.22
48.08
44.82
42.44
40.76
39.55
38.59
37.71
36.83
35.88
34.78
33.37
31.43
28.75
25.18
20.69
15.39
9.49
3.29
-2.93
-8.94
-14.63
-20.01
-25.22
-30.49
-36.14
-42.53
-49.94
-58.36
-67.26
-75.38
-80.91
-81.88
-76.8
-65.3
-48.32
-27.91
-6.59
13.39
30.5
44.11
54.16
60.93
64.71
65.77
64.4
61.04
56.23
50.64
44.93
39.65
35.19
31.68
29.09
27.22
25.83
24.71
23.68
22.63
21.4
19.88
17.94
15.47
12.43
8.81
4.64
-0.06
-5.18
-10.6
-16.08
-21.43
-26.51
-31.36
-36.22
-41.48
-47.54
-54.64
-62.68
-71
-78.4
-83.2
-83.68
-78.54
-67.43
-51.15
-31.44
-10.53
9.53
27.34
42.24
54.13
63.06
69.03
71.92
71.73
68.74
63.69
57.61
51.55
46.25
42.06
38.9
36.53
34.74
33.39
32.44
31.76
31.05
29.89
27.87
24.83
20.95
16.66
12.47
8.67
5.22
1.76
-2.14
-6.77
-12.13
-17.97
-23.98
-29.88
-35.56
-40.95
-45.99
-50.62
-54.9
-58.96
-62.87
-66.35
-68.56
-68.14
-63.71
-54.47
-40.75
-24.01
-6.43
9.88
23.46
33.79
41.05
45.78
48.46
49.44
49
47.44
45.2
42.84
40.84
39.46
38.73
38.47
38.39
38.32
38.14
37.88
37.54
37.06
36.26
34.88
32.72
29.69
25.87
21.5
16.88
12.25
7.68
3.04
-1.91
-7.38
-13.37
-19.67
-25.86
-31.48
-36.3
-40.36
-44.04
-47.95
-52.71
-58.66
-65.58
-72.6
-78.17
-80.5
-78.07
-70.23
-57.49
-41.46
-24.31
-8.09
5.85
17.01
25.58
32.05
36.8
39.97
41.51
41.42
39.87
37.26
34.14
31.02
28.29
26.09
24.42
23.18
22.25
21.58
21.11
20.76
20.37
19.76
18.72
17.12
14.94
12.22
9.07
5.6
1.96
-1.74
-5.4
-9
-12.55
-16.13
-19.9
-23.99
-28.6
-33.88
-39.87
-46.31
-52.49
-57.27
-59.28
-57.39
-51.12
-40.91
-28.03
-14.17
-0.88
10.75
20.26
27.59
32.86
36.15
37.49
37.01
35.02
32.04
28.69
25.51
22.84
20.79
19.29
18.18
17.33
16.64
16.03
15.41
14.68
13.73
12.44
10.79
8.77
6.39
3.65
0.48
-3.19
-7.36
-11.88
-16.5
-20.85
-24.68
-27.93
-30.86
-33.97
-37.81
-42.76
-48.78
-55.3
-61.26
-65.31
-66.15
-62.95
-55.53
-44.53
-31.24
-17.24
-4.07
7.15
15.79
21.74
25.27
26.82
26.91
26.01
24.55
22.82
21.04
19.36
17.88
16.63
15.62
14.8
14.15
13.64
13.31
13.21
13.37
13.73
14.14
14.38
14.2
13.44
12.02
9.94
7.25
4.01
0.27
-3.87
-8.29
-12.83
-17.3
-21.61
-25.76
-29.92
-34.41
-39.58
-45.63
-52.32
-58.85
-63.89
-65.91
-63.7
-56.81
-45.81
-32.1
-17.44
-3.42
8.91
19.13
27.24
33.35
37.49
39.64
39.83
38.31
35.57
32.26
28.98
26.17
23.99
22.43
21.35
20.68
20.39
20.54
21.06
21.81
22.46
22.66
22.1
20.64
18.33
15.34
11.87
8.11
4.11
-0.06
-4.41
-8.86
-13.32
-17.64
-21.66
-25.29
-28.52
-31.49
-34.5
-37.93
-42.08
-47.01
-52.31
-57.1
-60.16
-60.26
-56.62
-49.2
-38.73
-26.54
-14.1
-2.57
7.35
15.45
21.81
26.53
29.59
30.94
30.62
28.93
26.41
23.72
21.39
19.71
18.57
17.67
16.7
15.49
14.16
12.93
12.05
11.59
11.33
10.95
10.06
8.43
6.07
3.15
-0.03
-3.19
-6.18
-8.95
-11.62
-14.35
-17.34
-20.78
-24.81
-29.49
-34.74
-40.19
-45.17
-48.67
-49.61
-47.14
-40.98
-31.63
-20.23
-8.23
3.08
12.83
20.69
26.65
30.83
33.3
34.08
33.27
31.11
28.07
24.68
21.5
18.91
17.1
15.98
15.3
14.72
13.98
13.01
11.93
10.97
10.25
9.71
9.03
7.78
5.65
2.55
-1.3
-5.46
-9.51
-13.21
-16.56
-19.74
-23.05
-26.77
-31.16
-36.39
-42.44
-49.02
-55.36
-60.3
-62.42
-60.53
-54.09
-43.51
-30.11
-15.7
-1.98
9.9
19.46
26.74
31.94
35.25
36.73
36.47
34.72
31.98
28.88
25.98
23.64
21.93
20.71
19.79
19
18.27
17.62
17.03
16.46
15.83
15.01
13.89
12.4
10.47
8.06
5.13
1.67
-2.3
-6.63
-11.14
-15.6
-19.87
-23.91
-27.87
-31.99
-36.57
-41.85
-47.93
-54.53
-60.92
-65.92
-68.17
-66.43
-60.12
-49.55
-35.88
-20.78
-5.96
7.31
18.35
27.04
33.51
37.98
40.61
41.52
40.95
39.22
36.78
34.11
31.53
29.28
27.4
25.92
24.84
24.17
23.89
23.91
24
23.84
23.18
21.9
20.05
17.85
15.48
13.03
10.44
7.55
4.18
0.27
-4.08
-8.64
-13.14
-17.41
-21.45
-25.42
-29.62
-34.33
-39.81
-46.12
-52.99
-59.73
-65.21
-68.04
-66.94
-61.18
-50.88
-37.08
-21.42
-5.71
8.56
20.48
29.77
36.51
41.01
43.55
44.42
43.91
42.36
40.16
37.71
35.3
33.1
31.21
29.65
28.42
27.56
27.12
27.06
27.24
27.39
27.17
26.27
24.55
22.13
19.27
16.27
13.3
10.27
6.94
3.06
-1.43
-6.32
-11.23
-15.78
-19.82
-23.47
-26.99
-30.74
-35.02
-40.04
-45.87
-52.35
-58.91
-64.48
-67.6
-66.77
-61.05
-50.48
-36.17
-20.04
-4.14
9.9
21.32
30.08
36.57
41.19
44.05
45.08
44.19
41.58
37.83
33.73
30.07
27.31
25.59
24.71
24.33
24.15
23.99
23.75
23.36
22.7
21.65
20.16
18.2
15.84
13.15
10.12
6.72
2.9
-1.29
-5.73
-10.15
-14.36
-18.22
-21.79
-25.29
-29.04
-33.43
-38.7
-44.87
-51.49
-57.55
-61.63
-62.17
-58.06
-49.08
-36.06
-20.66
-4.81
9.84
22.23
31.97
39.07
43.67
45.94
46.07
44.42
41.5
37.97
34.39
31.18
28.52
26.46
24.99
24.09
23.67
23.59
23.6
23.4
22.74
21.48
19.62
17.33
14.8
12.26
9.79
7.38
4.88
2.06
-1.26
-5.19
-9.68
-14.52
-19.49
-24.37
-29.11
-33.82
-38.81
-44.45
-51.01
-58.5
-66.4
-73.63
-78.63
-79.74
-75.81
-66.55
-52.77
-36.12
-18.55
-1.81
13
25.41
35.4
43.05
48.41
51.47
52.3
51.2
48.73
45.62
42.56
40.02
38.16
36.89
35.89
34.87
33.67
32.28
30.88
29.67
28.73
28
27.2
25.98
24.05
21.32
17.94
14.2
10.4
6.7
3.11
-0.44
-3.97
-7.41
-10.77
-14.34
-18.81
-25.05
-33.71
-44.79
-57.44
-70.17
-81.45
-90.15
-95.74
-98.08
-97.07
-92.36
-83.47
-70.18
-52.95
-33.01
-12.24
7.45
24.58
38.36
48.7
55.93
60.57
63.06
63.78
63.09
61.44
59.33
57.17
55.06
52.59
49.04
43.72
36.48
27.99
19.63
13
9.31
8.86
11.02
14.51
17.99
20.51
21.72
21.73
20.9
19.49
17.59
15.14
12.04
8.35
4.29
0.22
-3.62
-7.26
-11.14
-15.93
-22.23
-30.26
-39.68
-49.76
-59.69
-68.81
-76.63
-82.63
-86.02
-85.74
-80.79
-70.75
-56.08
-38.25
-19.2
-0.76
15.81
29.95
41.56
50.7
57.34
61.46
63.11
62.58
60.4
57.2
53.57
49.94
46.56
43.55
40.99
38.92
37.33
36.19
35.41
34.84
34.26
33.41
32
29.86
26.98
23.57
19.96
16.48
13.26
10.18
6.96
3.26
-1.11
-6.09
-11.45
-16.84
-21.97
-26.68
-30.94
-34.89
-38.8
-43.04
-48.05
-54.05
-60.92
-67.88
-73.55
-76.25
-74.45
-67.39
-55.39
-39.79
-22.53
-5.6
9.53
22.08
31.91
39.23
44.3
47.26
48.14
47.02
44.11
39.87
34.97
30.11
25.93
22.78
20.69
19.47
18.77
18.29
17.86
17.41
16.89
16.26
15.4
14.19
12.53
10.34
7.63
4.41
0.78
-3.11
-7.04
-10.84
-14.38
-17.71
-21.03
-24.66
-28.95
-34.23
-40.7
-48.2
-56.09
-63.14
-67.67
-68.01
-63.04
-52.72
-38.16
-21.3
-4.28
11.19
24.15
34.35
41.91
47.03
49.74
50.07
48.16
44.45
39.68
34.69
30.2
26.62
23.94
21.89
20.1
18.37
16.69
15.2
14.03
13.14
12.26
11.03
9.1
6.34
2.81
-1.27
-5.6
-9.97
-14.26
-18.42
-22.5
-26.58
-30.81
-35.44
-40.74
-46.96
-54.06
-61.54
-68.26
-72.67
-73.1
-68.39
-58.32
-43.77
-26.47
-8.46
8.5
23.28
35.39
44.75
51.36
55.18
56.19
54.56
50.84
45.92
40.8
36.28
32.73
30
27.67
25.3
22.69
20.01
17.65
15.99
15.15
14.92
14.79
14.15
12.54
9.73
5.78
0.96
-4.34
-9.73
-14.92
-19.76
-24.28
-28.71
-33.41
-38.86
-45.42
-53.1
-61.3
-68.74
-73.62
-74.13
-69.09
-58.46
-43.44
-26.1
-8.73
6.93
20
30.45
38.63
44.89
49.26
51.56
51.62
49.55
45.84
41.29
36.77
33
30.3
28.67
27.78
27.12
26.19
24.53
21.85
18.21
14.15
10.76
9.46
11.36
16.67
24.23
31.66
36.08
35.18
28.09
15.69
0.1
-16.16
-31.07
-43.69
-54
-62.69
-70.58
-78.25
-85.75
-92.37
-96.71
-96.96
-91.4
-79.01
-59.92
-35.6
-8.56
18.14
41.56
59.46
70.57
74.78
72.95
66.73
58.04
48.76
40.32
33.52
28.57
25.2
22.97
21.41
20.24
19.34
18.77
18.57
18.7
18.98
19.12
18.84
17.99
16.56
14.64
12.33
9.7
6.74
3.4
-0.34
-4.52
-9.11
-14.03
-19.18
-24.42
-29.59
-34.69
-39.89
-45.51
-51.99
-59.5
-67.68
-75.44
-81.07
-82.62
-78.65
-68.65
-53.42
-34.78
-15.05
3.68
19.99
33.27
43.5
50.85
55.51
57.61
57.38
55.28
52
48.33
44.9
42.02
39.68
37.71
35.92
34.29
32.95
32.11
31.83
31.91
31.96
31.48
30.09
27.68
24.45
20.81
17.15
13.7
10.39
6.97
3.12
-1.38
-6.49
-11.96
-17.42
-22.55
-27.15
-31.31
-35.29
-39.5
-44.4
-50.31
-57.29
-64.9
-72.09
-77.32
-78.82
-75.24
-66.03
-51.84
-34.32
-15.66
2.07
17.43
29.81
39.26
46.11
50.67
53.08
53.39
51.75
48.55
44.41
40.02
36.03
32.85
30.6
29.24
28.59
28.47
28.66
28.89
28.84
28.18
26.67
24.28
21.18
17.75
14.37
11.27
8.43
5.58
2.33
-1.6
-6.27
-11.43
-16.63
-21.46
-25.65
-29.28
-32.71
-36.49
-41.13
-46.91
-53.58
-60.3
-65.68
-68.04
-65.94
-58.69
-46.64
-31.21
-14.37
1.92
16.25
27.94
36.9
43.32
47.38
49.2
48.96
47.02
43.96
40.47
37.12
34.22
31.83
29.83
28.12
26.75
25.86
25.6
25.93
26.55
26.93
26.51
24.94
22.21
18.67
14.89
11.42
8.57
6.29
4.24
1.95
-0.97
-4.66
-8.96
-13.47
-17.76
-21.55
-24.85
-27.96
-31.44
-35.84
-41.6
-48.73
-56.75
-64.57
-70.66
-73.38
-71.45
-64.42
-52.93
-38.56
-23.33
-9.09
3
12.59
19.96
25.58
29.79
32.68
34.14
34.17
32.91
30.76
28.18
25.58
23.24
21.25
19.66
18.54
17.98
18.01
18.54
19.34
20.01
20.17
19.54
18.14
16.22
14.18
12.38
10.92
9.65
8.2
6.18
3.5
0.53
-2.08
-3.65
-4.14
-4.42
-6.27
-12.05
-23.97
-43.45
-70.49
-103.4
-138.72
-171.66
-196.89
-209.64
-206.93
-188.42
-156.56
-115.91
-71.9
-29.46
7.88
38.24
61.19
77.18
87.12
92.12
93.26
91.57
87.98
83.24
77.91
72.46
67.15
62.22
57.87
54.35
51.93
50.83
50.98
51.94
52.94
53.09
51.75
48.74
44.37
39.26
34.05
29.09
24.4
19.73
14.73
9.2
3.17
-3.11
-9.2
-14.72
-19.45
-23.5
-27.29
-31.43
-36.47
-42.65
-49.84
-57.44
-64.51
-69.88
-72.32
-70.82
-64.9
-54.85
-41.71
-27.08
-12.59
0.46
11.41
20.13
26.81
31.65
34.73
36.06
35.74
34.08
31.63
28.97
26.56
24.62
23.13
22
21.14
20.55
20.27
20.32
20.54
20.68
20.37
19.39
17.64
15.25
12.53
9.77
7.19
4.83
2.51
-0.04
-3.11
-6.77
-10.91
-15.19
-19.26
-22.9
-26.15
-29.28
-32.7
-36.8
-41.78
-47.55
-53.61
-59.12
-62.9
-63.73
-60.7
-53.54
-42.8
-29.77
-16.09
-3.23
7.83
16.69
23.41
28.22
31.27
32.64
32.31
30.42
27.29
23.48
19.65
16.34
13.83
12.13
10.97
10.05
9.16
8.35
7.83
7.87
8.6
9.86
11.2
11.97
11.64
9.91
6.91
3.05
-1.16
-5.33
-9.28
-13.04
-16.75
-20.6
-24.76
-29.4
-34.62
-40.28
-45.88
-50.45
-52.79
-51.73
-46.68
-37.88
-26.32
-13.43
-0.63
10.96
20.72
28.35
33.8
37.05
38.14
37.23
34.69
31.08
27.1
23.37
20.33
18.1
16.55
15.43
14.48
13.57
12.73
12.06
11.61
11.32
10.93
10.08
8.39
5.63
1.76
-2.96
-8.1
-13.14
-17.68
-21.58
-24.94
-28.07
-31.39
-35.33
-40.18
-46.04
-52.56
-58.88
-63.66
-65.34
-62.64
-55.08
-43.2
-28.45
-12.72
2.26
15.34
25.97
34.11
39.86
43.32
44.6
43.92
41.68
38.41
34.7
31.05
27.79
25.02
22.74
20.84
19.21
17.77
16.52
15.47
14.65
14.04
13.5
12.78
11.59
9.7
7
3.57
-0.4
-4.62
-8.87
-13.07
-17.22
-21.46
-25.95
-30.9
-36.53
-42.95
-50.14
-57.66
-64.6
-69.6
-71.14
-68.05
-59.92
-47.37
-31.85
-15.23
0.81
15.11
27.12
36.68
43.8
48.46
50.68
50.57
48.52
45.19
41.32
37.55
34.25
31.48
29.09
26.85
24.66
22.52
20.6
19.08
18.08
17.52
17.14
16.52
15.24
12.99
9.66
5.41
0.63
-4.26
-8.89
-13.13
-17.03
-20.87
-25
-29.74
-35.4
-42.12
-49.74
-57.67
-64.7
-69.24
-69.69
-65
-55.15
-41.18
-24.89
-8.26
7.13
20.36
31.07
39.21
44.78
47.78
48.29
46.65
43.46
39.48
35.41
31.7
28.45
25.56
22.78
20.03
17.39
15.14
13.56
12.79
12.67
12.75
12.48
11.36
9.12
5.84
1.84
-2.42
-6.54
-10.31
-13.81
-17.33
-21.36
-26.37
-32.59
-39.82
-47.35
-53.91
-57.96
-58.07
-53.38
-43.9
-30.6
-15.12
0.75
15.5
28.18
38.39
46.06
51.22
53.91
54.19
52.31
48.78
44.25
39.45
34.92
30.93
27.49
24.43
21.62
19.03
16.74
14.92
13.58
12.57
11.53
10
7.57
4.1
-0.26
-5.1
-9.93
-14.29
-17.94
-20.93
-23.62
-26.63
-30.64
-36.16
-43.22
-51.15
-58.52
-63.47
-64.21
-59.56
-49.45
-34.96
-17.98
-0.68
15.12
28.26
38.32
45.41
49.84
51.96
52.11
50.59
47.74
44.04
39.97
35.99
32.47
29.6
27.41
25.72
24.29
22.88
21.4
19.87
18.4
17.09
15.82
14.34
12.27
9.31
5.38
0.67
-4.43
-9.49
-14.22
-18.55
-22.65
-26.81
-31.37
-36.62
-42.76
-49.75
-57.25
-64.37
-69.79
-72.01
-69.67
-62.18
-49.88
-34.08
-16.65
0.43
15.62
28.05
37.49
44.13
48.35
50.51
50.9
49.77
47.42
44.26
40.77
37.42
34.54
32.26
30.51
29.11
27.89
26.75
25.63
24.54
23.41
22.18
20.73
18.97
16.78
14.09
10.79
6.85
2.33
-2.56
-7.51
-12.22
-16.57
-20.61
-24.59
-28.85
-33.67
-39.24
-45.6
-52.56
-59.55
-65.53
-69.13
-68.9
-63.86
-53.9
-39.94
-23.74
-7.3
7.64
20
29.34
35.66
39.13
39.98
38.54
35.3
30.99
26.51
22.75
20.39
19.7
20.52
22.27
24.18
25.5
25.78
24.93
23.33
21.68
20.78
21.34
23.74
27.91
33.33
39.1
44.14
47.38
47.97
45.48
39.92
31.75
21.65
10.27
-1.96
-14.97
-28.86
-43.54
-58.41
-72.09
-82.74
-88.54
-88.41
-82.45
-71.87
-58.51
-44.22
-30.34
-17.54
-6.14
3.67
11.63
17.37
20.74
21.9
21.38
19.86
18
16.18
14.52
12.99
11.46
9.96
8.63
7.72
7.43
7.69
8.11
8.05
6.8
3.99
-0.26
-5.29
-10.13
-13.93
-16.3
-17.48
-18.15
-19.17
-21.23
-24.62
-29.28
-34.77
-40.31
-44.9
-47.35
-46.63
-42.11
-33.89
-22.79
-10.19
2.44
13.84
23.25
30.32
35.01
37.41
37.75
36.44
34.04
31.17
28.34
25.72
23.15
20.29
16.91
13.12
9.54
7.11
6.88
9.48
14.88
22.18
29.77
35.71
38.29
36.44
30.01
19.74
6.93
-6.94
-20.61
-33.28
-44.63
-54.69
-63.53
-70.99
-76.5
-79.2
-78.23
-73.08
-63.9
-51.52
-37.18
-22.18
-7.59
5.86
17.71
27.53
34.89
39.44
41.12
40.26
37.58
33.98
30.23
26.78
23.78
21.12
18.72
16.56
14.74
13.4
12.58
12.21
12.05
11.7
10.73
8.8
5.71
1.59
-3.18
-8.04
-12.48
-16.24
-19.45
-22.56
-26.26
-31.12
-37.42
-44.88
-52.6
-59.15
-62.84
-62.23
-56.55
-46.06
-31.97
-16.15
-0.54
13.42
24.94
33.91
40.53
45.03
47.58
48.26
47.28
44.98
41.86
38.44
35.09
31.97
29.08
26.33
23.67
21.16
18.95
17.18
15.93
15.04
14.2
12.95
10.9
7.81
3.76
-0.97
-5.9
-10.57
-14.73
-18.35
-21.74
-25.35
-29.7
-35.18
-41.88
-49.45
-57.11
-63.63
-67.58
-67.66
-63.07
-53.78
-40.61
-25.05
-8.84
6.43
19.67
30.38
38.47
44.12
47.55
48.99
48.7
47.04
44.44
41.44
38.46
35.83
33.63
31.82
30.22
28.6
26.82
24.8
22.57
20.24
17.93
15.7
13.51
11.17
8.41
4.96
0.66
-4.44
-9.95
-15.32
-19.99
-23.61
-26.23
-28.26
-30.33
-33.09
-36.95
-42.01
-48.02
-54.25
-59.63
-62.79
-62.4
-57.56
-48.19
-35.14
-19.99
-4.58
9.58
21.61
31.26
38.67
44.06
47.61
49.41
49.61
48.48
46.35
43.55
40.34
36.89
33.36
30.01
27.2
25.28
24.43
24.57
25.31
26.12
26.46
26
24.7
22.73
20.32
17.55
14.34
10.44
5.68
0.05
-6.12
-12.31
-18.05
-23.08
-27.48
-31.57
-35.86
-40.78
-46.64
-53.43
-60.73
-67.63
-72.69
-74.32
-71.17
-62.76
-49.75
-33.77
-16.97
-1.29
12.06
22.68
30.72
36.51
40.2
41.79
41.32
39.02
35.5
31.51
27.8
24.83
22.71
21.21
19.99
18.8
17.5
16.22
15.12
14.31
13.72
13.08
12.06
10.32
7.7
4.22
0.07
-4.43
-8.96
-13.23
-17.1
-20.57
-23.89
-27.46
-31.76
-37.15
-43.66
-50.73
-57.23
-61.64
-62.4
-58.4
-49.36
-35.97
-19.71
-2.45
14.03
28.42
39.96
48.39
53.64
55.8
54.98
51.48
45.82
38.76
31.22
24.14
18.29
14.16
11.93
11.49
12.55
14.69
17.42
20.19
22.41
23.47
22.81
20.09
15.27
8.72
1.18
-6.45
-13.32
-18.95
-23.33
-26.89
-30.32
-34.31
-39.37
-45.7
-53.05
-60.71
-67.52
-72.02
-72.78
-68.86
-60.21
-47.83
-33.41
-18.79
-5.38
6.24
16.17
24.79
32.32
38.56
43.02
45.3
45.35
43.64
40.94
38
35.36
33.16
31.25
29.37
27.35
25.15
22.89
20.79
19.06
17.85
17.14
16.75
16.3
15.34
13.44
10.38
6.19
1.17
-4.25
-9.69
-14.94
-20.03
-25.18
-30.73
-37.03
-44.37
-52.77
-61.82
-70.47
-77.13
-79.97
-77.48
-69.05
-55.26
-37.83
-19.05
-1.12
14.43
26.9
36.28
42.86
46.98
48.89
48.82
47.12
44.25
40.75
37.11
33.68
30.65
28.11
26.05
24.43
23.1
21.9
20.69
19.41
18.1
16.84
15.62
14.33
12.66
10.3
7.02
2.8
-2.18
-7.56
-12.95
-18.04
-22.64
-26.78
-30.68
-34.75
-39.5
-45.43
-52.76
-61.14
-69.53
-76.24
-79.34
-77.22
-69.17
-55.7
-38.4
-19.47
-1.08
15.16
28.43
38.55
45.74
50.36
52.73
53.19
52.06
49.72
46.61
43.14
39.64
36.33
33.34
30.67
28.29
26.16
24.28
22.65
21.26
20.05
18.86
17.5
15.8
13.67
11.09
8.09
4.7
0.94
-3.21
-7.72
-12.52
-17.47
-22.43
-27.27
-31.99
-36.74
-41.86
-47.76
-54.73
-62.63
-70.62
-77.13
-80.15
-77.97
-69.75
-55.98
-38.37
-19.26
-0.9
15.19
28.32
38.48
45.87
50.63
52.8
52.51
50.13
46.34
41.97
37.78
34.17
31.22
28.74
26.49
24.33
22.27
20.44
18.99
17.98
17.33
16.74
15.79
14.07
11.31
7.52
2.94
-1.98
-6.83
-11.33
-15.43
-19.28
-23.1
-27.2
-31.9
-37.47
-44.14
-51.74
-59.57
-66.29
-70.17
-69.55
-63.47
-52.05
-36.53
-18.9
-1.19
14.95
28.57
39.37
47.36
52.62
55.19
55.15
52.82
48.77
43.81
38.74
34.12
30.21
26.99
24.28
21.97
19.99
18.34
17
15.87
14.8
13.62
12.2
10.4
8.11
5.15
1.42
-3.05
-8.03
-13.17
-18.1
-22.59
-26.68
-30.64
-34.9
-39.99
-46.34
-54.16
-63.12
-72.21
-79.68
-83.42
-81.57
-73.22
-58.83
-40.17
-19.73
0.09
17.59
32.05
43.5
52.21
58.38
61.93
62.71
60.73
56.45
50.67
44.4
38.58
33.82
30.38
28.2
27.08
26.6
26.12
24.82
21.97
17.23
11.01
4.31
-1.63
-5.96
-8.54
-9.93
-10.94
-12.11
-13.55
-15.16
-16.96
-19.4
-23.2
-28.92
-36.56
-45.41
-54.5
-63
-70.43
-76.61
-81.29
-83.88
-83.53
-79.49
-71.36
-59.02
-42.35
-20.98
5.42
36.41
69.91
102.07
128
143.38
145.98
136.51
118.15
95.32
72.18
51.62
35.09
22.95
14.98
10.62
9.07
9.26
9.91
9.82
8.23
5.04
0.88
-3.2
-6.16
-7.5
-7.42
-6.85
-6.94
-8.55
-11.95
-16.67
-21.88
-26.79
-30.97
-34.66
-38.71
-44.31
-52.52
-63.64
-76.76
-89.59
-98.89
-101.43
-95.15
-80
-58
-32.59
-7.41
14.77
32.55
45.79
54.99
60.73
63.35
63.1
60.38
55.88
50.62
45.59
41.44
38.26
35.66
33.04
29.92
26.25
22.46
19.2
17
15.96
15.6
15.02
13.3
9.86
4.71
-1.5
-7.82
-13.35
-17.64
-20.87
-23.66
-26.89
-31.26
-37.1
-44.23
-51.96
-59.21
-64.59
-66.6
-64.03
-56.19
-43.31
-26.51
-7.66
11.1
27.87
41.34
50.94
56.7
59
58.44
55.65
51.29
46.01
40.39
34.9
29.82
25.32
21.49
18.41
16.2
14.91
14.45
14.57
14.79
14.56
13.37
10.9
7.11
2.24
-3.25
-8.9
-14.32
-19.38
-24.21
-29.19
-34.79
-41.38
-49
-57.17
-64.73
-70
-71.16
-66.84
-56.61
-41.27
-22.67
-3.11
15.32
31.18
43.76
52.9
58.61
60.92
59.96
56.16
50.39
43.87
37.9
33.36
30.44
28.54
26.57
23.43
18.54
12.17
5.3
-0.78
-5.09
-7.45
-8.5
-9.35
-11.01
-13.83
-17.42
-21
-23.85
-25.77
-27.23
-29.09
-32.24
-37.28
-44.31
-52.88
-62.01
-70.22
-75.68
-76.58
-71.55
-60.3
-43.75
-23.87
-3.09
16.39
33.1
46.43
56.32
62.97
66.57
67.31
65.5
61.74
56.87
51.78
47.15
43.31
40.24
37.66
35.26
32.85
30.45
28.22
26.33
24.85
23.64
22.38
20.58
17.79
13.68
8.21
1.67
-5.42
-12.41
-18.83
-24.49
-29.58
-34.57
-40.04
-46.51
-54.26
-63.18
-72.59
-81.2
-87.19
-88.61
-83.93
-72.63
-55.55
-34.74
-12.91
7.4
24.44
37.55
46.93
53.23
57.1
58.99
59.12
57.65
54.85
51.12
46.99
43
39.59
37.02
35.31
34.3
33.71
33.22
32.57
31.63
30.32
28.63
26.5
23.88
20.74
17.07
12.88
8.21
3.11
-2.33
-7.94
-13.44
-18.62
-23.34
-27.72
-32.07
-36.89
-42.67
-49.63
-57.52
-65.37
-71.6
-74.23
-71.53
-62.54
-47.6
-28.24
-6.8
14.35
33.41
49.49
62.41
72.37
79.56
84.03
85.79
85.05
82.34
78.57
74.85
72.22
71.32
72
73.07
72.31
66.95
54.57
34.19
7.06
-23.28
-52.07
-74.95
-89.7
-96.94
-99.76
-102.13
-107.15
-115.98
-127.79
-140.47
-151.32
-157.67
-157.19
-148.26
-130.64
-106
-77.92
-50.94
-28.83
-13.04
-2.18
7.1
18.22
32.52
48.33
61.42
66.91
61.38
44.33
18.57
-10.42
-35.78
-50.98
-51.26
-34.79
-3.19
38.83
84.6
127.33
161.94
186.23
201.06
209.45
215
220.48
226.91
233.53
238.38
238.89
232.44
217.02
191.77
157.44
116.53
73.01
31.52
-3.65
-29.61
-45.46
-52.04
-51.11
-44.4
-32.91
-17.03
2.67
24.55
45.46
61.34
68.42
64.47
49.51
25.53
-4.34
-36.79
-68.57
-96.41
-116.94
-127.08
-125.1
-111.61
-89.69
-64.04
-39.35
-18.62
-2.44
10.53
22.2
33.62
44.35
52.8
57.18
56.29
49.87
38.44
23.11
5.54
-12.02
-26.92
-36.76
-40.39
-38.86
-35.49
-35.03
-42
-59.14
-86.46
-121.16
-158.42
-192.83
-220.11
-238.43
-248.75
-253.69
-255.45
-253.89
-246.14
-228.26
-197.86
-156.09
-107.51
-58.34
-14.39
20.4
44.22
57.24
61.29
60
58.25
60.8
69.89
83.61
96.23
101.09
94.08
75.93
51.72
28.01
9.54
-2.53
-10.14
-16.44
-24.21
-35.07
-49.28
-65.88
-82.65
-96.37
-103.47
-101.17
-88.67
-67.79
-42.39
-17.02
4.63
20.56
30.44
34.92
34.97
31.54
25.7
18.79
12.28
7.42
4.61
3.28
2.04
-0.86
-6.86
-16.56
-29.43
-43.83
-57.3
-67.14
-71.03
-67.7
-57.25
-41.07
-21.47
-0.96
18.4
35.33
49.32
60.34
68.47
73.66
75.81
74.91
71.31
65.84
59.59
53.58
48.5
44.47
41.21
38.28
35.44
32.7
30.29
28.44
27.23
26.43
25.64
24.44
22.49
19.67
15.94
11.42
6.2
0.49
-5.5
-11.5
-17.29
-22.73
-27.86
-32.89
-38.19
-44.2
-51.35
-59.81
-69.31
-78.92
-87.07
-91.82
-91.39
-84.79
-72.2
-55.07
-35.55
-15.97
1.94
17.18
29.53
39.16
46.36
51.28
54.01
54.63
53.4
50.72
47.18
43.34
39.71
36.62
34.25
32.61
31.63
31.16
30.98
30.83
30.43
29.48
27.81
25.37
22.23
18.5
14.27
9.55
4.36
-1.27
-7.2
-13.23
-19.17
-24.94
-30.6
-36.29
-42.22
-48.64
-55.75
-63.64
-72.05
-80.16
-86.58
-89.52
-87.35
-79.21
-65.35
-47.17
-26.73
-6.17
12.88
29.42
42.85
52.66
58.29
59.41
56.18
49.59
41.32
33.28
26.98
23.13
21.58
21.73
22.87
24.56
26.6
28.88
31.19
33.11
34.16
33.86
31.92
28.26
23.08
16.81
10.03
3.33
-2.85
-8.29
-13.04
-17.3
-21.28
-25.11
-28.89
-32.81
-37.24
-42.72
-49.8
-58.59
-68.42
-77.7
-84.12
-85.31
-79.7
-67.12
-49.03
-28.02
-7
11.72
26.99
38.68
47.33
53.54
57.59
59.46
59.09
56.66
52.72
48.06
43.53
39.77
37.03
35.29
34.3
33.74
33.31
32.79
32.01
30.86
29.22
27.03
24.29
21.06
17.49
13.7
9.75
5.59
1.12
-3.78
-9.14
-14.85
-20.71
-26.5
-32.16
-37.83
-43.91
-50.84
-58.91
-67.85
-76.64
-83.51
-86.32
-83.27
-73.54
-57.7
-37.57
-15.68
5.5
24.1
39.11
50.23
57.59
61.51
62.4
60.73
57.14
52.35
47.08
41.91
37.27
33.38
30.37
28.2
26.76
25.86
25.25
24.7
24.02
23.11
21.89
20.34
18.43
16.16
13.53
10.58
7.35
3.9
0.26
-3.62
-7.76
-12.2
-16.96
-22.08
-27.65
-33.85
-40.91
-48.97
-57.84
-66.72
-74.19
-78.4
-77.59
-70.73
-57.97
-40.73
-21.26
-1.97
15.28
29.51
40.59
