-303.87
-259.82
-215.02
-173.73
-135.73
-97.67
-56.08
-10.35
36.56
79.73
115.44
145.72
175.79
210.21
249.96
292.39
332.93
367.22
392.57
391.72
355.09
285.24
196.14
104.7
22.5
-46.63
-103.83
-151.76
-191.2
-221.75
-241
-247.36
-241.67
-226.29
-204.57
-179.6
-153.44
-127.46
-99.94
-68.23
-30.98
10.89
55.83
101.71
147.01
190.86
232.43
271.28
305.59
331.64
345.2
344.79
331.05
306.18
272.4
231.03
183.52
131.96
79.32
23.11
-32.52
-80.56
-115.29
-135.82
-145.57
-148.19
-145.25
-136.59
-122.14
-101.79
-77.93
-54.52
-34.81
-21.3
-14.96
-15.82
-23.88
-39.04
-59.47
-82.05
-101.19
-109.77
-104.03
-85.58
-60.83
-37.81
-22.07
-13.65
-9.28
-5.75
-3.27
-5.49
-15.6
-32.41
-48.62
-53.57
-38.83
-4.25
40.61
80.97
103.16
102.6
85.29
63.43
47.67
41.71
41.75
39.28
27.33
3.61
-27.11
-55.92
-74.59
-79.49
-72.97
-60.89
-49.94
-44.88
-49.85
-66.44
-94.34
-131.31
-173.48
-215.54
-250.67
-272.85
-267.98
-230.97
-169.53
-101.82
-45.69
-9.53
6.86
13.18
17.47
26.18
36.54
44.11
44.93
37.31
22.27
2.36
-16.61
-28.08
-27.54
-16.82
-1.36
13.31
24.61
33.31
41.6
51.74
61.29
64.5
53.97
26.23
-15.91
-63.34
-103.79
-126.89
-128
-110.03
-79.86
-47.36
-20.68
-4.43
-0.39
-8.66
-28.52
-57.63
-91.24
-121.9
-141.65
-144.93
-131.3
-106.03
-76.41
-48.19
-23.47
-1.23
20.74
44.27
69.94
97.17
123.89
149.04
172.18
193.41
212.59
230
247.67
267.9
291.55
314.56
331.04
334.73
321.86
292.02
248.49
198.24
148.6
105.41
70.59
46.96
37.8
45.93
70.53
97.54
111.31
100.21
76.06
46.71
19.86
-2.54
-16.35
-19.56
-12.95
1.74
21.44
42.18
57.22
61.78
52.61
28.83
-8.69
-56.98
-110.27
-162.06
-206.87
-243.32
-267.26
-274.64
-263.78
-237.56
-201.91
-162.42
-123.29
-87.25
-56.82
-32.37
-13.27
2.07
15.21
27.54
39.25
48.96
54.14
51.16
37.29
10.97
-26.65
-70.07
-109.13
-133.12
-135.3
-116.05
-82.97
-47.15
-18.75
-2.79
1.89
0.53
-1.55
-1.62
0.08
1.84
2.31
0.11
-6.21
-18.38
-37.44
-62.03
-87.22
-105.82
-112.61
-104.39
-82.81
-52.94
-20.69
9.67
36.27
58.65
76.06
86.66
88.48
79.73
62.51
41.8
23.02
9.69
2.38
-0.98
-4.07
-9.18
-16.39
-23.21
-25.78
-20.84
-6.76
16.17
45.9
79.04
111.22
137.19
149.51
144.04
121.26
86.65
48.75
15.83
-7.23
-19.72
-24.19
-23.87
-20.61
-15
-7.46
0.42
5.83
6
-0.52
-12.59
-27.12
-40.32
-49.91
-56.15
-61.46
-69.03
-81.84
-101.54
-127.6
-156.95
-183.59
-199.72
-197.9
-174.41
-131.94
-80.14
-32.51
-0.71
10.35
4.53
-8.21
-16.91
-15.92
-4.99
10.57
23.5
28.43
24.4
14.55
4.24
-1.05
2.79
17.59
41.93
71.4
99.44
118.78
123.53
110.47
79.96
36
-13.91
-59.68
-90.32
-97.48
-79.68
-44.58
-7.23
15.68
13.58
-12.68
-51.11
-84.29
-98.08
-88.41
-61.29
-27.98
1
20.17
29.9
33.72
35.86
39.31
45.26
55.33
72.1
96.9
128.05
159.99
184.94
196.61
192.81
175.02
148.78
121.52
98.65
81.61
68.1
53.71
35.45
12.78
-13.49
-39.63
-59.58
-68.26
-63.56
-47.33
-30.69
-25.18
-27.6
-34.21
-45.44
-58.35
-69.51
-76.78
-80.05
-80.8
-79.5
-75.21
-67.74
-56.91
-42.84
-28.04
-16.28
-10.22
-9.51
-9.62
-4.03
11.17
36.61
70.17
107.66
145.08
180.45
214.04
247.91
284.08
322.5
361.19
396.44
422.77
434.28
426.78
399.45
355.61
301.79
245.31
192.66
148.51
115.16
93.14
82.01
80.69
87.55
100.06
114.55
126.72
132.64
129.66
117.09
96.42
70.68
43.38
17.61
-4.74
-22.99
-37.39
-48.47
-56.64
-61.86
-63.97
-63.15
-60.24
-56.81
-54.91
-56.44
-62.58
-73.39
-87.81
-104.23
-121.19
-138
-154.94
-173.13
-194.07
-219.26
-249.86
-286.17
-327.08
-369.6
-408.88
-439.2
-455.65
-455.86
-440.95
-415.14
-384.14
-353.11
-325.28
-301.61
-281.69
-264.85
-250.95
-240.23
-232.66
-227.33
-222.54
-216.47
-208.13
-197.87
-187.34
-178.75
-173.8
-172.9
-174.83
-176.89
-175.6
-167.53
-150.33
-123.52
-88.86
-49.95
-11
24.38
54.32
78.77
98.85
115.64
129.21
138.77
143.17
142.06
136.33
127.96
119.31
112.88
111.01
115.66
127.93
146.98
169.41
189.44
200.63
198.26
181.44
153.03
117.57
78.88
38.82
-2.12
-43.08
-81.26
-112.02
-130.16
-132.63
-120.02
-96.19
-66.1
-33.64
-0.89
31.62
63.63
94.8
123.71
148.04
165.28
173.94
174.42
168.88
161.13
155.58
157.52
171.21
198.16
236.05
278.61
317.31
343.58
352.3
336.98
298.79
247.17
196.14
157.01
132.75
120.65
112.95
104.59
94.02
82.71
71.94
60.74
46.73
27.31
1.31
-30.97
-67.54
-106.48
-145.65
-183.27
-217.76
-247.01
-268.27
-278.53
-276.02
-261.07
-236.8
-207.62
-178.07
-151.59
-129.82
-112.68
-98.95
-87.48
-77.99
-71.74
-70.88
-77.57
-92.78
-115.53
-142.92
-171
-195.86
-214.27
-223.41
-220.19
-201.47
-165.58
-114.72
-56.38
-2.2
35.89
50.26
40.45
12.65
-23.89
-60.93
-93.55
-119.85
-139.23
-150.99
-154.58
-150.5
-140.94
-128.91
-116.36
-102.83
-85.86
-62.79
-33.05
1.21
35.96
67.17
92.36
111.22
125.13
136.36
147.35
160.01
175.02
191.32
206.43
217.66
223.96
226.94
230.58
239.4
255.86
278.76
303.58
324.72
337.98
342.11
338.43
329.35
316.68
300.78
280.99
256.57
227.55
194.78
159.59
123.32
87.06
51.73
18.03
-13.68
-43.79
-73.46
-103.94
-135.39
-165.95
-191.94
-209.26
-215.11
-209.28
-194.26
-174.05
-152.64
-132.78
-115.57
-100.93
-88.24
-76.75
-65.67
-54.24
-42.15
-30.35
-21.29
-18.37
-24.34
-39.62
-61.54
-85.16
-105.06
-117.33
-120.62
-116
-105.81
-92.54
-78.11
-63.79
-50.64
-39.72
-32.12
-28.66
-29.43
-33.65
-39.75
-45.67
-49.38
-49.64
-46.36
-40.62
-34.19
-28.73
-25.1
-23.25
-22.49
-22.13
-21.91
-22.01
-22.77
-24.16
-25.67
-26.27
-24.85
-20.56
-13.19
-3.25
8.07
19.14
28.11
33.29
33.46
28.46
19.39
8.87
0.53
-1.79
4.8
21.54
47.78
81.41
119.46
158.67
195.74
227.35
250.36
262.01
260.45
245.24
217.55
180
136.13
89.85
44.85
4.18
-30.05
-57.05
-77.25
-92.19
-103.81
-113.76
-122.79
-130.65
-136.47
-139.22
-138.45
-134.52
-128.65
-122.43
-117.34
-114.3
-113.46
-114.47
-116.57
-119.11
-121.5
-123.37
-124.41
-124.29
-122.75
-119.65
-115.25
-109.95
-103.94
-96.51
-85.77
-69.1
-44.23
-10.64
29.74
72.65
113.15
147.35
173.67
193
207.89
221.53
236.64
255
276
297.1
313.8
320.83
314.03
292.11
257.38
214.95
171.36
131.26
97.88
72.69
55.94
47.18
45
46.63
47.85
44.46
31.28
5.68
-32.28
-79.7
-130.98
-178.83
-215.68
-235.83
-236.12
-219.73
-192.22
-160.17
-128.43
-98.31
-67.92
-34.52
-4.32
26.46
48.97
54.81
38.85
2.24
-47.24
-97.81
-138.14
-161.7
-167.67
-162.57
-153.23
-143.64
-132.77
-115.58
-86.36
-42.5
13.6
75.94
135.21
184.09
218.28
236.21
237.63
222.18
189.47
140.62
80.65
17.64
-37.36
-74.43
-88.68
-82.25
-63.36
-42.59
-28.67
-25.49
-32.57
-46.31
-62.53
-78.01
-90.62
-98.71
-100.87
-96.32
-85.45
-70.37
-53.94
-38.8
-26.52
-17.32
-10.6
-5.47
-1.23
2.44
5.5
7.65
8.4
7.44
4.8
1.07
-2.79
-5.83
-7.48
-7.79
-7.25
-6.56
-6.33
-6.94
-8.46
-10.63
-12.9
-14.54
-14.86
-13.44
-10.35
-6.19
-1.8
2.04
4.91
6.9
8.47
10.05
11.81
13.35
13.94
12.74
9.38
4.1
-2.18
-8.24
-12.95
-15.67
-16.29
-15.14
-13.01
-11.12
-11.02
-14.07
-20.73
-29.95
-39.33
-46.1
-48.42
-46.4
-42.13
-38.63
-38.35
-41.99
-48.13
-53.88
-56.03
-52.08
-41
-23.21
-0.32
25.48
51.9
77.01
99.4
118.08
132.31
141.49
145.19
143.25
135.87
123.52
106.9
86.96
64.98
42.64
21.87
4.52
-8.1
-15.55
-18.28
-17.44
-14.47
-10.76
-7.41
-5.16
-4.28
-4.65
-5.79
-7.08
-8
-8.32
-8.18
-7.96
-8.1
-8.74
-9.7
-10.55
-10.9
-10.58
-9.78
-8.85
-7.98
-7.06
-5.59
-2.95
1.29
7.02
13.46
19.42
23.67
25.61
25.46
24.28
23.47
24.17
26.64
30.11
33.2
34.38
32.79
28.55
22.84
17.51
14.48
15.27
20.38
28.91
38.41
45.17
44.71
32.65
5.97
-35.55
-88
-143.47
-191.47
-221.86
-228.14
-209.17
-169.03
-114.67
-53.11
9.93
69.29
118.75
150.58
157.58
136.9
92.88
37.03
-16.2
-55.19
-75.53
-80.49
-77.56
-73.89
-72.74
-73.4
-73.21
-70.16
-64.07
-56.02
-46.97
-37.02
-25.59
-11.87
4.4
23.01
43.33
63.97
82.84
97.22
104.47
103.37
95.04
82.79
70.82
62.3
58.06
56.73
55.97
54.16
51.3
48.66
47.69
49.31
53.81
61.39
72.48
87.29
104.77
121.62
132.64
132.29
117.06
87.22
47.09
3.13
-38.94
-76.28
-109
-138.1
-162.97
-179.9
-183.13
-167.88
-133.27
-83.39
-25.64
32.39
85.41
130.3
164.43
183.99
184.47
163.3
122.61
69.97
16.08
-29.29
-60.87
-78.71
-86.45
-88.46
-87.76
-85.57
-82.12
-77.73
-72.94
-68.24
-63.61
-58.79
-53.67
-48.46
-43.72
-40
-37.65
-36.91
-37.98
-40.83
-45
-49.51
-52.93
-54.01
-52.18
-47.84
-42.16
-36.46
-31.71
-28.11
-25.07
-21.46
-16.08
-8.11
2.4
14.52
26.69
37.3
45.55
51.8
57.5
64.45
74
86.76
102.71
121.59
142.8
165.12
185.87
200.89
205.27
194.91
168.07
126.04
72.64
13.03
-47.39
-103.44
-150.07
-182.41
-196.44
-190.27
-165.34
-126.61
-81.28
-36.79
1.16
29.5
47.6
56.22
56.63
50.26
38.8
24.35
9.23
-4.52
-15.6
-23.52
-28.38
-30.3
-29.3
-25.47
-19.33
-11.99
-4.86
0.87
4.55
6.09
5.71
3.74
0.66
-2.86
-6.03
-8.3
-9.7
-10.88
-12.72
-15.82
-20.2
-25.35
-30.6
-35.49
-39.78
-43.29
-45.62
-46.18
-44.61
-41.12
-36.63
-32.41
-29.49
-28.13
-27.79
-27.53
-26.59
-24.83
-22.71
-20.88
-19.77
-19.33
-19.09
-18.5
-17.02
-14.14
-9.12
-0.95
11.28
27.7
46.92
65.82
80.14
85.81
80.43
64.15
39.9
12.36
-13.31
-32.79
-43.32
-43.91
-35.09
-18.67
2.31
23.8
41.08
49.79
47.2
33.3
11.18
-13.53
-34.34
-45.62
-44.13
-29.66
-4.81
26.01
57.88
86.69
109.95
127.02
138.55
145.79
149.84
151.47
151.17
149.42
146.63
143.07
138.71
133.6
128.38
124.63
124.54
129.7
139.66
151.29
159.38
158.51
145.33
119.96
85.86
48.35
12.27
-19.87
-48.29
-74.96
-101.51
-127.75
-151.52
-170.33
-183
-190.62
-195.84
-201.08
-207.26
-213.95
-221.1
-230.49
-245.37
-268.02
-296.76
-324.74
-341.94
-339.66
-314.86
-271.67
-219.18
-166.64
-119.42
-77.59
-37.71
3.7
47.29
90.2
127.37
153.96
167.49
168.28
158.89
142.7
122.74
100.98
78.65
56.88
37.21
21.49
11.26
7.06
8.11
12.54
18.09
22.89
25.93
27.17
27.3
27.25
27.8
29.28
31.37
33.27
34.04
32.98
30.04
25.77
21.15
17.12
14.22
12.42
11.25
10.12
8.57
6.41
3.73
0.87
-1.81
-3.97
-5.37
-5.98
-5.87
-5.13
-3.81
-1.9
0.63
3.63
6.82
9.83
12.3
14.11
15.3
16.06
16.57
16.92
17.11
17.02
16.6
15.81
14.73
13.56
12.62
12.2
12.45
13.31
14.44
15.29
15.38
14.41
12.51
10.33
8.91
9.4
12.55
18.26
25.49
32.46
37.52
39.89
40.27
40.61
43.16
49.31
58.66
69
77.08
79.97
76.38
67.42
56.4
47.61
44.39
47.42
53.89
58.29
54.27
36.96
4.62
-40.94
-94.76
-149.57
-196.84
-228.28
-238.33
-226.61
-199.25
-167.41
-142.84
-132.52
-135.16
-141.75
-140.05
-120.68
-81.62
-28.94
26.41
73.39
105
119.73
120.43
111.89
98.55
83.12
66.64
49.31
31.6
15.07
2.08
-5.4
-7.08
-4.93
-2.42
-2.62
-6.51
-12.38
-16.88
-16.87
-11.28
-1.69
8.42
15.39
17.15
13.89
7.76
1.67
-2.12
-2.79
-1.1
1.25
2.46
1.47
-1.72
-6.19
-10.61
-13.82
-15.16
-14.66
-12.65
-9.57
-5.73
-1.48
2.68
6.09
8.22
9.01
8.93
8.64
8.49
8.22
7.17
4.84
1.48
-1.93
-4.01
-3.84
-1.25
3.22
8.73
14.57
20.22
25.09
28.34
29.15
27.16
23.1
18.62
15.71
15.87
19.48
25.65
32.54
37.87
39.43
35.73
26.45
12.75
-3.03
-18.29
-31.28
-41.93
-51.6
-62.03
-73.94
-86.46
-97.66
-105.71
-110.11
-111.63
-111.57
-110.8
-109.23
-106.25
-101.31
-94.06
-83.72
-68.51
-45.77
-13.4
28.4
75.95
122.87
162.41
190.1
205.31
210.74
210.62
208.79
207.8
209.16
214.03
223.45
237.58
254.76
270.89
280.2
277.11
258.67
226.02
184.29
140.64
101.45
69.84
44.94
22.99
-0.41
-28.15
-60.73
-97.01
-135.39
-174.4
-212.13
-245.16
-268.62
-277.81
-270.64
-249.37
-219.95
-189.4
-162.65
-140.92
-122.49
-105.17
-88.45
-73.97
-64.12
-59.94
-60.18
-61.87
-62.14
-59.78
-55.38
-50.27
-45.15
-39.5
-32.05
-21.78
-9.18
3.61
13.44
17.54
14.74
6.05
-5.75
-17.15
-25.16
-28.23
-26.36
-20.75
-13.13
-5.14
1.93
7.23
10.4
11.57
11.27
10.28
9.31
8.71
8.33
7.81
6.92
5.88
5.21
5.3
6.05
6.74
6.49
4.81
2.07
-0.77
-2.77
-3.66
-3.99
-4.61
-5.97
-7.62
-8.56
-7.94
-5.75
-2.82
-0.32
1.06
1.53
1.89
2.85
4.39
5.78
5.99
4.48
1.53
-1.9
-4.76
-6.4
-6.83
-6.49
-5.94
-5.64
-5.87
-6.81
-8.57
-11.16
-14.35
-17.63
-20.28
-21.55
-20.9
-18.17
-13.63
-8.05
-2.39
2.38
5.61
7.21
7.56
7.38
7.27
7.51
7.78
7.38
5.45
1.53
-3.89
-9.21
-11.89
-9.29
-0.09
14.64
31.09
43.94
48.62
43.58
31.14
16.52
5.41
1.64
6.07
16.98
31.48
46.79
60.71
71.45
77.38
77.16
70.25
57.43
40.69
22.63
5.71
-8.38
-18.74
-25.08
-27.75
-27.64
-26.07
-24.62
-24.53
-26.34
-29.82
-34.05
-37.84
-40.23
-40.63
-38.99
-35.83
-31.95
-28.15
-24.95
-22.39
-20.23
-18.23
-16.39
-14.98
-14.44
-15.06
-16.8
-19.4
-22.42
-25.57
-28.77
-32.11
-35.7
-39.52
-43.38
-46.99
-50.39
-53.92
-58.14
-63.39
-69.31
-74.64
-77.52
-76.5
-71.43
-63.54
-54.68
-46.21
-38.4
-30.56
-21.77
-11.27
1.65
18.36
41.08
71.97
111.55
157.23
203.26
242.22
267.57
276.09
268.95
251.07
229.02
208.63
193.03
182.02
172.25
158.73
136.67
103.22
58.54
5.79
-49.52
-100.96
-142.63
-170.37
-182.61
-180.62
-168.21
-150.58
-132.92
-119.03
-110.65
-107.6
-108.49
-111.58
-115.38
-119.01
-122.23
-125.3
-128.75
-133.11
-138.68
-145.4
-152.93
-160.51
-166.83
-170.2
-169.09
-162.92
-152.66
-140.48
-128.53
-117.35
-105.04
-87.75
-61.63
-25.09
20.25
70.01
119.12
164.17
204.64
242.35
279.45
316.32
350.86
379.27
397.9
404.8
400.13
385.35
361.83
330.11
290.1
242.2
188.38
132.33
78.32
29.49
-13.3
-51.33
-86.57
-119.95
-150.38
-175.36
-192.39
-200.08
-198.38
-187.92
-169.17
-142.2
-107.77
-68.68
-30.27
0.7
18.46
20.61
9.19
-10.26
-31
-47.64
-57.35
-59.75
-56.14
-48.38
-38.34
-27.74
-18.06
-10.26
-4.67
-0.9
1.97
4.98
8.8
13.58
18.85
23.87
27.81
30.06
30.15
27.65
22.01
12.76
0.15
-14.45
-28.37
-38.42
-42.29
-39.74
-32.91
-25.37
-20.35
-19.27
-21.38
-24.65
-27.22
-28.45
-28.8
-29.13
-29.65
-29.65
-27.93
-23.68
-17.02
-9.06
-1.36
4.82
8.98
11.44
13.04
14.64
16.67
18.92
20.59
20.69
18.55
14.25
8.66
3.07
-1.39
-4.25
-5.89
-7.18
-9.02
-11.84
-15.56
-19.72
-23.77
-27.28
-29.88
-31.22
-30.92
-28.67
-24.5
-18.95
-13.04
-8
-4.83
-3.94
-5.04
-7.35
-9.97
-12.44
-14.87
-17.81
-21.94
-27.56
-34.43
-41.8
-48.74
-54.53
-58.97
-62.4
-65.59
-69.38
-74.35
-80.61
-87.76
-94.98
-101.37
-106.16
-108.94
-109.71
-108.68
-106.11
-102.2
-97.07
-90.82
-83.54
-75.12
-64.88
-51.65
-34.11
-11.31
16.68
48.78
83.57
120.15
158.41
198.22
237.79
272.53
295.49
299.6
281.06
242.06
191.07
140.47
102.68
86.5
95.08
125.95
172.5
226
277.52
319.12
344.76
350.84
336.46
303.34
255.39
197.97
137.28
79.4
29.14
-10.65
-39.69
-59.98
-75.01
-88.5
-103.52
-121.95
-144.34
-170.05
-197.11
-222.6
-243.19
-255.92
-259.04
-252.6
-238.29
-218.91
-197.38
-176.01
-156.08
-138.09
-122.17
-108.45
-97.04
-87.78
-79.75
-71.36
-60.89
-47.41
-31.4
-14.76
0.05
11.19
18.21
21.93
23.59
24.08
23.67
22.29
20.19
17.98
16.35
15.51
15.04
14.18
12.52
10.3
8.16
6.54
5.23
3.5
0.76
-3.02
-7.19
-10.89
-13.5
-14.97
-15.5
-15.13
-13.54
-10.32
-5.38
0.76
7.06
12.56
16.81
20.07
22.9
25.78
28.6
30.74
31.52
30.73
28.96
27.3
26.86
28.08
30.55
33.24
35.18
36.01
36.07
36
36.17
36.26
35.57
33.6
30.35
26.08
20.56
12.55
0.21
-17.43
-39.03
-60.55
-76.68
-83.48
-80.42
-70.55
-58.56
-48.12
-40.29
-34.25
-29.2
-25.98
-26.74
-33.2
-44.71
-58.36
-70.83
-80.81
-89.91
-101.2
-116.17
-132.61
-144.86
-146.32
-132.56
-103.23
-61.99
-15.21
29.64
65.58
87.37
92.84
83.71
65.29
44.76
28.3
18.81
15.48
15.38
15.9
16.49
18.49
23.38
31.17
39.92
46.78
49.73
48.55
44.65
40.02
36.13
33.23
30.52
26.8
21.19
13.66
5.16
-2.53
-7.18
-7.03
-1.63
7.53
17.46
24.71
26.89
23.57
16.1
6.59
-3.42
-13.51
-23.95
-34.79
-45.15
-53.45
-58.42
-59.9
-59.06
-57.7
-57.19
-57.84
-59.16
-60.71
-62.7
-66.08
-71.8
-80.07
-90.06
-100.3
-109.43
-116.82
-122.72
-127.91
-133.05
-138.28
-142.98
-145.89
-145.51
-140.36
-129.32
-111.86
-88.09
-58.76
-25.16
11.09
48.24
84.77
119.66
152.75
184.58
215.83
246.53
275.64
301.22
321.35
335.1
342.88
346.1
346.29
344.3
340.1
333.15
323.14
310.6
297.06
284.58
274.95
268.7
264.52
259.28
248.89
229.68
199.98
161.04
116.73
72.05
31.32
-3.21
-31.63
-55.53
-76.84
-97.15
-117.65
-139.45
-163.61
-190.53
-219.08
-246.21
-267.45
-278.49
-277.01
-263.73
-242.24
-217.45
-193.63
-173.04
-155.81
-140.76
-126.69
-113.28
-101.02
-90.72
-82.72
-76.64
-71.48
-66.2
-60.23
-53.78
-47.63
-42.59
-39.07
-36.79
-35.07
-33.25
-31.11
-29.04
-27.7
-27.53
-28.36
-29.31
-29.18
-27.03
-22.57
-16.29
-9.2
-2.44
3.11
7.07
9.61
11.27
12.72
14.34
16.07
17.4
17.8
16.92
14.9
12.29
9.76
7.84
6.68
6.11
5.79
5.47
5.06
4.61
4.14
3.53
2.58
1.29
-0.03
-0.75
-0.17
2.07
5.67
9.69
12.91
14.36
13.78
11.59
8.59
5.54
2.82
0.49
-1.52
-3.22
-4.5
-5.33
-5.81
-6.17
-6.69
-7.53
-8.74
-10.34
-12.34
-14.82
-17.64
-20.54
-23.05
-24.86
-25.97
-26.85
-28.3
-31.12
-35.59
-41.17
-46.58
-50.16
-50.57
-47.45
-41.67
-35.04
-29.56
-26.48
-25.77
-26.24
-26.37
-25.24
-23.05
-20.74
-19.03
-17.38
-13.82
-5.9
7.56
25.2
43.15
56.48
61.24
55.9
41.45
20.27
-5.02
-32.11
-58.6
-81.21
-95.59
-97.33
-84.03
-56.97
-21.28
16.06
49.52
77.59
103.33
131.79
165.92
203
234.15
247.82
236.14
200.31
151.85
108.14
84.38
86.43
108.25
135.54
153.08
151.61
130.38
95.05
53.13
9.97
-32.16
-72.54
-109.94
-142.23
-167.52
-185.72
-198.96
-210.18
-221.27
-231.81
-239.47
-241.61
-236.76
-225.36
-209.23
-190.68
-171.87
-154.64
-140.42
-129.99
-123.07
-118.22
-113.45
-107.3
-99.8
-92.54
-87.73
-86.83
-89.5
-93.79
-97.19
-98.09
-96.51
-93.92
-92.11
-92.12
-93.7
-95.69
-96.74
-96.02
-93.25
-88.29
-80.7
-69.68
-54.48
-35.14
-12.84
10.42
32.71
53.14
72.26
91.69
113.16
137.52
164.41
192.63
220.98
248.99
276.96
305.42
334.24
361.98
385.81
402.39
408.83
403.85
388.36
365.52
340.1
317.33
301.59
295.27
298.21
307.68
318.99
326.55
325.11
310.9
282.51
241.17
190.47
135.47
81.36
32.04
-10.72
-47.42
-80.19
-111.61
-143.59
-176.84
-210.9
-244.55
-276.49
-305.8
-332.24
-356.43
-379.93
-404.81
-432.62
-462.94
-492.06
-513.11
-517.76
-499.31
-455.55
-389.99
-310.55
-226.73
-146.39
-74.02
-10.98
43.05
88.85
127.56
161.24
192.72
224.41
256.19
284.19
301.54
301.13
278.8
235.11
175.02
106.08
36.42
-26.25
-74.53
-101.39
-101.4
-73.25
-22.12
40.23
98.55
139.31
155.48
148.27
125.07
95.24
65.75
39.25
15.05
-8.36
-30.99
-50.9
-65.33
-72.58
-73.26
-69.85
-65.45
-62.19
-60.59
-59.85
-58.62
-55.93
-51.61
-46.32
-41.12
-37.05
-34.69
-34.1
-34.85
-36.2
-37.39
-37.89
-37.5
-36.49
-35.52
-35.41
-36.83
-39.9
-43.98
-47.78
-49.71
-48.4
-43.12
-33.99
-21.89
-8.17
5.78
18.89
30.63
40.94
50.09
58.42
65.97
72.46
77.37
80.43
81.75
81.55
79.78
75.64
67.79
54.86
36.35
12.94
-13.9
-42.85
-73.48
-105.97
-139.88
-172.68
-199.29
-213.3
-209.44
-185.86
-144.96
-92.12
-33.42
26.3
83.81
136.55
181.38
214.17
230.96
229.82
212.28
183.3
149.48
116.8
88.78
66.07
47.48
31.47
17.31
5.39
-3.37
-8.41
-10.02
-9.33
-8.01
-7.98
-11.36
-20.26
-36.07
-58.24
-83.5
-106.07
-119.48
-119.33
-105.37
-81.64
-54.37
-28.88
-7.21
11.99
31.45
52.61
74.03
92.11
103.38
106.63
103.58
97.59
91.47
86.01
79.9
70.98
57.98
41.48
23.6
6.86
-7.09
-17.89
-26.14
-32.49
-37.04
-39.24
-38.34
-34.07
-26.9
-17.99
-8.88
-1.03
4.51
7.27
7.34
5.25
1.84
-2.04
-5.61
-8.46
-10.6
-12.38
-14.36
-16.96
-20.28
-24.02
-27.65
-30.63
-32.69
-33.93
-34.76
-35.71
-37.2
-39.31
-41.67
-43.53
-43.84
-41.52
-35.8
-26.55
-14.42
-0.75
12.94
25.35
35.7
43.68
49.19
52.17
52.63
50.81
47.38
43.44
40.07
37.94
36.94
36.29
35.02
32.56
29.03
25.16
21.8
19.44
17.97
16.73
14.93
12.02
7.95
3.21
-1.22
-4.11
-4.24
-0.67
6.88
17.81
30.7
43.72
55.14
63.82
69.37
71.95
71.89
69.41
64.56
57.24
47.49
35.26
20.16
1.55
-21.49
-49.64
-83.05
-121.24
-163.16
-207.16
-250.93
-291.12
-323.12
-341.62
-341.8
-321.17
-280.99
-226.51
-165.47
-105.93
-53.84
-11.77
21.01
47.48
71.61
97.23
127.14
162.19
200.47
237.2
265.59
278.68
271.83
244.43
200.3
146.48
91.06
40.95
0.44
-29.14
-48.94
-61.42
-69.24
-74.41
-78.15
-81.16
-84.19
-88.25
-94.42
-103.24
-114.1
-125.42
-135.3
-142.6
-147.35
-150.52
-153.09
-155.25
-156.33
-155.24
-151.3
-144.56
-135.51
-124.35
-110.36
-91.99
-67.47
-35.86
2.23
44.63
88.37
130.62
169.43
203.73
232.88
256.51
274.65
288.31
299.68
311.31
324.5
337.55
345.43
341.54
321.01
283.65
234.96
184.13
140.38
109.47
92.12
84.82
82.03
78.57
71.01
58.21
41.26
22.48
4.37
-11.66
-25.82
-39.48
-53.75
-68.14
-80.19
-86.63
-85.53
-77.97
-68.22
-62.1
-64.8
-78.89
-103.39
-134.02
-164.38
-187.7
-199.06
-197.31
-185.77
-171.32
-162.07
-164.38
-180.65
-208.57
-242.16
-273.65
-295.72
-302.9
-292.34
-264.01
-220.25
-165.21
-103.98
-41.8
16.72
67.93
109.48
140.59
162.45
178
191.29
206.49
226.8
253.64
286.17
321.36
354.31
379.39
391.64
387.9
367.66
332.97
287.71
236.55
184.07
134.01
89.21
51.38
20.81
-3.51
-23.94
-43.85
-66.61
-94.14
-125.5
-156.38
-180.47
-192.52
-191.67
-182.86
-175.29
-178.38
-197.54
-231.73
-274.28
-315.84
-347.92
-364.85
-363.8
-343.95
-305.81
-251.34
-184.52
-111.16
-37.51
31.65
93.91
148.34
193.87
228.01
247.23
249.07
234.32
207.54
175.78
145.75
121.13
101.56
83.68
63.85
40.86
16.81
-3.93
-17.58
-23.66
-26.04
-31.24
-44.98
-68.98
-99.94
-131.17
-156.27
-172.46
-181.24
-186.37
-190.23
-191.6
-186.28
-170.11
-142.19
-105.99
-67.88
-33.66
-5.94
16.74
38.43
63.64
95.22
133.31
175.14
214.84
245.08
259.12
252.68
225.12
179.59
122
59.61
0.44
-47.91
-77.81
-83.26
-62.11
-18.31
37.65
91.12
127.81
138.85
121.84
81.5
26.54
-33.14
-88.21
-130.5
-153.17
-152.05
-126.1
-80.1
-22.1
38.4
93.83
141.13
181.74
219.19
251.74
281.56
302.29
307.08
291.85
257.81
211.48
162.05
117.92
83.85
60.85
45.71
34.82
24.99
13.82
-0.56
-19.66
-43.9
-71.77
-99.08
-121.25
-133.78
-134.38
-124.07
-106.71
-87.4
-70.51
-58.17
-49.07
-39.94
-26.25
-4.72
24.41
56.52
83.52
97.03
91.93
69.14
34.74
-2.46
-35.04
-59.87
-78.48
-95.24
-114.69
-139.51
-169.79
-203.39
-235.96
-261.32
-272.62
-264.8
-237.68
-197.75
-157.11
-129.61
-125.6
-147.68
-189.56
-238.7
-280.62
-303.56
-301.23
-273.25
-223.95
-160.28
-89.8
-19.07
47.45
107.74
161.09
207
244.38
272.1
290.15
300.3
305.43
307.69
306.68
299
279.69
244.99
194.94
134.16
70.4
11.49
-37.32
-74.63
-102.13
-122.56
-137.87
-148.41
-153.35
-151.52
-142.57
-127.63
-109.31
-90.88
-75.17
-63.63
-55.99
-50.77
-46.2
-41.15
-35.62
-30.5
-26.94
-25.61
-26.36
-28.35
-30.67
-32.52
-33.46
-33.43
-32.66
-31.49
-30.26
-29.2
-28.3
-27.7
-27.09
-25.82
-23.46
-20.14
-16.61
-13.67
-11.6
-9.8
-7.85
-4.81
0.27
7.55
15.93
23.28
27.25
26.16
19.73
8.17
-6.16
-19.11
-26.89
-28.27
-25.69
-24.6
-31.41
-51.11
-86.81
-136.12
-190.91
-239.75
-271.52
-278.91
-260.33
-220.32
-157.77
-81.76
-7.56
50.77
87.47
105.77
112.04
112.61
110.56
107.28
102.71
98.71
98.93
106.68
123.6
149.65
183.93
224.92
270
313.17
347.03
364.72
361.96
338.74
299.51
251.9
203.76
160.69
123.93
92.15
63.56
37.13
12.42
-11.27
-35.45
-62.17
-92.76
-126.79
-161.27
-191.19
-211.15
-217.39
-208.77
-186.33
-152.29
-108.96
-58.99
-6.19
43.64
82.77
103.14
98.86
68.52
16.41
-48.19
-113.2
-166.66
-199.45
-207.23
-190.72
-154.87
-107.17
-55.61
-6.85
34.84
67.74
92.25
110.02
123.17
133.98
144.37
155.52
167.42
178.8
187.55
191.64
189.99
182.93
172.16
159.79
147.42
135.31
122.2
105.9
84.3
56.52
23.44
-12.39
-47.56
-78.88
-104.23
-122.8
-134.88
-141.33
-143.15
-141.27
-136.64
-130.26
-123.21
-116.42
-110.37
-104.93
-99.39
-92.84
-84.63
-74.71
-63.73
-52.78
-42.99
-35.07
-29.11
-24.7
-21.23
-18.19
-15.44
-13.08
-11.28
-10.07
-9.27
-8.58
-7.68
-6.38
-4.7
-2.8
-0.98
0.44
1.18
1.07
0.1
-1.63
-3.93
-6.56
-9.25
-11.64
-13.24
-13.52
-12.03
-8.65
-3.68
2.17
8.05
13.18
17.05
19.5
20.58
20.42
19.24
17.29
14.92
12.64
10.87
9.76
9.11
8.35
6.92
4.57
1.62
-1.14
-2.79
-2.85
-1.67
-0.42
-0.67
-3.52
-8.95
-15.6
-21.15
-23.29
-20.77
-14.05
-5.15
2.98
7.8
8.1
4.41
-1.27
-6.31
-8.62
-7.75
-5.26
-4.51
-9.56
-24.02
-49.95
-86.8
-130.86
-175.56
-212.65
-234.15
-234.76
-213.53
-174.03
-123.22
-68.9
-17.11
29.46
71.19
109.76
145.71
176.4
197.99
206.35
199.37
178.11
146.42
109.13
70.11
31.04
-8.12
-47.2
-84.4
-115.92
-137.27
-145.65
-141.66
-129.3
-114
-100.02
-88.44
-77.19
-62.29
-40.28
-10.49
24.14
57.83
83.86
97.06
95.82
82.63
63.71
47.3
41.28
50.87
77.21
116.98
163.35
207.64
241.17
257.34
252.91
228.42
187.52
135.82
79.45
24.31
-24.46
-62.69
-87.68
-98.67
-97.24
-87.19
-73.63
-61.48
-53.93
-51.73
-53.33
-55.81
-56.37
-53.36
-46.53
-36.59
-24.66
-11.63
1.97
16.06
31.01
47.64
67.06
90.23
117.12
145.77
172.27
191.67
199.79
194.75
177.73
152.74
125.33
101.08
84.13
76.01
75.11
77.04
76.18
68.24
52.59
32.68
14.24
1.88
-3.74
-6.46
-12.09
-24.62
-43.83
-65.4
-83.87
-95.89
-101.75
-104.39
-107.06
-111.17
-115.65
-118.18
-116.83
-111.11
-101.99
-91.1
-80.08
-70.14
-62.16
-56.68
-53.93
-53.52
-54.5
-55.66
-55.99
-55.13
-53.47
-51.96
-51.63
-53.16
-56.48
-60.68
-64.3
-65.68
-63.46
-56.85
-46.06
-32.57
-19.37
-10.57
-10.26
-21
-42.42
-71
-100.9
-125.93
-141.33
-145.07
-137.72
-121.8
-100.7
-77.85
-56.17
-37.78
-23.81
-14.24
-7.88
-2.6
4.17
15.05
32.1
56.49
88.28
126.71
170.56
218.4
268.16
316.27
357.14
383.74
389.57
371.26
330.26
272.4
205.86
138.26
75.02
19.21
-27.46
-63.95
-89.97
-106.7
-117.05
-124.72
-132.67
-141.68
-150.33
-156.21
-157.5
-154.02
-147.25
-139.21
-131.35
-124.1
-116.9
-108.88
-99.45
-88.52
-76.57
-64.37
-52.69
-41.96
-32.35
-23.77
-16.34
-10.36
-6.17
-3.68
-2.13
-0.31
2.74
7.12
11.85
15.36
16.35
14.55
10.81
6.78
4.15
4.05
6.72
11.49
17.14
22.31
25.99
27.79
27.93
27.03
25.84
24.91
24.62
25.21
26.81
29.41
32.72
36.14
39
40.95
42.19
43.3
44.79
46.61
47.83
46.91
42.14
32.3
16.93
-3.36
-26.91
-51.31
-73.89
-92.56
-106.51
-116.47
-124.3
-131.9
-140.2
-148.68
-155.89
-160.47
-162.19
-162.18
-162.19
-163.48
-166.2
-169.39
-171.81
-172.62
-171.43
-167.83
-161.03
-150.35
-136.29
-121.36
-109.46
-104.03
-105.52
-110.37
-112.15
-104.49
-84.28
-53
-15.76
21.63
55.28
84.54
110.98
136.48
161.85
186.75
210.86
235.28
262.91
296.75
337.44
381.56
421.75
449.72
459.87
451.52
428.58
396.8
361
323.95
287.36
253.35
224.84
204.37
192.47
187.14
185.14
184.01
182.96
182.13
180.62
175.36
162.22
138.83
106.38
69.37
33.26
1.79
-24.21
-46.05
-65.37
-83.21
-100.12
-116.68
-133.52
-150.62
-166.45
-178.4
-184.21
-183.88
-180.3
-178.04
-180.92
-189.94
-202.87
-215.63
-224.51
-227.77
-225.8
-220.02
-211.7
-201.33
-189.06
-175.59
-162.77
-153.26
-149.46
-152.42
-161.26
-173.4
-185.48
-194.33
-197.72
-194.98
-187.21
-177.03
-167.65
-161.58
-159.41
-159.41
-158.02
-151.36
-136.66
-112.91
-80.86
-42.35
0
42.83
82.04
113.2
132.83
139.96
136.94
129.09
122.75
123.01
131.83
147.65
166.66
184.66
198.95
209.17
216.41
221.41
222.94
217.52
201
171.1
129.25
80.46
30.98
-14.62
-55.04
-91.23
-123.61
-149.91
-165.59
-166.81
-153.4
-129.91
-104.19
-83.86
-73.23
-72.13
-77.33
-85.25
-94.11
-103.83
-114.56
-126.12
-137.66
-148.12
-156.44
-161.28
-160.74
-152.83
-135.52
-107.4
-69.11
-23.59
24.82
71.72
114.05
150.37
180.07
198.31
200.47
184.28
151.97
109.5
63.81
20.5
-14.34
-40.99
-60.85
-74.84
-83.75
-88.21
-88.35
-84.8
-77.32
-65.16
-48.03
-25.75
1.3
31.57
62.51
91.68
116.87
136.95
152.38
165.17
179.05
198.07
224.18
255.31
285.58
305.8
306.94
284.36
240.5
185.1
131.89
93.78
78.78
88.92
118.88
157.89
193
212.5
209.03
180.84
131.78
64.13
-12.36
-84.52
-140.85
-175.63
-189.62
-187.09
-173.19
-152.77
-130.57
-110.24
-95.33
-88.34
-89.35
-95.77
-103.15
-107.36
-106.04
-99.04
-87.08
-72.08
-56.76
-43.86
-35.93
-34.95
-41.8
-55.23
-71.33
-83.53
-83.94
-68.38
-39.11
-4.25
25.84
43.11
44.81
33.65
15.93
-1.86
-15.73
-24.14
-27.06
-24.87
-19.13
-12.22
-8.28
-12.08
-26.75
-51.97
-82.07
-107.37
-117.9
-108.17
-80.42
-45.03
-16.24
-6.03
-18.94
-50.04
-87.1
-115.84
-125.55
-110.5
-72.86
-20.72
35.6
87.25
128.82
158.47
177.12
187.38
193.1
198.6
208.2
225.05
249.2
276.53
299.33
308.94
298.82
267.01
216.68
155.47
93.2
39.44
1.39
-17.57
-18.48
-6.58
10.3
23.8
27.81
19.97
1.45
-24.87
-56.61
-92.5
-131.38
-170.66
-205.31
-228.96
-236.62
-227.41
-205.35
-178.28
-154.16
-137.84
-129.79
-127
-125.27
-121.35
-114.31
-105.05
-96.55
-91.93
-92.67
-98.01
-104.24
-105.23
-94.48
-68.05
-26.06
24.98
74.89
113.76
134.68
135.75
119.76
91.9
57.14
19.33
-20.6
-62.33
-98.54
-119.83
-117.8
-89.27
-38.64
17.21
68.58
110.18
140.16
158.99
168.28
167.29
154.27
128.49
91.59
48.65
6.39
-27.91
-48.37
-53.17
-45.33
-31.45
-18.97
-14.99
-24.49
-49.9
-90.32
-141.73
-198.47
-254.85
-305.98
-347.57
-367.53
-357.13
-314.39
-245.88
-164.54
-84.6
-16.93
29.15
56.75
71.46
77.95
79.51
77.76
73.15
66.37
57.26
45.26
30.42
12.67
-6.96
-24.81
-35.47
-33.53
-16
15.75
56.24
97.98
130.44
145.1
140.08
119.46
89.44
54.64
17.14
-22.2
-61.32
-97.44
-127.37
-148.78
-162.17
-169.63
-173.9
-176.74
-178.21
-176.21
-168.05
-151.44
-125.66
-92.3
-54.41
-15.12
24.18
61.66
97.89
134.28
172.37
212.95
255.49
297.91
336.76
367.61
385.92
388.97
376.59
351.74
319.64
285.86
254.41
226.61
201.04
174.63
144.46
109.26
70.23
30.82
-4.54
-32.4
-51.9
-65.23
-76.22
-87.78
-99.91
-109.45
-112.05
-105.4
-91.26
-75.35
-64.49
-63.17
-71.32
-85.04
-99.05
-109.35
-114.5
-114.81
-110.8
-102.18
-88.16
-68.71
-45.89
-23.79
-7.13
0.71
-0.95
-9.95
-22.38
-34.45
-43.72
-49.63
-53.03
-55.36
-57.84
-60.95
-64.4
-67.39
-68.91
-68.25
-65.28
-60.53
-55.02
-50.08
-47
-46.78
-49.86
-56.05
-64.52
-73.94
-82.72
-89.23
-92.18
-90.82
-85.2
-76.23
-65.58
-55.18
-46.58
-40.55
-37.02
-35.56
-35.98
-38.61
-44.14
-53.15
-65.61
-80.9
-98.12
-116.47
-135.19
-152.99
-167.58
-175.65
-173.91
-160.64
-136.79
-106.14
-73.95
-45.14
-22.55
-6.29
5.64
15.99
27.04
39.84
54.38
70.22
87.05
105.06
124.84
147.1
172.38
200.92
232.51
266.27
300.54
332.66
359.17
376.42
381.68
374.36
356.56
332.69
308.02
287.05
272.18
263.5
259.31
257.23
255.15
251.57
245.51
236.23
223.18
206.12
185.42
162.24
138.39
115.7
95.53
78.4
64.1
52.11
42.1
34.33
29.5
28.45
31.78
39.52
51.03
65
79.39
91.52
98.4
97.41
87.24
68.55
44.07
17.94
-5.48
-22.88
-32.69
-35.12
-31.89
-25.68
-19.67
-17.18
-21.15
-33.56
-54.76
-83.03
-114.81
-145.63
-171.63
-191
-204.91
-217.07
-232.15
-253.58
-281.63
-312.68
-340.26
-357.46
-359.63
-346.07
-320.09
-287.49
-254.51
-226.03
-204.63
-190.52
-182.13
-177.02
-172.93
-168.45
-163.36
-158.33
-154.07
-150.51
-146.44
-140.01
-129.96
-116.77
-103.09
-92.71
-88.85
-92.42
-101.34
-111.42
-118.11
-118.35
-111.66
-100.01
-86.64
-74.54
-65.18
-58.1
-51.28
-42.02
-27.98
-7.93
17.89
47.74
78.66
107.06
129.65
144.44
151.4
152.46
150.61
148.64
148.03
148.64
149.39
149.28
148.13
146.64
145.82
146.21
147.63
149.32
150.43
150.3
148.54
145.02
139.7
132.75
124.47
115.16
104.97
93.96
82.45
71.21
61.4
53.88
48.45
43.57
36.9
26.51
11.95
-5.54
-23.69
-40.47
-54.97
-67.54
-79.24
-91.05
-103.22
-115.04
-125.07
-131.85
-134.64
-134.11
-132.16
-131.11
-132.43
-136.06
-140.65
-144.71
-147.84
-150.78
-154.79
-160.26
-166.34
-171.63
-175.06
-176.2
-174.54
-168.48
-155.36
-132.87
-101.05
-63.36
-25.49
7.46
33.74
55.6
77.75
104.24
136.25
171.98
208.28
242.56
273.55
300.65
322.87
338.87
348.21
352.87
357.91
369.75
392.78
426.47
464.18
495.19
508.88
498.67
463.95
409.42
342.41
270.1
198.05
130.18
69.13
16.66
-26.71
-62.16
-92.09
-119.27
-145.79
-172.28
-197.99
-220.86
-237.52
-243.63
-235.25
-211.13
-174.88
-135.01
-102.03
-83.52
-79.82
-83.56
-83.55
-71.29
-46.25
-16.77
4.16
5.75
-15.24
-53.36
-98.12
-139.11
-170.06
-189.9
-201.68
-209.73
-216.67
-222.01
-221.76
-210.57
-184.38
-142.74
-89.68
-32.68
20.22
64.16
98.82
127.73
154.12
177.22
191.44
188.94
164.03
116.65
53.68
-15.3
-76.28
-116.59
-130.47
-120.86
-96.1
-64.99
-35.69
-11.26
6.14
14.16
9.99
-7.77
-36.78
-69.48
-94.72
-102.49
-88.79
-58.94
-25.56
-3.47
-2.88
-24.72
-60.69
-98.07
-126.23
-140.71
-143.9
-141.96
-141.3
-146.16
-157.58
-173.65
-190.37
-202.63
-205.48
-195.81
-173.52
-141.78
-105.96
-71.72
-43.01
-21.22
-5.85
4.63
12.26
19.76
30.74
48.6
74.77
107.25
140.47
167.16
181.19
179.72
163.45
135.36
98.83
56.65
11.2
-35.1
-79.62
-120.14
-155.42
-185.05
-208.44
-223.62
-227.06
-214.96
-185.57
-140.88
-86.41
-29.28
24.29
70.71
109.24
140.93
167.2
189
207.04
222.34
236.81
252.97
273.06
297.62
324.59
349.26
365.17
366.13
348.13
310.79
257.49
194.34
128.35
65.44
9.31
-38.86
-79.84
-115.71
-149
-182.16
-216.89
-253.47
-290.15
-322.98
-346.54
-355.65
-347.47
-322.75
-285.68
-242.35
-198.71
-158.96
-124.89
-96.49
-72.55
-51.31
-30.33
-6.92
20.8
52.6
85.49
114.77
136.02
147
147.9
139.99
123.83
98.83
64.78
24.14
-16.94
-50.14
-68.48
-69.81
-57.85
-40.05
-23.7
-12.56
-6.23
-2.11
1.67
4.76
4.97
0.35
-8.79
-19.06
-25.01
-21.39
-5.13
23.52
61.61
105.06
150.47
195.79
239.85
281.09
316.38
341.24
351.2
343.94
320.65
285.8
245.17
203.41
162.38
121.19
77.84
31.48
-16.38
-61.97
-100.98
-130.58
-150.63
-163.61
-173.65
-185.24
-202.1
-226.2
-256.92
-290.62
-320.93
-340.34
-342.64
-325.23
-290.13
-243.12
-191.46
-141.33
-96.31
-57.33
-23.78
5.27
30.7
53.63
76.02
100.75
130.74
167.34
208.89
250.26
283.87
302.33
301.5
282.36
250.99
216.12
185.67
163.86
150.11
140.51
130.61
118.31
105.1
95.17
92.94
100.22
114.79
131.18
143.29
147.48
144.22
137.21
130.44
125.33
119.72
109.91
93.53
71.89
49.43
30.86
17.73
6.98
-7.1
-28.97
-58.4
-89.95
-116.08
-131.88
-138.41
-142.18
-150.9
-167.91
-189.03
-203.81
-200.8
-173.75
-125.23
-65.79
-9.08
34.05
59.46
69.54
70.13
66.49
60.89
52.7
40.14
22.61
1.67
-19.31
-36.7
-48.08
-53.17
-53.75
-52.75
-52.9
-55.48
-59.86
-63.88
-64.98
-61.59
-53.95
-44.23
-35.46
-30.11
-28.82
-30.24
-31.99
-32.27
-30.99
-29.73
-30.61
-34.6
-40.7
-46.3
-48.62
-46.08
-38.99
-29.28
-19.3
-10.99
-5.19
-1.64
0.54
2.25
3.81
4.63
3.47
-0.71
-7.96
-16.9
-25.25
-31.12
-34.07
-35.19
-36.17
-38.09
-40.85
-43.7
-46.28
-49.12
-53.02
-57.85
-61.96
-63.07
-60.4
-56.29
-55.99
-65.07
-86.03
-116.44
-149.62
-177.74
-195.19
-200.31
-194.49
-180.09
-158.32
-129.05
-92.05
-48.38
-0.88
46.95
92.53
134.81
173.33
206.53
230.67
240.61
232.29
205.43
164.6
117.96
74.38
40.26
18.02
6.5
2.58
2.98
4.98
6.37
5.05
-0.7
-11.44
-25.68
-39.87
-49.6
-51.37
-44.4
-31.04
-15.84
-3.72
1.95
0.1
-8.28
-21.29
-37.12
-54.47
-72.21
-88.97
-103.08
-113.21
-119.14
-122.14
-124.54
-128.49
-134.86
-142.81
-150.23
-154.89
-155.24
-150.6
-140.7
-125.24
-103.94
-77.06
-46.02
-13.31
18.43
47.61
74.45
100.62
127.78
156.11
183.78
207.68
225.18
235.59
240.58
243.11
245.95
250.41
256.3
262.89
269.8
277.23
285.13
292.13
295.42
292
280.57
262.61
241.79
221.61
202.96
183.2
157.83
123.52
80.61
33.66
-10.61
-46.41
-71.56
-87.9
-99.99
-112.82
-129.71
-150.74
-172.33
-188.35
-192.31
-180.79
-156.01
-126.19
-103.01
-97.18
-114.2
-152.37
-203.93
-258.15
-304.81
-336.3
-348.09
-338.55
-308.46
-261.12
-202.38
-139.98
-81.92
-34.7
-1.84
16.86
24.81
27.97
33.7
49.25
79.8
126.25
183.83
242.49
289.5
313.56
309.09
278.31
230.26
176.91
128.09
88.31
56.1
26.22
-6.89
-46.36
-91.4
-137.3
-176.66
-201.7
-207.19
-193.01
-164.76
-131.69
-102.79
-83.45
-74.31
-72.77
-75.75
-81.11
-87.15
-91.14
-88.93
-76.7
-53.91
-24.77
3.43
24.5
37.04
44.67
52.77
63.78
74.72
79.23
71.85
51.74
23.04
-8.4
-38.89
-68.56
-99.85
-134.01
-168.57
-197.9
-216.43
-221.93
-217.07
-207.75
-199.7
-195.37
-193.05
-188.31
-176.72
-156.12
-127.4
-93.83
-59.59
-28.21
-1.51
20.73
40.35
59.68
80.44
103.01
126.61
150.27
173.75
197.57
222.28
247.14
269.54
285.84
293.17
290.9
281.05
267.35
253.55
242.19
234.36
230.52
231.02
236.16
245.41
256.82
267.12
272.9
272.15
265.09
253.87
241.33
229.58
218.94
208.07
194.66
176.64
153.25
125.7
96.87
70.31
48.66
32.42
19.67
6.97
-8.9
-29.37
-53.41
-78.19
-100.54
-118.37
-131.29
-140.31
-146.91
-152.39
-157.59
-163.13
-169.77
-178.66
-191.4
-209.73
-234.83
-266.55
-302.77
-339.27
-370.62
-391.59
-398.66
-390.95
-370.09
-339.11
-301.02
-257.98
-211.32
-162.35
-113.03
-65.82
-22.72
16.09
52.46
89
126.78
163.28
192.12
205.14
195.9
162.89
110.85
49.32
-10.63
-59.88
-93.26
-109.84
-111.46
-101.04
-81.63
-56.14
-27.62
0.49
24.78
42.61
52.74
55.68
53.32
48.18
42.46
37.36
33.02
28.81
23.94
18
11.28
4.7
-0.58
-3.65
-4.27
-3.07
-1.36
-0.52
-1.32
-3.55
-6.09
-7.6
-7.19
-4.91
-1.61
1.62
4.07
5.7
6.91
8.03
8.92
9.07
7.99
5.63
2.51
-0.7
-3.52
-5.85
-7.78
-9.17
-9.47
-7.95
-4.13
1.77
8.88
15.94
21.95
26.42
29.46
31.45
32.68
33.22
32.96
31.85
30.09
28.22
26.88
26.58
27.25
28.23
28.52
27.24
24.09
19.58
14.74
10.69
8.06
6.85
6.48
6.2
5.42
3.94
1.86
-0.53
-2.98
-5.32
-7.51
-9.56
-11.42
-12.99
-14.11
-14.72
-14.91
-14.98
-15.27
-16
-17.11
-18.33
-19.3
-19.75
-19.6
-18.9
-17.78
-16.3
-14.58
-12.9
-11.77
-11.74
-13.03
-15.3
-17.61
-18.79
-17.98
-15.04
-10.62
-5.81
-1.72
0.98
2.07
1.8
0.81
0.08
0.76
3.96
10.26
19.22
29.36
38.54
44.87
47.45
46.72
44
40.72
37.68
34.82
31.53
27.34
22.35
17.24
12.83
9.57
7.34
5.62
3.99
2.47
1.48
1.51
2.63
4.31
5.63
5.78
4.42
1.84
-1.32
-4.53
-7.69
-10.98
-14.61
-18.34
-21.37
-22.72
-21.66
-18.23
-13.42
-8.9
-6.39
-7.04
-11.09
-17.87
-26.12
-34.43
-41.49
-46.19
-47.55
-44.73
-37.29
-25.44
-10.28
6.24
21.79
34.37
42.94
47.72
49.87
50.85
51.84
53.3
55.01
56.32
56.44
54.64
50.38
43.5
34.38
24.1
14.37
7.07
3.64
4.49
8.78
14.84
20.91
25.78
29.21
31.6
33.48
35
35.7
34.86
32.03
27.43
21.98
17.01
13.5
11.71
11.1
10.73
9.67
7.42
3.86
-0.93
-6.74
-13.18
-19.59
-25.1
-28.97
-30.97
-31.48
-31.19
-30.53
-29.14
-25.99
-19.89
-10.27
2.34
16.44
30.19
42.09
51.39
58.09
62.68
65.92
68.62
71.55
75.23
79.76
84.65
88.74
90.38
87.64
78.96
63.66
42.45
17.55
-7.68
-29.94
-47.2
-59.59
-69.25
-78.94
-90.48
-103.77
-117.16
-128.95
-139.03
-149.28
-162.37
-179.68
-199.54
-217.17
-226.51
-222.85
-204.99
-175.53
-139.49
-102.03
-66.72
-35.04
-7.09
17.32
37.86
53.57
63.37
66.81
64.52
58.1
49.69
41.29
34.19
28.76
24.65
21.19
17.86
14.58
11.62
9.4
8.14
7.67
7.41
6.63
4.73
1.53
-2.63
-6.97
-10.48
-12.23
-11.65
-8.64
-3.64
2.6
9.24
15.54
21.05
25.6
29.24
32.06
34.15
35.53
36.17
36.02
35.06
33.38
31.17
28.72
26.35
24.37
22.98
22.26
22.16
22.56
23.29
24.22
25.18
26.06
26.74
27.16
27.34
27.42
27.62
28.09
28.91
29.99
31.19
32.53
34.25
36.93
41.26
47.87
56.99
68.35
81.14
94.19
106.04
115.19
120.36
120.78
116.42
108
96.7
83.77
69.98
55.34
39.07
20.49
0
-20.44
-37.94
-50.37
-57.77
-63.09
-71.24
-87
-113.03
-148.51
-190.1
-233.69
-275.63
-312.41
-339.42
-350.77
-341.15
-308.72
-256.91
-193.86
-129.44
-71.01
-20.71
24.23
68.21
112.65
152.85
180.67
189.87
180.25
157.69
130.24
104.45
83.32
66.76
53.23
42.25
33.69
28.25
27.44
32.32
43.54
61.09
84.35
112.62
144.95
179.86
212.4
236.46
246.56
239.94
217.56
183.5
143.71
102.59
65.76
36.92
16.92
4.27
-2.22
-3.08
-0.83
0.37
-4.22
-17.9
-42.75
-77.34
-117.12
-155.78
-188.38
-213.23
-231.29
-245.05
-257.1
-271.01
-288.51
-308.28
-326
-335.88
-332.54
-312.48
-275.54
-217.14
-142.74
-65.33
0.89
47.75
75.49
89.04
93.42
90.95
82.05
65.69
43.93
22.94
10.69
13.47
33.03
65.9
104.28
138.67
159.81
160.21
138.43
100.34
57.83
23.69
6.03
5.27
15.22
26.51
31.62
29.12
21.83
14.24
10.36
12.97
23.46
41.86
66.19
92.11
114.33
128.24
132.41
129.49
124.59
121.96
121.82
119.82
109.67
87.74
55.82
20.51
-10.54
-33.13
-48.37
-61.1
-75.72
-93
-109.87
-122.07
-127.54
-127.72
-126.16
-125.62
-125.89
-124.18
-117.7
-105.87
-91.02
-76.85
-66.22
-59.53
-55.03
-50.32
-43.62
-34.35
-22.61
-8.62
7.25
23.91
38.99
49.31
52.11
46.71
35.5
23.22
14.89
13.49
18.63
27.2
35.21
40.08
41.64
41.56
41.79
43.24
45.69
48.76
52.84
59.03
68.06
78.89
88.47
92.89
89.78
79.82
66.71
55.06
47.83
44.81
43.37
40.47
34.87
27.94
22.43
20.26
21.04
22.01
19.82
12.74
1.93
-9.23
-17.4
-21.7
-24.62
-30.76
-44.07
-65.15
-90.46
-113.82
-129.35
-134.06
-128.56
-116.02
-100.15
-84.06
-69.88
-59.31
-53.71
-53.51
-57.19
-61.22
-61.22
-54.1
-39.7
-20.82
-1.66
14.17
24.96
31.07
34.27
37.06
42.28
52.71
70.17
94.41
122.69
150.5
173.21
187.71
192.76
188.28
174.28
150.69
118.6
81.5
45.15
15.18
-6.09
-21.43
-37.28
-59.74
-90.33
-124.66
-154.5
-172.27
-174.71
-163.93
-145.41
-124.86
-105.95
-89.88
-76.72
-66.64
-60.14
-57.06
-55.69
-52.63
-44.33
-28.83
-7.41
15.74
35.5
48.4
54.7
58.01
63.01
72.4
84.82
94.99
96.2
83.76
57.51
22.51
-12.7
-38.83
-48.82
-39.45
-11.31
31.94
85.07
142.36
198.67
249.86
292.76
324.62
342.59
343.8
326.31
290.59
240.14
181.19
120.95
65.28
16.94
-24.72
-62.51
-99.59
-137.94
-177.68
-217.19
-253.52
-282.95
-301.25
-304.56
-290.54
-259.59
-215.08
-162.84
-109.55
-61.16
-21.79
6.59
23.76
30.81
29.8
23.6
15.73
10.09
10.15
17.91
32.84
51.38
67.6
75.26
70.32
52.69
26.42
-1.89
-25.92
-41.91
-49.68
-51.72
-51.29
-50.72
-50.72
-50.85
-50.53
-49.91
-49.97
-52.01
-56.86
-64.38
-73.37
-81.93
-88.21
-91.06
-90.37
-87.02
-82.43
-78.12
-75.41
-75.19
-77.74
-82.57
-88.32
-93.09
-95.04
-93.35
-88.87
-83.88
-81.14
-82.73
-89.33
-100.09
-113.11
-125.84
-135.12
-137.28
-129.03
-109.03
-79.48
-46.26
-16.91
2.99
12.98
18.39
27.67
47.62
79.41
117.88
154.52
182.6
200.85
213.95
229.53
254.01
289.31
332.27
376.78
416.63
447.98
469.73
482.42
486.31
480.22
461.62
428.26
380.02
319.98
254.22
190.22
134.44
90.11
56.58
29.85
4.14
-26.09
-64.28
-109.89
-157.85
-199.81
-226.79
-233.09
-219.33
-193.2
-166.96
-153.25
-160.02
-188.06
-231.54
-281.11
-326.85
-360.31
-375.51
-369.57
-343.96
-304.45
-260.99
-225.44
-208.16
-213.55
-237.83
-269.82
-295.16
-302.23
-284.9
-243.79
-184.45
-115.17
-43.88
23.46
83.06
135.52
178.69
209.81
225.89
230.27
229.38
230.26
238.28
255.56
279.83
304.03
319.33
318.31
298.28
262.06
217.41
174.05
139.67
117.21
104.14
95.3
85.95
73.93
59.31
43.28
26.73
9.31
-10.37
-33.96
-62
-93.81
-127.9
-163.25
-199.37
-235.86
-271.45
-303.4
-327.89
-340.9
-339.86
-324.85
-298.91
-266.8
-233.38
-202.12
-174.56
-150.54
-128.7
-107.3
-84.84
-60.76
-35.77
-11.94
7.76
20.52
24.8
21.27
13.07
5.36
4.17
14.78
39.92
78.32
123.97
166.92
195.65
200.71
177.94
130.31
67.09
0.92
-55.97
-94.72
-111.13
-105.63
-82.43
-48.91
-14.73
9.93
17.13
4.27
-24.18
-57.59
-82.91
-89.73
-74.24
-40.13
3.79
47.92
85.74
115.54
139.33
159.77
177.41
189.54
191.6
180.06
154.85
119.83
80.83
42.74
7.71
-24.12
-52.47
-74.45
-84.52
-77.16
-50.52
-8.57
39.87
84.68
118.32
137.63
142.76
135.08
115.42
84.17
42.62
-6.13
-57.63
-108.09
-155.97
-201.66
-245.38
-284.85
-314.01
-324.87
-311.6
-274.56
-221.83
-166.91
-123.32
-98.94
-92.96
-96.73
-98.49
-88.87
-64.52
-28.32
13.43
54.81
92.64
126.71
158.26
188.22
216.24
241.53
264.4
286.89
312.08
342.09
376.46
411.49
441.26
459.88
463.43
451.01
424.71
388.47
346.83
303.85
262.38
223.47
186.36
148.72
108.25
64.5
19.7
-22.19
-57.44
-84.31
-103.52
-116.76
-125.61
-130.58
-131.57
-129.28
-126.28
-126.05
-130.78
-139.71
-148.73
-153.17
-149.9
-138.15
-119.57
-97.61
-76.62
-61.1
-55.04
-60.53
-77.85
-102.83
-126.67
-138.12
-128.92
-98.56
-53.65
-7.15
35.91
74.23
105.66
127.34
135.86
128.63
104.62
65.53
15.59
-38.79
-91.4
-139.61
-182.49
-220.58
-255.24
-287.64
-317.83
-344.42
-364.71
-364.57
-335.93
-278.11
-199.48
-113.68
-33.2
35.1
89.99
130.81
162.75
187.11
203.31
209.84
206.42
194.94
178.52
161.13
145.33
132.13
118.46
100.64
74.83
39.85
-2.34
-47.71
-92.3
-133.77
-171.07
-204.9
-234.71
-259.74
-277.99
-287.52
-287.68
-279.37
-264.05
-242.01
-213.05
-168.17
-106.79
-37.45
25.62
70.36
92.99
97.6
92.01
82.86
73.39
62.38
48.02
30.19
10.42
-8.51
-24.5
-36.74
-45.62
-51.91
-57.67
-64.79
-72.78
-79.77
-82.65
-78.93
-67.38
-48.12
-22.09
7.92
38.76
67.83
93.61
116.79
138.69
160.65
183.56
208.17
233.64
258.48
281.49
297.23
304.36
303.56
296.77
286.71
277.52
272.57
273.49
279.08
285.09
286.12
276.5
252.79
209.74
151.12
87.78
32.91
-4.7
-24.4
-31.26
-31.67
-30.45
-28.98
-26.05
-21.39
-17.09
-16.93
-24.68
-41.79
-67.73
-100.41
-136.56
-171.66
-201.47
-222.87
-234.39
-236.4
-230.5
-219.31
-205.84
-192.15
-178.79
-165.76
-153.06
-140.68
-128.41
-115.65
-102.16
-89.18
-79.17
-75.42
-81.29
-98.64
-126.83
-162.56
-200.8
-236
-263.1
-276.67
-271.79
-245.63
-199.16
-138.04
-71.28
-8.93
42.73
77.42
93.1
92.88
83.09
71.18
60.04
49.67
39.17
28.41
17.69
9.34
6.2
10.66
24.3
47.62
79.99
118.75
158.38
190.74
207.85
204.18
178.56
134.62
79.04
19.29
-38.81
-92.07
-139.49
-180.34
-213.39
-237.06
-250.03
-251.93
-243.31
-225.37
-199.68
-168.06
-132.23
-93.86
-54.71
-16.65
18.13
47.12
67.61
77.34
75.41
63.48
45.57
26.93
12.24
4.11
2.67
6.33
13.15
21.93
32.55
45.32
60.16
76.31
92.68
108.6
124.39
141.01
159.47
180.08
202.24
225.07
248.13
271.75
296.5
322.14
347.07
368.54
383.91
391.88
393.13
389.95
385
380.11
375.54
369.97
361.11
346.38
323.58
291.43
250.1
201.42
148.89
96.87
49.47
9.49
-22.27
-46.75
-65.94
-82.23
-98.01
-115.6
-136.89
-162.75
-192.2
-222.15
-248.14
-265.99
-273.76
-272.75
-266.89
-260.9
-258.05
-258.81
-261.07
-261.62
-257.94
-249.22
-236.32
-220.83
-204.12
-186.91
-169.54
-152.37
-136.05
-121.38
-109.04
-99.18
-91.3
-84.47
-77.78
-70.68
-63.33
-56.44
-50.91
-47.16
-44.79
-42.45
-38.31
-30.81
-19.36
-4.65
11.53
26.93
39.62
48.56
53.78
56.18
57.1
57.86
59.18
61.06
62.64
62.53
59.21
51.63
39.63
24.15
7.15
-8.8
-21.26
-28.56
-30.3
-27.46
-21.94
-15.92
-11.09
-8.18
-6.86
-6.06
-4.57
-1.64
2.81
8.35
14.3
20.11
25.52
30.43
34.72
38.09
40.18
40.75
40.06
38.91
38.38
39.37
42
45.46
48.17
48.38
44.76
36.79
24.82
9.89
-6.5
-22.8
-37.66
-50.19
-60.34
-68.95
-77.65
-88.16
-101.28
-116.08
-129.74
-138.38
-138.55
-128.87
-110.69
-87.63
-64.13
-43.79
-28.37
-17.81
-11.17
-7.58
-6.83
-9.04
-13.85
-19.89
-24.93
-26.65
-23.64
-15.91
-4.74
8.05
20.79
32.41
42.38
50.43
56.27
59.55
59.97
57.5
52.51
45.84
38.68
32.4
28.3
27.38
29.92
35.31
42.04
48.08
51.46
50.94
46.39
38.74
29.69
20.96
13.63
8.04
4.08
1.76
1.6
4.28
9.98
17.76
25.63
31.58
34.87
36.65
39.45
45.54
55.33
66.77
76.17
80.25
77.93
71.07
63.61
59.72
61.89
70.03
81.82
94
103.9
110.37
113.83
115.52
116.51
116.98
116.29
113.54
108.28
100.89
92.32
83.56
75.28
67.79
61.31
56.12
52.44
49.94
47.33
42.22
31.32
11.5
-18.73
-57.81
-100.33
-137.24
-157.78
-152.69
-118.15
-58.41
14.34
83.31
132.6
152.5
142.22
108.99
64.27
19.05
-19.48
-48.77
-69.67
-84.52
-95.95
-106.63
-119.39
-137
-160.89
-189.63
-218.3
-239.65
-246.59
-235.08
-205.95
-164.82
-119.9
-78.83
-45.95
-21.11
-0.53
21.03
47.49
79.4
113.32
142.99
161.61
164.26
149.42
119.14
78.03
31.9
-13.71
-54.24
-86.6
-109.35
-122.87
-129.2
-131.47
-132.92
-136.01
-141.99
-150.88
-161.9
-173.54
-183.98
-191.19
-193.41
-189.8
-180.79
-167.88
-152.7
-136.24
-118.56
-99.25
-78.25
-56.14
-33.71
-11.36
10.96
32.81
52.3
66.17
71.35
67.02
55.98
43.51
34.71
31.73
33.23
35.75
36.79
36.17
35.69
37.16
40.76
45.14
48.84
51.81
55.56
62.09
72.26
85.37
100.09
115.53
131.78
149.36
168.42
188.42
208.38
227.27
243.67
255.23
258.43
249.81
228.25
196.86
162.7
134.17
117.16
112.28
115
117.8
113.94
99.69
74.85
41.61
2.79
-39.14
-82.17
-124.24
-163.02
-196.26
-222.83
-243.5
-260.79
-277.23
-293.33
-306.14
-309.41
-295.91
-261.12
-206.54
-140.83
-77.41
-29.42
-4.5
-1.68
-12.35
-24.73
-29.65
-24.71
-14.82
-9.19
-16.55
-41.49
-83.09
-136.36
-194.59
-251.1
-299.6
-333.86
-347.99
-338.07
-304.18
-251.3
-188.32
-125.46
-70.78
-28.05
3.29
26.52
45.43
62.83
80.06
97.37
114.55
131.37
147.52
162.61
176.27
188.36
199.52
211.56
227.28
249.45
279.14
313.82
347.15
370.7
377.18
363.74
333.23
292.53
249.04
207.41
168.16
128.95
87.45
43.56
-0.41
-41.45
-78.22
-111.62
-143.42
-173.6
-198.72
-212.47
-208.49
-183.95
-142.04
-92
-45.93
-14.18
-1.4
-5.51
-19.92
-37.64
-54.53
-69.88
-84.13
-95.52
-98.88
-87.81
-59.25
-17.25
26.89
59.45
71.11
61.8
40.44
19.72
9.3
11.85
23.27
36.8
47.3
53.61
57.41
60.7
63.91
65.75
64.91
61.65
58.03
56.71
59.32
65.54
73.3
79.83
82.84
81.2
75.17
66.32
57.38
51.91
53.49
64.32
84.18
110.27
138.4
165.05
188.98
211.14
233.09
254.62
272.59
281.96
278.45
261.29
233.98
202.64
172.91
147.41
125.11
102.99
78.63
51.97
25.46
2.51
-14.48
-25.41
-32.37
-38.51
-46.47
-57.58
-72.02
-89.63
-110.61
-135.56
-164.73
-197.05
-229.64
-258.24
-278.64
-288.25
-286.87
-276.61
-260.71
-242.28
-223.37
-204.93
-187.24
-170.54
-155.15
-141.35
-129.15
-118.14
-107.74
-97.61
-87.88
-79.04
-71.73
-66.35
-62.74
-60.14
-57.44
-53.57
-47.9
-40.51
-32.08
-23.6
-15.96
-9.62
-4.54
-0.31
3.54
7.21
10.59
13.31
15.05
15.78
15.85
15.79
16.1
16.88
17.95
18.95
19.64
20
20.22
20.49
20.77
20.89
20.52
19.48
17.78
15.59
13.16
10.66
8.13
5.52
2.75
-0.23
-3.33
-6.35
-9.02
-11.07
-12.37
-12.97
-13.17
-13.34
-13.85
-14.9
-16.46
-18.24
-19.74
-20.4
-19.71
-17.4
-13.54
-8.57
-3.14
2.06
6.52
10.01
12.52
14.19
15.16
15.49
15.21
14.35
13.11
11.76
10.62
9.86
9.46
9.19
8.77
8.01
6.91
5.7
4.63
3.89
3.43
3.07
2.56
1.66
0.26
-1.68
-4.09
-6.76
-9.34
-11.3
-12.11
-11.35
-8.93
-5.15
-0.61
3.98
7.99
11.08
13.16
14.32
14.71
14.46
13.7
12.55
11.2
9.77
8.34
6.85
5.17
3.22
1.09
-0.96
-2.59
-3.54
-3.79
-3.65
-3.54
-3.91
-5.03
-6.96
-9.56
-12.53
-15.49
-17.93
-19.27
-19
-16.92
-13.29
-8.8
-4.41
-0.92
1.24
2.14
2.18
1.84
1.38
0.75
-0.28
-1.93
-4.19
-6.81
-9.43
-11.82
-14
-16.16
-18.67
-21.78
-25.46
-29.37
-33.03
-36.12
-38.69
-41.05
-43.61
-46.55
-49.72
-52.53
-54.27
-54.4
-52.77
-49.79
-45.99
-41.89
-37.93
-34.43
-31.51
-29.19
-27.47
-26.39
-26.17
-26.59
-27.19
-27.45
-26.88
-24.97
-21.48
-16.77
-12.13
-9.92
-11.62
-17.29
-25.67
-34.33
-40.45
-42.11
-39.12
-33.09
-27.31
-23.79
-23.17
-25.16
-28.42
-30.19
-26.6
-13.5
11.99
48.98
94.69
144.02
190.65
224.94
238.99
230.3
203.47
174.85
151.64
135.67
125.94
118.58
112.49
109.02
110.9
120.92
140.42
167.45
198.77
228.41
248.04
249.43
227.46
182.49
120.75
52.26
-14.92
-70.37
-106.08
-120.13
-116.43
-101.38
-79.8
-53.6
-24.33
7.13
38.31
64.41
80.17
82.39
70.92
48.03
17.03
-18.65
-55.53
-88.85
-112.75
-121.37
-111.26
-83.87
-46.19
-8.31
20.98
38.06
45.27
47.75
48.96
47.73
38.89
16.99
-19.11
-64.18
-108.08
-140.45
-155.44
-154.18
-143.88
-133.94
-131.71
-139.79
-155.77
-174.1
-189.2
-198.05
-200.8
-199.42
-195.01
-186.15
-169.25
-140.96
-101.22
-54.72
-9.48
26.57
49.38
60.39
65.28
70.47
79.85
93.05
106.43
115.45
117.49
113.16
105.93
99.98
98
99.88
103.09
104.59
102.86
98.77
94.62
92.13
90.81
88.04
80.69
67.21
48.41
26.84
4.95
-16.16
-36.67
-56.89
-75.65
-90.18
-97.35
-95.63
-86.23
-72.58
-58.62
-46.96
-38.09
-30.72
-22.91
-12.79
1.13
20.01
44.5
73.82
105.18
133.6
153.24
159.59
151.15
129.7
98.9
62.3
22.41
-18.67
-58.03
-91.32
-113.93
-123.34
-120.67
-110.68
-99.56
-92.11
-89.73
-90.59
-91.26
-88.84
-82.4
-73.06
-63.14
-54.82
-49.37
-46.83
-46.43
-47.14
-48.19
-49.21
-49.81
-49.3
-46.78
-41.82
-35.04
-28.21
-23.29
-21.28
-21.42
-21.63
-19.79
-15.08
-8.37
-1.51
3.8
6.89
8.08
7.93
6.68
4.06
-0.13
-5.54
-11.11
-15.45
-17.61
-17.51
-15.96
-14.16
-13.27
-13.96
-16.35
-20.2
-24.97
-29.99
-34.47
-37.68
-39.13
-38.88
-37.54
-36.16
-35.72
-36.7
-38.8
-41.21
-43.06
-44.02
-44.52
-45.3
-46.5
-47.23
-45.8
-40.77
-32.21
-22.03
-13.03
-7.23
-4.34
-1.75
4.03
15.39
32.46
53.53
76.57
100.44
124.78
148.78
169.95
184.53
189.35
184.13
172.24
158.93
148.05
139.43
128.94
111.36
84.58
52.03
21.59
1.46
-4.47
1.26
11.13
17.14
15.07
6.17
-4.67
-12.91
-17.54
-21.31
-28.25
-40.39
-56.28
-72.12
-84.49
-92.58
-98.28
-104.37
-112.42
-121.93
-131.3
-139.43
-146.52
-153.19
-158.68
-160.01
-152.59
-132.4
-98.14
-51.93
1.86
57.93
112.1
161.67
204.97
240.67
267.55
284.86
293.01
293.65
288.58
279.94
269.55
258.16
244.75
226.39
199.48
161.33
111.6
52.12
-12.27
-75.05
-130.07
-173.84
-206.34
-229.88
-247.44
-261.84
-276.64
-294.2
-314.92
-336.53
-354.42
-362.89
-356.81
-333.86
-288.72
-226.03
-159.05
-103.84
-70.41
-58.72
-61.6
-70.57
-79.98
-87.54
-93.5
-97.19
-95.88
-85.45
-62.67
-27.64
16.85
65.48
112.36
152.07
182.22
203.95
220.7
235.75
250.21
263.8
274.69
281.24
282.85
281.32
280.51
284.89
297.72
318.96
346.18
373.1
391.09
391.61
369.6
325.55
265.6
199.01
128.69
60.85
1.63
-44.64
-76.23
-93.27
-96.59
-87.34
-67.92
-43.43
-19.44
-2.13
3.44
-5.3
-28.26
-63.61
-107.73
-155.17
-199.43
-233.21
-252.42
-258.69
-258.74
-261.58
-274.55
-299.27
-325.83
-340.38
-329.71
-288.87
-224.05
-147.86
-72.36
-8.55
43.01
82.11
106.34
113.38
103.1
78.99
48.79
23.92
14.76
25.74
51.69
81.3
103.24
113.64
114.53
111.93
112.99
123.12
144.65
175.38
209.61
239.93
259.17
261.96
247.08
217.93
180.58
141.8
106.43
77.07
54.73
39.62
31.24
28.66
30.19
32.94
33.57
29.23
18.97
4.22
-12.08
-27.22
-39.93
-50.86
-62.15
-76.3
-95.08
-119.09
-147.9
-180.37
-214.65
-247.57
-274.65
-291.35
-295.43
-289.35
-279.76
-274.32
-277.23
-286.46
-294.37
-291.83
-272.71
-236.75
-189.55
-138.92
-90.88
-47.77
-9.25
25.19
54.2
74.7
84.03
81.19
68.99
53.72
42.42
39.35
43.66
49.8
50.89
42.77
25.12
1.67
-22.48
-44.18
-64.3
-87.09
-117.22
-156.33
-192.11
-209.9
-198.87
-158.46
-98.14
-30.93
32.7
86.98
130.01
160.94
180.18
186.21
177.73
156.07
126.31
96.24
73.61
64.79
70.22
82.89
92.21
89.92
73.69
47.26
17.53
-8.95
-28.55
-40.19
-44.19
-41.54
-32.97
-19.32
-1.47
19.68
43.37
69.23
97.36
128.2
159.61
189.15
214
231.22
237.66
230.15
206.57
167.27
115.91
58.68
2.91
-45.54
-84
-113.65
-138.56
-162.27
-185.04
-202.13
-205.76
-188.6
-147.85
-86.94
-14.86
56.6
115.43
150.94
159.42
146.1
121.41
94.39
69.56
49.81
33.23
19.17
8.93
4.91
8.86
21.14
40.42
65.8
96.91
132.68
170.59
205.45
230.4
238.91
227.28
196.42
151.91
101.76
52.9
9.64
-26.99
-57.92
-84.63
-108.57
-131.04
-153.12
-175.25
-196.69
-214.63
-224.96
-223.94
-210.08
-185.3
-154.46
-123.38
-96.66
-76.43
-62.19
-52.21
-44.78
-38.99
-34.76
-32.06
-30.34
-28.51
-25.47
-20.79
-15.11
-9.97
-6.98
-7.03
-9.81
-13.93
-17.74
-20.1
-20.9
-20.89
-21.15
-22.27
-24.16
-26.19
-27.55
-27.69
-26.45
-23.88
-20.15
-15.46
-10.03
-4.24
1.5
6.8
11.5
15.61
19.19
22.21
24.48
25.75
25.83
24.74
22.72
20.17
17.53
15.15
13.25
11.9
11.02
10.47
10.07
9.68
9.15
8.36
7.18
5.47
3.17
0.4
-2.6
-5.49
-8.02
-10.14
-12.06
-14.17
-16.81
-20.03
-23.51
-26.6
-28.57
-28.92
-27.64
-25.2
-22.38
-19.89
-18.03
-16.59
-14.97
-12.75
-10.09
-7.82
-7.2
-9.24
-14.14
-21.06
-28.36
-34.33
-37.95
-39.29
-39.43
-39.89
-41.71
-44.96
-48.72
-51.66
-52.67
-51.31
-47.6
-41.4
-31.97
-18.08
1.03
24.69
50.68
76.23
99.37
119.72
138.03
154.37
166.59
170.19
160.42
135.3
97.91
56.21
20.01
-2.94
-9.89
-3.33
11.4
29.32
47.96
67.33
88.35
110.8
132.54
149.84
158.95
157.65
146.09
126.67
103.18
79.56
58.78
41.97
28.44
16.45
4.5
-7.7
-18.96
-27.57
-32.69
-35.22
-37.33
-41.01
-46.45
-51.48
-52.75
-47.84
-36.99
-23.32
-11.53
-5.74
-7.73
-16.46
-28.81
-41.03
-50.18
-55
-55.96
-54.68
-52.86
-51.53
-50.63
-49.28
-46.54
-42.21
-37.14
-32.86
-30.7
-31.04
-33.07
-35.17
-35.54
-33.04
-27.61
-20.23
-12.6
-6.42
-2.56
-0.76
0.38
2.62
7.17
14.15
22.77
31.83
40.38
47.5
51.68
50.14
39.15
15.3
-22.63
-72.49
-129.16
-186.39
-239.17
-285.16
-324.02
-355.49
-377.41
-385.13
-373.51
-340.06
-287.49
-223.64
-158.59
-100.24
-50.69
-6.23
38.92
87.05
133.35
167.25
178.03
162.01
126.38
87.28
62.63
64.3
93.59
142.03
197.08
247.74
287.36
312.9
322.47
314.35
288.58
249.05
203.92
162.59
131.03
108.47
87.88
59.97
18.08
-37.92
-101.39
-161.57
-207.63
-232.55
-235.1
-219.57
-194.09
-167.32
-144.8
-127.05
-109.71
-86.08
-51.39
-6.24
43.15
86.63
114.47
122.25
112.75
94.79
79.29
74.84
84.4
106.34
135.84
167.14
196.45
221.22
239.09
246.79
240.84
218.84
183.29
140.3
96.69
58.44
28.85
9.11
-0.37
1.16
13.61
37.42
70.69
100.56
113.51
100.45
62.4
10.31
-34.35
-65.38
-83.48
-92.31
-95.27
-93.92
-86.04
-68.31
-38.69
2.2
50.4
102.4
154.93
204.5
248.1
282.55
304.29
310
297.74
267.4
223.24
172.04
120.88
76.12
42.22
21.13
12.39
13.53
20.2
28.36
34.46
35.74
31.01
20.6
5.87
-11.65
-30.9
-51.62
-73.53
-95.98
-117.83
-137.38
-152.94
-163.42
-168.95
-170.77
-170.93
-171.68
-175.27
-183.86
-199.32
-222.1
-250.18
-278.49
-300.17
-309.36
-303.91
-286.38
-262.31
-236.97
-212.51
-187.62
-159.68
-127.64
-93.99
-64.15
-43.9
-36.65
-42.01
-56.46
-75.41
-95.02
-112.97
-128.09
-139.63
-146.53
-147.58
-141.99
-129.93
-113.11
-94.33
-76.47
-61.29
-48.52
-36.18
-22.05
-5.22
13.05
29.88
42.24
48.51
49.03
45.77
41.18
37.24
35.01
34.69
35.9
37.93
39.97
41.24
41.3
40.26
38.85
38.23
39.47
43.01
48.36
54.22
58.98
61.35
60.76
57.48
52.44
46.95
42.51
40.5
41.6
44.77
46.93
43.48
30.29
6.22
-25.23
-56.39
-78.18
-83.89
-72.1
-47.08
-16.38
12.58
35.48
51.78
63.35
72.31
79.45
84.06
85.05
82.15
76.51
70.43
66.28
65.37
67.44
71.02
74.1
75.15
73.49
68.75
60.06
45.86
24.7
-3.19
-34.93
-65.5
-89.94
-105.86
-114.52
-119.71
-125
-131.08
-134.98
-131.64
-116.97
-90.1
-53.76
-12.74
28.26
65.96
98.32
123.55
139.52
144.22
136.88
118.96
94.22
67.89
45.02
28.86
20.07
17.02
16.78
16.47
14.16
9.02
1.01
-9.84
-23.54
-39.77
-57.15
-72.76
-82.99
-85.23
-79.52
-68.99
-58.71
-53.27
-54.5
-60.92
-69
-75.51
-79.43
-82.09
-85.84
-92.22
-100.82
-109.46
-115.39
-116.5
-112.06
-102.6
-89.63
-75.19
-61.59
-50.86
-44.41
-42.68
-45.17
-50.88
-58.68
-67.54
-76.37
-83.91
-88.49
-88.32
-82.06
-69.45
-51.59
-30.61
-8.86
11.92
31.19
49.59
68.24
87.8
107.85
126.81
142.51
153.23
158.32
158.49
155.37
150.83
146.39
142.95
140.75
139.56
139.04
138.99
139.7
141.94
146.73
154.75
165.69
177.71
187.54
191.42
186.38
171.26
147.12
116.73
83.5
50.45
19.6
-7.96
-31.62
-50.81
-64.85
-73.34
-76.63
-75.9
-72.95
-69.46
-66.42
-63.97
-61.54
-58.35
-53.99
-48.72
-43.39
-39.06
-36.46
-35.55
-35.39
-34.48
-31.39
-25.53
-17.42
-8.65
-1.28
3.03
3.71
1.56
-1.44
-2.88
-0.81
5.39
14.66
24.56
32.21
35.46
33.78
28.58
22.56
18.51
17.96
20.39
23.51
24.42
21.23
13.99
4.76
-3.42
-7.77
-6.79
-0.5
9.65
20.83
29.41
30.5
19.21
-7.16
-46.75
-92.34
-133.42
-160.42
-168.87
-160.82
-143.77
-126.17
-113.02
-103.91
-94.14
-78.28
-53.31
-19.31
22.57
71.54
128
192.39
262.45
331.39
388.21
421.05
421.8
390.64
335.29
268.26
201.94
144.26
97.36
58.23
22.17
-18.63
-63.97
-107.38
-139.92
-155.53
-153.73
-138.73
-117.48
-96.54
-81
-73.52
-75.33
-86.11
-103.95
-125.61
-145.48
-157.86
-159.19
-149.81
-132.87
-113.25
-94.68
-77.72
-59.5
-36.04
-6.51
25.76
52.36
63.61
52.05
15.52
-41.42
-108.5
-172.11
-219.14
-240.24
-232.19
-198.12
-146.65
-89.35
-37.59
0.2
19.91
21.45
7.74
-16.81
-47.07
-77.74
-103.95
-122.12
-130.84
-131.29
-126.83
-121.24
-117.44
-115.81
-114.21
-109.02
-96.74
-75.45
-45.45
-9.2
29.38
65.69
95.51
115.95
126.34
128.75
127.72
128.86
136.21
149.97
165.69
176.24
175.77
163.32
144.09
126.83
119.14
123.16
134.75
146.32
151.76
149.99
144.81
141.78
143.99
149.99
154.84
153.4
143.4
126.41
106.36
86.99
70.05
55.1
40.7
25.83
10.72
-3.54
-15.87
-25.95
-34.36
-42.09
-50.05
-58.81
-68.74
-80.08
-92.92
-106.86
-120.7
-132.49
-140.08
-142.05
-138.53
-131.18
-122.6
-115.23
-110.5
-108.5
-108.4
-108.97
-109.15
-108.1
-105.15
-99.8
-91.87
-81.82
-70.82
-60.47
-52.24
-46.93
-44.4
-43.79
-44.14
-44.82
-45.67
-46.67
-47.47
-47.17
-44.58
-38.84
-29.89
-18.6
-6.47
4.89
14.34
21.4
26.34
29.84
32.85
36.11
39.58
42.15
41.82
36.61
25.68
10.18
-6.67
-20.38
-26.64
-22.52
-7.15
18.48
51.88
89.8
128.82
165.91
199.2
228.56
255.63
282.87
311.71
340.71
364.94
377.54
372.47
347.49
305.53
253.67
200.33
151.99
111.4
77.99
49.74
25.16
4.23
-12.39
-24.79
-34.92
-46.68
-64.61
-92.24
-130.68
-178.07
-229.47
-277.61
-314.23
-332.1
-327.21
-300
-255.06
-199.55
-141.15
-86.19
-38.53
0.57
31.52
55.41
73.48
86.9
96.65
103.3
106.99
108.01
107.01
104.28
98.73
87.64
67.46
35.48
-8.55
-61.84
-118.72
-171.94
-212.12
-232.1
-230.64
-212.74
-185.8
-155.95
-127.21
-103.27
-85.31
-74.85
-73.22
-79.75
-90.77
-100.14
-101.59
-91.29
-69.47
-42.3
-20.22
-12.49
-22.31
-45.68
-74.5
-99.79
-118.73
-131.29
-138.23
-139.76
-134.86
-122.12
-101.53
-74.63
-44.24
-13.89
14.01
38.47
59.99
80.48
101.61
123.98
146.88
168.76
187.84
203.38
215.73
226.16
237.12
250.5
267.39
288.28
313.14
340.98
369.36
393.66
407.9
407.03
387.56
349.18
295.12
231.13
163.48
97.28
35.51
-24.06
-78.96
-124.19
-154.42
-167.07
-163.52
-147.92
-125.34
-100.61
-77.32
-56.53
-39.97
-30.02
-29.03
-37.81
-54.6
-75.56
-96.99
-114.79
-126.7
-134.82
-144.58
-162.25
-191.69
-232.69
-281.12
-330.89
-373.63
-400.27
-403.83
-380.92
-333.21
-266.95
-191.89
-113.64
-42.75
11.52
45.11
58.8
58.59
50.37
39.6
31.71
31.78
42.07
61.99
87.05
109.53
121.14
116.32
94.93
62.06
25.25
-9.94
-41.17
-69.66
-98.36
-128.99
-160.31
-187.95
-206.42
-211.69
-203.13
-182.46
-152.67
-116.84
-77.56
-36.86
3.56
42.49
79.44
114.32
147.31
178.02
204.66
224.46
234.8
234.61
224.68
207.29
185.11
161.01
138.23
120.32
110.49
109.9
116.09
122.84
122.3
108.36
79.68
40.53
-0.88
-35.92
-58.84
-68.27
-66.95
-60.01
-52.84
-49.33
-51.04
-57.2
-65.47
-73.16
-78.28
-80.05
-78.9
-75.75
-71.72
-68.06
-66.16
-67.24
-71.8
-78.91
-86.14
-90.33
-88.84
-80.85
-67.7
-52.22
-37.19
-23.96
-12.15
-0.51
11.67
23.52
32.77
37.23
36.24
31.15
24.15
16.23
6.14
-8.54
-28.99
-52.68
-73.02
-81.74
-72.87
-45.52
-4.13
44
92.38
137.93
180.81
222.6
264.28
305.59
345.67
383.76
419.22
450.64
475.08
488.14
485.17
463.12
422.26
366.42
301.68
234.21
168.55
107.34
51.85
2.48
-40.73
-78.31
-111.45
-142
-172.22
-203.57
-234.97
-261.02
-274.33
-269.31
-245.56
-207.52
-161.75
-114.3
-69.1
-28.02
8.18
38.6
62.51
79.22
88.63
91.75
90.11
85.54
79.46
72.48
64.06
52.86
37.38
16.58
-6.96
-30.69
-52.22
-70.35
-85.44
-99.36
-114.55
-133.02
-155.35
-180.34
-206.07
-230.32
-251.67
-269.91
-286.09
-301.94
-319.44
-340.27
-364.79
-391.43
-415.6
-430.45
-428.49
-404.22
-356.63
-290.07
-213.44
-136.68
-67.57
-8.81
40.97
85.43
127.83
169.3
208.32
240.82
262.85
272.35
271.11
262.42
250.19
237.66
226.98
218.82
210.9
200.22
183.89
161.68
133.44
99.4
59.78
15.36
-32.56
-83.52
-135.79
-185.64
-226.39
-254.19
-268.95
-274.78
-277.28
-270.24
-248.48
-210.07
-172.16
-141.34
-119.99
-103.48
-88.26
-69.16
-40.47
-0.42
47.85
97.6
138.36
158.67
153.86
128.81
95.1
64.2
42.94
29.41
19.25
10.23
1.44
-5.93
-9.67
-7.48
2.18
18.92
41.61
69.97
104.81
145.22
187.39
223.76
245.39
245.61
223.93
187.78
150.42
125.1
118.46
128.61
147.53
166.43
180
186.95
187.25
179.23
158.65
120.67
63.69
-8.51
-87.22
-161.67
-222.56
-263.91
-282.82
-279.06
-255.03
-215.94
-169.42
-123.32
-83.05
-50.09
-22.6
2
24.64
43.7
56.47
61.62
60.71
57.79
57.05
60.51
66.95
72.61
73.11
65.66
50.13
28.92
5.89
-15.14
-31.55
-42.78
-50.32
-56.58
-63.44
-71.23
-78.35
-82.3
-81.23
-75.04
-65.73
-56.69
-51.39
-52.06
-59.03
-70.78
-84.57
-97.42
-106.92
-111.7
-111.28
-105.78
-95.41
-80.51
-61.69
-40.39
-19.19
-1.46
9.55
11.99
6.28
-4.89
-17.63
-28.25
-34.81
-37.6
-38.72
-40.96
-46.17
-54.26
-63.06
-69.16
-69.36
-62.04
-47.84
-29.24
-9.46
8.73
23.78
35.37
44.22
51.38
58.27
66.79
79.41
98.23
123.17
150.29
171.69
177.85
162.18
125.3
76.34
29.91
-0.79
-10.39
-3.57
8.39
14.84
11.84
3.73
-0.43
6.48
25.11
49.39
70.31
80.81
78.85
66.45
47.1
23.26
-4.23
-34.64
-65.74
-93.07
-110.76
-112.74
-95.46
-59.25
-8.49
49.43
106.02
153.87
188.54
209.46
220.77
228.34
237.76
253.16
276.56
307.59
343.17
377.18
401.97
411.48
401.91
373.59
330.87
280.61
229.72
182.87
141.59
97.13
46.21
-8.81
-60.51
-100.61
-124.97
-135.19
-135.46
-132.98
-132.41
-133.99
-136.51
-138.95
-141.84
-147.09
-156.86
-172.84
-196.06
-226.46
-262.29
-301.32
-340.23
-373.94
-395.69
-398.23
-376.26
-329.16
-261.69
-182.66
-103.23
-33.58
19.6
54.25
72.6
79.66
81.28
82.68
87.43
96.51
108.43
120.19
128.27
129.85
123.3
108.76
88.51
66.6
47.78
35.57
30.43
28.86
24.72
12.4
-9.82
-38
-64.3
-81.14
-85.54
-80.96
-75.49
-77.19
-89.6
-109.97
-130.96
-144.76
-147.22
-139.69
-127.88
-119.11
-119.12
-130.44
-152.31
-181.15
-211.57
-237.3
-252.85
-255.34
-246.04
-230.16
-214.5
-204.08
-199.32
-196.06
-188.1
-171.15
-145.59
-116.38
-90.08
-71.18
-59.93
-52.98
-46.04
-36.78
-25.86
-16.02
-10
-8.71
-10.67
-12.94
-12.21
-6.31
4.97
19.99
35.87
49.77
59.75
65.3
67.38
68.02
69.62
74.82
86.29
106.29
135.88
173.12
211.78
241.58
251.24
233
187.01
122.9
56.84
6.33
-16.6
-8.79
24.69
74.25
129.47
181.09
221.23
243.49
245.02
227.22
196.86
164.87
143.3
141.37
162.54
204.13
259.59
322.59
386.33
443.49
485.83
505.56
497.61
461.81
404.05
335.5
271.81
226
203.95
202.28
210.66
216.82
211.3
191.06
147.14
81.64
4.99
-68.46
-127.92
-169.68
-195.04
-206.71
-206.26
-194.9
-173.04
-143.76
-111.91
-84.27
-66.04
-58.99
-61.98
-72.05
-86.14
-100.75
-114.5
-128.4
-145.17
-167.88
-195.65
-227.38
-261.84
-297.69
-331.82
-359.93
-377.26
-380.01
-366.83
-339.61
-303.44
-264.26
-226.45
-190.88
-155.76
-118.62
-78.48
-36.73
3.34
37.43
61.91
75.03
77.37
71.65
61.99
52.97
48.2
49.25
55.02
62.11
66.08
62.57
48.44
22.98
-11.05
-47.03
-75.75
-88.53
-81.36
-57.48
-27.17
-3.7
2.47
-11.84
-41.82
-77.99
-111.31
-137.47
-157.59
-175.82
-195.27
-215.12
-230.4
-234.31
-221.79
-192.3
-150.53
-104.43
-62.17
-28.82
-4.81
13.04
29.05
46.07
64.23
81.56
96.04
106.87
115.29
123.63
133.79
146.15
159.12
169.69
174.4
170.83
158.08
137.82
114.01
91.93
76.36
69.75
70.79
74.56
74.34
63.31
37.81
-1.29
-48.5
-95.12
-131.88
-151.93
-153
-137.54
-112.41
-85.13
-61.29
-42.72
-27.26
-10.61
10.88
35.18
60.79
80.15
86.29
75.93
51.31
19.54
-10.49
-31.97
-42.88
-45.56
-45.57
-47.2
-51.53
-56.48
-58.69
-55.87
-48.09
-37.3
-25.55
-14.73
-5.39
2.78
10.38
18.45
28.98
44.96
69.6
104.67
147.97
193.01
230.1
249.41
244.82
216.52
171.43
121.11
78.55
54.39
54.62
79.13
121.71
171.59
216.06
243.78
247.74
227.12
186.77
135.2
81.35
32
-9.32
-42.03
-67.06
-85.85
-99.76
-110.2
-118.67
-126.57
-134.64
-142.52
-148.96
-152.35
-151.58
-146.64
-138.67
-129.52
-121.07
-114.57
-110.25
-107.5
-105.29
-102.81
-99.85
-96.87
-94.65
-93.91
-94.82
-96.85
-98.91
-99.84
-98.88
-95.97
-91.54
-86.05
-79.47
-71.15
-60.31
-46.72
-31.1
-14.67
1.56
17.72
35.17
55.71
80.46
109.28
141.09
174.76
209.32
243.38
273.88
295.52
301.76
287.36
250.97
196.26
130.8
63.27
0.67
-52.89
-95.8
-127.63
-148.1
-157.05
-155.2
-144.61
-128.48
-110.21
-92.12
-75.13
-58.93
-42.74
-26.18
-9.67
5.77
19.02
29.44
37.12
42.75
47.28
51.38
55.22
58.51
60.81
61.75
61.22
59.43
56.73
53.58
50.48
47.85
45.78
43.89
41.28
36.75
29.25
18.47
5.14
-8.9
-21.26
-29.86
-33.69
-33.21
-30.09
-26.44
-23.91
-23.2
-24.04
-25.74
-27.78
-30
-32.31
-34.38
-35.4
-34.42
-30.92
-25.33
-19.06
-13.92
-11.31
-11.62
-14.16
-17.59
-20.55
-22.13
-22.09
-20.92
-19.6
-19.23
-20.76
-24.79
-31.24
-39.5
-48.27
-55.99
-61.53
-64.86
-67.02
-69.77
-74.76
-82.41
-91.74
-100.4
-105.65
-105.82
-101.24
-93.92
-86.52
-81.35
-79.2
-79.39
-79.75
-77.26
-69
-53.05
-28.92
2.35
38.03
74.25
104.11
120.66
120.98
107.36
85.17
59.98
37.21
18.02
2.92
-7.72
-13.48
-13.32
-6.03
8.94
31.75
61.36
94.32
124.81
145.23
148.95
134.02
103.6
64.02
22.25
-15.86
-46.46
-66.52
-73.15
-63.83
-36.68
6.96
59.47
107.42
136.94
140.38
120.18
90.08
59.42
33.42
14.19
2.41
-1.72
3.98
22.05
53.42
95.14
139.47
176.14
195.2
190.23
160.72
112.52
55.31
-0.98
-49.84
-86.34
-107.71
-113.83
-106.75
-89.29
-63.86
-32.73
1.72
36.37
68.05
94.34
113.94
127.23
135.07
138.39
137.9
133.98
126.2
114.08
97.17
75.4
49.18
19.02
-14.84
-53.27
-94.83
-138.95
-184.15
-227.37
-263.88
-288.63
-298.42
-293.69
-278.63
-259.17
-240.55
-224.6
-209.95
-194
-175.37
-155.12
-135.89
-119.63
-105.69
-91.19
-72.57
-48.25
-19.91
8.25
31.69
47.85
57.08
62
65.46
69.28
73.23
76.15
77.41
78.07
80.69
87.92
100.69
117.1
133.08
143.49
145.26
138.92
128.57
119.3
114.21
112.78
111.62
107.04
96.15
79.37
60.09
42.93
30.88
23.44
16.85
6.45
-10.78
-37
-72.34
-115.66
-164.85
-217.7
-272.11
-325.94
-376.19
-406.42
-402.81
-360.17
-286.44
-198.03
-110.99
-34.9
27.67
78.43
120.8
155.26
181.76
197.89
201.4
191.31
167.65
131.24
83.98
29.86
-23.11
-64.69
-86.87
-86.89
-68.55
-40.97
-14.64
2.97
10.11
8.93
3.24
-4.59
-13.96
-25.25
-38.84
-54.06
-68.87
-80.22
-86.54
-86.9
-82.3
-74.9
-66.65
-59.34
-53.89
-50.13
-46.83
-42.62
-36.47
-28.6
-19.74
-9.65
2.33
16.99
33.92
50.82
64.05
70.74
71.16
66.44
63.23
69.3
89.38
122.65
163.3
203.97
239.49
268.5
292.34
312.72
328.43
335.36
328.89
307.29
273.65
235.06
199.45
171.95
153.11
138.52
122.04
99.53
71.27
41.5
15.47
-4.22
-19.4
-35
-56.27
-85.92
-123.04
-164.14
-204.92
-241.39
-269.56
-284.6
-281.2
-256.14
-211.42
-155.53
-101.42
-61.39
-42.07
-42.3
-55.16
-72.92
-91.6
-112.55
-140.16
-177.34
-221.77
-265.37
-297.24
-308.41
-295.75
-263.16
-219.3
-173.72
-133.27
-100.57
-74.54
-52.67
-32.85
-14.55
2.25
18.32
35.96
58.32
87.58
123.36
161.99
197.28
222.02
230.55
220.24
192.72
153.82
112.06
76.03
51.5
39.85
38.52
43.42
50.97
59.84
70.71
84.76
102.01
120.78
138.65
154.14
168.17
182.93
200.83
223.56
251.32
282.57
313.86
340.14
355.62
355.96
338.71
304.44
256.53
199.89
139.43
79.11
22
-32.58
-80.61
-115.9
-133.22
-131.64
-115.54
-92.28
-68.62
-48.23
-31.13
-14.55
3.12
20.95
35.62
42.67
37.84
18.2
-17.41
-67.68
-127.41
-188.72
-241.75
-277.02
-288.6
-277.04
-249.84
-219.3
-197.77
-192.77
-205.54
-232.11
-266.83
-305.4
-345.35
-384.02
-415.97
-432.32
-423.29
-383.44
-315.4
-230.22
-143.62
-69.76
-15.98
18.85
42.04
62.7
87.13
117.36
151.92
187.79
221.82
250.91
271.76
281.34
278.53
265.29
246.87
229.58
217.21
208.4
196.77
174.38
136.62
85.65
29.82
-20.44
-58.31
-84.03
-104.56
-129.52
-165.82
-213.91
-267.3
-315.72
-349.67
-364.24
-360.42
-343.41
-319.24
-291.93
-262.33
-229.18
-191.46
-150.1
-108.05
-68.82
-34.73
-6.53
15.58
30.3
34.95
27.14
7.31
-19.57
-44.95
-59.8
-58.5
-40.56
-9.99
27.61
68
109.48
151.92
194.76
235.72
271.05
297.52
314.25
323.52
329.85
338.11
351.45
370.07
391.16
409.87
420.84
419.86
405.23
378.48
344.11
308.35
276.95
253.13
236.29
222.36
205.77
182.11
150.28
112.54
73.22
36.45
4.36
-23.25
-48.14
-72.47
-97.81
-124.64
-152.43
-179.73
-204.57
-225.1
-240.15
-249.88
-255.51
-258.27
-258.41
-255.08
-247.54
-236.64
-225.55
-218.45
-218.13
-223.82
-231.25
-234.91
-231.05
-219.33
-202.09
-181.96
-159.79
-134.62
-105.12
-71.64
-36.83
-4.46
22.68
44.06
61.16
76.08
90
102.88
113.97
122.5
128.32
131.85
133.77
134.8
135.42
135.73
135.39
133.48
128.97
121.32
111.09
100.11
90.95
85.73
85.01
87.72
91.63
94.75
96.45
97.99
101.92
110.86
125.86
145.64
166.95
185.42
196.94
198.56
188.75
167.61
136.87
99.81
61.08
26.15
-0.67
-17.73
-27.34
-35.04
-47.1
-67.64
-96.92
-131.53
-165.9
-193.83
-209.06
-207.97
-191.58
-164.57
-132.12
-97.67
-64.45
-32.29
-2.38
22.39
38.27
42.06
32.13
8.51
-27.01
-70.88
-117.29
-158.91
-188.14
-199.65
-192.47
-170.28
-139.72
-107.09
-75.63
-44.43
-10.68
27.42
68.06
105.44
132.13
141.98
132.65
105.92
66.65
20.51
-27.18
-72.45
-112.59
-145.82
-171.12
-188.64
-200.09
-208.92
-219.53
-235.36
-256.99
-280.93
-300.49
-308.32
-299.74
-274.95
-238.89
-198.78
-160.92
-128.27
-100.37
-74.93
-50.15
-25.97
-3.66
15.66
32.41
48.52
66.17
85.82
105.51
121.67
131.3
133.62
130.11
123
113.2
99.24
78.2
48.18
10.62
-29.03
-62.9
-83.75
-87.95
-76.44
-53.59
-24.36
8.14
43.46
82.16
123
160.97
187.88
195.71
180.68
145.87
100.48
56.11
22.24
4.07
2.72
17.07
45.07
82.98
123.92
157.53
172.76
162.73
128.84
81.28
35.26
4.82
-2.59
11.6
38.52
65.72
81.75
79.86
59.87
27.55
-7.7
-36.28
-51.58
-51.6
-38.73
-18.2
3.86
21.66
30.49
27.37
11.68
-14.4
-46
-76.84
-101.21
-115.77
-120.36
-117.67
-112.07
-108.14
-109.24
-116.39
-127.63
-138.37
-142.87
-136.55
-118.03
-89.73
-56.68
-24.12
4.67
29.27
51.34
73.41
97.81
126.03
158.24
192.57
224.26
245.72
248.45
226.73
181.37
121.06
59.76
11
-17.95
-28.67
-29.19
-28.26
-30.13
-33.18
-32.59
-24.85
-10.85
4.57
15.87
20.15
18.31
13.74
9.85
8.53
10.58
17.29
30.94
53.48
84.19
118.27
148.12
166.73
171.16
163.8
150.62
137.51
127.32
118.97
109.38
96.61
82.17
70.8
67.84
75.81
92.16
109.51
118.87
113.99
94.83
68.03
43.86
30.93
31.48
39.88
46.07
41.46
23.97
-1.12
-25.01
-41.25
-49.28
-53.65
-59.7
-68.69
-76.47
-76.32
-64.17
-42.22
-18.51
-2.49
0.01
-10.51
-28.19
-45.9
-59.49
-69.68
-80.8
-97.7
-122.57
-153.98
-187.36
-216.77
-236.67
-242.87
-232.63
-204.66
-159.44
-100.36
-34.48
27.61
73.78
93.6
82.46
44.08
-10.08
-64.88
-107.78
-133.86
-146.92
-155.99
-169.23
-188.57
-208.66
-220.73
-217.99
-199.68
-170.84
-138.51
-107.35
-77.47
-45.45
-7.99
34.97
79.7
120.92
155.01
182
205.06
228.05
252.8
278.01
300.06
315.09
320.7
316.45
302.72
279.76
247.43
206.46
160.28
115.43
79.57
58.08
51.29
54.25
59.71
62.32
61.8
62.83
71.64
91.37
118.92
145.59
160.87
157.26
133.32
93.62
45.83
-2.92
-48.38
-89.62
-127.7
-163.68
-197.35
-226.84
-249.62
-264.14
-271.65
-276.35
-284.06
-299.38
-322.47
-347.59
-364.63
-363.41
-338.42
-291.73
-231.92
-170.07
-114.86
-69.64
-32.61
0.83
34.95
71.92
111.31
150.76
186.67
215.22
233.38
239.86
235.81
224.36
209.8
196.09
185.93
180.5
179.29
180.44
180.82
176.59
164.41
143.3
115.73
87.24
64.24
51.19
48.79
54.23
63.42
73.34
83.37
94.61
107.96
122.61
135.75
143.85
144.33
136.65
122.12
102.88
80.58
55.89
28.81
-0.67
-31.83
-63.2
-92.95
-119.85
-143.79
-165.78
-187.04
-207.99
-227.62
-243.68
-253.69
-256.11
-251.1
-240.35
-226.26
-211.04
-196.11
-182.27
-170.08
-160.15
-152.96
-148.55
-146.21
-144.74
-142.93
-140.05
-135.96
-130.74
-124.43
-116.86
-107.85
-97.66
-87.11
-77.53
-70.27
-66.31
-65.93
-68.67
-73.41
-78.68
-83.08
-85.72
-86.68
-87.04
-88.56
-92.82
-100.45
-110.81
-122
-131.47
-136.41
-134.25
-123.24
-103.42
-77.4
-50.25
-28.04
-15.39
-13.16
-17.67
-22.16
-19.88
-6.99
16.1
45.59
76.55
105.27
130.16
151.37
169.73
185.96
200.68
214.57
228.63
243.88
260.66
277.73
292.01
298.71
292.38
268.65
226.07
167.47
100.11
34.23
-19.48
-52.71
-61.65
-47.59
-16.13
24.46
65.19
97.97
116.61
117.53
100.11
66.66
21.94
-27.39
-73.89
-110.91
-134.22
-143.29
-141.3
-133.71
-125.94
-120.87
-118.02
-114.28
-105.91
-90.5
-67.78
-39.08
-6.39
28.17
62.09
92.2
114.96
127.97
131.49
128.8
124.95
124.19
128.1
135.57
144.46
153.83
165
180.55
201.93
227.71
253.56
274.15
285.74
287.63
281.82
271.33
258.63
245.14
231.86
219.99
210.98
205.51
202.53
198.91
190.6
174.37
149.33
117.22
81.37
45.24
11.17
-19.93
-48.06
-73.47
-96.18
-115.97
-132.62
-146.16
-156.93
-165.42
-172.17
-177.64
-182.43
-187.54
-194.64
-205.79
-222.69
-245.56
-272.38
-299.06
-320.68
-333.27
-335.12
-327.04
-311.67
-292.19
-271.41
-251.54
-234.26
-220.89
-212.09
-207.27
-204.33
-200.14
-192
-179.36
-164.81
-153.27
-149.84
-157.51
-175.61
-200.05
-224.75
-243.63
-252.17
-248.05
-231.07
-202.83
-166.17
-124.76
-82.41
-42.08
-4.91
30.17
65.86
104.61
146.46
187.61
220.8
237.45
231.46
202.64
158.08
110.27
72.3
52.59
51.78
63.51
78.38
89.08
93.7
95.53
100.21
112.11
132.33
158.87
188.05
215.84
238.59
252.84
255.55
245.21
223.32
195.26
169.07
152.59
150.05
160.06
176.14
189.54
193.23
184.49
165.34
140.72
115.75
93.59
75.08
59.38
45.38
32.75
21.75
12.55
4.39
-5.04
-19.32
-42.19
-75.68
-118.66
-166.21
-210.94
-245.38
-264.18
-265.17
-248.97
-218.05
-176.34
-129.66
-85.88
-54.09
-41.75
-51.13
-77.27
-109.15
-133.6
-140.31
-125.48
-92.47
-49.75
-7.54
25.5
44.67
49.93
45.35
37.09
30.87
29.81
33.19
37.01
35.83
25.3
4.16
-24.83
-55.68
-81.03
-94.38
-92.01
-73.88
-43.38
-6.24
31.19
63.35
86.33
98.15
98.91
90.6
76.93
62.65
52.31
48.8
52.22
59.93
67.72
71.65
69.51
61.64
50.47
39.13
30.14
24.51
21.94
21.74
23.66
28.01
35.08
44.22
53.72
61.49
66.05
66.97
64.47
58.68
49.3
36.26
20.6
4.65
-8.83
-18.18
-23.82
-27.82
-32.31
-37.76
-42.85
-45.63
-45.3
-43.23
-42.11
-44.04
-48.97
-54.63
-58.12
-57.82
-54.37
-49.98
-46.98
-46.35
-47.43
-48.62
-48.42
-46.07
-41.7
-36
-29.76
-23.72
-18.34
-13.81
-9.96
-6.45
-2.87
0.93
4.75
8.1
10.49
11.68
11.78
11.16
10.19
9.12
8.01
6.81
5.49
4.11
2.89
1.91
1
-0.41
-2.91
-6.72
-11.37
-15.88
-19.21
-20.86
-21.2
-21.24
-21.9
-23.48
-25.29
-26.15
-25.02
-21.65
-16.62
-10.91
-5.35
-0.27
4.49
9.15
13.73
17.88
20.99
22.45
22.03
20.04
17.24
14.49
12.46
11.35
10.89
10.54
9.82
8.47
6.61
4.59
2.83
1.61
0.92
0.58
0.28
-0.21
-1.05
-2.23
-3.7
-5.45
-7.5
-9.82
-12.25
-14.37
-15.63
-15.5
-13.68
-10.29
-5.77
-0.76
4.14
8.56
12.28
15.26
17.48
18.93
19.53
19.26
18.16
16.37
14.17
11.88
9.89
8.42
7.56
7.14
6.88
6.52
5.92
5.2
4.59
4.31
4.39
4.7
4.91
4.71
3.88
2.35
0.21
-2.37
-5.19
-8
-10.48
-12.25
-12.9
-12.14
-9.98
-6.72
-2.85
1.09
4.75
8.05
11
13.61
15.7
16.99
17.28
16.64
15.4
14.05
12.98
12.3
11.92
11.63
11.28
10.88
10.53
10.34
10.25
10.13
9.75
8.92
7.54
5.65
3.45
1.21
-0.79
-2.41
-3.69
-4.87
-6.23
-7.91
-9.77
-11.31
-11.94
-11.15
-8.77
-5.11
-0.78
3.5
7.2
10.07
12.19
13.84
15.33
16.89
18.52
20.04
21.14
21.53
21.01
19.75
18.13
16.71
15.94
15.95
16.54
17.2
17.38
16.72
15.24
13.31
11.5
10.35
10.16
10.89
12.09
13
12.72
10.58
6.48
1.05
-4.46
-8.64
-10.42
-9.54
-6.44
-1.94
3.3
9.12
15.81
23.79
32.95
42.47
50.97
57.11
60.18
60.42
58.92
57.06
56.03
56.4
58.24
61.09
63.86
64.48
59.87
46.69
22.99
-9.99
-47.28
-81.38
-105.3
-115.74
-114.57
-107.67
-101.74
-100.96
-105.35
-111.64
-115.78
-115.38
-110.63
-103.43
-95.64
-87.99
-80
-70.99
-61.17
-52.02
-45.46
-42.46
-41.88
-40.62
-35.02
-22.92
-5.36
13.53
28.17
34.16
30.38
19.35
5.8
-5.64
-12.19
-13.42
-10.23
-3.64
5.8
17.51
29.91
40.08
44.43
40.32
27.28
7.29
-15.99
-38.77
-58.33
-73.24
-83.04
-87.63
-86.93
-81.01
-70.44
-56.16
-39.08
-19.58
2.66
28.14
56.76
87.33
117.74
145.74
169.9
190.21
208.08
225.65
244.89
266.55
290.03
313.62
335.1
352.23
363.33
367.64
365.25
356.83
342.96
324.1
300.57
272.8
241.53
207.96
173.76
140.84
110.95
84.72
62.31
43.71
28.88
17.6
9.24
2.77
-3.22
-10.24
-21.15
-37.65
-59.48
-84.67
-110.64
-135.42
-157.84
-177.26
-193.1
-207.92
-222.9
-236.94
-247.45
-252.49
-252.48
-249.95
-248.23
-250.02
-261.99
-287.56
-325.35
-370.23
-416.64
-461.38
-503.78
-544.76
-585.83
-635.29
-697.86
-770.94
-844.37
-904.67
-940.73
-947.05
-924.93
-838.2
-678.35
-466.5
-244.47
-50.19
98.55
201.59
267.04
304.48
322.85
323.18
307.9
282.72
254.19
229.12
210.3
197.04
187.79
181.97
174.68
163.28
148.41
133.47
122.14
116.5
117.79
125.74
141.28
162.7
189.65
223.49
266.01
316.47
369.26
414.55
441.43
442.48
414.93
363.84
300.33
237.33
184.81
147.13
124.12
113.88
115.47
128.52
152.67
185.88
223.39
258.24
283.01
292.26
284.22
261.35
229.12
194.16
162.52
138.03
121.58
111.51
105.13
100.23
96.13
93.2
92.08
92.92
94.94
96.5
95.53
90.4
80.08
64.02
41.73
12.98
-21.41
-59.49
-98.79
-137.32
-173.88
-208.37
-241.44
-273.77
-304.72
-330.93
-346.68
-346.14
-325.64
-285.2
-228.92
-164.1
-99.6
-47.85
-19.05
-15.7
-32.44
-60.54
-92.36
-123.08
-150.13
-172.08
-188.26
-198.12
-200.77
-196.28
-185.98
-171.62
-154.63
-135.64
-114.48
-90.39
-63.2
-32.62
0.75
35.45
69.99
103.9
137.99
173.61
210.94
247.72
278.57
295.64
291.29
261.41
207.64
137.25
61.03
-9.53
-64.48
-96.91
-104.08
-87.69
-53.43
-9.39
36.06
76.59
109.21
134.06
152.86
167.02
176.89
182.31
183.35
180.63
174.79
165.93
153.91
139.71
126.49
119.32
122.96
139.11
164.77
193.11
216.47
229.32
230.2
221.48
207.71
193.6
182.52
175.51
171.04
165.6
155.12
137.18
112.72
86.12
63.11
47.5
38.75
32.02
21.13
2.45
-22.76
-49.04
-70.07
-82.39
-87.26
-89.65
-95.24
-107.18
-124.62
-143.38
-158.43
-166.33
-166.83
-162.73
-158.66
-159.33
-167.89
-185.67
-211.98
-243.89
-276.13
-301.52
-312.94
-306.19
-282.54
-249.48
-218.7
-201.99
-206.57
-232.1
-270.82
-310.42
-338.23
-345.26
-328.21
-289.37
-234.67
-171.23
-104.91
-39.31
23.82
83.16
136.28
179.74
210.33
227.05
231.7
227.91
219.53
208.99
197.01
183.36
167.78
150.72
133.36
117.26
104.03
94.98
90.58
89.69
89.27
84.98
72.68
50.3
19.13
-16.51
-50.89
-78.97
-97.9
-107.48
-109.64
-107.42
-104.05
-102.14
-103.18
-107.25
-113.24
-119.42
-124.38
-127.49
-128.92
-129.27
-129.21
-128.97
-128.4
-127.11
-124.76
-121.57
-118.46
-117.06
-119.16
-125.78
-136.27
-148.08
-157.41
-160.41
-154.65
-139.98
-118.39
-93.22
-67.88
-45.13
-26.67
-12.94
-3.16
4.8
14.36
29.69
54.37
89.62
132.38
175.19
208.05
222.39
214.96
190.18
159.21
135.81
130.82
147.76
181.76
222.03
256.55
276.44
278.37
264.01
237.89
204.92
169.25
134.09
102.11
75.75
56.87
46.17
42.67
43.84
46.14
45.97
40.47
28.19
9.42
-13.46
-36.45
-55.11
-66.56
-71.12
-72.28
-74.97
-83.06
-97.32
-115.64
-135.2
-155.21
-177.97
-207.18
-244.31
-285.57
-321.83
-342.04
-338.5
-310.89
-266.57
-217.12
-173.14
-140.49
-119.43
-106.69
-98.4
-92.14
-86.98
-82.15
-75.47
-63.48
-42.78
-12.07
26.52
67.57
103.52
126.8
131.95
117.17
85.02
42.05
-2.7
-39.82
-61.91
-65.39
-50.89
-22.17
15.6
57.79
101.5
145.49
189.31
232.31
273.18
309.6
338.21
355.02
356.48
340.94
310.13
269.73
228.11
193.32
169.72
156.21
147.14
135.64
117.38
92.49
64.39
36.93
11.44
-13.95
-42.57
-76.29
-113.91
-151.94
-186.7
