2023-01-27 11:16:40.085821,-0.013967554084956622
2023-01-27 11:16:40.090821,-0.007460016148643412
2023-01-27 11:16:40.095821,-0.011587540619075172
2023-01-27 11:16:40.100821,-0.01371748780533492
2023-01-27 11:16:40.105821,-0.010000864975154263
2023-01-27 11:16:40.110821,-0.0068543885739533504
2023-01-27 11:16:40.115821,-0.007380445953458457
2023-01-27 11:16:40.120821,-0.007225130939410907
2023-01-27 11:16:40.125821,-0.003966689109802256
2023-01-27 11:16:40.130821,-0.0011931815820087337
2023-01-27 11:16:40.135821,-0.0012260675430297331
2023-01-27 11:16:40.140821,-0.0012079864240289737
2023-01-27 11:16:40.145821,0.0010337432613595514
2023-01-27 11:16:40.150821,0.0032733707374877005
2023-01-27 11:16:40.155821,0.003630121704190903
2023-01-27 11:16:40.160821,0.003869613498342886
2023-01-27 11:16:40.165821,0.005336999893188382
2023-01-27 11:16:40.170821,0.0060461008029406476
2023-01-27 11:16:40.175821,0.004447500221431246
2023-01-27 11:16:40.180821,0.002246349727099054
2023-01-27 11:16:40.185821,0.0009856622200458674
2023-01-27 11:16:40.190821,-0.0006506141080647581
2023-01-27 11:16:40.195821,-0.003606081008911076
2023-01-27 11:16:40.200821,-0.005599160669786651
2023-01-27 11:16:40.205821,-0.0038705270271748304
2023-01-27 11:16:40.210821,0.0018894670567356116
2023-01-27 11:16:40.215821,0.011130770668387394
2023-01-27 11:16:40.220821,0.023523444462414375
2023-01-27 11:16:40.225821,0.035604041069745976
2023-01-27 11:16:40.230821,0.03892589998702209
2023-01-27 11:16:40.235821,0.02468963526189317
2023-01-27 11:16:40.240821,-0.010673671391470158
2023-01-27 11:16:40.245821,-0.06507774442434304
2023-01-27 11:16:40.250821,-0.13220070084918004
2023-01-27 11:16:40.255821,-0.20059427618980397
2023-01-27 11:16:40.260821,-0.2547628157760113
2023-01-27 11:16:40.265821,-0.2820436358451843
2023-01-27 11:16:40.270821,-0.27893472837088057
2023-01-27 11:16:40.275821,-0.24975717067718495
2023-01-27 11:16:40.280821,-0.2017866936355959
2023-01-27 11:16:40.285821,-0.14438748359680165
2023-01-27 11:16:40.290821,-0.08969861553847308
2023-01-27 11:16:40.295821,-0.048201285302638966
2023-01-27 11:16:40.300821,-0.022316113655582
2023-01-27 11:16:40.305821,-0.007067918777465806
2023-01-27 11:16:40.310821,0.0026641399954937294
2023-01-27 11:16:40.315821,0.008053581230342362
2023-01-27 11:16:40.320821,0.009170307212849293
2023-01-27 11:16:40.325821,0.008197824470698823
2023-01-27 11:16:40.330821,0.008014091136340946
2023-01-27 11:16:40.335821,0.009544095024466522
2023-01-27 11:16:40.340821,0.012169002522476316
2023-01-27 11:16:40.345821,0.015626352280378356
2023-01-27 11:16:40.350821,0.020215487193415645
2023-01-27 11:16:40.355821,0.025867622345685983
2023-01-27 11:16:40.360821,0.03213463492671732
2023-01-27 11:16:40.365821,0.03887355327606203
2023-01-27 11:16:40.370821,0.04638822415744287
2023-01-27 11:16:40.375821,0.055149000138044316
2023-01-27 11:16:40.380821,0.06568194562031707
2023-01-27 11:16:40.385821,0.078396201133728
2023-01-27 11:16:40.390821,0.09318869762936494
2023-01-27 11:16:40.395821,0.10933637619018555
2023-01-27 11:16:40.400821,0.12582775180393987
2023-01-27 11:16:40.405821,0.14164686203002913
2023-01-27 11:16:40.410821,0.15588354387953912
2023-01-27 11:16:40.415821,0.1679231822490691
2023-01-27 11:16:40.420821,0.17747918014077638
2023-01-27 11:16:40.425821,0.18412649631500239
2023-01-27 11:16:40.430821,0.18684226891430106
2023-01-27 11:16:40.435821,0.18424670398235315
2023-01-27 11:16:40.440821,0.17525276797550718
2023-01-27 11:16:40.445821,0.15946090221405015
2023-01-27 11:16:40.450821,0.13739182842700426
2023-01-27 11:16:40.455821,0.11080285161733618
2023-01-27 11:16:40.460821,0.08257246605705154
2023-01-27 11:16:40.465821,0.055774055421352386
2023-01-27 11:16:40.470821,0.032685901174263815
2023-01-27 11:16:40.475821,0.014544527046382427
2023-01-27 11:16:40.480821,0.0017000177556622778
2023-01-27 11:16:40.485821,-0.00639478396624321
2023-01-27 11:16:40.490821,-0.01102118792212847
2023-01-27 11:16:40.495821,-0.013510784134268676
2023-01-27 11:16:40.500821,-0.014691001365649313
2023-01-27 11:16:40.505821,-0.015049378387629915
2023-01-27 11:16:40.510821,-0.015061649668742821
2023-01-27 11:16:40.515821,-0.015049378387629844
2023-01-27 11:16:40.520821,-0.01499071949847665
2023-01-27 11:16:40.525821,-0.014784932136535625
2023-01-27 11:16:40.530821,-0.014489934448184395
2023-01-27 11:16:40.535821,-0.014063715934753411
2023-01-27 11:16:40.540821,-0.013153769222391754
2023-01-27 11:16:40.545821,-0.011443297378718803
2023-01-27 11:16:40.550821,-0.00900811475693358
2023-01-27 11:16:40.555821,-0.006130337715148862
2023-01-27 11:16:40.560821,-0.0030366353011075705
2023-01-27 11:16:40.565821,-4.8081081331398914e-05
2023-01-27 11:16:40.570821,0.0023271088300556263
2023-01-27 11:16:40.575821,0.0037743649445474052
2023-01-27 11:16:40.580821,0.004460923070603698
2023-01-27 11:16:40.585821,0.004735986702144127
2023-01-27 11:16:40.590821,0.004776824022611313
2023-01-27 11:16:40.595821,0.0047119460068643
2023-01-27 11:16:40.600821,0.004781834856413866
2023-01-27 11:16:40.605821,0.005096594803035155
2023-01-27 11:16:40.610821,0.005452015687997525
2023-01-27 11:16:40.615821,0.005601446144282799
2023-01-27 11:16:40.620821,0.005470797524738676
2023-01-27 11:16:40.625821,0.0049042701721191025
2023-01-27 11:16:40.630821,0.003487223952656071
2023-01-27 11:16:40.635821,0.000937581062316743
2023-01-27 11:16:40.640821,-0.0024007400072667525
2023-01-27 11:16:40.645821,-0.005481243133544884
2023-01-27 11:16:40.650821,-0.006663525099663142
2023-01-27 11:16:40.655821,-0.0038945674896239475
2023-01-27 11:16:40.660821,0.004445227029508165
2023-01-27 11:16:40.665821,0.017910202965140305
2023-01-27 11:16:40.670821,0.03272475373871817
2023-01-27 11:16:40.675821,0.04207094758748998
2023-01-27 11:16:40.680821,0.037898587339415785
2023-01-27 11:16:40.685821,0.013582905754446898
2023-01-27 11:16:40.690821,-0.03314648723752935
2023-01-27 11:16:40.695821,-0.0980132818222045
2023-01-27 11:16:40.700821,-0.1702703467118722
2023-01-27 11:16:40.705821,-0.23559729754924766
2023-01-27 11:16:40.710821,-0.2804826807057759
2023-01-27 11:16:40.715821,-0.2961313724517822
2023-01-27 11:16:40.720821,-0.28076543790716574
2023-01-27 11:16:40.725821,-0.23982843756675712
2023-01-27 11:16:40.730821,-0.183861327563294
2023-01-27 11:16:40.735821,-0.12477040290832511
2023-01-27 11:16:40.740821,-0.0723057186917665
2023-01-27 11:16:40.745821,-0.03219028562307353
2023-01-27 11:16:40.750821,-0.005895481505158374
2023-01-27 11:16:40.755821,0.00855843257158992
2023-01-27 11:16:40.760821,0.015068057506783219
2023-01-27 11:16:40.765821,0.01759767532348632
2023-01-27 11:16:40.770821,0.01893339912535351
2023-01-27 11:16:40.775821,0.020530622452497364
2023-01-27 11:16:40.780821,0.0229156360650513
2023-01-27 11:16:40.785821,0.026011865586042442
2023-01-27 11:16:40.790821,0.029471899343733298
2023-01-27 11:16:40.795821,0.03315190598368643
2023-01-27 11:16:40.800821,0.03732912089246961
2023-01-27 11:16:40.805821,0.04243155568838109
2023-01-27 11:16:40.810821,0.048750082158396026
2023-01-27 11:16:40.815821,0.056519310921430456
2023-01-27 11:16:40.820821,0.06605150336150907
2023-01-27 11:16:40.825821,0.07760286331176747
2023-01-27 11:16:40.830821,0.09123708229737763
2023-01-27 11:16:40.835821,0.10690828412771221
2023-01-27 11:16:40.840821,0.12445181078146754
2023-01-27 11:16:40.845821,0.14330565929412836
2023-01-27 11:16:40.850821,0.1623821419345219
2023-01-27 11:16:40.855821,0.18037617206573475
2023-01-27 11:16:40.860821,0.19612112669658052
2023-01-27 11:16:40.865821,0.20859977602958668
2023-01-27 11:16:40.870821,0.2168056070073367
2023-01-27 11:16:40.875821,0.21973054111003867
2023-01-27 11:16:40.880821,0.2163809816759784
2023-01-27 11:16:40.885821,0.2058110684156417
2023-01-27 11:16:40.890821,0.1874932412424652
2023-01-27 11:16:40.895821,0.1620092093944548
2023-01-27 11:16:40.900821,0.13141485741016362
2023-01-27 11:16:40.905821,0.09883066266775131
2023-01-27 11:16:40.910821,0.06759179063282768
2023-01-27 11:16:40.915821,0.040484271943569114
2023-01-27 11:16:40.920821,0.0191931478919433
2023-01-27 11:16:40.925821,0.004014770500361976
2023-01-27 11:16:40.930821,-0.0059133667393335065
2023-01-27 11:16:40.935821,-0.011900067329406624
2023-01-27 11:16:40.940821,-0.015062895221832472
2023-01-27 11:16:40.945821,-0.01617928408086283
2023-01-27 11:16:40.950821,-0.01582537474099137
2023-01-27 11:16:40.955821,-0.014472405426204153
2023-01-27 11:16:40.960821,-0.012552989481541417
2023-01-27 11:16:40.965821,-0.01055379770696157
2023-01-27 11:16:40.970821,-0.008963376722705503
2023-01-27 11:16:40.975821,-0.008029541000723766
2023-01-27 11:16:40.980821,-0.007611615693295606
2023-01-27 11:16:40.985821,-0.007308324333280275
2023-01-27 11:16:40.990821,-0.006669734810172607
2023-01-27 11:16:40.995821,-0.005312959663569899
2023-01-27 11:16:41.000821,-0.003035733376276639
2023-01-27 11:16:41.005821,2.4040540665687615e-05
2023-01-27 11:16:41.010821,0.0033746295901188857
2023-01-27 11:16:41.015821,0.0063947839662432575
2023-01-27 11:16:41.020821,0.008591667027800875
2023-01-27 11:16:41.025821,0.009712378494441547
2023-01-27 11:16:41.030821,0.009766088856787916
2023-01-27 11:16:41.035821,0.009015202522277879
2023-01-27 11:16:41.040821,0.007860190525776935
2023-01-27 11:16:41.045821,0.006635189056396394
2023-01-27 11:16:41.050821,0.0054981835149155054
2023-01-27 11:16:41.055821,0.004495581146329632
2023-01-27 11:16:41.060821,0.0036674303027938227
2023-01-27 11:16:41.065821,0.0030771892052142862
2023-01-27 11:16:41.070821,0.002788903483243198
2023-01-27 11:16:41.075821,0.0028127431869505886
2023-01-27 11:16:41.080821,0.0030034412552405643
2023-01-27 11:16:41.085821,0.0030050675850361017
2023-01-27 11:16:41.090821,0.0024223122306102785
2023-01-27 11:16:41.095821,0.0012501081218941864
2023-01-27 11:16:41.100821,0.0003239332829423915
2023-01-27 11:16:41.105821,0.0013943513622507453
2023-01-27 11:16:41.110821,0.006489151983762592
2023-01-27 11:16:41.115821,0.01656393334269516
2023-01-27 11:16:41.120821,0.02998495319879881
2023-01-27 11:16:41.125821,0.04175841808319093
2023-01-27 11:16:41.130821,0.044251505208181156
2023-01-27 11:16:41.135821,0.02952178381383405
2023-01-27 11:16:41.140821,-0.007389989696633686
2023-01-27 11:16:41.145821,-0.06551047414541242
2023-01-27 11:16:41.150821,-0.1368565399508806
2023-01-27 11:16:41.155821,-0.20809492468833918
2023-01-27 11:16:41.160821,-0.2644345235196439
2023-01-27 11:16:41.165821,-0.2941600680351257
2023-01-27 11:16:41.170821,-0.2920983546361433
2023-01-27 11:16:41.175821,-0.26086390018463124
2023-01-27 11:16:41.180821,-0.2095051999034061
2023-01-27 11:16:41.185821,-0.15015721321105951
2023-01-27 11:16:41.190821,-0.09420877647323772
2023-01-27 11:16:41.195821,-0.049523513764142935
2023-01-27 11:16:41.200821,-0.019343372527460784
2023-01-27 11:16:41.205821,-0.002668499946594174
2023-01-27 11:16:41.210821,0.004294127004358145
2023-01-27 11:16:41.215821,0.006154378410428696
2023-01-27 11:16:41.220821,0.006687107319699905
2023-01-27 11:16:41.225821,0.008149743080139098
2023-01-27 11:16:41.230821,0.011398505421057725
2023-01-27 11:16:41.235821,0.016251405701041253
2023-01-27 11:16:41.240821,0.021947328601515752
2023-01-27 11:16:41.245821,0.027742784470319696
2023-01-27 11:16:41.250821,0.03331311681089208
2023-01-27 11:16:41.255821,0.03865718841552726
2023-01-27 11:16:41.260821,0.04386742032455006
2023-01-27 11:16:41.265821,0.04923502728342998
2023-01-27 11:16:41.270821,0.055438451916932655
2023-01-27 11:16:41.275821,0.06334682554006568
2023-01-27 11:16:41.280821,0.07365156862970677
2023-01-27 11:16:41.285821,0.08676230907440176
2023-01-27 11:16:41.290821,0.10276626887870603
2023-01-27 11:16:41.295821,0.12114028632640836
2023-01-27 11:16:41.300821,0.14063563901031584
2023-01-27 11:16:41.305821,0.15977343916893
2023-01-27 11:16:41.310821,0.1774078293890581
2023-01-27 11:16:41.315821,0.19263684749603263
2023-01-27 11:16:41.320821,0.2043922099267986
2023-01-27 11:16:41.325821,0.2114125192165373
2023-01-27 11:16:41.330821,0.21244073032822702
2023-01-27 11:16:41.335821,0.20624379813671095
2023-01-27 11:16:41.340821,0.191883627370247
2023-01-27 11:16:41.345821,0.16960601508617396
2023-01-27 11:16:41.350821,0.1414736164457639
2023-01-27 11:16:41.355821,0.11080285161733612
2023-01-27 11:16:41.360821,0.0809926947257176
2023-01-27 11:16:41.365821,0.054836474359035374
2023-01-27 11:16:41.370821,0.03418335036236572
2023-01-27 11:16:41.375821,0.019424756988883074
2023-01-27 11:16:41.380821,0.009401772722938668
2023-01-27 11:16:41.385821,0.0023559730034320597
2023-01-27 11:16:41.390821,-0.003012828898869164
2023-01-27 11:16:41.395821,-0.00750064849853508
2023-01-27 11:16:41.400821,-0.011741062653396776
2023-01-27 11:16:41.405821,-0.015914838761091166
2023-01-27 11:16:41.410821,-0.01947184328509895
2023-01-27 11:16:41.415821,-0.021804770454764318
2023-01-27 11:16:41.420821,-0.022989526848887356
2023-01-27 11:16:41.425821,-0.023415487259626284
2023-01-27 11:16:41.430821,-0.02314846655321763
2023-01-27 11:16:41.435821,-0.022261541336774826
2023-01-27 11:16:41.440821,-0.021285010985370955
2023-01-27 11:16:41.445821,-0.020578702911734522
2023-01-27 11:16:41.450821,-0.019694028329138278
2023-01-27 11:16:41.455821,-0.01810252666473373
2023-01-27 11:16:41.460821,-0.016094335152490175
2023-01-27 11:16:41.465821,-0.014207959175109804
2023-01-27 11:16:41.470821,-0.012338679341966804
2023-01-27 11:16:41.475821,-0.01026531122624866
2023-01-27 11:16:41.480821,-0.008440143412243903
2023-01-27 11:16:41.485821,-0.00728428363800036
2023-01-27 11:16:41.490821,-0.006324859470884168
2023-01-27 11:16:41.495821,-0.005072554107755349
2023-01-27 11:16:41.500821,-0.004082542333543088
2023-01-27 11:16:41.505821,-0.004014770500361881
2023-01-27 11:16:41.510821,-0.004380165043810858
2023-01-27 11:16:41.515821,-0.004471540451049762
2023-01-27 11:16:41.520821,-0.004745420086109845
2023-01-27 11:16:41.525821,-0.00591397285461421
2023-01-27 11:16:41.530821,-0.007564382732654678
2023-01-27 11:16:41.535821,-0.009207527153193893
2023-01-27 11:16:41.540821,-0.011601727494837651
2023-01-27 11:16:41.545821,-0.01504937838762989
2023-01-27 11:16:41.550821,-0.017272343897151776
2023-01-27 11:16:41.555821,-0.015121500007808302
2023-01-27 11:16:41.560821,-0.00775134933892923
2023-01-27 11:16:41.565821,0.003485878463834581
2023-01-27 11:16:41.570821,0.016304858125208682
2023-01-27 11:16:41.575821,0.02548297308385373
2023-01-27 11:16:41.580821,0.021263045903670383
2023-01-27 11:16:41.585821,-0.005625486373901273
2023-01-27 11:16:41.590821,-0.05671634341182219
2023-01-27 11:16:41.595821,-0.12570798397064195
2023-01-27 11:16:41.600821,-0.20327910677628735
2023-01-27 11:16:41.605821,-0.27718743681907637
2023-01-27 11:16:41.610821,-0.3301792729492767
2023-01-27 11:16:41.615821,-0.3472415804862975
2023-01-27 11:16:41.620821,-0.32846574176105253
2023-01-27 11:16:41.625821,-0.288750946521759
2023-01-27 11:16:41.630821,-0.24156490255690866
2023-01-27 11:16:41.635821,-0.18888652324676514
2023-01-27 11:16:41.640821,-0.13061759976205767
2023-01-27 11:16:41.645821,-0.0760883092880249
2023-01-27 11:16:41.650821,-0.03800010955355958
2023-01-27 11:16:41.655821,-0.01863141916692253
2023-01-27 11:16:41.660821,-0.009931250386432921
2023-01-27 11:16:41.665821,-0.005505283828824701
2023-01-27 11:16:41.670821,-0.005123745139965261
2023-01-27 11:16:41.675821,-0.008149743080139103
2023-01-27 11:16:41.680821,-0.010354096876278087
2023-01-27 11:16:41.685821,-0.009111365303397083
2023-01-27 11:16:41.690821,-0.006078568860178928
2023-01-27 11:16:41.695821,-0.00264445948414505
2023-01-27 11:16:41.700821,0.0028082228744004093
2023-01-27 11:16:41.705821,0.011275013908743801
2023-01-27 11:16:41.710821,0.02081916115088668
2023-01-27 11:16:41.715821,0.02993047237396241
2023-01-27 11:16:41.720821,0.03989155810468233
2023-01-27 11:16:41.725821,0.051975648850202505
2023-01-27 11:16:41.730821,0.06525930927055378
2023-01-27 11:16:41.735821,0.07894913852214805
2023-01-27 11:16:41.740821,0.0941223416103067
2023-01-27 11:16:41.745821,0.11135578155517564
2023-01-27 11:16:41.750821,0.12899525502251724
2023-01-27 11:16:41.755821,0.14542123675346363
2023-01-27 11:16:41.760821,0.16085579717270657
2023-01-27 11:16:41.765821,0.17537574470043177
2023-01-27 11:16:41.770821,0.18715914124967992
2023-01-27 11:16:41.775821,0.19417545199394218
2023-01-27 11:16:41.780821,0.19573534083877273
2023-01-27 11:16:41.785821,0.19105017185211176
2023-01-27 11:16:41.790821,0.17828370762824108
2023-01-27 11:16:41.795821,0.15674433112144465
2023-01-27 11:16:41.800821,0.12863453949518613
2023-01-27 11:16:41.805821,0.09741227328777305
2023-01-27 11:16:41.810821,0.0658562805377977
2023-01-27 11:16:41.815821,0.03663778305053704
2023-01-27 11:16:41.820821,0.012755052446356975
2023-01-27 11:16:41.825821,-0.004351337905973139
2023-01-27 11:16:41.830821,-0.015972611433080108
2023-01-27 11:16:41.835821,-0.024232864379882774
2023-01-27 11:16:41.840821,-0.030139983862775655
2023-01-27 11:16:41.845821,-0.03428181260824198
2023-01-27 11:16:41.850821,-0.037740162140458125
2023-01-27 11:16:41.855821,-0.040941040962934314
2023-01-27 11:16:41.860821,-0.04284941207514418
2023-01-27 11:16:41.865821,-0.04255175590515125
2023-01-27 11:16:41.870821,-0.040603738256344016
2023-01-27 11:16:41.875821,-0.037887893617153126
2023-01-27 11:16:41.880821,-0.03439096786781215
2023-01-27 11:16:41.885821,-0.03012279793620103
2023-01-27 11:16:41.890821,-0.025974118059642524
2023-01-27 11:16:41.895821,-0.02252598665654649
2023-01-27 11:16:41.900821,-0.01910185880282671
2023-01-27 11:16:41.905821,-0.015049378387629871
2023-01-27 11:16:41.910821,-0.01093284064603048
2023-01-27 11:16:41.915821,-0.0075246891938148715
2023-01-27 11:16:41.920821,-0.0047135711958572295
2023-01-27 11:16:41.925821,-0.0023559730034321074
2023-01-27 11:16:41.930821,-0.0010827232233696644
2023-01-27 11:16:41.935821,-0.001226067543029676
2023-01-27 11:16:41.940821,-0.0019480642622858586
2023-01-27 11:16:41.945821,-0.0024040541611611323
2023-01-27 11:16:41.950821,-0.002820722538317914
2023-01-27 11:16:41.955821,-0.003558000084012704
2023-01-27 11:16:41.960821,-0.004143051286459481
2023-01-27 11:16:41.965821,-0.004159013740718288
2023-01-27 11:16:41.970821,-0.004091487389522958
2023-01-27 11:16:41.975821,-0.004375378601252919
2023-01-27 11:16:41.980821,-0.004571234348190671
2023-01-27 11:16:41.985821,-0.004351337905973063
2023-01-27 11:16:41.990821,-0.004238600638770776
2023-01-27 11:16:41.995821,-0.00432729721069334
2023-01-27 11:16:42.000821,-0.0031240639871913914
2023-01-27 11:16:42.005821,0.0013703107833862684
2023-01-27 11:16:42.010821,0.009990368858254176
2023-01-27 11:16:42.015821,0.022021135315298968
2023-01-27 11:16:42.020821,0.034807544464496215
2023-01-27 11:16:42.025821,0.04250367730855935
2023-01-27 11:16:42.030821,0.03654345357848453
2023-01-27 11:16:42.035821,0.009520053863525352
2023-01-27 11:16:42.040821,-0.040449516239993
2023-01-27 11:16:42.045821,-0.10827859491109833
2023-01-27 11:16:42.050821,-0.1829239769172424
2023-01-27 11:16:42.055821,-0.24944464862346633
2023-01-27 11:16:42.060821,-0.2929489338121212
2023-01-27 11:16:42.065821,-0.30423304438591003
2023-01-27 11:16:42.070821,-0.2832915557632364
2023-01-27 11:16:42.075821,-0.23792922496795646
2023-01-27 11:16:42.080821,-0.17974896751612926
2023-01-27 11:16:42.085821,-0.12082775682210918
2023-01-27 11:16:42.090821,-0.07101332271618298
2023-01-27 11:16:42.095821,-0.03524343296885491
2023-01-27 11:16:42.100821,-0.01295024889175888
2023-01-27 11:16:42.105821,-0.0006971756811252779
2023-01-27 11:16:42.110821,0.004883129712435068
2023-01-27 11:16:42.115821,0.006587108131498032
2023-01-27 11:16:42.120821,0.007043936374871028
2023-01-27 11:16:42.125821,0.007933378219604388
2023-01-27 11:16:42.130821,0.009435990864070855
2023-01-27 11:16:42.135821,0.011467337608337354
2023-01-27 11:16:42.140821,0.01470512720928329
2023-01-27 11:16:42.145821,0.019569000229239426
2023-01-27 11:16:42.150821,0.025240102064191357
2023-01-27 11:16:42.155821,0.03081997297704217
2023-01-27 11:16:42.160821,0.03663208638125789
2023-01-27 11:16:42.165821,0.04341721534729001
2023-01-27 11:16:42.170821,0.05122780709131721
2023-01-27 11:16:42.175821,0.06017347425222391
2023-01-27 11:16:42.180821,0.0711997739500917
2023-01-27 11:16:42.185821,0.08486311137676227
2023-01-27 11:16:42.190821,0.10020259019868194
2023-01-27 11:16:42.195821,0.115971565246582
2023-01-27 11:16:42.200821,0.1320072683985539
2023-01-27 11:16:42.205821,0.14816185832023615
2023-01-27 11:16:42.210821,0.16294534073026065
2023-01-27 11:16:42.215821,0.17463049292564384
2023-01-27 11:16:42.220821,0.1826753449210367
2023-01-27 11:16:42.225821,0.18655459582805628
2023-01-27 11:16:42.230821,0.18430025686907503
2023-01-27 11:16:42.235821,0.17407755553722376
2023-01-27 11:16:42.240821,0.1564320957158235
2023-01-27 11:16:42.245821,0.13323268294334406
2023-01-27 11:16:42.250821,0.10543068762459257
2023-01-27 11:16:42.255821,0.0741891115903854
2023-01-27 11:16:42.260821,0.04346087396965655
2023-01-27 11:16:42.265821,0.01841505430638788
2023-01-27 11:16:42.270821,0.0007862654247553754
2023-01-27 11:16:42.275821,-0.011972188949584885
2023-01-27 11:16:42.280821,-0.022402871237450484
2023-01-27 11:16:42.285821,-0.030122797936201
2023-01-27 11:16:42.290821,-0.03399182208742553
2023-01-27 11:16:42.295821,-0.035003028810024206
2023-01-27 11:16:42.300821,-0.03539354218675095
2023-01-27 11:16:42.305821,-0.03610889241099353
2023-01-27 11:16:42.310821,-0.03661306036560051
2023-01-27 11:16:42.315821,-0.03646950051188459
2023-01-27 11:16:42.320821,-0.035836153652904726
2023-01-27 11:16:42.325821,-0.03478666394948954
2023-01-27 11:16:42.330821,-0.03319719568978513
2023-01-27 11:16:42.335821,-0.031228661537170334
2023-01-27 11:16:42.340821,-0.029253050306448557
2023-01-27 11:16:42.345821,-0.02733409404754623
2023-01-27 11:16:42.350821,-0.02516627915649236
2023-01-27 11:16:42.355821,-0.022429823875427184
2023-01-27 11:16:42.360821,-0.018981833807802283
2023-01-27 11:16:42.365821,-0.014905135147273508
2023-01-27 11:16:42.370821,-0.01061046966290039
2023-01-27 11:16:42.375821,-0.006755392067134274
2023-01-27 11:16:42.380821,-0.003907088564254366
2023-01-27 11:16:42.385821,-0.0023319325409828576
2023-01-27 11:16:42.390821,-0.002017493646994045
2023-01-27 11:16:42.395821,-0.0026444594841450193
2023-01-27 11:16:42.400821,-0.003582001606606963
2023-01-27 11:16:42.405821,-0.004207094665616677
2023-01-27 11:16:42.410821,-0.004278935835693697
2023-01-27 11:16:42.415821,-0.0038945674896239757
2023-01-27 11:16:42.420821,-0.003270062233005613
2023-01-27 11:16:42.425821,-0.002812743186950494
2023-01-27 11:16:42.430821,-0.0031555491465229198
2023-01-27 11:16:42.435821,-0.004639824386686068
2023-01-27 11:16:42.440821,-0.00668188471882119
2023-01-27 11:16:42.445821,-0.0077891349792479705
2023-01-27 11:16:42.450821,-0.006144311245806402
2023-01-27 11:16:42.455821,-0.0003606081008911322
2023-01-27 11:16:42.460821,0.00940334571034259
2023-01-27 11:16:42.465821,0.020073851570487054
2023-01-27 11:16:42.470821,0.025351162894445736
2023-01-27 11:16:42.475821,0.017573636025190294
2023-01-27 11:16:42.480821,-0.00900974364709998
2023-01-27 11:16:42.485821,-0.05534132570028303
2023-01-27 11:16:42.490821,-0.11610984609192374
2023-01-27 11:16:42.495821,-0.18028001487255088
2023-01-27 11:16:42.500821,-0.23408931171690944
2023-01-27 11:16:42.505821,-0.26581627130508423
2023-01-27 11:16:42.510821,-0.26981722717396767
2023-01-27 11:16:42.515821,-0.24766564369201663
2023-01-27 11:16:42.520821,-0.20661226610319822
2023-01-27 11:16:42.525821,-0.15684048831462855
2023-01-27 11:16:42.530821,-0.10835266999850261
2023-01-27 11:16:42.535821,-0.06815493106842038
2023-01-27 11:16:42.540821,-0.03904860244814718
2023-01-27 11:16:42.545821,-0.020554661750793374
2023-01-27 11:16:42.550821,-0.010591616745860889
2023-01-27 11:16:42.555821,-0.006442864891141586
2023-01-27 11:16:42.560821,-0.005286412829231883
2023-01-27 11:16:42.565821,-0.004976391792297306
2023-01-27 11:16:42.570821,-0.004499900066650544
2023-01-27 11:16:42.575821,-0.0034858784638344955
2023-01-27 11:16:42.580821,-0.0015898139314620987
2023-01-27 11:16:42.585821,0.001370310783386183
2023-01-27 11:16:42.590821,0.005179411677185774
2023-01-27 11:16:42.595821,0.009664297103881812
2023-01-27 11:16:42.600821,0.015092646228775881
2023-01-27 11:16:42.605821,0.021756689995527257
2023-01-27 11:16:42.610821,0.029515999625450068
2023-01-27 11:16:42.615821,0.0381523370742797
2023-01-27 11:16:42.620821,0.047809984544614374
2023-01-27 11:16:42.625821,0.05868295952677717
2023-01-27 11:16:42.630821,0.07065290289859219
2023-01-27 11:16:42.635821,0.08363704383373263
2023-01-27 11:16:42.640821,0.09784571244969155
2023-01-27 11:16:42.645821,0.11318286508321758
2023-01-27 11:16:42.650821,0.12871577256322847
2023-01-27 11:16:42.655821,0.14313738048076613
2023-01-27 11:16:42.660821,0.15535626004919526
2023-01-27 11:16:42.665821,0.1642449796199798
2023-01-27 11:16:42.670821,0.1683313256393846
2023-01-27 11:16:42.675821,0.1663365066051482
2023-01-27 11:16:42.680821,0.15775394693310016
2023-01-27 11:16:42.685821,0.14260849356651298
2023-01-27 11:16:42.690821,0.12126104803226591
2023-01-27 11:16:42.695821,0.09505629539489746
2023-01-27 11:16:42.700821,0.06671265841414747
2023-01-27 11:16:42.705821,0.03940244764089576
2023-01-27 11:16:42.710821,0.015567882321582554
2023-01-27 11:16:42.715821,-0.003269513603299761
2023-01-27 11:16:42.720821,-0.016382641745033445
2023-01-27 11:16:42.725821,-0.024256905540823916
2023-01-27 11:16:42.730821,-0.028616401215740266
2023-01-27 11:16:42.735821,-0.031252704560756586
2023-01-27 11:16:42.740821,-0.032980562688767166
2023-01-27 11:16:42.745821,-0.033993326127529123
2023-01-27 11:16:42.750821,-0.034544462593235764
2023-01-27 11:16:42.755821,-0.03466646000742907
2023-01-27 11:16:42.760821,-0.033851967383650254
2023-01-27 11:16:42.765821,-0.03178159520030019
2023-01-27 11:16:42.770821,-0.028946855043267276
2023-01-27 11:16:42.775821,-0.025963783264160132
2023-01-27 11:16:42.780821,-0.02281887622001624
2023-01-27 11:16:42.785821,-0.019424756988883022
2023-01-27 11:16:42.790821,-0.016298084948370387
2023-01-27 11:16:42.795821,-0.013943513855337954
2023-01-27 11:16:42.800821,-0.012149854526348794
2023-01-27 11:16:42.805821,-0.010649959556758407
2023-01-27 11:16:42.810821,-0.009855894480120832
2023-01-27 11:16:42.815821,-0.010121067985892181
2023-01-27 11:16:42.820821,-0.010907141205757353
2023-01-27 11:16:42.825821,-0.011563500389456673
2023-01-27 11:16:42.830821,-0.012289345965414212
2023-01-27 11:16:42.835821,-0.013390581123530833
2023-01-27 11:16:42.840821,-0.014286495887426108
2023-01-27 11:16:42.845821,-0.014328162185847714
2023-01-27 11:16:42.850821,-0.013923978202467234
2023-01-27 11:16:42.855821,-0.013703107833862324
2023-01-27 11:16:42.860821,-0.013317308976487415
2023-01-27 11:16:42.865821,-0.012453000061213951
2023-01-27 11:16:42.870821,-0.012280000621209809
2023-01-27 11:16:42.875821,-0.014135837554931622
2023-01-27 11:16:42.880821,-0.017164510450934208
2023-01-27 11:16:42.885821,-0.019016068428754748
2023-01-27 11:16:42.890821,-0.018565967306874483
2023-01-27 11:16:42.895821,-0.016035040840506554
2023-01-27 11:16:42.900821,-0.01086297134470461
2023-01-27 11:16:42.905821,-0.0024761757813394165
2023-01-27 11:16:42.910821,0.00561624870596997
2023-01-27 11:16:42.915821,0.004735986702144037
2023-01-27 11:16:42.920821,-0.013730622056474821
2023-01-27 11:16:42.925821,-0.051999688148498535
2023-01-27 11:16:42.930821,-0.10463921868337399
2023-01-27 11:16:42.935821,-0.16174475848674766
2023-01-27 11:16:42.940821,-0.2123802315938986
2023-01-27 11:16:42.945821,-0.2470886707305907
2023-01-27 11:16:42.950821,-0.26027855244200687
2023-01-27 11:16:42.955821,-0.25151214003562916
2023-01-27 11:16:42.960821,-0.2244629823992901
2023-01-27 11:16:42.965821,-0.1849919557571411
2023-01-27 11:16:42.970821,-0.14024272887400258
2023-01-27 11:16:42.975821,-0.09786903858184806
2023-01-27 11:16:42.980821,-0.06389089861889792
2023-01-27 11:16:42.985821,-0.040580432862043284
2023-01-27 11:16:42.990821,-0.026767070550039088
2023-01-27 11:16:42.995821,-0.01995364949107168
2023-01-27 11:16:43.000821,-0.017676061936841916
2023-01-27 11:16:43.005821,-0.017549594864249164
2023-01-27 11:16:43.010821,-0.0174869440957595
2023-01-27 11:16:43.015821,-0.016443729400634707
2023-01-27 11:16:43.020821,-0.014504451853217925
2023-01-27 11:16:43.025821,-0.012044310569763041
2023-01-27 11:16:43.030821,-0.00909809125483478
2023-01-27 11:16:43.035821,-0.00545720290392624
2023-01-27 11:16:43.040821,-0.0008462068010023718
2023-01-27 11:16:43.045821,0.005144675727933617
2023-01-27 11:16:43.050821,0.012930625473828897
2023-01-27 11:16:43.055821,0.022550027817487696
2023-01-27 11:16:43.060821,0.03359085343080146
2023-01-27 11:16:43.065821,0.04555682465434072
2023-01-27 11:16:43.070821,0.05815033991318204
2023-01-27 11:16:43.075821,0.07120808213949198
2023-01-27 11:16:43.080821,0.08457035217501366
2023-01-27 11:16:43.085821,0.0980613678693771
2023-01-27 11:16:43.090821,0.11143394877812325
2023-01-27 11:16:43.095821,0.12424151599407188
2023-01-27 11:16:43.100821,0.1357929209401071
2023-01-27 11:16:43.105821,0.145204871892929
2023-01-27 11:16:43.110821,0.15143322324053746
2023-01-27 11:16:43.115821,0.15330652892589552
2023-01-27 11:16:43.120821,0.14968465797462113
2023-01-27 11:16:43.125821,0.13974766433238975
2023-01-27 11:16:43.130821,0.1233272266388061
2023-01-27 11:16:43.135821,0.10118663311004629
2023-01-27 11:16:43.140821,0.07509739138788141
2023-01-27 11:16:43.145821,0.04757623001933092
2023-01-27 11:16:43.150821,0.021361044466005532
2023-01-27 11:16:43.155821,-0.0011539459228515057
2023-01-27 11:16:43.160821,-0.01840116007546686
2023-01-27 11:16:43.165821,-0.029954513534903505
2023-01-27 11:16:43.170821,-0.03647893074044892
2023-01-27 11:16:43.175821,-0.039258204400539266
2023-01-27 11:16:43.180821,-0.0396302887995024
2023-01-27 11:16:43.185821,-0.0386812314391136
2023-01-27 11:16:43.190821,-0.03714888258296598
2023-01-27 11:16:43.195821,-0.03536363691091528
2023-01-27 11:16:43.200821,-0.0333252361661247
2023-01-27 11:16:43.205821,-0.03098825737833974
2023-01-27 11:16:43.210821,-0.028454926833801984
2023-01-27 11:16:43.215821,-0.02584358118474476
2023-01-27 11:16:43.220821,-0.023124105909173066
2023-01-27 11:16:43.225821,-0.020242135971784533
2023-01-27 11:16:43.230821,-0.017310473295412906
2023-01-27 11:16:43.235821,-0.014544527046382398
2023-01-27 11:16:43.240821,-0.012116304024800321
2023-01-27 11:16:43.245821,-0.010193189606070492
2023-01-27 11:16:43.250821,-0.00895823737475467
2023-01-27 11:16:43.255821,-0.008390149101614923
2023-01-27 11:16:43.260821,-0.008118247052827909
2023-01-27 11:16:43.265821,-0.0076689324341713975
2023-01-27 11:16:43.270821,-0.006784772201531858
2023-01-27 11:16:43.275821,-0.005409121513366569
2023-01-27 11:16:43.280821,-0.0035506906889762424
2023-01-27 11:16:43.285821,-0.0013703107833861973
2023-01-27 11:16:43.290821,0.0007330826159814047
2023-01-27 11:16:43.295821,0.002331932540982881
2023-01-27 11:16:43.300821,0.0031780288475516632
2023-01-27 11:16:43.305821,0.0030771892052142862
2023-01-27 11:16:43.310821,0.0017668986638664894
2023-01-27 11:16:43.315821,-0.0007933378219604871
2023-01-27 11:16:43.320821,-0.004025687130860016
2023-01-27 11:16:43.325821,-0.0067313513718545055
2023-01-27 11:16:43.330821,-0.007399462483007615
2023-01-27 11:16:43.335821,-0.004615783691406193
2023-01-27 11:16:43.340821,0.0021820732475497286
2023-01-27 11:16:43.345821,0.011587540619075213
2023-01-27 11:16:43.350821,0.019646171548511622
2023-01-27 11:16:43.355821,0.020722946152090978
2023-01-27 11:16:43.360821,0.009554364375904307
2023-01-27 11:16:43.365821,-0.01653989218175407
2023-01-27 11:16:43.370821,-0.056068695814765784
2023-01-27 11:16:43.375821,-0.10298967361450187
2023-01-27 11:16:43.380821,-0.14813919580738305
2023-01-27 11:16:43.385821,-0.18225133419036857
2023-01-27 11:16:43.390821,-0.19902671731451968
2023-01-27 11:16:43.395821,-0.19667565822601302
2023-01-27 11:16:43.400821,-0.17771954121208625
2023-01-27 11:16:43.405821,-0.14772912859916676
2023-01-27 11:16:43.410821,-0.11347986719669965
2023-01-27 11:16:43.415821,-0.08096854388713823
2023-01-27 11:16:43.420821,-0.05413004332500236
2023-01-27 11:16:43.425821,-0.034714542329311274
2023-01-27 11:16:43.430821,-0.022745321971840468
2023-01-27 11:16:43.435821,-0.016876459121704133
2023-01-27 11:16:43.440821,-0.014840456890189046
2023-01-27 11:16:43.445821,-0.01430412195622921
2023-01-27 11:16:43.450821,-0.013643747474924651
2023-01-27 11:16:43.455821,-0.012068351730704288
2023-01-27 11:16:43.460821,-0.009387549430561819
2023-01-27 11:16:43.465821,-0.005913972854614239
2023-01-27 11:16:43.470821,-0.002281309600878662
2023-01-27 11:16:43.475821,0.0010818243026733587
2023-01-27 11:16:43.480821,0.004317230225837988
2023-01-27 11:16:43.485821,0.007885297760367308
2023-01-27 11:16:43.490821,0.012176481888430393
2023-01-27 11:16:43.495821,0.01754959486424921
2023-01-27 11:16:43.500821,0.024454149486960897
2023-01-27 11:16:43.505821,0.03317594528198243
2023-01-27 11:16:43.510821,0.04360128320981806
2023-01-27 11:16:43.515821,0.0554615259170532
2023-01-27 11:16:43.520821,0.06861837000470998
2023-01-27 11:16:43.525821,0.08286774158477779
2023-01-27 11:16:43.530821,0.09765739797521951
2023-01-27 11:16:43.535821,0.11222124099731436
2023-01-27 11:16:43.540821,0.12574622778104427
2023-01-27 11:16:43.545821,0.13712725043296817
2023-01-27 11:16:43.550821,0.1447955547715959
2023-01-27 11:16:43.555821,0.14715215563774098
2023-01-27 11:16:43.560821,0.14312643395384575
2023-01-27 11:16:43.565821,0.13224701583385462
2023-01-27 11:16:43.570821,0.11458478643832266
2023-01-27 11:16:43.575821,0.09106557071208946
2023-01-27 11:16:43.580821,0.06369714523855963
2023-01-27 11:16:43.585821,0.03514727205038066
2023-01-27 11:16:43.590821,0.00810321013126178
2023-01-27 11:16:43.595821,-0.01500129699707035
2023-01-27 11:16:43.600821,-0.03223193072972892
2023-01-27 11:16:43.605821,-0.04276812076568596
2023-01-27 11:16:43.610821,-0.04727476019020204
2023-01-27 11:16:43.615821,-0.04740794748067851
2023-01-27 11:16:43.620821,-0.045023830804860485
2023-01-27 11:16:43.625821,-0.04187862202525136
2023-01-27 11:16:43.630821,-0.03950986246383613
2023-01-27 11:16:43.635821,-0.038753353059291756
2023-01-27 11:16:43.640821,-0.039399373190329025
2023-01-27 11:16:43.645821,-0.040652554482221624
2023-01-27 11:16:43.650821,-0.041856747906403584
2023-01-27 11:16:43.655821,-0.04259983822703363
2023-01-27 11:16:43.660821,-0.042461365194556164
2023-01-27 11:16:43.665821,-0.04115740582346912
2023-01-27 11:16:43.670821,-0.03887880754593102
2023-01-27 11:16:43.675821,-0.036156974732875845
2023-01-27 11:16:43.680821,-0.0334376170872493
2023-01-27 11:16:43.685821,-0.03096421621739867
2023-01-27 11:16:43.690821,-0.028860314024129207
2023-01-27 11:16:43.695821,-0.02702156826853756
2023-01-27 11:16:43.700821,-0.025086269837527233
2023-01-27 11:16:43.705821,-0.022814473137259407
2023-01-27 11:16:43.710821,-0.020397617049684087
2023-01-27 11:16:43.715821,-0.01819868944585318
2023-01-27 11:16:43.720821,-0.01636816807233704
2023-01-27 11:16:43.725821,-0.014905135147273502
2023-01-27 11:16:43.730821,-0.01383426697665165
2023-01-27 11:16:43.735821,-0.013054013252258249
2023-01-27 11:16:43.740821,-0.012252027732173994
2023-01-27 11:16:43.745821,-0.011275013908743763
2023-01-27 11:16:43.750821,-0.01040763106598833
2023-01-27 11:16:43.755821,-0.010048946365714016
2023-01-27 11:16:43.760821,-0.010298060912328651
2023-01-27 11:16:43.765821,-0.01098652742803091
2023-01-27 11:16:43.770821,-0.011711925798958077
2023-01-27 11:16:43.775821,-0.011491378769278507
2023-01-27 11:16:43.780821,-0.008744420026235407
2023-01-27 11:16:43.785821,-0.002235770225524864
2023-01-27 11:16:43.790821,0.0077038172306191175
2023-01-27 11:16:43.795821,0.018655460327863544
2023-01-27 11:16:43.800821,0.026315202398444145
2023-01-27 11:16:43.805821,0.02526660822331902
2023-01-27 11:16:43.810821,0.01075291977524287
2023-01-27 11:16:43.815821,-0.018775662407278994
2023-01-27 11:16:43.820821,-0.06004668315723893
2023-01-27 11:16:43.825821,-0.10568221658468246
2023-01-27 11:16:43.830821,-0.1466336890757028
2023-01-27 11:16:43.835821,-0.17484685778617842
2023-01-27 11:16:43.840821,-0.18547998909361588
2023-01-27 11:16:43.845821,-0.17828464508056632
2023-01-27 11:16:43.850821,-0.15728484452321936
2023-01-27 11:16:43.855821,-0.12866497039794916
2023-01-27 11:16:43.860821,-0.09841420879230747
2023-01-27 11:16:43.865821,-0.0711359605193138
2023-01-27 11:16:43.870821,-0.049695461035872565
2023-01-27 11:16:43.875821,-0.03495494648814197
2023-01-27 11:16:43.880821,-0.02595940237545194
2023-01-27 11:16:43.885821,-0.0209393110126256
2023-01-27 11:16:43.890821,-0.018246622787642237
2023-01-27 11:16:43.895821,-0.016443729400634714
2023-01-27 11:16:43.900821,-0.014219141199987139
2023-01-27 11:16:43.905821,-0.010842284187674479
2023-01-27 11:16:43.910821,-0.0064708383213847795
2023-01-27 11:16:43.915821,-0.0016347568016498997
2023-01-27 11:16:43.920821,0.0033173284479685256
2023-01-27 11:16:43.925821,0.008029541000723847
2023-01-27 11:16:43.930821,0.011947666158758015
2023-01-27 11:16:43.935821,0.014881094917654915
2023-01-27 11:16:43.940821,0.01749988746307612
2023-01-27 11:16:43.945821,0.02089123055338849
2023-01-27 11:16:43.950821,0.025917467066340884
2023-01-27 11:16:43.955821,0.0332721099257469
2023-01-27 11:16:43.960821,0.043604723005669935
2023-01-27 11:16:43.965821,0.057000122964382054
2023-01-27 11:16:43.970821,0.072623622513465
2023-01-27 11:16:43.975821,0.08931060880422584
2023-01-27 11:16:43.980821,0.10618046049581069
2023-01-27 11:16:43.985821,0.12231826782226558
2023-01-27 11:16:43.990821,0.13633957243150965
2023-01-27 11:16:43.995821,0.1467915475368498
2023-01-27 11:16:44.000821,0.1526225462423082
2023-01-27 11:16:44.005821,0.15284976363182062
2023-01-27 11:16:44.010821,0.1463033627325294
2023-01-27 11:16:44.015821,0.1323672235012054
2023-01-27 11:16:44.020821,0.11174182537987777
2023-01-27 11:16:44.025821,0.0861132144927978
2023-01-27 11:16:44.030821,0.05752750677687995
2023-01-27 11:16:44.035821,0.028488039970397852
2023-01-27 11:16:44.040821,0.0019629925326046776
2023-01-27 11:16:44.045821,-0.0195930413901805
2023-01-27 11:16:44.050821,-0.0351303572010878
2023-01-27 11:16:44.055821,-0.04464328289031977
2023-01-27 11:16:44.060821,-0.04850680712230665
2023-01-27 11:16:44.065821,-0.04769643396139139
2023-01-27 11:16:44.070821,-0.044020630337433385
2023-01-27 11:16:44.075821,-0.039306282997131285
2023-01-27 11:16:44.080821,-0.03458904146224758
2023-01-27 11:16:44.085821,-0.030507445335388083
2023-01-27 11:16:44.090821,-0.0278554790523171
2023-01-27 11:16:44.095821,-0.027045607566833364
2023-01-27 11:16:44.100821,-0.027541322103891853
2023-01-27 11:16:44.105821,-0.02853612229228011
2023-01-27 11:16:44.110821,-0.02975929687315642
2023-01-27 11:16:44.115821,-0.03103633783757678
2023-01-27 11:16:44.120821,-0.03170391928972663
2023-01-27 11:16:44.125821,-0.031252704560756656
2023-01-27 11:16:44.130821,-0.0300219626139867
2023-01-27 11:16:44.135821,-0.028512081131339028
2023-01-27 11:16:44.140821,-0.026575616106176356
2023-01-27 11:16:44.145821,-0.02404054068028924
2023-01-27 11:16:44.150821,-0.02148064022710988
2023-01-27 11:16:44.155821,-0.019496878609061217
2023-01-27 11:16:44.160821,-0.017843332457322864
2023-01-27 11:16:44.165821,-0.016131203621625886
2023-01-27 11:16:44.170821,-0.014727581296268279
2023-01-27 11:16:44.175821,-0.014015635475516328
2023-01-27 11:16:44.180821,-0.013466851950424446
2023-01-27 11:16:44.185821,-0.012477040290832481
2023-01-27 11:16:44.190821,-0.011433546540692513
2023-01-27 11:16:44.195821,-0.010914405807852669
2023-01-27 11:16:44.200821,-0.010630379975876906
2023-01-27 11:16:44.205821,-0.010337432846426926
2023-01-27 11:16:44.210821,-0.010906988061417489
2023-01-27 11:16:44.215821,-0.013005932793021183
2023-01-27 11:16:44.220821,-0.015333502202144151
2023-01-27 11:16:44.225821,-0.015506148338317803
2023-01-27 11:16:44.230821,-0.01201208082266901
2023-01-27 11:16:44.235821,-0.004231135360896592
2023-01-27 11:16:44.240821,0.007821837098845735
2023-01-27 11:16:44.245821,0.021347999572753924
2023-01-27 11:16:44.250821,0.029237631282436106
2023-01-27 11:16:44.255821,0.02346356771886337
2023-01-27 11:16:44.260821,0.0003558349918249538
2023-01-27 11:16:44.265821,-0.03844082355499265
2023-01-27 11:16:44.270821,-0.08814496229591513
2023-01-27 11:16:44.275821,-0.14063715934753404
2023-01-27 11:16:44.280821,-0.18370576442760936
2023-01-27 11:16:44.285821,-0.20621976256370533
2023-01-27 11:16:44.290821,-0.20624512460501834
2023-01-27 11:16:44.295821,-0.19105017185211176
2023-01-27 11:16:44.300821,-0.16794354286815388
2023-01-27 11:16:44.305821,-0.13864180445671076
2023-01-27 11:16:44.310821,-0.10413345404095575
2023-01-27 11:16:44.315821,-0.07036666572093954
2023-01-27 11:16:44.320821,-0.04470362695566303
2023-01-27 11:16:44.325821,-0.02877652645111079
2023-01-27 11:16:44.330821,-0.018718617146271963
2023-01-27 11:16:44.335821,-0.011299054138362435
2023-01-27 11:16:44.340821,-0.006285969056923273
2023-01-27 11:16:44.345821,-0.003509918926283736
2023-01-27 11:16:44.350821,-0.0014659889597646724
2023-01-27 11:16:44.355821,0.0005288919201121113
2023-01-27 11:16:44.360821,0.001597100040253025
2023-01-27 11:16:44.365821,0.0016107162227853753
2023-01-27 11:16:44.370821,0.0022288199738026908
2023-01-27 11:16:44.375821,0.004904270172119141
2023-01-27 11:16:44.380821,0.009507100804735108
2023-01-27 11:16:44.385821,0.015506148338317826
2023-01-27 11:16:44.390821,0.022973085878156912
2023-01-27 11:16:44.395821,0.031781595200300154
2023-01-27 11:16:44.400821,0.041207457469544906
2023-01-27 11:16:44.405821,0.05111018940806379
2023-01-27 11:16:44.410821,0.06249390176910782
2023-01-27 11:16:44.415821,0.07623255252838132
2023-01-27 11:16:44.420821,0.09199061189437395
2023-01-27 11:16:44.425821,0.10873536765575405
2023-01-27 11:16:44.430821,0.1253662338710642
2023-01-27 11:16:44.435821,0.14037272334098805
2023-01-27 11:16:44.440821,0.15177866499082188
2023-01-27 11:16:44.445821,0.15811464190483088
2023-01-27 11:16:44.450821,0.15899149629797232
2023-01-27 11:16:44.455821,0.15441238880157462
2023-01-27 11:16:44.460821,0.1441398413484351
2023-01-27 11:16:44.465821,0.12811204791069034
2023-01-27 11:16:44.470821,0.10695431810469955
2023-01-27 11:16:44.475821,0.08178591728210435
2023-01-27 11:16:44.480821,0.054086138195679326
2023-01-27 11:16:44.485821,0.026083987206220578
2023-01-27 11:16:44.490821,0.0007016647594725688
2023-01-27 11:16:44.495821,-0.01947283744812012
2023-01-27 11:16:44.500821,-0.033131979042387856
2023-01-27 11:16:44.505821,-0.040267907083034474
2023-01-27 11:16:44.510821,-0.04184536627871648
2023-01-27 11:16:44.515821,-0.03969093412160865
2023-01-27 11:16:44.520821,-0.03611615055376022
2023-01-27 11:16:44.525821,-0.0330317020416259
2023-01-27 11:16:44.530821,-0.03135314099061196
2023-01-27 11:16:44.535821,-0.03120462223887437
2023-01-27 11:16:44.540821,-0.03229858253437016
2023-01-27 11:16:44.545821,-0.03396928310394286
2023-01-27 11:16:44.550821,-0.0352782158106717
2023-01-27 11:16:44.555821,-0.03550788015127182
2023-01-27 11:16:44.560821,-0.034531911519595095
2023-01-27 11:16:44.565821,-0.03267109394073485
2023-01-27 11:16:44.570821,-0.03042327777886127
2023-01-27 11:16:44.575821,-0.028391879051923648
2023-01-27 11:16:44.580821,-0.027121285210364512
2023-01-27 11:16:44.585821,-0.026709040626883493
2023-01-27 11:16:44.590821,-0.026670321800448628
2023-01-27 11:16:44.595821,-0.026324391365051183
2023-01-27 11:16:44.600821,-0.025271296170203697
2023-01-27 11:16:44.605821,-0.02353568933904169
2023-01-27 11:16:44.610821,-0.021491165526114263
2023-01-27 11:16:44.615821,-0.019737284630537023
2023-01-27 11:16:44.620821,-0.018824001488091303
2023-01-27 11:16:44.625821,-0.018871825188398247
2023-01-27 11:16:44.630821,-0.019459120146286236
2023-01-27 11:16:44.635821,-0.019929608330130577
2023-01-27 11:16:44.640821,-0.019810533950939884
2023-01-27 11:16:44.645821,-0.019040107727050743
2023-01-27 11:16:44.650821,-0.01800795147965535
2023-01-27 11:16:44.655821,-0.01745343208312979
2023-01-27 11:16:44.660821,-0.01816187323995649
2023-01-27 11:16:44.665821,-0.02050658129155631
2023-01-27 11:16:44.670821,-0.02403802045744113
2023-01-27 11:16:44.675821,-0.027286013588309243
2023-01-27 11:16:44.680821,-0.02791015260554612
2023-01-27 11:16:44.685821,-0.023391446098685167
2023-01-27 11:16:44.690821,-0.012295326939241959
2023-01-27 11:16:44.695821,0.00430325698107474
2023-01-27 11:16:44.700821,0.021958920457046928
2023-01-27 11:16:44.705821,0.03324806690216056
2023-01-27 11:16:44.710821,0.02976160088002242
2023-01-27 11:16:44.715821,0.005336999893188344
2023-01-27 11:16:44.720821,-0.04076442506588656
2023-01-27 11:16:44.725821,-0.10241270065307606
2023-01-27 11:16:44.730821,-0.16782863080625277
2023-01-27 11:16:44.735821,-0.22307217121124256
2023-01-27 11:16:44.740821,-0.25644785478837784
2023-01-27 11:16:44.745821,-0.26213806867599476
2023-01-27 11:16:44.750821,-0.2415924068612911
2023-01-27 11:16:44.755821,-0.2021809518337248
2023-01-27 11:16:44.760821,-0.15405319829583997
2023-01-27 11:16:44.765821,-0.10686020553112027
2023-01-27 11:16:44.770821,-0.0674739005309119
2023-01-27 11:16:44.775821,-0.03901779651641846
2023-01-27 11:16:44.780821,-0.021193152462239587
2023-01-27 11:16:44.785821,-0.011587540619075184
2023-01-27 11:16:44.790821,-0.007148533646160047
2023-01-27 11:16:44.795821,-0.0050965948030351265
2023-01-27 11:16:44.800821,-0.00335760536380432
2023-01-27 11:16:44.805821,-0.0008895000210031061
2023-01-27 11:16:44.810821,0.002287916515577052
2023-01-27 11:16:44.815821,0.005649527069181178
2023-01-27 11:16:44.820821,0.00882887224017289
2023-01-27 11:16:44.825821,0.011755824089050192
2023-01-27 11:16:44.830821,0.014539025435274704
2023-01-27 11:16:44.835821,0.01764575764536845
2023-01-27 11:16:44.840821,0.022041425385635978
2023-01-27 11:16:44.845821,0.028728445991873675
2023-01-27 11:16:44.850821,0.038176956824017685
2023-01-27 11:16:44.855821,0.050413012504577616
2023-01-27 11:16:44.860821,0.0653336639629354
2023-01-27 11:16:44.865821,0.08245905488729469
2023-01-27 11:16:44.870821,0.10062543006022133
2023-01-27 11:16:44.875821,0.1184958219528198
2023-01-27 11:16:44.880821,0.13525637637838378
2023-01-27 11:16:44.885821,0.1503735780715942
2023-01-27 11:16:44.890821,0.1629886122200947
2023-01-27 11:16:44.895821,0.17217835783958427
2023-01-27 11:16:44.900821,0.1774722509121393
2023-01-27 11:16:44.905821,0.1783086955547331
2023-01-27 11:16:44.910821,0.17329964481157958
2023-01-27 11:16:44.915821,0.161071628332138
2023-01-27 11:16:44.920821,0.14176989118952435
2023-01-27 11:16:44.925821,0.11686106771230695
2023-01-27 11:16:44.930821,0.08786190082804318
2023-01-27 11:16:44.935821,0.056711636483669205
2023-01-27 11:16:44.940821,0.027196624531991363
2023-01-27 11:16:44.945821,0.0038464865647256114
2023-01-27 11:16:44.950821,-0.01160019019141995
2023-01-27 11:16:44.955821,-0.021275877952575566
2023-01-27 11:16:44.960821,-0.02787100769114734
2023-01-27 11:16:44.965821,-0.03166139125823968
2023-01-27 11:16:44.970821,-0.031959600679280546
2023-01-27 11:16:44.975821,-0.030002593994140552
2023-01-27 11:16:44.980821,-0.02843642910471533
2023-01-27 11:16:44.985821,-0.028512081131338993
2023-01-27 11:16:44.990821,-0.029514937600542943
2023-01-27 11:16:44.995821,-0.030699770897626804
2023-01-27 11:16:45.000821,-0.032126798699197996
2023-01-27 11:16:45.005821,-0.033512514084577553
2023-01-27 11:16:45.010821,-0.03380208891218261
2023-01-27 11:16:45.015821,-0.03240665048360822
2023-01-27 11:16:45.020821,-0.02988889735587789
2023-01-27 11:16:45.025821,-0.027069648727774627
2023-01-27 11:16:45.030821,-0.02430216042881712
2023-01-27 11:16:45.035821,-0.02190093323588364
2023-01-27 11:16:45.040821,-0.020390284597113933
2023-01-27 11:16:45.045821,-0.019833445549011192
2023-01-27 11:16:45.050821,-0.019503374175229883
2023-01-27 11:16:45.055821,-0.018607378005981386
2023-01-27 11:16:45.060821,-0.016906581937043256
2023-01-27 11:16:45.065821,-0.014448365196585636
2023-01-27 11:16:45.070821,-0.011285580813121858
2023-01-27 11:16:45.075821,-0.007789134979248084
2023-01-27 11:16:45.080821,-0.0047544077962087
2023-01-27 11:16:45.085821,-0.0028127431869507022
2023-01-27 11:16:45.090821,-0.001992443675596064
2023-01-27 11:16:45.095821,-0.002019405364990196
2023-01-27 11:16:45.100821,-0.002693030045223054
2023-01-27 11:16:45.105821,-0.0037984054069965982
2023-01-27 11:16:45.110821,-0.005049161598275589
2023-01-27 11:16:45.115821,-0.006394783966243286
2023-01-27 11:16:45.120821,-0.008124313976152953
2023-01-27 11:16:45.125821,-0.010433594696223687
2023-01-27 11:16:45.130821,-0.013017261113386245
2023-01-27 11:16:45.135821,-0.015073418617248532
2023-01-27 11:16:45.140821,-0.015358396317838256
2023-01-27 11:16:45.145821,-0.01218855381011958
2023-01-27 11:16:45.150821,-0.004001185025946232
2023-01-27 11:16:45.155821,0.009327730163931828
2023-01-27 11:16:45.160821,0.025257763692999445
2023-01-27 11:16:45.165821,0.03836870193481443
2023-01-27 11:16:45.170821,0.041349431644139845
2023-01-27 11:16:45.175821,0.0270696487277746
2023-01-27 11:16:45.180821,-0.008533664402517417
2023-01-27 11:16:45.185821,-0.06380359828472125
2023-01-27 11:16:45.190821,-0.1305889509643754
2023-01-27 11:16:45.195821,-0.19614677131175987
2023-01-27 11:16:45.200821,-0.24691305098310248
2023-01-27 11:16:45.205821,-0.2725716531276702
2023-01-27 11:16:45.210821,-0.2690586752466118
2023-01-27 11:16:45.215821,-0.23949186503887168
2023-01-27 11:16:45.220821,-0.19259600788596495
2023-01-27 11:16:45.225821,-0.13936302065849293
2023-01-27 11:16:45.230821,-0.08960503239065343
2023-01-27 11:16:45.235821,-0.049739878624677505
2023-01-27 11:16:45.240821,-0.022125896528352403
2023-01-27 11:16:45.245821,-0.005673567764460946
2023-01-27 11:16:45.250821,0.0026864684427480748
2023-01-27 11:16:45.255821,0.006346702575683508
2023-01-27 11:16:45.260821,0.007933880077831395
2023-01-27 11:16:45.265821,0.009039243683218871
2023-01-27 11:16:45.270821,0.010418048837458687
2023-01-27 11:16:45.275821,0.01228471659123891
2023-01-27 11:16:45.280821,0.014612596679601285
2023-01-27 11:16:45.285821,0.017381310462951573
2023-01-27 11:16:45.290821,0.020655479226674493
2023-01-27 11:16:45.295821,0.024545392021536782
2023-01-27 11:16:45.300821,0.02923005112320345
2023-01-27 11:16:45.305821,0.03505110740661617
2023-01-27 11:16:45.310821,0.0425231922833847
2023-01-27 11:16:45.315821,0.05221605300903315
2023-01-27 11:16:45.320821,0.06458708426606015
2023-01-27 11:16:45.325821,0.07979055494070048
2023-01-27 11:16:45.330821,0.09748198887062991
2023-01-27 11:16:45.335821,0.11674086749553676
2023-01-27 11:16:45.340821,0.1362045695368718
2023-01-27 11:16:45.345821,0.15434026718139637
2023-01-27 11:16:45.350821,0.16973642018130508
2023-01-27 11:16:45.355821,0.18133780360221854
2023-01-27 11:16:45.360821,0.18849825079509802
2023-01-27 11:16:45.365821,0.19076168537139884
2023-01-27 11:16:45.370821,0.18756533075797008
2023-01-27 11:16:45.375821,0.1782125234603881
2023-01-27 11:16:45.380821,0.16218894595559444
2023-01-27 11:16:45.385821,0.13960342109203328
2023-01-27 11:16:45.390821,0.11158542444115926
2023-01-27 11:16:45.395821,0.08051177114248266
2023-01-27 11:16:45.400821,0.049753238715572155
2023-01-27 11:16:45.405821,0.022766392678022312
2023-01-27 11:16:45.410821,0.001974624382689844
2023-01-27 11:16:45.415821,-0.011851986870169568
2023-01-27 11:16:45.420821,-0.0195199454977227
2023-01-27 11:16:45.425821,-0.02291063591837881
2023-01-27 11:16:45.430821,-0.02421600171330906
2023-01-27 11:16:45.435821,-0.02505024336278428
2023-01-27 11:16:45.440821,-0.025942984240623763
2023-01-27 11:16:45.445821,-0.026612877845764132
2023-01-27 11:16:45.450821,-0.026627093356862842
2023-01-27 11:16:45.455821,-0.0257714595645666
2023-01-27 11:16:45.460821,-0.024114799467565933
2023-01-27 11:16:45.465821,-0.022093256935477236
2023-01-27 11:16:45.470821,-0.020447940582661157
2023-01-27 11:16:45.475821,-0.019761323928833015
2023-01-27 11:16:45.480821,-0.020054732608885434
2023-01-27 11:16:45.485821,-0.02098739147186273
2023-01-27 11:16:45.490821,-0.022257364079045123
2023-01-27 11:16:45.495821,-0.02355973049998279
2023-01-27 11:16:45.500821,-0.02441066721978249
2023-01-27 11:16:45.505821,-0.024425189942121533
2023-01-27 11:16:45.510821,-0.023650207286910634
2023-01-27 11:16:45.515821,-0.022309621796011887
2023-01-27 11:16:45.520821,-0.020427686302569612
2023-01-27 11:16:45.525821,-0.018054446205496788
2023-01-27 11:16:45.530821,-0.015581334599924578
2023-01-27 11:16:45.535821,-0.013366540893912315
2023-01-27 11:16:45.540821,-0.011289253949196923
2023-01-27 11:16:45.545821,-0.00915944576263424
2023-01-27 11:16:45.550821,-0.007313197066690312
2023-01-27 11:16:45.555821,-0.006298621650785227
2023-01-27 11:16:45.560821,-0.006281600234096297
2023-01-27 11:16:45.565821,-0.0073083243332803345
2023-01-27 11:16:45.570821,-0.009731757435764819
2023-01-27 11:16:45.575821,-0.01363098621368403
2023-01-27 11:16:45.580821,-0.018154350035474914
2023-01-27 11:16:45.585821,-0.022237500175833726
2023-01-27 11:16:45.590821,-0.025647519345106767
2023-01-27 11:16:45.595821,-0.028512081131339014
2023-01-27 11:16:45.600821,-0.030240160293585942
2023-01-27 11:16:45.605821,-0.02981027029454691
2023-01-27 11:16:45.610821,-0.026574434335146908
2023-01-27 11:16:45.615821,-0.01973728463053693
2023-01-27 11:16:45.620821,-0.007993156829480957
2023-01-27 11:16:45.625821,0.008269946090877056
2023-01-27 11:16:45.630821,0.024342405959086006
2023-01-27 11:16:45.635821,0.032262407243251835
2023-01-27 11:16:45.640821,0.024547323822211958
2023-01-27 11:16:45.645821,-0.0037984054069965744
2023-01-27 11:16:45.650821,-0.054630008651504726
2023-01-27 11:16:45.655821,-0.12371262162923809
2023-01-27 11:16:45.660821,-0.19797110177134591
2023-01-27 11:16:45.665821,-0.2599263191223143
2023-01-27 11:16:45.670821,-0.2977174477059948
2023-01-27 11:16:45.675821,-0.3094979226589201
2023-01-27 11:16:45.680821,-0.29790565052394113
2023-01-27 11:16:45.685821,-0.26456615328788735
2023-01-27 11:16:45.690821,-0.21300591426828683
2023-01-27 11:16:45.695821,-0.1533305644989012
2023-01-27 11:16:45.700821,-0.09864031704029445
2023-01-27 11:16:45.705821,-0.05671163648366915
2023-01-27 11:16:45.710821,-0.027914013546364524
2023-01-27 11:16:45.715821,-0.010121067985892131
2023-01-27 11:16:45.720821,-0.0017952854579842256
2023-01-27 11:16:45.725821,-0.00033656758023423096
2023-01-27 11:16:45.730821,-0.0015172890001336962
2023-01-27 11:16:45.735821,-0.0023559730034320883
2023-01-27 11:16:45.740821,-0.0025418589947720986
2023-01-27 11:16:45.745821,-0.0021876893006265445
2023-01-27 11:16:45.750821,-0.00024906114800491726
2023-01-27 11:16:45.755821,0.003966689109802123
2023-01-27 11:16:45.760821,0.009711949448425931
2023-01-27 11:16:45.765821,0.01632352732121938
2023-01-27 11:16:45.770821,0.0243218086965992
2023-01-27 11:16:45.775821,0.03411352634429924
2023-01-27 11:16:45.780821,0.04506282084562045
2023-01-27 11:16:45.785821,0.05675971508026119
2023-01-27 11:16:45.790821,0.06990734483441755
2023-01-27 11:16:45.795821,0.08505543321371067
2023-01-27 11:16:45.800821,0.10157286844494084
2023-01-27 11:16:45.805821,0.11861602962017045
2023-01-27 11:16:45.810821,0.1359578936832212
2023-01-27 11:16:45.815821,0.15306612849235526
2023-01-27 11:16:45.820821,0.16843120216213867
2023-01-27 11:16:45.825821,0.18061658740043632
2023-01-27 11:16:45.830821,0.1890426251731153
2023-01-27 11:16:45.835821,0.1930455416440963
2023-01-27 11:16:45.840821,0.1911711354967203
2023-01-27 11:16:45.845821,0.18225133419036857
2023-01-27 11:16:45.850821,0.1664770222735057
2023-01-27 11:16:45.855821,0.14489233493804926
2023-01-27 11:16:45.860821,0.11879330554606386
2023-01-27 11:16:45.865821,0.09029626846313465
2023-01-27 11:16:45.870821,0.06250955932548932
2023-01-27 11:16:45.875821,0.03815233707427967
2023-01-27 11:16:45.880821,0.01840243293737361
2023-01-27 11:16:45.885821,0.003437797306105396
2023-01-27 11:16:45.890821,-0.006806844264829342
2023-01-27 11:16:45.895821,-0.013029973022639703
2023-01-27 11:16:45.900821,-0.01677178326102887
2023-01-27 11:16:45.905821,-0.019328594207763644
2023-01-27 11:16:45.910821,-0.020916450008517492
2023-01-27 11:16:45.915821,-0.021372040733694964
2023-01-27 11:16:45.920821,-0.02095985860061017
2023-01-27 11:16:45.925821,-0.019953649491071767
2023-01-27 11:16:45.930821,-0.018217833777930265
2023-01-27 11:16:45.935821,-0.015890797600150074
2023-01-27 11:16:45.940821,-0.013818806680239035
2023-01-27 11:16:45.945821,-0.012645324692130045
2023-01-27 11:16:45.950821,-0.012032983250349133
2023-01-27 11:16:45.955821,-0.011323094367980957
2023-01-27 11:16:45.960821,-0.010332847670318585
2023-01-27 11:16:45.965821,-0.008991162292659283
2023-01-27 11:16:45.970821,-0.006939670565476584
2023-01-27 11:16:45.975821,-0.004183053970336914
2023-01-27 11:16:45.980821,-0.001538997881333633
2023-01-27 11:16:45.985821,0.00019232432532574723
2023-01-27 11:16:45.990821,0.000983988414406781
2023-01-27 11:16:45.995821,0.001033743261359632
2023-01-27 11:16:46.000821,0.00016010952028341308
2023-01-27 11:16:46.005821,-0.001634756801649909
2023-01-27 11:16:46.010821,-0.0036336292454777113
2023-01-27 11:16:46.015821,-0.00509659480303524
2023-01-27 11:16:46.020821,-0.005979991679245131
2023-01-27 11:16:46.025821,-0.006466905586421395
2023-01-27 11:16:46.030821,-0.0064346368927424655
2023-01-27 11:16:46.035821,-0.005986094474792419
2023-01-27 11:16:46.040821,-0.005868417494160075
2023-01-27 11:16:46.045821,-0.006683270446956044
2023-01-27 11:16:46.050821,-0.008191043896412035
2023-01-27 11:16:46.055821,-0.00995278358459467
2023-01-27 11:16:46.060821,-0.012047652302338861
2023-01-27 11:16:46.065821,-0.01449644565582265
2023-01-27 11:16:46.070821,-0.016472267636461008
2023-01-27 11:16:46.075821,-0.016636054962873327
2023-01-27 11:16:46.080821,-0.013763873393366892
2023-01-27 11:16:46.085821,-0.0067794322967528724
2023-01-27 11:16:46.090821,0.0046378776115240565
2023-01-27 11:16:46.095821,0.0181746482849121
2023-01-27 11:16:46.100821,0.027803382777277875
2023-01-27 11:16:46.105821,0.025458931922912466
2023-01-27 11:16:46.110821,0.004283426111173147
2023-01-27 11:16:46.115821,-0.03870527073740941
2023-01-27 11:16:46.120821,-0.1007687375717527
2023-01-27 11:16:46.125821,-0.17249087989330283
2023-01-27 11:16:46.130821,-0.23944368953258272
2023-01-27 11:16:46.135821,-0.2870680987834928
2023-01-27 11:16:46.140821,-0.3058337725054993
2023-01-27 11:16:46.145821,-0.2935109734535215
2023-01-27 11:16:46.150821,-0.25477465618071976
2023-01-27 11:16:46.155821,-0.19965669512748707
2023-01-27 11:16:46.160821,-0.1406366005542054
2023-01-27 11:16:46.165821,-0.08839707076549534
2023-01-27 11:16:46.170821,-0.04878360947704764
2023-01-27 11:16:46.175821,-0.022982757538556994
2023-01-27 11:16:46.180821,-0.009295683939074512
2023-01-27 11:16:46.185821,-0.004183053970336895
2023-01-27 11:16:46.190821,-0.0031687174336908677
2023-01-27 11:16:46.195821,-0.0027165811043232298
2023-01-27 11:16:46.200821,-0.001487083834877628
2023-01-27 11:16:46.205821,0.0006250540609470552
2023-01-27 11:16:46.210821,0.003898462095686284
2023-01-27 11:16:46.215821,0.008486310951411695
2023-01-27 11:16:46.220821,0.013732902126215824
2023-01-27 11:16:46.225821,0.019040107727050722
2023-01-27 11:16:46.230821,0.024824211453790723
2023-01-27 11:16:46.235821,0.0316133126616477
2023-01-27 11:16:46.240821,0.038999418947430066
2023-01-27 11:16:46.245821,0.04666268825531004
2023-01-27 11:16:46.250821,0.05561074879564429
2023-01-27 11:16:46.255821,0.06704907119274124
2023-01-27 11:16:46.260821,0.08074868743162017
2023-01-27 11:16:46.265821,0.09584963321685791
2023-01-27 11:16:46.270821,0.11231075955287896
2023-01-27 11:16:46.275821,0.12986700236797327
2023-01-27 11:16:46.280821,0.1464833185584407
2023-01-27 11:16:46.285821,0.1599176824092864
2023-01-27 11:16:46.290821,0.17008186899938885
2023-01-27 11:16:46.295821,0.17751535773277266
2023-01-27 11:16:46.300821,0.18020061705219934
2023-01-27 11:16:46.305821,0.17494301497936227
2023-01-27 11:16:46.310821,0.16201402354060473
2023-01-27 11:16:46.315821,0.145204871892929
2023-01-27 11:16:46.320821,0.1264008316440653
2023-01-27 11:16:46.325821,0.10330220311880106
2023-01-27 11:16:46.330821,0.0743405595719934
2023-01-27 11:16:46.335821,0.04320085048675529
2023-01-27 11:16:46.340821,0.015961712254337918
2023-01-27 11:16:46.345821,-0.004591743461787714
2023-01-27 11:16:46.350821,-0.01949007591083984
2023-01-27 11:16:46.355821,-0.029930472373962375
2023-01-27 11:16:46.360821,-0.03598501698363344
2023-01-27 11:16:46.365821,-0.038488905876874924
2023-01-27 11:16:46.370821,-0.039526258028501425
2023-01-27 11:16:46.375821,-0.04048427194356908
2023-01-27 11:16:46.380821,-0.041233446544505815
2023-01-27 11:16:46.385821,-0.04154205322265621
2023-01-27 11:16:46.390821,-0.041883305574342125
2023-01-27 11:16:46.395821,-0.04247963428497306
2023-01-27 11:16:46.400821,-0.04277496761547443
2023-01-27 11:16:46.405821,-0.042335391044616685
2023-01-27 11:16:46.410821,-0.04138069848600041
2023-01-27 11:16:46.415821,-0.04007558152079577
2023-01-27 11:16:46.420821,-0.038105158862452186
2023-01-27 11:16:46.425821,-0.035315554589033106
2023-01-27 11:16:46.430821,-0.03211396871092876
2023-01-27 11:16:46.435821,-0.02892076969146721
2023-01-27 11:16:46.440821,-0.02579117779787441
2023-01-27 11:16:46.445821,-0.022838514298200684
2023-01-27 11:16:46.450821,-0.020492880385168007
2023-01-27 11:16:46.455821,-0.019040107727050743
2023-01-27 11:16:46.460821,-0.018308033237286716
2023-01-27 11:16:46.465821,-0.018030405044555626
2023-01-27 11:16:46.470821,-0.01815060009687489
2023-01-27 11:16:46.475821,-0.018583338707685432
2023-01-27 11:16:46.480821,-0.01904701054547925
2023-01-27 11:16:46.485821,-0.01935263536870464
2023-01-27 11:16:46.490821,-0.01958140735841982
2023-01-27 11:16:46.495821,-0.01980940625071517
2023-01-27 11:16:46.500821,-0.019914147866584755
2023-01-27 11:16:46.505821,-0.019809406250715162
2023-01-27 11:16:46.510821,-0.019655547876757017
2023-01-27 11:16:46.515821,-0.01971324346959587
2023-01-27 11:16:46.520821,-0.02017655795572899
2023-01-27 11:16:46.525821,-0.021203756332397364
2023-01-27 11:16:46.530821,-0.022801610159872233
2023-01-27 11:16:46.535821,-0.024401148781180278
2023-01-27 11:16:46.540821,-0.02459205229412246
2023-01-27 11:16:46.545821,-0.021468203514814273
2023-01-27 11:16:46.550821,-0.01352132916734384
2023-01-27 11:16:46.555821,-0.0008173784008248599
2023-01-27 11:16:46.560821,0.013846404572943626
2023-01-27 11:16:46.565821,0.024473270401358608
2023-01-27 11:16:46.570821,0.02294480820301917
2023-01-27 11:16:46.575821,0.0017790000420063355
2023-01-27 11:16:46.580821,-0.0424594216987339
2023-01-27 11:16:46.585821,-0.10666787624359127
2023-01-27 11:16:46.590821,-0.1808827465925014
2023-01-27 11:16:46.595821,-0.2505745589733122
2023-01-27 11:16:46.600821,-0.30095347208431816
2023-01-27 11:16:46.605821,-0.3216384053230284
2023-01-27 11:16:46.610821,-0.3097266891702851
2023-01-27 11:16:46.615821,-0.2700954675674437
2023-01-27 11:16:46.620821,-0.21311170785834685
2023-01-27 11:16:46.625821,-0.1509505510330199
2023-01-27 11:16:46.630821,-0.09405094619027632
2023-01-27 11:16:46.635821,-0.04892250150442118
2023-01-27 11:16:46.640821,-0.017740193826577867
2023-01-27 11:16:46.645821,0.0006731351604684619
2023-01-27 11:16:46.650821,0.009295464906138865
2023-01-27 11:16:46.655821,0.01151541899889698
2023-01-27 11:16:46.660821,0.010304834484143214
2023-01-27 11:16:46.665821,0.00798145961016407
2023-01-27 11:16:46.670821,0.006273038166510758
2023-01-27 11:16:46.675821,0.0063467025756834515
2023-01-27 11:16:46.680821,0.008734186770462372
2023-01-27 11:16:46.685821,0.013318459503352604
2023-01-27 11:16:46.690821,0.019493435645240226
2023-01-27 11:16:46.695821,0.026468634605407694
2023-01-27 11:16:46.700821,0.03366292953131183
2023-01-27 11:16:46.705821,0.0410612449049949
2023-01-27 11:16:46.710821,0.04927368581381319
2023-01-27 11:16:46.715821,0.059163771569728824
2023-01-27 11:16:46.720821,0.07130389434570468
2023-01-27 11:16:46.725821,0.08565644919872274
2023-01-27 11:16:46.730821,0.1015968163729716
2023-01-27 11:16:46.735821,0.11815925687551487
2023-01-27 11:16:46.740821,0.13441154644558656
2023-01-27 11:16:46.745821,0.1497966051101684
2023-01-27 11:16:46.750821,0.16410511711400078
2023-01-27 11:16:46.755821,0.17696242034435272
2023-01-27 11:16:46.760821,0.18726219048218384
2023-01-27 11:16:46.765821,0.19309362769126884
2023-01-27 11:16:46.770821,0.19223006023236325
2023-01-27 11:16:46.775821,0.18290042877197257
2023-01-27 11:16:46.780821,0.16461667879527034
2023-01-27 11:16:46.785821,0.13876199722290022
2023-01-27 11:16:46.790821,0.10845240791459283
2023-01-27 11:16:46.795821,0.0775307416915893
2023-01-27 11:16:46.800821,0.04929792911169388
2023-01-27 11:16:46.805821,0.025723379105329465
2023-01-27 11:16:46.810821,0.0072846570321784595
2023-01-27 11:16:46.815821,-0.006755392067134264
2023-01-27 11:16:46.820821,-0.01768197768197114
2023-01-27 11:16:46.825821,-0.026468634605407663
2023-01-27 11:16:46.830821,-0.033332497315314506
2023-01-27 11:16:46.835821,-0.038032136857509634
2023-01-27 11:16:46.840821,-0.04041114565868347
2023-01-27 11:16:46.845821,-0.04060447216033933
2023-01-27 11:16:46.850821,-0.039029326955772506
2023-01-27 11:16:46.855821,-0.0364454612135887
2023-01-27 11:16:46.860821,-0.033831473916166636
2023-01-27 11:16:46.865821,-0.0318777561187744
2023-01-27 11:16:46.870821,-0.030617287726601838
2023-01-27 11:16:46.875821,-0.029666027054190615
2023-01-27 11:16:46.880821,-0.02864893566485182
2023-01-27 11:16:46.885821,-0.02726197242736805
2023-01-27 11:16:46.890821,-0.025251248510360255
2023-01-27 11:16:46.895821,-0.022694271057844086
2023-01-27 11:16:46.900821,-0.02012884309899702
2023-01-27 11:16:46.905821,-0.018078487366437863
2023-01-27 11:16:46.910821,-0.016573750594228803
2023-01-27 11:16:46.915821,-0.015361905097961396
2023-01-27 11:16:46.920821,-0.01432351114762929
2023-01-27 11:16:46.925821,-0.013366540893912305
2023-01-27 11:16:46.930821,-0.012217691774709574
2023-01-27 11:16:46.935821,-0.010770162567496242
2023-01-27 11:16:46.940821,-0.009419286369469204
2023-01-27 11:16:46.945821,-0.008606513962149563
2023-01-27 11:16:46.950821,-0.008243971832105975
2023-01-27 11:16:46.955821,-0.008029541000723782
2023-01-27 11:16:46.960821,-0.008029633936807879
2023-01-27 11:16:46.965821,-0.008390149101614895
2023-01-27 11:16:46.970821,-0.008806924946900599
2023-01-27 11:16:46.975821,-0.00903924368321888
2023-01-27 11:16:46.980821,-0.009695614733695474
2023-01-27 11:16:46.985821,-0.011563500389456725
2023-01-27 11:16:46.990821,-0.014176165437854858
2023-01-27 11:16:46.995821,-0.015962919220328237
2023-01-27 11:16:47.000821,-0.015829262394747266
2023-01-27 11:16:47.005821,-0.01348674297332758
2023-01-27 11:16:47.010821,-0.008073275021648773
2023-01-27 11:16:47.015821,0.0019232432823627712
2023-01-27 11:16:47.020821,0.01593993370334731
2023-01-27 11:16:47.025821,0.028848648071289014
2023-01-27 11:16:47.030821,0.032092822919278605
2023-01-27 11:16:47.035821,0.01754959486424924
2023-01-27 11:16:47.040821,-0.019128839704192643
2023-01-27 11:16:47.045821,-0.07683356851339337
2023-01-27 11:16:47.050821,-0.14825332942290617
2023-01-27 11:16:47.055821,-0.22052387893199904
2023-01-27 11:16:47.060821,-0.2785270824281284
2023-01-27 11:16:47.065821,-0.30995470285415616
2023-01-27 11:16:47.070821,-0.30922801433543123
2023-01-27 11:16:47.075821,-0.27848562598228443
2023-01-27 11:16:47.080821,-0.22615274230045174
2023-01-27 11:16:47.085821,-0.16414880752563465
2023-01-27 11:16:47.090821,-0.10434778809715033
2023-01-27 11:16:47.095821,-0.05531728267669668
2023-01-27 11:16:47.100821,-0.020770870717903712
2023-01-27 11:16:47.105821,-0.00012020270514757195
2023-01-27 11:16:47.110821,0.009895680695673793
2023-01-27 11:16:47.115821,0.013558864593505802
2023-01-27 11:16:47.120821,0.014779912420533737
2023-01-27 11:16:47.125821,0.016107162460684644
2023-01-27 11:16:47.130821,0.018503996010150035
2023-01-27 11:16:47.135821,0.021876892074942433
2023-01-27 11:16:47.140821,0.02576934297705029
2023-01-27 11:16:47.145821,0.02978622913360586
2023-01-27 11:16:47.150821,0.033813462975019026
2023-01-27 11:16:47.155821,0.03812829777598383
2023-01-27 11:16:47.160821,0.04328787440694895
2023-01-27 11:16:47.165821,0.04983603954315184
2023-01-27 11:16:47.170821,0.05811461778389912
2023-01-27 11:16:47.175821,0.06829917430877681
2023-01-27 11:16:47.180821,0.08047673909960602
2023-01-27 11:16:47.185821,0.09462356567382808
2023-01-27 11:16:47.190821,0.11054300628272293
2023-01-27 11:16:47.195821,0.12782356142997736
2023-01-27 11:16:47.200821,0.1457994040148465
2023-01-27 11:16:47.205821,0.16354779899120325
2023-01-27 11:16:47.210821,0.17998262401324633
2023-01-27 11:16:47.215821,0.19398312270641327
2023-01-27 11:16:47.220821,0.20444127543512733
2023-01-27 11:16:47.225821,0.21023452281951888
2023-01-27 11:16:47.230821,0.21024731560069024
2023-01-27 11:16:47.235821,0.2035512626171112
2023-01-27 11:16:47.240821,0.18976501542396174
2023-01-27 11:16:47.245821,0.16946177184581745
2023-01-27 11:16:47.250821,0.144329706782347
2023-01-27 11:16:47.255821,0.11686106771230687
2023-01-27 11:16:47.260821,0.08969502863755648
2023-01-27 11:16:47.265821,0.06498157978057857
2023-01-27 11:16:47.270821,0.04401618994777442
2023-01-27 11:16:47.275821,0.027189850807189914
2023-01-27 11:16:47.280821,0.014240586480192236
2023-01-27 11:16:47.285821,0.004687905311584414
2023-01-27 11:16:47.290821,-0.001860523822765641
2023-01-27 11:16:47.295821,-0.005745689384639215
2023-01-27 11:16:47.300821,-0.007447119672540947
2023-01-27 11:16:47.305821,-0.007596810813993168
2023-01-27 11:16:47.310821,-0.006814048029112148
2023-01-27 11:16:47.315821,-0.005577405449002924
2023-01-27 11:16:47.320821,-0.00417226912944372
2023-01-27 11:16:47.325821,-0.0026444594841450453
2023-01-27 11:16:47.330821,-0.0008631372149395512
2023-01-27 11:16:47.335821,0.0012260675430296904
2023-01-27 11:16:47.340821,0.0033970699343478256
2023-01-27 11:16:47.345821,0.0052408380433916855
2023-01-27 11:16:47.350821,0.0064100083364565606
2023-01-27 11:16:47.355821,0.0067313513718544864
2023-01-27 11:16:47.360821,0.006238760460972268
2023-01-27 11:16:47.365821,0.005264878273010216
2023-01-27 11:16:47.370821,0.00441143241969173
2023-01-27 11:16:47.375821,0.004231135360896483
2023-01-27 11:16:47.380821,0.004905082760250792
2023-01-27 11:16:47.385821,0.006250540725886826
2023-01-27 11:16:47.390821,0.007909946043196456
2023-01-27 11:16:47.395821,0.009447932243347078
2023-01-27 11:16:47.400821,0.010479449972226945
2023-01-27 11:16:47.405821,0.010962486267089759
2023-01-27 11:16:47.410821,0.011312669443127182
2023-01-27 11:16:47.415821,0.01204431056976306
2023-01-27 11:16:47.420821,0.013303782363666167
2023-01-27 11:16:47.425821,0.014784932136535613
2023-01-27 11:16:47.430821,0.015903576019296317
2023-01-27 11:16:47.435821,0.01591483876109122
2023-01-27 11:16:47.440821,0.014121422339832802
2023-01-27 11:16:47.445821,0.010337432846426934
2023-01-27 11:16:47.450821,0.005212543701358579
2023-01-27 11:16:47.455821,7.212162017817055e-05
2023-01-27 11:16:47.460821,-0.0033807030140985666
2023-01-27 11:16:47.465821,-0.0031973919831216383
2023-01-27 11:16:47.470821,0.0023617629784786656
2023-01-27 11:16:47.475821,0.013630986213684033
2023-01-27 11:16:47.480821,0.028267482383274985
2023-01-27 11:16:47.485821,0.04094104096293437
2023-01-27 11:16:47.490821,0.04422729214274663
2023-01-27 11:16:47.495821,0.03048340603709221
2023-01-27 11:16:47.500821,-0.005359590683171565
2023-01-27 11:16:47.505821,-0.06276985257863986
2023-01-27 11:16:47.510821,-0.13417998691357147
2023-01-27 11:16:47.515821,-0.20653228461742384
2023-01-27 11:16:47.520821,-0.2651138516762001
2023-01-27 11:16:47.525821,-0.2978142201900481
2023-01-27 11:16:47.530821,-0.2985219795626776
2023-01-27 11:16:47.535821,-0.26886940002441384
2023-01-27 11:16:47.540821,-0.2174043001723421
2023-01-27 11:16:47.545821,-0.15621542930603016
2023-01-27 11:16:47.550821,-0.09688975605834847
2023-01-27 11:16:47.555821,-0.0478406772017478
2023-01-27 11:16:47.560821,-0.013256445807724275
2023-01-27 11:16:47.565821,0.0069717569276689815
2023-01-27 11:16:47.570821,0.01622314857522114
2023-01-27 11:16:47.575821,0.01899202726781355
2023-01-27 11:16:47.580821,0.018952120002147382
2023-01-27 11:16:47.585821,0.018487175926566096
2023-01-27 11:16:47.590821,0.019016146250295397
2023-01-27 11:16:47.595821,0.02096335217356672
2023-01-27 11:16:47.600821,0.023826642572891642
2023-01-27 11:16:47.605821,0.027093689888715678
2023-01-27 11:16:47.610821,0.03102440952385136
2023-01-27 11:16:47.615821,0.03615697473287583
2023-01-27 11:16:47.620821,0.042539275457440316
2023-01-27 11:16:47.625821,0.050100486725568646
2023-01-27 11:16:47.630821,0.05929817550043646
2023-01-27 11:16:47.635821,0.07060706615447992
2023-01-27 11:16:47.640821,0.08378361749106442
2023-01-27 11:16:47.645821,0.09842197597026817
2023-01-27 11:16:47.650821,0.11469599818366902
2023-01-27 11:16:47.655821,0.13255953788757313
2023-01-27 11:16:47.660821,0.15071574235605587
2023-01-27 11:16:47.665821,0.1674904525279997
2023-01-27 11:16:47.670821,0.18221935308725418
2023-01-27 11:16:47.675821,0.1945360600948333
2023-01-27 11:16:47.680821,0.2029239362432763
2023-01-27 11:16:47.685821,0.20561873912811257
2023-01-27 11:16:47.690821,0.2024841311338577
2023-01-27 11:16:47.695821,0.19412736594676963
2023-01-27 11:16:47.700821,0.17968032824969843
2023-01-27 11:16:47.705821,0.15811464190483082
2023-01-27 11:16:47.710821,0.13197503232503774
2023-01-27 11:16:47.715821,0.10681211948394764
2023-01-27 11:16:47.720821,0.08562104560242202
2023-01-27 11:16:47.725821,0.06632785499095908
2023-01-27 11:16:47.730821,0.04639942238004436
2023-01-27 11:16:47.735821,0.027502378448843935
2023-01-27 11:16:47.740821,0.013194565515292465
2023-01-27 11:16:47.745821,0.003822445869445829
2023-01-27 11:16:47.750821,-0.0034065315984281833
2023-01-27 11:16:47.755821,-0.010217229835688964
2023-01-27 11:16:47.760821,-0.015955663082091804
2023-01-27 11:16:47.765821,-0.02014597319066517
2023-01-27 11:16:47.770821,-0.023611356500843877
2023-01-27 11:16:47.775821,-0.026612877845764094
2023-01-27 11:16:47.780821,-0.028042566522524206
2023-01-27 11:16:47.785821,-0.02721389196813099
2023-01-27 11:16:47.790821,-0.024908222965772144
2023-01-27 11:16:47.795821,-0.022069215774536178
2023-01-27 11:16:47.800821,-0.018846054198914743
2023-01-27 11:16:47.805821,-0.015506148338317795
2023-01-27 11:16:47.810821,-0.013016461889098318
2023-01-27 11:16:47.815821,-0.01199623011052598
2023-01-27 11:16:47.820821,-0.01201539797646897
2023-01-27 11:16:47.825821,-0.012453000061213847
2023-01-27 11:16:47.830821,-0.01316571076555284
2023-01-27 11:16:47.835821,-0.01384735107421865
2023-01-27 11:16:47.840821,-0.013655765980987467
2023-01-27 11:16:47.845821,-0.012116432189941354
2023-01-27 11:16:47.850821,-0.009775725898198724
2023-01-27 11:16:47.855821,-0.007524689193814936
2023-01-27 11:16:47.860821,-0.0058882374918697925
2023-01-27 11:16:47.865821,-0.0052889189682900385
2023-01-27 11:16:47.870821,-0.006217998215308822
2023-01-27 11:16:47.875821,-0.008582472801208404
2023-01-27 11:16:47.880821,-0.01142399618658247
2023-01-27 11:16:47.885821,-0.013775229454040475
2023-01-27 11:16:47.890821,-0.015420631625010082
2023-01-27 11:16:47.895821,-0.016587972640991225
2023-01-27 11:16:47.900821,-0.017480646069424642
2023-01-27 11:16:47.905821,-0.018439095467328952
2023-01-27 11:16:47.910821,-0.019889335176050914
2023-01-27 11:16:47.915821,-0.0214922428131103
2023-01-27 11:16:47.920821,-0.02159860746262471
2023-01-27 11:16:47.925821,-0.017982324585318427
2023-01-27 11:16:47.930821,-0.009167616641117576
2023-01-27 11:16:47.935821,0.004519621841609421
2023-01-27 11:16:47.940821,0.020008080948204367
2023-01-27 11:16:47.945821,0.030844014137983274
2023-01-27 11:16:47.950821,0.028241107144396475
2023-01-27 11:16:47.955821,0.004375378601253037
2023-01-27 11:16:47.960821,-0.04376053466461429
2023-01-27 11:16:47.965821,-0.11212508380413042
2023-01-27 11:16:47.970821,-0.18976754037748983
2023-01-27 11:16:47.975821,-0.2612245082855222
2023-01-27 11:16:47.980821,-0.3109578332264175
2023-01-27 11:16:47.985821,-0.3285380303859708
2023-01-27 11:16:47.990821,-0.3119778259296378
2023-01-27 11:16:47.995821,-0.2675231397151946
2023-01-27 11:16:48.000821,-0.20668026516043994
2023-01-27 11:16:48.005821,-0.14234404265880568
2023-01-27 11:16:48.010821,-0.08521783756665556
2023-01-27 11:16:48.015821,-0.041349731385707814
2023-01-27 11:16:48.020821,-0.011732993272632285
2023-01-27 11:16:48.025821,0.006034175865352068
2023-01-27 11:16:48.030821,0.015520243413639315
2023-01-27 11:16:48.035821,0.020049810409545746
2023-01-27 11:16:48.040821,0.022102145029663005
2023-01-27 11:16:48.045821,0.023054879158735133
2023-01-27 11:16:48.050821,0.02340925106966108
2023-01-27 11:16:48.055821,0.0235116481781005
2023-01-27 11:16:48.060821,0.024023559727954686
2023-01-27 11:16:48.065821,0.025675296783447137
2023-01-27 11:16:48.070821,0.028898919795862402
2023-01-27 11:16:48.075821,0.033921204507350894
2023-01-27 11:16:48.080821,0.040950348658179495
2023-01-27 11:16:48.085821,0.05002836510539051
2023-01-27 11:16:48.090821,0.060912363367198886
2023-01-27 11:16:48.095821,0.07332365214824665
2023-01-27 11:16:48.100821,0.0871297781243804
2023-01-27 11:16:48.105821,0.10210017859935752
2023-01-27 11:16:48.110821,0.11768944345567596
2023-01-27 11:16:48.115821,0.13325671851634965
2023-01-27 11:16:48.120821,0.14831805256173078
2023-01-27 11:16:48.125821,0.1624178886413573
2023-01-27 11:16:48.130821,0.17494112754527788
2023-01-27 11:16:48.135821,0.18518428504466994
2023-01-27 11:16:48.140821,0.19234753171903632
2023-01-27 11:16:48.145821,0.19523322582244862
2023-01-27 11:16:48.150821,0.19218711457256274
2023-01-27 11:16:48.155821,0.18169841170310957
2023-01-27 11:16:48.160821,0.16318667149646113
2023-01-27 11:16:48.165821,0.13736765086650837
2023-01-27 11:16:48.170821,0.10625355039896489
2023-01-27 11:16:48.175821,0.07296304404735561
2023-01-27 11:16:48.180821,0.0410911437167058
2023-01-27 11:16:48.185821,0.01363098621368407
2023-01-27 11:16:48.190821,-0.007842110204508788
2023-01-27 11:16:48.195821,-0.023175081238150493
2023-01-27 11:16:48.200821,-0.03316998292130718
2023-01-27 11:16:48.205821,-0.03916203975677489
2023-01-27 11:16:48.210821,-0.042593530776768786
2023-01-27 11:16:48.215821,-0.04449903964996328
2023-01-27 11:16:48.220821,-0.0453053740920737
2023-01-27 11:16:48.225821,-0.04517217725515356
2023-01-27 11:16:48.230821,-0.04438528947594554
2023-01-27 11:16:48.235821,-0.043345093727111816
2023-01-27 11:16:48.240821,-0.042390508107083356
2023-01-27 11:16:48.245821,-0.041782461106777045
2023-01-27 11:16:48.250821,-0.041647113684859814
2023-01-27 11:16:48.255821,-0.041734378784894874
2023-01-27 11:16:48.260821,-0.04139863482853536
2023-01-27 11:16:48.265821,-0.04005154222249969
2023-01-27 11:16:48.270821,-0.03760458861145127
2023-01-27 11:16:48.275821,-0.034426055848598376
2023-01-27 11:16:48.280821,-0.03105616096968385
2023-01-27 11:16:48.285821,-0.028055310249328527
2023-01-27 11:16:48.290821,-0.025843150561225395
2023-01-27 11:16:48.295821,-0.02440114878118025
2023-01-27 11:16:48.300821,-0.02323507303165723
2023-01-27 11:16:48.305821,-0.02182881161570541
2023-01-27 11:16:48.310821,-0.02007501441408022
2023-01-27 11:16:48.315821,-0.01819868944585317
2023-01-27 11:16:48.320821,-0.016486695229315663
2023-01-27 11:16:48.325821,-0.015265743248164591
2023-01-27 11:16:48.330821,-0.014900166681538858
2023-01-27 11:16:48.335821,-0.015506148338317786
2023-01-27 11:16:48.340821,-0.016774287601060065
2023-01-27 11:16:48.345821,-0.01831889152526843
2023-01-27 11:16:48.350821,-0.020102259331577055
2023-01-27 11:16:48.355821,-0.022285580635070763
2023-01-27 11:16:48.360821,-0.024777483027486724
2023-01-27 11:16:48.365821,-0.027165811508893842
2023-01-27 11:16:48.370821,-0.02889343800107264
2023-01-27 11:16:48.375821,-0.029040973633527704
2023-01-27 11:16:48.380821,-0.025962417747750408
2023-01-27 11:16:48.385821,-0.01783808134496206
2023-01-27 11:16:48.390821,-0.004421718940779044
2023-01-27 11:16:48.395821,0.011202892288565578
2023-01-27 11:16:48.400821,0.022316497404147734
2023-01-27 11:16:48.405821,0.02019405364990229
2023-01-27 11:16:48.410821,-0.002821841546874675
2023-01-27 11:16:48.415821,-0.04981200024485573
2023-01-27 11:16:48.420821,-0.11674726249480723
2023-01-27 11:16:48.425821,-0.1923964470624922
2023-01-27 11:16:48.430821,-0.2612262824104445
2023-01-27 11:16:48.435821,-0.30827185511589034
2023-01-27 11:16:48.440821,-0.3239032243652403
2023-01-27 11:16:48.445821,-0.3065649867057798
2023-01-27 11:16:48.450821,-0.2625957175083094
2023-01-27 11:16:48.455821,-0.20347914099693276
2023-01-27 11:16:48.460821,-0.14184272697674152
2023-01-27 11:16:48.465821,-0.08784413337707496
2023-01-27 11:16:48.470821,-0.047146846666175454
2023-01-27 11:16:48.475821,-0.020795067772269183
2023-01-27 11:16:48.480821,-0.006494675675517314
2023-01-27 11:16:48.485821,-0.00043272972106929804
2023-01-27 11:16:48.490821,0.0011563252463398545
2023-01-27 11:16:48.495821,0.0011058648815377777
2023-01-27 11:16:48.500821,0.0011298352950128035
2023-01-27 11:16:48.505821,0.002091526985168322
2023-01-27 11:16:48.510821,0.004417649370627557
2023-01-27 11:16:48.515821,0.008390149101614935
2023-01-27 11:16:48.520821,0.01418131107289113
2023-01-27 11:16:48.525821,0.02170860767364503
2023-01-27 11:16:48.530821,0.030534780976878104
2023-01-27 11:16:48.535821,0.03997942060232154
2023-01-27 11:16:48.540821,0.04941194317062818
2023-01-27 11:16:48.545821,0.05856275558471656
2023-01-27 11:16:48.550821,0.06768745011972516
2023-01-27 11:16:48.555821,0.07748266309499736
2023-01-27 11:16:48.560821,0.08875705247405562
2023-01-27 11:16:48.565821,0.10200401395559305
2023-01-27 11:16:48.570821,0.1171046199966002
2023-01-27 11:16:48.575821,0.13330480456352223
2023-01-27 11:16:48.580821,0.1494209689050791
2023-01-27 11:16:48.585821,0.16410073637962333
2023-01-27 11:16:48.590821,0.17598512564894456
2023-01-27 11:16:48.595821,0.18374185264110549
2023-01-27 11:16:48.600821,0.18607236678080225
2023-01-27 11:16:48.605821,0.18184265494346602
2023-01-27 11:16:48.610821,0.1704017274264571
2023-01-27 11:16:48.615821,0.15198430418968192
2023-01-27 11:16:48.620821,0.12796435591432687
2023-01-27 11:16:48.625821,0.10072986781597126
2023-01-27 11:16:48.630821,0.07312086892544918
2023-01-27 11:16:48.635821,0.04764835163950911
2023-01-27 11:16:48.640821,0.025889369055686565
2023-01-27 11:16:48.645821,0.00834206771105515
2023-01-27 11:16:48.650821,-0.005291964012664262
2023-01-27 11:16:48.655821,-0.015650391578674296
2023-01-27 11:16:48.660821,-0.023322609382834834
2023-01-27 11:16:48.665821,-0.028680365532636583
2023-01-27 11:16:48.670821,-0.03197021004807901
2023-01-27 11:16:48.675821,-0.03353655338287355
2023-01-27 11:16:48.680821,-0.033908819780089645
2023-01-27 11:16:48.685821,-0.03363271802663805
2023-01-27 11:16:48.690821,-0.03304131516759179
2023-01-27 11:16:48.695821,-0.03221432492136954
2023-01-27 11:16:48.700821,-0.03110340314848285
2023-01-27 11:16:48.705821,-0.029641985893249425
2023-01-27 11:16:48.710821,-0.02779249607088988
2023-01-27 11:16:48.715821,-0.025579135864973016
2023-01-27 11:16:48.720821,-0.023060850387427705
2023-01-27 11:16:48.725821,-0.020218094810843388
2023-01-27 11:16:48.730821,-0.016919279224176374
2023-01-27 11:16:48.735821,-0.013102094642817854
2023-01-27 11:16:48.740821,-0.008992699673605341
2023-01-27 11:16:48.745821,-0.005096594803035262
2023-01-27 11:16:48.750821,-0.00198741861159471
2023-01-27 11:16:48.755821,-9.616216266287836e-05
2023-01-27 11:16:48.760821,0.0004502955977924046
2023-01-27 11:16:48.765821,-4.8081081331427334e-05
2023-01-27 11:16:48.770821,-0.0009343318510549636
2023-01-27 11:16:48.775821,-0.001538594602607129
2023-01-27 11:16:48.780821,-0.001526695714858306
2023-01-27 11:16:48.785821,-0.000961621641181388
2023-01-27 11:16:48.790821,-0.000183054987340905
2023-01-27 11:16:48.795821,0.00026444596005603194
2023-01-27 11:16:48.800821,-0.00026533511979250806
2023-01-27 11:16:48.805821,-0.0022357702255249214
2023-01-27 11:16:48.810821,-0.005629735990896994
2023-01-27 11:16:48.815821,-0.009832581505179424
2023-01-27 11:16:48.820821,-0.013576101823936837
2023-01-27 11:16:48.825821,-0.014953216537833184
2023-01-27 11:16:48.830821,-0.011999309663234859
2023-01-27 11:16:48.835821,-0.0040868921205401134
2023-01-27 11:16:48.840821,0.006623854977951694
2023-01-27 11:16:48.845821,0.014808973297476768
2023-01-27 11:16:48.850821,0.013092928832993697
2023-01-27 11:16:48.855821,-0.005625486373901309
2023-01-27 11:16:48.860821,-0.045123816162511744
2023-01-27 11:16:48.865821,-0.10313391685485826
2023-01-27 11:16:48.870821,-0.17067248084728823
2023-01-27 11:16:48.875821,-0.23439526557922355
2023-01-27 11:16:48.880821,-0.2808919103429253
2023-01-27 11:16:48.885821,-0.3007712066173551
2023-01-27 11:16:48.890821,-0.29117737596998383
2023-01-27 11:16:48.895821,-0.2562962174415587
2023-01-27 11:16:48.900821,-0.20558004286008189
2023-01-27 11:16:48.905821,-0.1501572132110594
2023-01-27 11:16:48.910821,-0.09929371493863569
2023-01-27 11:16:48.915821,-0.05868295952677717
2023-01-27 11:16:48.920821,-0.030426656588858198
2023-01-27 11:16:48.925821,-0.013582905754446869
2023-01-27 11:16:48.930821,-0.005137731973853516
2023-01-27 11:16:48.935821,-0.0016587972640990654
2023-01-27 11:16:48.940821,-0.0006627637537871784
2023-01-27 11:16:48.945821,-0.0005769729614257528
2023-01-27 11:16:48.950821,-8.927654601857663e-05
2023-01-27 11:16:48.955821,0.0016587972640991116
2023-01-27 11:16:48.960821,0.004570909800521086
2023-01-27 11:16:48.965821,0.008197824470698816
2023-01-27 11:16:48.970821,0.01269684262609939
2023-01-27 11:16:48.975821,0.018391013145446767
2023-01-27 11:16:48.980821,0.024775581822989105
2023-01-27 11:16:48.985821,0.031252704560756565
2023-01-27 11:16:48.990821,0.03872057144211631
2023-01-27 11:16:48.995821,0.04885037988424299
2023-01-27 11:16:49.000821,0.06149187518770096
2023-01-27 11:16:49.005821,0.07445355504751197
2023-01-27 11:16:49.010821,0.08655320231253355
2023-01-27 11:16:49.015821,0.09921531379222855
2023-01-27 11:16:49.020821,0.11382689292216636
2023-01-27 11:16:49.025821,0.12892942130565632
2023-01-27 11:16:49.030821,0.14167888790636649
2023-01-27 11:16:49.035821,0.151142880320549
2023-01-27 11:16:49.040821,0.15833280101935462
2023-01-27 11:16:49.045821,0.16342759132385243
2023-01-27 11:16:49.050821,0.16475159166522682
2023-01-27 11:16:49.055821,0.16047060489654533
2023-01-27 11:16:49.060821,0.14975451914778407
2023-01-27 11:16:49.065821,0.13219892978668205
2023-01-27 11:16:49.070821,0.10778930578607715
2023-01-27 11:16:49.075821,0.07817983627319336
2023-01-27 11:16:49.080821,0.04698830527527902
2023-01-27 11:16:49.085821,0.01810252666473374
2023-01-27 11:16:49.090821,-0.005908815595828471
2023-01-27 11:16:49.095821,-0.023824175819754566
2023-01-27 11:16:49.100821,-0.035425928121682305
2023-01-27 11:16:49.105821,-0.041710339486598844
2023-01-27 11:16:49.110821,-0.04460575975420594
2023-01-27 11:16:49.115821,-0.045725107192993095
2023-01-27 11:16:49.120821,-0.04563483338432457
2023-01-27 11:16:49.125821,-0.0444990396499633
2023-01-27 11:16:49.130821,-0.0428124734061208
2023-01-27 11:16:49.135821,-0.04115740582346915
2023-01-27 11:16:49.140821,-0.03980236820134288
2023-01-27 11:16:49.145821,-0.038921635597944156
2023-01-27 11:16:49.150821,-0.038715272638951984
2023-01-27 11:16:49.155821,-0.03892163559794418
2023-01-27 11:16:49.160821,-0.038642560231609696
2023-01-27 11:16:49.165821,-0.0370705127716064
2023-01-27 11:16:49.170821,-0.03414465971269719
2023-01-27 11:16:49.175821,-0.03031512163579462
2023-01-27 11:16:49.180821,-0.026087032584007505
2023-01-27 11:16:49.185821,-0.02204517647624008
2023-01-27 11:16:49.190821,-0.018847246521067187
2023-01-27 11:16:49.195821,-0.016756257042288693
2023-01-27 11:16:49.200821,-0.01540890506532198
2023-01-27 11:16:49.205821,-0.014304121956229153
2023-01-27 11:16:49.210821,-0.01326650589868231
2023-01-27 11:16:49.215821,-0.012260675430297756
2023-01-27 11:16:49.220821,-0.011136115456779179
2023-01-27 11:16:49.225821,-0.009856621734797897
2023-01-27 11:16:49.230821,-0.008695388451338165
2023-01-27 11:16:49.235821,-0.007933378219604374
2023-01-27 11:16:49.240821,-0.007612516483896617
2023-01-27 11:16:49.245821,-0.007789134979247957
2023-01-27 11:16:49.250821,-0.0086998390465991
2023-01-27 11:16:49.255821,-0.010337432846426901
2023-01-27 11:16:49.260821,-0.011991422521889705
2023-01-27 11:16:49.265821,-0.012356838211417068
2023-01-27 11:16:49.270821,-0.009936608820676303
2023-01-27 11:16:49.275821,-0.0034618377685545453
2023-01-27 11:16:49.280821,0.0072586342916717015
2023-01-27 11:16:49.285821,0.020049810409545767
2023-01-27 11:16:49.290821,0.029789382432800347
2023-01-27 11:16:49.295821,0.029545824974775304
2023-01-27 11:16:49.300821,0.013040719753633506
2023-01-27 11:16:49.305821,-0.022694271057844113
2023-01-27 11:16:49.310821,-0.07531540685525415
2023-01-27 11:16:49.315821,-0.13664643466472615
2023-01-27 11:16:49.320821,-0.19451437969605967
2023-01-27 11:16:49.325821,-0.2366550862789153
2023-01-27 11:16:49.330821,-0.2547571997945561
2023-01-27 11:16:49.335821,-0.2466799914836882
2023-01-27 11:16:49.340821,-0.21638509212351492
2023-01-27 11:16:49.345821,-0.17215430736541731
2023-01-27 11:16:49.350821,-0.12373752095660114
2023-01-27 11:16:49.355821,-0.07935782521963114
2023-01-27 11:16:49.360821,-0.04389779060002022
2023-01-27 11:16:49.365821,-0.018871825188398247
2023-01-27 11:16:49.370821,-0.003428111590727345
2023-01-27 11:16:49.375821,0.004615783691406175
2023-01-27 11:16:49.380821,0.007871407130060166
2023-01-27 11:16:49.385821,0.008534392341971274
2023-01-27 11:16:49.390821,0.007990033108602246
2023-01-27 11:16:49.395821,0.0070919594727455884
2023-01-27 11:16:49.400821,0.006565776505513344
2023-01-27 11:16:49.405821,0.007019837852567418
2023-01-27 11:16:49.410821,0.008823563615238585
2023-01-27 11:16:49.415821,0.0122125949710607
2023-01-27 11:16:49.420821,0.017372175823274914
2023-01-27 11:16:49.425821,0.02425690554082384
2023-01-27 11:16:49.430821,0.03250920733465888
2023-01-27 11:16:49.435821,0.04175841808319086
2023-01-27 11:16:49.440821,0.0518971045991256
2023-01-27 11:16:49.445821,0.06296217441558827
2023-01-27 11:16:49.450821,0.07493493614656868
2023-01-27 11:16:49.455821,0.08779605478048322
2023-01-27 11:16:49.460821,0.10155789813325956
2023-01-27 11:16:49.465821,0.11601965129375442
2023-01-27 11:16:49.470821,0.13059407470813125
2023-01-27 11:16:49.475821,0.14448365569114674
2023-01-27 11:16:49.480821,0.156836154829229
2023-01-27 11:16:49.485821,0.16657690703868855
2023-01-27 11:16:49.490821,0.17230144881866855
2023-01-27 11:16:49.495821,0.17258703708648665
2023-01-27 11:16:49.500821,0.1663976039482889
2023-01-27 11:16:49.505821,0.15323440730571733
2023-01-27 11:16:49.510821,0.1332924461259427
2023-01-27 11:16:49.515821,0.10782182216644276
2023-01-27 11:16:49.520821,0.07922587446138028
2023-01-27 11:16:49.525821,0.05050917714834208
2023-01-27 11:16:49.530821,0.024493301102501756
2023-01-27 11:16:49.535821,0.00334163522347797
2023-01-27 11:16:49.540821,-0.011714020219647986
2023-01-27 11:16:49.545821,-0.020650824531912765
2023-01-27 11:16:49.550821,-0.02460049680284799
2023-01-27 11:16:49.555821,-0.025218527764081945
2023-01-27 11:16:49.560821,-0.023974759731893516
2023-01-27 11:16:49.565821,-0.02190093323588379
2023-01-27 11:16:49.570821,-0.019594115887207702
2023-01-27 11:16:49.575821,-0.01714090630412099
2023-01-27 11:16:49.580821,-0.014218949618487357
2023-01-27 11:16:49.585821,-0.010601878166198645
2023-01-27 11:16:49.590821,-0.006561506892927283
2023-01-27 11:16:49.595821,-0.002668499946594233
2023-01-27 11:16:49.600821,0.0006351154310559934
2023-01-27 11:16:49.605821,0.003125270362943439
2023-01-27 11:16:49.610821,0.004736177267202417
2023-01-27 11:16:49.615821,0.005721648689359379
2023-01-27 11:16:49.620821,0.006697515817231286
2023-01-27 11:16:49.625821,0.008173784241080218
2023-01-27 11:16:49.630821,0.0101078236830213
2023-01-27 11:16:49.635821,0.01216451358050108
2023-01-27 11:16:49.640821,0.014257375917658478
2023-01-27 11:16:49.645821,0.016491811722517003
2023-01-27 11:16:49.650821,0.018717840030524933
2023-01-27 11:16:49.655821,0.02060274407267575
2023-01-27 11:16:49.660821,0.022155109099453625
2023-01-27 11:16:49.665821,0.023728013038635264
2023-01-27 11:16:49.670821,0.025390048065074656
2023-01-27 11:16:49.675821,0.026709040626883486
2023-01-27 11:16:49.680821,0.027378081204675997
2023-01-27 11:16:49.685821,0.02771874330937863
2023-01-27 11:16:49.690821,0.02825933358341544
2023-01-27 11:16:49.695821,0.02901693247258658
2023-01-27 11:16:49.700821,0.029520022508194865
2023-01-27 11:16:49.705821,0.029521783813834093
2023-01-27 11:16:49.710821,0.02955697580787795
2023-01-27 11:16:49.715821,0.030892094597220393
2023-01-27 11:16:49.720821,0.034970486737304504
2023-01-27 11:16:49.725821,0.04243155568838114
2023-01-27 11:16:49.730821,0.05186972054544361
2023-01-27 11:16:49.735821,0.059091649949550615
2023-01-27 11:16:49.740821,0.05784128475384966
2023-01-27 11:16:49.745821,0.04211902618408208
2023-01-27 11:16:49.750821,0.009065470585221126
2023-01-27 11:16:49.755821,-0.03901779651641843
2023-01-27 11:16:49.760821,-0.09450224484338052
2023-01-27 11:16:49.765821,-0.14635881781578056
2023-01-27 11:16:49.770821,-0.18356898760990065
2023-01-27 11:16:49.775821,-0.19864699244499198
2023-01-27 11:16:49.780821,-0.18975081661534415
2023-01-27 11:16:49.785821,-0.16063889861106867
2023-01-27 11:16:49.790821,-0.11886831742963261
2023-01-27 11:16:49.795821,-0.07325153052806849
2023-01-27 11:16:49.800821,-0.03150748853000299
2023-01-27 11:16:49.805821,0.0012981891632079675
2023-01-27 11:16:49.810821,0.023254662551815106
2023-01-27 11:16:49.815821,0.03514727205038068
2023-01-27 11:16:49.820821,0.039467176494131014
2023-01-27 11:16:49.825821,0.03935436531901349
2023-01-27 11:16:49.830821,0.03771629374696217
2023-01-27 11:16:49.835821,0.03661374375224108
2023-01-27 11:16:49.840821,0.03702293565766754
2023-01-27 11:16:49.845821,0.03901779651641836
2023-01-27 11:16:49.850821,0.04219172522556518
2023-01-27 11:16:49.855821,0.04603763669729236
2023-01-27 11:16:49.860821,0.0501734373880202
2023-01-27 11:16:49.865821,0.05447586625814432
2023-01-27 11:16:49.870821,0.05915140953129346
2023-01-27 11:16:49.875821,0.06469309329986574
2023-01-27 11:16:49.880821,0.07173278062191032
2023-01-27 11:16:49.885821,0.08087237924337377
2023-01-27 11:16:49.890821,0.0925209027057119
2023-01-27 11:16:49.895821,0.10671596229076377
2023-01-27 11:16:49.900821,0.12299318102894123
2023-01-27 11:16:49.905821,0.14042079448699937
2023-01-27 11:16:49.910821,0.15779743974927635
2023-01-27 11:16:49.915821,0.17388522624969477
2023-01-27 11:16:49.920821,0.18758369369280498
2023-01-27 11:16:49.925821,0.19802193343639365
2023-01-27 11:16:49.930821,0.20453601492289347
2023-01-27 11:16:49.935821,0.20653228461742393
2023-01-27 11:16:49.940821,0.20337423210092265
2023-01-27 11:16:49.945821,0.19446393847465507
2023-01-27 11:16:49.950821,0.17951794741333832
2023-01-27 11:16:49.955821,0.15888392925262446
2023-01-27 11:16:49.960821,0.13375686772470277
2023-01-27 11:16:49.965821,0.10618706792592994
2023-01-27 11:16:49.970821,0.07877235403678766
2023-01-27 11:16:49.975821,0.05406717583537096
2023-01-27 11:16:49.980821,0.033978245712544375
2023-01-27 11:16:49.985821,0.019424756988882932
2023-01-27 11:16:49.990821,0.010300260257599097
2023-01-27 11:16:49.995821,0.005649527069181199
2023-01-27 11:16:50.000821,0.004044708405768243
2023-01-27 11:16:50.005821,0.0040868921205401325
2023-01-27 11:16:50.010821,0.00477039795282632
2023-01-27 11:16:50.015821,0.0055293245241044816
2023-01-27 11:16:50.020821,0.006115288296635251
2023-01-27 11:16:50.025821,0.006514986511319857
2023-01-27 11:16:50.030821,0.006861196234529653
2023-01-27 11:16:50.035821,0.007260243408381853
2023-01-27 11:16:50.040821,0.007710283074605703
2023-01-27 11:16:50.045821,0.008245905861258564
2023-01-27 11:16:50.050821,0.00907858264615991
2023-01-27 11:16:50.055821,0.010481676086783418
2023-01-27 11:16:50.060821,0.012582856114116367
2023-01-27 11:16:50.065821,0.015337864868342885
2023-01-27 11:16:50.070821,0.018596967747329884
2023-01-27 11:16:50.075821,0.022069215774536122
2023-01-27 11:16:50.080821,0.0253241132050997
2023-01-27 11:16:50.085821,0.028007229790091476
2023-01-27 11:16:50.090821,0.030032594583952226
2023-01-27 11:16:50.095821,0.031469069421291296
2023-01-27 11:16:50.100821,0.032332176356631236
2023-01-27 11:16:50.105821,0.03262301534414293
2023-01-27 11:16:50.110821,0.03247698402885594
2023-01-27 11:16:50.115821,0.0321181640028953
2023-01-27 11:16:50.120821,0.03174264448130113
2023-01-27 11:16:50.125821,0.03156523033976557
2023-01-27 11:16:50.130821,0.031821825887165825
2023-01-27 11:16:50.135821,0.032502811402082415
2023-01-27 11:16:50.140821,0.03319546801415449
2023-01-27 11:16:50.145821,0.03348847478628152
2023-01-27 11:16:50.150821,0.03363345290158362
2023-01-27 11:16:50.155821,0.034786663949489496
2023-01-27 11:16:50.160821,0.038650106311469264
2023-01-27 11:16:50.165821,0.04666268825531001
2023-01-27 11:16:50.170821,0.058734549380368796
2023-01-27 11:16:50.175821,0.07188121974468233
2023-01-27 11:16:50.180821,0.07994483218539128
2023-01-27 11:16:50.185821,0.07531901448965064
2023-01-27 11:16:50.190821,0.05203686774983905
2023-01-27 11:16:50.195821,0.008630554191768119
2023-01-27 11:16:50.200821,-0.05035612239042847
2023-01-27 11:16:50.205821,-0.11474549770355216
2023-01-27 11:16:50.210821,-0.17136162997159923
2023-01-27 11:16:50.215821,-0.20833532512187938
2023-01-27 11:16:50.220821,-0.21899570620853845
2023-01-27 11:16:50.225821,-0.20338296890258772
2023-01-27 11:16:50.230821,-0.16733788894618717
2023-01-27 11:16:50.235821,-0.12029886245727531
2023-01-27 11:16:50.240821,-0.07244772275083822
2023-01-27 11:16:50.245821,-0.0317094735801219
2023-01-27 11:16:50.250821,-0.0019290198116187606
2023-01-27 11:16:50.255821,0.016828378662466982
2023-01-27 11:16:50.260821,0.026775854200512553
2023-01-27 11:16:50.265821,0.0311805810779333
2023-01-27 11:16:50.270821,0.033428255029308004
2023-01-27 11:16:50.275821,0.03584444522857658
2023-01-27 11:16:50.280821,0.03902815583347309
2023-01-27 11:16:50.285821,0.04257579892873757
2023-01-27 11:16:50.290821,0.04620610671905345
2023-01-27 11:16:50.295821,0.04986008256673809
2023-01-27 11:16:50.300821,0.053358525400894356
2023-01-27 11:16:50.305821,0.056855879724025636
2023-01-27 11:16:50.310821,0.06134253660461284
2023-01-27 11:16:50.315821,0.06789048761129371
2023-01-27 11:16:50.320821,0.07665495890887608
2023-01-27 11:16:50.325821,0.08731524646282185
2023-01-27 11:16:50.330821,0.09997567247635587
2023-01-27 11:16:50.335821,0.1146493405103683
2023-01-27 11:16:50.340821,0.1303884280172
2023-01-27 11:16:50.345821,0.14616648852825154
2023-01-27 11:16:50.350821,0.1621833636467048
2023-01-27 11:16:50.355821,0.17890970408916465
2023-01-27 11:16:50.360821,0.1952761233927421
2023-01-27 11:16:50.365821,0.20941714942455275
2023-01-27 11:16:50.370821,0.2206964852609873
2023-01-27 11:16:50.375821,0.22886595129966714
2023-01-27 11:16:50.380821,0.23157294694368533
2023-01-27 11:16:50.385821,0.22564451396465285
2023-01-27 11:16:50.390821,0.21148581562708113
2023-01-27 11:16:50.395821,0.19326190650463093
2023-01-27 11:16:50.400821,0.17334973021987626
2023-01-27 11:16:50.405821,0.14948408305644978
2023-01-27 11:16:50.410821,0.11964131633794026
2023-01-27 11:16:50.415821,0.08736332505941391
2023-01-27 11:16:50.420821,0.05927311288557382
2023-01-27 11:16:50.425821,0.038705270737409495
2023-01-27 11:16:50.430821,0.024616603613438606
2023-01-27 11:16:50.435821,0.015602311119437147
2023-01-27 11:16:50.440821,0.011553741641427705
2023-01-27 11:16:50.445821,0.011419257149100274
2023-01-27 11:16:50.450821,0.012553760758921954
2023-01-27 11:16:50.455821,0.013294419273734016
2023-01-27 11:16:50.460821,0.014149292558581739
2023-01-27 11:16:50.465821,0.015746554359793635
2023-01-27 11:16:50.470821,0.01743618885490749
2023-01-27 11:16:50.475821,0.018607378005981334
2023-01-27 11:16:50.480821,0.01968685659212369
2023-01-27 11:16:50.485821,0.020987391471862706
2023-01-27 11:16:50.490821,0.021952694562616035
2023-01-27 11:16:50.495821,0.02233366295695302
2023-01-27 11:16:50.500821,0.022904110650164813
2023-01-27 11:16:50.505821,0.0242569055408239
2023-01-27 11:16:50.510821,0.025932448237470356
2023-01-27 11:16:50.515821,0.027382176369428596
2023-01-27 11:16:50.520821,0.028777188375861205
2023-01-27 11:16:50.525821,0.030218958854675283
2023-01-27 11:16:50.530821,0.031116265808262804
2023-01-27 11:16:50.535821,0.03103633783757684
2023-01-27 11:16:50.540821,0.030363879411282397
2023-01-27 11:16:50.545821,0.029521783813834038
2023-01-27 11:16:50.550821,0.028324085363356972
2023-01-27 11:16:50.555821,0.026660960167646436
2023-01-27 11:16:50.560821,0.025040490149568776
2023-01-27 11:16:50.565821,0.023848216980695676
2023-01-27 11:16:50.570821,0.02275077217782888
2023-01-27 11:16:50.575821,0.02137204073369502
2023-01-27 11:16:50.580821,0.01989666948224401
2023-01-27 11:16:50.585821,0.018511217087507154
2023-01-27 11:16:50.590821,0.01699135656775174
2023-01-27 11:16:50.595821,0.0155301894992589
2023-01-27 11:16:50.600821,0.01550861508833155
2023-01-27 11:16:50.605821,0.018895864486694357
2023-01-27 11:16:50.610821,0.027109307802665322
2023-01-27 11:16:50.615821,0.040291946381330386
2023-01-27 11:16:50.620821,0.05638085390046408
2023-01-27 11:16:50.625821,0.0698858499526977
2023-01-27 11:16:50.630821,0.0722772283191996
2023-01-27 11:16:50.635821,0.055124960839748306
2023-01-27 11:16:50.640821,0.014175033756725507
2023-01-27 11:16:50.645821,-0.048153202980756746
2023-01-27 11:16:50.650821,-0.12250714505379892
2023-01-27 11:16:50.655821,-0.1944158524274826
2023-01-27 11:16:50.660821,-0.24840577016280116
2023-01-27 11:16:50.665821,-0.2733890414237975
2023-01-27 11:16:50.670821,-0.26631803510119395
2023-01-27 11:16:50.675821,-0.23206333816051478
2023-01-27 11:16:50.680821,-0.1806110097485999
2023-01-27 11:16:50.685821,-0.12371262162923809
2023-01-27 11:16:50.690821,-0.07175023999135263
2023-01-27 11:16:50.695821,-0.03120462223887443
2023-01-27 11:16:50.700821,-0.003924590657727199
2023-01-27 11:16:50.705821,0.011467337608337421
2023-01-27 11:16:50.710821,0.0177008695925639
2023-01-27 11:16:50.715821,0.017982324585318447
2023-01-27 11:16:50.720821,0.015576139382508292
2023-01-27 11:16:50.725821,0.013029973022639727
2023-01-27 11:16:50.730821,0.011695102580419949
2023-01-27 11:16:50.735821,0.01216451358050095
2023-01-27 11:16:50.740821,0.01475325057320165
2023-01-27 11:16:50.745821,0.01925647258758536
2023-01-27 11:16:50.750821,0.02479945225339066
2023-01-27 11:16:50.755821,0.030531486496329377
2023-01-27 11:16:50.760821,0.03632307917985101
2023-01-27 11:16:50.765821,0.042599838227033573
2023-01-27 11:16:50.770821,0.04995468934230081
2023-01-27 11:16:50.775821,0.059235893189907005
2023-01-27 11:16:50.780821,0.07145655246486236
2023-01-27 11:16:50.785821,0.08700271695852264
2023-01-27 11:16:50.790821,0.10508545341201103
2023-01-27 11:16:50.795821,0.12424151599407192
2023-01-27 11:16:50.800821,0.14307062367134488
2023-01-27 11:16:50.805821,0.16030232608318312
2023-01-27 11:16:50.810821,0.17470869394060282
2023-01-27 11:16:50.815821,0.1854487359523772
2023-01-27 11:16:50.820821,0.1921644174588929
2023-01-27 11:16:50.825821,0.1943196952342987
2023-01-27 11:16:50.830821,0.19073604426730284
2023-01-27 11:16:50.835821,0.18015980720520008
2023-01-27 11:16:50.840821,0.16210624566672333
2023-01-27 11:16:50.845821,0.1370791643857954
2023-01-27 11:16:50.850821,0.10658639335284739
2023-01-27 11:16:50.855821,0.07339577376842482
2023-01-27 11:16:50.860821,0.04126665293933388
2023-01-27 11:16:50.865821,0.013679067604243717
2023-01-27 11:16:50.870821,-0.007347109899235922
2023-01-27 11:16:50.875821,-0.021323960274457942
2023-01-27 11:16:50.880821,-0.02885716580761841
2023-01-27 11:16:50.885821,-0.031493108719587284
2023-01-27 11:16:50.890821,-0.031373858285854275
2023-01-27 11:16:50.895821,-0.030291080474853516
2023-01-27 11:16:50.900821,-0.029075364374052278
2023-01-27 11:16:50.905821,-0.028031270951032524
2023-01-27 11:16:50.910821,-0.027494529494451872
2023-01-27 11:16:50.915821,-0.027598541229963358
2023-01-27 11:16:50.920821,-0.02795716600888618
2023-01-27 11:16:50.925821,-0.028079351410269755
2023-01-27 11:16:50.930821,-0.027816253450896396
2023-01-27 11:16:50.935821,-0.027069648727774613
2023-01-27 11:16:50.940821,-0.025498125787728126
2023-01-27 11:16:50.945821,-0.022982757538556994
2023-01-27 11:16:50.950821,-0.020039224506879737
2023-01-27 11:16:50.955821,-0.017333230003714523
2023-01-27 11:16:50.960821,-0.01511764631181477
2023-01-27 11:16:50.965821,-0.013510784134268627
2023-01-27 11:16:50.970821,-0.012849311399056419
2023-01-27 11:16:50.975821,-0.013222297653555747
2023-01-27 11:16:50.980821,-0.014032161755195753
2023-01-27 11:16:50.985821,-0.014568567276000876
2023-01-27 11:16:50.990821,-0.014708211651957724
2023-01-27 11:16:50.995821,-0.014592608436942033
2023-01-27 11:16:51.000821,-0.014083334540175579
2023-01-27 11:16:51.005821,-0.013174216262996101
2023-01-27 11:16:51.010821,-0.01252807288876598
2023-01-27 11:16:51.015821,-0.012837648391723633
2023-01-27 11:16:51.020821,-0.013906501070630356
2023-01-27 11:16:51.025821,-0.015073418617248563
2023-01-27 11:16:51.030821,-0.016269190098445734
2023-01-27 11:16:51.035821,-0.01783808134496206
2023-01-27 11:16:51.040821,-0.01951461799433726
2023-01-27 11:16:51.045821,-0.02048254013061517
2023-01-27 11:16:51.050821,-0.020341694752905218
2023-01-27 11:16:51.055821,-0.01894394680857651
2023-01-27 11:16:51.060821,-0.015100127257485593
2023-01-27 11:16:51.065821,-0.006707310676574708
2023-01-27 11:16:51.070821,0.0067234012887404096
2023-01-27 11:16:51.075821,0.021612446755170746
2023-01-27 11:16:51.080821,0.030526253446946913
2023-01-27 11:16:51.085821,0.02476175688207139
2023-01-27 11:16:51.090821,-0.0024772448129382384
2023-01-27 11:16:51.095821,-0.05320171639323229
2023-01-27 11:16:51.100821,-0.1225475229146662
2023-01-27 11:16:51.105821,-0.19876718521118156
2023-01-27 11:16:51.110821,-0.26627395993538555
2023-01-27 11:16:51.115821,-0.3106759190559387
2023-01-27 11:16:51.120821,-0.3233412668335025
2023-01-27 11:16:51.125821,-0.30365607142448414
2023-01-27 11:16:51.130821,-0.25853436678470104
2023-01-27 11:16:51.135821,-0.19965669512748702
2023-01-27 11:16:51.140821,-0.1395266298699131
2023-01-27 11:16:51.145821,-0.08789221942424766
2023-01-27 11:16:51.150821,-0.04982303397351465
2023-01-27 11:16:51.155821,-0.025747418403625398
2023-01-27 11:16:51.160821,-0.012871752946774598
2023-01-27 11:16:51.165821,-0.0071160001680254294
2023-01-27 11:16:51.170821,-0.004785161283649334
2023-01-27 11:16:51.175821,-0.0034618377685545973
2023-01-27 11:16:51.180821,-0.0020463049173389636
2023-01-27 11:16:51.185821,-0.0002644459600560438
2023-01-27 11:16:51.190821,0.0019366185048174825
2023-01-27 11:16:51.195821,0.004784067627042451
2023-01-27 11:16:51.200821,0.008697428397077807
2023-01-27 11:16:51.205821,0.014015635475516309
2023-01-27 11:16:51.210821,0.020757505967651458
2023-01-27 11:16:51.215821,0.028656324371695522
2023-01-27 11:16:51.220821,0.037395265314713634
2023-01-27 11:16:51.225821,0.046855013817548696
2023-01-27 11:16:51.230821,0.057289348821429505
2023-01-27 11:16:51.235821,0.06933292001485819
2023-01-27 11:16:51.240821,0.08369443223770666
2023-01-27 11:16:51.245821,0.10063370317220677
2023-01-27 11:16:51.250821,0.119623640182834
2023-01-27 11:16:51.255821,0.13943514227867118
2023-01-27 11:16:51.260821,0.15845588515405454
2023-01-27 11:16:51.265821,0.17499110102653492
2023-01-27 11:16:51.270821,0.18752335518710453
2023-01-27 11:16:51.275821,0.1948966681957244
2023-01-27 11:16:51.280821,0.19626134534812664
2023-01-27 11:16:51.285821,0.19085785746574402
2023-01-27 11:16:51.290821,0.1780495224001142
2023-01-27 11:16:51.295821,0.1577780693769454
2023-01-27 11:16:51.300821,0.13106602218440142
2023-01-27 11:16:51.305821,0.10012885183095929
2023-01-27 11:16:51.310821,0.06805317623439242
2023-01-27 11:16:51.315821,0.038176380097866
2023-01-27 11:16:51.320821,0.01325662676351618
2023-01-27 11:16:51.325821,-0.0052889189682900385
2023-01-27 11:16:51.330821,-0.017596822591073206
2023-01-27 11:16:51.335821,-0.024881958961486754
2023-01-27 11:16:51.340821,-0.02870695663233554
2023-01-27 11:16:51.345821,-0.030459364876150922
2023-01-27 11:16:51.350821,-0.03109715050727061
2023-01-27 11:16:51.355821,-0.0310844182968139
2023-01-27 11:16:51.360821,-0.030552424050808817
2023-01-27 11:16:51.365821,-0.029593905434012385
2023-01-27 11:16:51.370821,-0.02839486808101293
2023-01-27 11:16:51.375821,-0.027117729187011705
2023-01-27 11:16:51.380821,-0.025799794789222587
2023-01-27 11:16:51.385821,-0.02442518994212148
2023-01-27 11:16:51.390821,-0.02299697735067525
2023-01-27 11:16:51.395821,-0.021492242813110293
2023-01-27 11:16:51.400821,-0.019851831947039073
2023-01-27 11:16:51.405821,-0.01807848736643789
2023-01-27 11:16:51.410821,-0.016267917418542947
2023-01-27 11:16:51.415821,-0.014496445655822697
2023-01-27 11:16:51.420821,-0.012745773647565423
2023-01-27 11:16:51.425821,-0.010962486267089748
2023-01-27 11:16:51.430821,-0.009115586084114445
2023-01-27 11:16:51.435821,-0.007188121788203697
2023-01-27 11:16:51.440821,-0.005224159441605797
2023-01-27 11:16:51.445821,-0.0034377973061053713
2023-01-27 11:16:51.450821,-0.002200136586075563
2023-01-27 11:16:51.455821,-0.0018511216621844822
2023-01-27 11:16:51.460821,-0.0025140251625259393
2023-01-27 11:16:51.465821,-0.004038810729980355
2023-01-27 11:16:51.470821,-0.0060389276000805975
2023-01-27 11:16:51.475821,-0.008005499839782677
2023-01-27 11:16:51.480821,-0.009517007368050045
2023-01-27 11:16:51.485821,-0.01043359469622366
2023-01-27 11:16:51.490821,-0.010901121809090673
2023-01-27 11:16:51.495821,-0.011130770668387472
2023-01-27 11:16:51.500821,-0.01104266295688214
2023-01-27 11:16:51.505821,-0.00990470312535759
2023-01-27 11:16:51.510821,-0.0062433816147946545
2023-01-27 11:16:51.515821,0.001610716222785399
2023-01-27 11:16:51.520821,0.014315600011456871
2023-01-27 11:16:51.525821,0.030170878395438108
2023-01-27 11:16:51.530821,0.04437226698827781
2023-01-27 11:16:51.535821,0.04947543144226069
2023-01-27 11:16:51.540821,0.03740743814671602
2023-01-27 11:16:51.545821,0.002716581104323211
2023-01-27 11:16:51.550821,-0.054275020774717575
2023-01-27 11:16:51.555821,-0.12616476416587824
2023-01-27 11:16:51.560821,-0.1998512302401416
2023-01-27 11:16:51.565821,-0.26009461283683777
2023-01-27 11:16:51.570821,-0.2940556638164093
2023-01-27 11:16:51.575821,-0.2953380346298216
2023-01-27 11:16:51.580821,-0.2658500065116149
2023-01-27 11:16:51.585821,-0.21451374888420094
2023-01-27 11:16:51.590821,-0.15369265678376534
2023-01-27 11:16:51.595821,-0.0953447818756103
2023-01-27 11:16:51.600821,-0.048167202262244725
2023-01-27 11:16:51.605821,-0.015986960381269393
2023-01-27 11:16:51.610821,0.0022165194497172427
2023-01-27 11:16:51.615821,0.010433594696223698
2023-01-27 11:16:51.620821,0.013122704628365525
2023-01-27 11:16:51.625821,0.01384735107421866
2023-01-27 11:16:51.630821,0.015048238452020964
2023-01-27 11:16:51.635821,0.017741918563842697
2023-01-27 11:16:51.640821,0.021361965616035785
2023-01-27 11:16:51.645821,0.02488195896148679
2023-01-27 11:16:51.650821,0.028303381347055154
2023-01-27 11:16:51.655821,0.0323585681617259
2023-01-27 11:16:51.660821,0.03709579192312569
2023-01-27 11:16:51.665821,0.04216710850596418
2023-01-27 11:16:51.670821,0.048439403051867946
2023-01-27 11:16:51.675821,0.05738477036356918
2023-01-27 11:16:51.680821,0.06837343713779274
2023-01-27 11:16:51.685821,0.07882893085479731
2023-01-27 11:16:51.690821,0.08842547517374623
2023-01-27 11:16:51.695821,0.100946232676506
2023-01-27 11:16:51.700821,0.11961065114570259
2023-01-27 11:16:51.705821,0.14191131293773648
2023-01-27 11:16:51.710821,0.16175340325899432
2023-01-27 11:16:51.715821,0.1760729253292083
2023-01-27 11:16:51.720821,0.18665666629927102
2023-01-27 11:16:51.725821,0.19559383392333976
2023-01-27 11:16:51.730821,0.20183195258677006
2023-01-27 11:16:51.735821,0.20297428965568534
2023-01-27 11:16:51.740821,0.19800568876467847
2023-01-27 11:16:51.745821,0.18689116835594166
2023-01-27 11:16:51.750821,0.16928362587414217
2023-01-27 11:16:51.755821,0.1452769935131072
2023-01-27 11:16:51.760821,0.11659575874104092
2023-01-27 11:16:51.765821,0.0859689712524414
2023-01-27 11:16:51.770821,0.055983484746567794
2023-01-27 11:16:51.775821,0.029113095253705867
2023-01-27 11:16:51.780821,0.007731630001221182
2023-01-27 11:16:51.785821,-0.0070198378525673155
2023-01-27 11:16:51.790821,-0.015887924407467436
2023-01-27 11:16:51.795821,-0.020410418510437022
2023-01-27 11:16:51.800821,-0.021740387179221356
2023-01-27 11:16:51.805821,-0.020915269851684484
2023-01-27 11:16:51.810821,-0.019280689261145803
2023-01-27 11:16:51.815821,-0.017790000885724935
2023-01-27 11:16:51.820821,-0.01644239362266957
2023-01-27 11:16:51.825821,-0.015001296997070208
2023-01-27 11:16:51.830821,-0.013658665564609089
2023-01-27 11:16:51.835821,-0.012477040290832495
2023-01-27 11:16:51.840821,-0.010907014680894197
2023-01-27 11:16:51.845821,-0.008534392341971264
2023-01-27 11:16:51.850821,-0.0057662444565165834
2023-01-27 11:16:51.855821,-0.0032454729080200004
2023-01-27 11:16:51.860821,-0.0011650562042533749
2023-01-27 11:16:51.865821,0.0003606081008911133
2023-01-27 11:16:51.870821,0.000946417460382861
2023-01-27 11:16:51.875821,0.0006010135402902415
2023-01-27 11:16:51.880821,0.00018578720303855315
2023-01-27 11:16:51.885821,0.0006010135402902487
2023-01-27 11:16:51.890821,0.0019434879414147019
2023-01-27 11:16:51.895821,0.003870527027174816
2023-01-27 11:16:51.900821,0.006173902383087883
2023-01-27 11:16:51.905821,0.008486310951411747
2023-01-27 11:16:51.910821,0.010066584157354631
2023-01-27 11:16:51.915821,0.01052975654602055
2023-01-27 11:16:51.920821,0.010344009700215342
2023-01-27 11:16:51.925821,0.010097026824951087
2023-01-27 11:16:51.930821,0.009738485083391955
2023-01-27 11:16:51.935821,0.008967122063040678
2023-01-27 11:16:51.940821,0.007767188357197131
2023-01-27 11:16:51.945821,0.006058216094970629
2023-01-27 11:16:51.950821,0.0034629854186258436
2023-01-27 11:16:51.955821,0.00014424324035633874
2023-01-27 11:16:51.960821,-0.002464482620924523
2023-01-27 11:16:51.965821,-0.0022598109208047104
2023-01-27 11:16:51.970821,0.002433304700778957
2023-01-27 11:16:51.975821,0.012260675430297756
2023-01-27 11:16:51.980821,0.02602963782472101
2023-01-27 11:16:51.985821,0.03935436531901345
2023-01-27 11:16:51.990821,0.044547867984297634
2023-01-27 11:16:51.995821,0.03315190598368639
2023-01-27 11:16:52.000821,-0.00034602176464050175
2023-01-27 11:16:52.005821,-0.05587021633982646
2023-01-27 11:16:52.010821,-0.1267169693466715
2023-01-27 11:16:52.015821,-0.20013749599456776
2023-01-27 11:16:52.020821,-0.26044688235560626
2023-01-27 11:16:52.025821,-0.2943523824214934
2023-01-27 11:16:52.030821,-0.29554968668024545
2023-01-27 11:16:52.035821,-0.2659605145454407
2023-01-27 11:16:52.040821,-0.21409168404784462
2023-01-27 11:16:52.045821,-0.1522247046232223
2023-01-27 11:16:52.050821,-0.09288598442734837
2023-01-27 11:16:52.055821,-0.04510005563497542
2023-01-27 11:16:52.060821,-0.012406237640172364
2023-01-27 11:16:52.065821,0.006226500030606895
2023-01-27 11:16:52.070821,0.014230179648832521
2023-01-27 11:16:52.075821,0.01596291922032831
2023-01-27 11:16:52.080821,0.015653489485611474
2023-01-27 11:16:52.085821,0.016083121299743597
2023-01-27 11:16:52.090821,0.01801834481714056
2023-01-27 11:16:52.095821,0.021179717034101375
2023-01-27 11:16:52.100821,0.025360181339286157
2023-01-27 11:16:52.105821,0.03036320209503171
2023-01-27 11:16:52.110821,0.03569872236840822
2023-01-27 11:16:52.115821,0.04113336652517312
2023-01-27 11:16:52.120821,0.047128296726620285
2023-01-27 11:16:52.125821,0.05418737977743137
2023-01-27 11:16:52.130821,0.062260896900157604
2023-01-27 11:16:52.135821,0.07130424678325648
2023-01-27 11:16:52.140821,0.08184750541828692
2023-01-27 11:16:52.145821,0.0944072008132933
2023-01-27 11:16:52.150821,0.10883558186176628
2023-01-27 11:16:52.155821,0.12477040290832511
2023-01-27 11:16:52.160821,0.14210665095064579
2023-01-27 11:16:52.165821,0.16037444770336148
2023-01-27 11:16:52.170821,0.17817934177119502
2023-01-27 11:16:52.175821,0.1938629150390625
2023-01-27 11:16:52.180821,0.20618561453326464
2023-01-27 11:16:52.185821,0.2138165682554244
2023-01-27 11:16:52.190821,0.21485479102869798
2023-01-27 11:16:52.195821,0.20768623054027546
2023-01-27 11:16:52.200821,0.191996310164155
2023-01-27 11:16:52.205821,0.1685722768306732
2023-01-27 11:16:52.210821,0.13890519836454596
2023-01-27 11:16:52.215821,0.10568221658468244
2023-01-27 11:16:52.220821,0.07286923013372734
2023-01-27 11:16:52.225821,0.04421055316925039
2023-01-27 11:16:52.230821,0.021725315314950453
2023-01-27 11:16:52.235821,0.005889932624995713
2023-01-27 11:16:52.240821,-0.003616090649207668
2023-01-27 11:16:52.245821,-0.0080776214599609
2023-01-27 11:16:52.250821,-0.009764308035858657
2023-01-27 11:16:52.255821,-0.010649959556758423
2023-01-27 11:16:52.260821,-0.011365482328126432
2023-01-27 11:16:52.265821,-0.011900067329406662
2023-01-27 11:16:52.270821,-0.012559404450962887
2023-01-27 11:16:52.275821,-0.013486742973327656
2023-01-27 11:16:52.280821,-0.014059831290061392
2023-01-27 11:16:52.285821,-0.013727148994803371
2023-01-27 11:16:52.290821,-0.012832223731945864
2023-01-27 11:16:52.295821,-0.01180390547960989
2023-01-27 11:16:52.300821,-0.010281104290881993
2023-01-27 11:16:52.305821,-0.00793337821960435
2023-01-27 11:16:52.310821,-0.005367428807921887
2023-01-27 11:16:52.315821,-0.00324547290802001
2023-01-27 11:16:52.320821,-0.0012712027563593058
2023-01-27 11:16:52.325821,0.0009616216411813998
2023-01-27 11:16:52.330821,0.0029491579527849013
2023-01-27 11:16:52.335821,0.004183053970336961
2023-01-27 11:16:52.340821,0.005215619108758308
2023-01-27 11:16:52.345821,0.006659229751676321
2023-01-27 11:16:52.350821,0.007994677359085822
2023-01-27 11:16:52.355821,0.008606513962149686
2023-01-27 11:16:52.360821,0.009074705081785093
2023-01-27 11:16:52.365821,0.010072986595332631
2023-01-27 11:16:52.370821,0.010933665916328739
2023-01-27 11:16:52.375821,0.01079420279711483
2023-01-27 11:16:52.380821,0.01016762448147829
2023-01-27 11:16:52.385821,0.009712378494441566
2023-01-27 11:16:52.390821,0.008508077136608146
2023-01-27 11:16:52.395821,0.005505283828824778
2023-01-27 11:16:52.400821,0.001711891777730102
2023-01-27 11:16:52.405821,-0.0011299054604023316
2023-01-27 11:16:52.410821,-0.0028365177500688787
2023-01-27 11:16:52.415821,-0.003125270362943392
2023-01-27 11:16:52.420821,0.0010632217464752027
2023-01-27 11:16:52.425821,0.01276552677154541
2023-01-27 11:16:52.430821,0.029449752163113373
2023-01-27 11:16:52.435821,0.043729744851589224
2023-01-27 11:16:52.440821,0.04986652134163451
2023-01-27 11:16:52.445821,0.04572510719299312
2023-01-27 11:16:52.450821,0.027655334906639423
2023-01-27 11:16:52.455821,-0.01120289228856554
2023-01-27 11:16:52.460821,-0.07327984115725641
2023-01-27 11:16:52.465821,-0.14921963214874256
2023-01-27 11:16:52.470821,-0.22135922731812419
2023-01-27 11:16:52.475821,-0.27370154857635487
2023-01-27 11:16:52.480821,-0.29725146204059344
2023-01-27 11:16:52.485821,-0.2892317473888396
2023-01-27 11:16:52.490821,-0.2525126118438318
2023-01-27 11:16:52.495821,-0.19638717174530018
2023-01-27 11:16:52.500821,-0.13413690739767267
2023-01-27 11:16:52.505821,-0.07733841985464093
2023-01-27 11:16:52.510821,-0.03238938843297951
2023-01-27 11:16:52.515821,-0.0013222297420724728
2023-01-27 11:16:52.520821,0.01661535439074213
2023-01-27 11:16:52.525821,0.024665594100952096
2023-01-27 11:16:52.530821,0.027590572747251973
2023-01-27 11:16:52.535821,0.029305418953299522
2023-01-27 11:16:52.540821,0.03158408242436109
2023-01-27 11:16:52.545821,0.034930907189845956
2023-01-27 11:16:52.550821,0.03953624403342535
2023-01-27 11:16:52.555821,0.04505197331309309
2023-01-27 11:16:52.560821,0.050566903839721386
2023-01-27 11:16:52.565821,0.05555769056081763
2023-01-27 11:16:52.570821,0.06042892809467552
2023-01-27 11:16:52.575821,0.06589512526988978
2023-01-27 11:16:52.580821,0.07244762707260646
