2023-01-27 11:24:00.077040,-0.04961967468261712
2023-01-27 11:24:00.082040,-0.06463070239595979
2023-01-27 11:24:00.087040,-0.052937269210815374
2023-01-27 11:24:00.092040,-0.043609088033779234
2023-01-27 11:24:00.097040,-0.0429604463279247
2023-01-27 11:24:00.102040,-0.032902703277327985
2023-01-27 11:24:00.107040,-0.0062265000306068975
2023-01-27 11:24:00.112040,0.021830143074340638
2023-01-27 11:24:00.117040,0.0373109206557273
2023-01-27 11:24:00.122040,0.04065539548775226
2023-01-27 11:24:00.127040,0.03185371682047842
2023-01-27 11:24:00.132040,0.0022301448010630526
2023-01-27 11:24:00.137040,-0.04978796094655991
2023-01-27 11:24:00.142040,-0.10834936895697803
2023-01-27 11:24:00.147040,-0.15491724014282215
2023-01-27 11:24:00.152040,-0.18409974620609387
2023-01-27 11:24:00.157040,-0.19816617667675007
2023-01-27 11:24:00.162040,-0.19569131646866722
2023-01-27 11:24:00.167040,-0.1746785640716551
2023-01-27 11:24:00.172040,-0.14076982146953385
2023-01-27 11:24:00.177040,-0.10409554094076148
2023-01-27 11:24:00.182040,-0.07107720444432554
2023-01-27 11:24:00.187040,-0.04425863549113271
2023-01-27 11:24:00.192040,-0.025948440619031874
2023-01-27 11:24:00.197040,-0.016612013801932318
2023-01-27 11:24:00.202040,-0.01266530171677184
2023-01-27 11:24:00.207040,-0.010313391685485796
2023-01-27 11:24:00.212040,-0.009311824704849455
2023-01-27 11:24:00.217040,-0.010145108215510816
2023-01-27 11:24:00.222040,-0.010828350494972293
2023-01-27 11:24:00.227040,-0.009640256874263191
2023-01-27 11:24:00.232040,-0.007912060527340083
2023-01-27 11:24:00.237040,-0.007091959472745605
2023-01-27 11:24:00.242040,-0.005909059358983012
2023-01-27 11:24:00.247040,-0.0031252703629434417
2023-01-27 11:24:00.252040,-0.00016070671381067806
2023-01-27 11:24:00.257040,0.0016828378429635507
2023-01-27 11:24:00.262040,0.003823234182028216
2023-01-27 11:24:00.267040,0.0076929731294511985
2023-01-27 11:24:00.272040,0.012116506926523177
2023-01-27 11:24:00.277040,0.015794634819030703
2023-01-27 11:24:00.282040,0.019794659038314337
2023-01-27 11:24:00.287040,0.025242567062377857
2023-01-27 11:24:00.292040,0.031103558114558037
2023-01-27 11:24:00.297040,0.03658970445394509
2023-01-27 11:24:00.302040,0.04335616726828057
2023-01-27 11:24:00.307040,0.053033433854579856
2023-01-27 11:24:00.312040,0.06482328027252582
2023-01-27 11:24:00.317040,0.07760286331176751
2023-01-27 11:24:00.322040,0.092080485325815
2023-01-27 11:24:00.327040,0.10873536765575399
2023-01-27 11:24:00.332040,0.12582882120744235
2023-01-27 11:24:00.337040,0.14155070483684526
2023-01-27 11:24:00.342040,0.15603756339299327
2023-01-27 11:24:00.347040,0.1692454069852827
2023-01-27 11:24:00.352040,0.17887040490047565
2023-01-27 11:24:00.357040,0.18239557743072493
2023-01-27 11:24:00.362040,0.17935135962360785
2023-01-27 11:24:00.367040,0.16984641551971424
2023-01-27 11:24:00.372040,0.15303578571120688
2023-01-27 11:24:00.377040,0.12912175059318537
2023-01-27 11:24:00.382040,0.10105633207979664
2023-01-27 11:24:00.387040,0.07228990644216526
2023-01-27 11:24:00.392040,0.04436613136626813
2023-01-27 11:24:00.397040,0.018198689445853174
2023-01-27 11:24:00.402040,-0.00435144780156613
2023-01-27 11:24:00.407040,-0.022117298096418284
2023-01-27 11:24:00.412040,-0.036128887573565714
2023-01-27 11:24:00.417040,-0.04764835163950922
2023-01-27 11:24:00.422040,-0.05623387836432651
2023-01-27 11:24:00.427040,-0.06130337715148918
2023-01-27 11:24:00.432040,-0.06388112974222124
2023-01-27 11:24:00.437040,-0.06510178744792926
2023-01-27 11:24:00.442040,-0.06462460847048015
2023-01-27 11:24:00.447040,-0.062216918915510136
2023-01-27 11:24:00.452040,-0.05934000430842635
2023-01-27 11:24:00.457040,-0.05750497430562969
2023-01-27 11:24:00.462040,-0.056530440320444277
2023-01-27 11:24:00.467040,-0.055942337960004765
2023-01-27 11:24:00.472040,-0.056500573169904304
2023-01-27 11:24:00.477040,-0.058706998825073145
2023-01-27 11:24:00.482040,-0.06129958300312736
2023-01-27 11:24:00.487040,-0.06286601722240437
2023-01-27 11:24:00.492040,-0.06360924308675651
2023-01-27 11:24:00.497040,-0.06409208476543411
2023-01-27 11:24:00.502040,-0.0637564459996607
2023-01-27 11:24:00.507040,-0.062240958213806034
2023-01-27 11:24:00.512040,-0.06070684726615539
2023-01-27 11:24:00.517040,-0.060245595872402094
2023-01-27 11:24:00.522040,-0.06026004192245432
2023-01-27 11:24:00.527040,-0.05986094474792476
2023-01-27 11:24:00.532040,-0.05949144839480732
2023-01-27 11:24:00.537040,-0.05971670150756826
2023-01-27 11:24:00.542040,-0.059808044773440164
2023-01-27 11:24:00.547040,-0.05904356762766826
2023-01-27 11:24:00.552040,-0.05808728833597204
2023-01-27 11:24:00.557040,-0.05760113522410387
2023-01-27 11:24:00.562040,-0.056806882257242314
2023-01-27 11:24:00.567040,-0.05490859597921372
2023-01-27 11:24:00.572040,-0.052675071214852154
2023-01-27 11:24:00.577040,-0.0511823110282421
2023-01-27 11:24:00.582040,-0.05026387936536754
2023-01-27 11:24:00.587040,-0.04959563538432121
2023-01-27 11:24:00.592040,-0.04994374520738292
2023-01-27 11:24:00.597040,-0.051807366311550085
2023-01-27 11:24:00.602040,-0.05406613457802941
2023-01-27 11:24:00.607040,-0.055461525917053126
2023-01-27 11:24:00.612040,-0.05624488143885468
2023-01-27 11:24:00.617040,-0.05700012296438207
2023-01-27 11:24:00.622040,-0.0571459193512413
2023-01-27 11:24:00.627040,-0.05606254190206518
2023-01-27 11:24:00.632040,-0.05441371714853767
2023-01-27 11:24:00.637040,-0.05284110829234121
2023-01-27 11:24:00.642040,-0.050568906046058536
2023-01-27 11:24:00.647040,-0.046782892197370536
2023-01-27 11:24:00.652040,-0.042182801426058396
2023-01-27 11:24:00.657040,-0.03771960735321037
2023-01-27 11:24:00.662040,-0.033052156726408335
2023-01-27 11:24:00.667040,-0.02774278447031966
2023-01-27 11:24:00.672040,-0.022714723905284274
2023-01-27 11:24:00.677040,-0.018992027267813596
2023-01-27 11:24:00.682040,-0.016242944448159605
2023-01-27 11:24:00.687040,-0.014111797325313001
2023-01-27 11:24:00.692040,-0.013716591281427023
2023-01-27 11:24:00.697040,-0.01620332524180414
2023-01-27 11:24:00.702040,-0.021000597664400027
2023-01-27 11:24:00.707040,-0.027021568268537435
2023-01-27 11:24:00.712040,-0.034251967327612064
2023-01-27 11:24:00.717040,-0.0425036773085594
2023-01-27 11:24:00.722040,-0.04998973523598513
2023-01-27 11:24:00.727040,-0.055004756897687856
2023-01-27 11:24:00.732040,-0.05787671984124776
2023-01-27 11:24:00.737040,-0.059620540589094065
2023-01-27 11:24:00.742040,-0.06007742175364883
2023-01-27 11:24:00.747040,-0.05923589318990692
2023-01-27 11:24:00.752040,-0.058885144407521635
2023-01-27 11:24:00.757040,-0.060702364891767537
2023-01-27 11:24:00.762040,-0.0637229702965732
2023-01-27 11:24:00.767040,-0.06548643112182609
2023-01-27 11:24:00.772040,-0.06416430639404504
2023-01-27 11:24:00.777040,-0.0575530529022216
2023-01-27 11:24:00.782040,-0.04212926377369034
2023-01-27 11:24:00.787040,-0.0166360549628734
2023-01-27 11:24:00.792040,0.013919726182941171
2023-01-27 11:24:00.797040,0.040291946381330365
2023-01-27 11:24:00.802040,0.05410701127831466
2023-01-27 11:24:00.807040,0.04918694496154781
2023-01-27 11:24:00.812040,0.021131319526227554
2023-01-27 11:24:00.817040,-0.028680365532636583
2023-01-27 11:24:00.822040,-0.08869481865063623
2023-01-27 11:24:00.827040,-0.1420074701309203
2023-01-27 11:24:00.832040,-0.17764002296966713
2023-01-27 11:24:00.837040,-0.19458413124084464
2023-01-27 11:24:00.842040,-0.1951285696224788
2023-01-27 11:24:00.847040,-0.17951071262359602
2023-01-27 11:24:00.852040,-0.14956848038649317
2023-01-27 11:24:00.857040,-0.11318286508321758
2023-01-27 11:24:00.862040,-0.08048895577004307
2023-01-27 11:24:00.867040,-0.05673567578196518
2023-01-27 11:24:00.872040,-0.04131827433334696
2023-01-27 11:24:00.877040,-0.032118164002895286
2023-01-27 11:24:00.882040,-0.027724334714380603
2023-01-27 11:24:00.887040,-0.026276310905814098
2023-01-27 11:24:00.892040,-0.025392105840668085
2023-01-27 11:24:00.897040,-0.023968419060110983
2023-01-27 11:24:00.902040,-0.02247374050425274
2023-01-27 11:24:00.907040,-0.021251838654279737
2023-01-27 11:24:00.912040,-0.019809188675920436
2023-01-27 11:24:00.917040,-0.017814040184020948
2023-01-27 11:24:00.922040,-0.015570307828566133
2023-01-27 11:24:00.927040,-0.01329441927373405
2023-01-27 11:24:00.932040,-0.010823367485917303
2023-01-27 11:24:00.937040,-0.008173784241080222
2023-01-27 11:24:00.942040,-0.005645293289314703
2023-01-27 11:24:00.947040,-0.0032454729080200503
2023-01-27 11:24:00.952040,-0.0005794782112293765
2023-01-27 11:24:00.957040,0.002644459484144979
2023-01-27 11:24:00.962040,0.006479256550922865
2023-01-27 11:24:00.967040,0.011106729507446251
2023-01-27 11:24:00.972040,0.016922102440060722
2023-01-27 11:24:00.977040,0.0242569055408239
2023-01-27 11:24:00.982040,0.03333876518831689
2023-01-27 11:24:00.987040,0.04445096105337133
2023-01-27 11:24:00.992040,0.05779299811398359
2023-01-27 11:24:00.997040,0.07317940890789022
2023-01-27 11:24:01.002040,0.09006396591424139
2023-01-27 11:24:01.007040,0.10777374356985081
2023-01-27 11:24:01.012040,0.12555341034898332
2023-01-27 11:24:01.017040,0.1425123214721678
2023-01-27 11:24:01.022040,0.15770885108508667
2023-01-27 11:24:01.027040,0.1701829880475996
2023-01-27 11:24:01.032040,0.17879121168327022
2023-01-27 11:24:01.037040,0.18217921257019037
2023-01-27 11:24:01.042040,0.17911958425531974
2023-01-27 11:24:01.047040,0.16890883445739735
2023-01-27 11:24:01.052040,0.15156829406359884
2023-01-27 11:24:01.057040,0.12799184024333948
2023-01-27 11:24:01.062040,0.10003469798939166
2023-01-27 11:24:01.067040,0.07022242248058307
2023-01-27 11:24:01.072040,0.041104661468316435
2023-01-27 11:24:01.077040,0.014736851677298478
2023-01-27 11:24:01.082040,-0.007513209392501674
2023-01-27 11:24:01.087040,-0.025074284523725534
2023-01-27 11:24:01.092040,-0.03820555317594418
2023-01-27 11:24:01.097040,-0.04769643396139142
2023-01-27 11:24:01.102040,-0.05437997666778934
2023-01-27 11:24:01.107040,-0.058923363685607924
2023-01-27 11:24:01.112040,-0.061892204209729546
2023-01-27 11:24:01.117040,-0.06370743364095673
2023-01-27 11:24:01.122040,-0.06453496604708821
2023-01-27 11:24:01.127040,-0.06445269286632532
2023-01-27 11:24:01.132040,-0.06374211893685107
2023-01-27 11:24:01.137040,-0.0628419741988182
2023-01-27 11:24:01.142040,-0.06206573190296531
2023-01-27 11:24:01.147040,-0.061567824333906125
2023-01-27 11:24:01.152040,-0.06151359357068681
2023-01-27 11:24:01.157040,-0.06202459335327135
2023-01-27 11:24:01.162040,-0.06297545480550808
2023-01-27 11:24:01.167040,-0.06406804174184788
2023-01-27 11:24:01.172040,-0.06508919226642665
2023-01-27 11:24:01.177040,-0.06591916084289545
2023-01-27 11:24:01.182040,-0.0663824340953625
2023-01-27 11:24:01.187040,-0.06635189056396477
2023-01-27 11:24:01.192040,-0.06596995125306476
2023-01-27 11:24:01.197040,-0.06553451716899869
2023-01-27 11:24:01.202040,-0.06517608118419999
2023-01-27 11:24:01.207040,-0.06481330096721638
2023-01-27 11:24:01.212040,-0.06433615837574488
2023-01-27 11:24:01.217040,-0.06361126899719223
2023-01-27 11:24:01.222040,-0.06239413035049546
2023-01-27 11:24:01.227040,-0.060510039329528816
2023-01-27 11:24:01.232040,-0.058122044674196974
2023-01-27 11:24:01.237040,-0.05562981218099592
2023-01-27 11:24:01.242040,-0.053337191855149436
2023-01-27 11:24:01.247040,-0.051374636590480784
2023-01-27 11:24:01.252040,-0.04983050569960681
2023-01-27 11:24:01.257040,-0.0487061366438865
2023-01-27 11:24:01.262040,-0.047789280539433376
2023-01-27 11:24:01.267040,-0.046806931495666476
2023-01-27 11:24:01.272040,-0.04569433241391051
2023-01-27 11:24:01.277040,-0.044547121971845585
2023-01-27 11:24:01.282040,-0.043377716287158516
2023-01-27 11:24:01.287040,-0.04211902618408199
2023-01-27 11:24:01.292040,-0.04080719273128163
2023-01-27 11:24:01.297040,-0.03954669088125215
2023-01-27 11:24:01.302040,-0.03832800627091881
2023-01-27 11:24:01.307040,-0.03707051277160637
2023-01-27 11:24:01.312040,-0.03580800361211874
2023-01-27 11:24:01.317040,-0.03464242070913309
2023-01-27 11:24:01.322040,-0.03354135459243884
2023-01-27 11:24:01.327040,-0.03235856816172589
2023-01-27 11:24:01.332040,-0.031031741882733214
2023-01-27 11:24:01.337040,-0.029593905434012375
2023-01-27 11:24:01.342040,-0.028012187408539783
2023-01-27 11:24:01.347040,-0.02618014812469476
2023-01-27 11:24:01.352040,-0.024063554619880675
2023-01-27 11:24:01.357040,-0.02170860767364502
2023-01-27 11:24:01.362040,-0.019109489128679626
2023-01-27 11:24:01.367040,-0.01620332524180414
2023-01-27 11:24:01.372040,-0.01300624359162965
2023-01-27 11:24:01.377040,-0.00964025687426322
2023-01-27 11:24:01.382040,-0.0062087995303396135
2023-01-27 11:24:01.387040,-0.002740621566772409
2023-01-27 11:24:01.392040,0.000711501993231001
2023-01-27 11:24:01.397040,0.003966689109802279
2023-01-27 11:24:01.402040,0.006711002579740913
2023-01-27 11:24:01.407040,0.008534392341971331
2023-01-27 11:24:01.412040,0.008959677281288493
2023-01-27 11:24:01.417040,0.007524689193814881
2023-01-27 11:24:01.422040,0.003982383046092377
2023-01-27 11:24:01.427040,-0.0014664729824288637
2023-01-27 11:24:01.432040,-0.008130395926287313
2023-01-27 11:24:01.437040,-0.01507341861724849
2023-01-27 11:24:01.442040,-0.021425322340230857
2023-01-27 11:24:01.447040,-0.026492675766348832
2023-01-27 11:24:01.452040,-0.029800644991890255
2023-01-27 11:24:01.457040,-0.03132482618093493
2023-01-27 11:24:01.462040,-0.03166937995676043
2023-01-27 11:24:01.467040,-0.031733512878417885
2023-01-27 11:24:01.472040,-0.03210474183665828
2023-01-27 11:24:01.477040,-0.0328153371810913
2023-01-27 11:24:01.482040,-0.03325814057134351
2023-01-27 11:24:01.487040,-0.0316133126616477
2023-01-27 11:24:01.492040,-0.02453452775325403
2023-01-27 11:24:01.497040,-0.008774797432124594
2023-01-27 11:24:01.502040,0.015758817234825258
2023-01-27 11:24:01.507040,0.04466732591390597
2023-01-27 11:24:01.512040,0.07097195027141733
2023-01-27 11:24:01.517040,0.08772393316030498
2023-01-27 11:24:01.522040,0.08869016384727975
2023-01-27 11:24:01.527040,0.0686838254332542
2023-01-27 11:24:01.532040,0.02628997853469817
2023-01-27 11:24:01.537040,-0.032695136964321116
2023-01-27 11:24:01.542040,-0.09569628013041635
2023-01-27 11:24:01.547040,-0.14842629432678214
2023-01-27 11:24:01.552040,-0.1803407359754692
2023-01-27 11:24:01.557040,-0.18705944716930384
2023-01-27 11:24:01.562040,-0.17038972222551957
2023-01-27 11:24:01.567040,-0.13734361529350275
2023-01-27 11:24:01.572040,-0.09772383574185274
2023-01-27 11:24:01.577040,-0.06041387841105457
2023-01-27 11:24:01.582040,-0.030701943669582153
2023-01-27 11:24:01.587040,-0.010241270065307565
2023-01-27 11:24:01.592040,0.0016712258803294967
2023-01-27 11:24:01.597040,0.007236202713102112
2023-01-27 11:24:01.602040,0.009404422860130256
2023-01-27 11:24:01.607040,0.010601878166198687
2023-01-27 11:24:01.612040,0.011901243953055356
2023-01-27 11:24:01.617040,0.013510784134268723
2023-01-27 11:24:01.622040,0.015552701971191896
2023-01-27 11:24:01.627040,0.017982324585318486
2023-01-27 11:24:01.632040,0.020315064712894577
2023-01-27 11:24:01.637040,0.02209325693547719
2023-01-27 11:24:01.642040,0.023413518364939663
2023-01-27 11:24:01.647040,0.02461751364171501
2023-01-27 11:24:01.652040,0.025803141249126717
2023-01-27 11:24:01.657040,0.0270456075668334
2023-01-27 11:24:01.662040,0.028742348010348515
2023-01-27 11:24:01.667040,0.03127674385905254
2023-01-27 11:24:01.672040,0.03461701121567768
2023-01-27 11:24:01.677040,0.03865718841552729
2023-01-27 11:24:01.682040,0.04368356129783102
2023-01-27 11:24:01.687040,0.05012452602386469
2023-01-27 11:24:01.692040,0.05812850913188442
2023-01-27 11:24:01.697040,0.06777028739452363
2023-01-27 11:24:01.702040,0.07936493840973101
2023-01-27 11:24:01.707040,0.09313305467367168
2023-01-27 11:24:01.712040,0.1087664673326689
2023-01-27 11:24:01.717040,0.12568394839763636
2023-01-27 11:24:01.722040,0.14346349703020106
2023-01-27 11:24:01.727040,0.16164860129356373
2023-01-27 11:24:01.732040,0.17937188765138837
2023-01-27 11:24:01.737040,0.19554576277732832
2023-01-27 11:24:01.742040,0.20919581522264608
2023-01-27 11:24:01.747040,0.2192497253417967
2023-01-27 11:24:01.752040,0.22426731291607976
2023-01-27 11:24:01.757040,0.22285580635070795
2023-01-27 11:24:01.762040,0.21431883262026788
2023-01-27 11:24:01.767040,0.1987431496381758
2023-01-27 11:24:01.772040,0.17681385204349825
2023-01-27 11:24:01.777040,0.14996489882469166
2023-01-27 11:24:01.782040,0.12046581233237603
2023-01-27 11:24:01.787040,0.09084920585155476
2023-01-27 11:24:01.792040,0.06318597439791095
2023-01-27 11:24:01.797040,0.03896971791982648
2023-01-27 11:24:01.802040,0.019275759541048876
2023-01-27 11:24:01.807040,0.00454366207122798
2023-01-27 11:24:01.812040,-0.005663269538648989
2023-01-27 11:24:01.817040,-0.012308756820857525
2023-01-27 11:24:01.822040,-0.01635093566362566
2023-01-27 11:24:01.827040,-0.018703540787100705
2023-01-27 11:24:01.832040,-0.020365518905188527
2023-01-27 11:24:01.837040,-0.022117298096418284
2023-01-27 11:24:01.842040,-0.024159063327315985
2023-01-27 11:24:01.847040,-0.02632439136505121
2023-01-27 11:24:01.852040,-0.028506150240458866
2023-01-27 11:24:01.857040,-0.030627649277448567
2023-01-27 11:24:01.862040,-0.032439849541711065
2023-01-27 11:24:01.867040,-0.03372887894511219
2023-01-27 11:24:01.872040,-0.03461288683451182
2023-01-27 11:24:01.877040,-0.035339593887329074
2023-01-27 11:24:01.882040,-0.03591980475174032
2023-01-27 11:24:01.887040,-0.03622909635305399
2023-01-27 11:24:01.892040,-0.03631211898607232
2023-01-27 11:24:01.897040,-0.036301217973232165
2023-01-27 11:24:01.902040,-0.03618812652728861
2023-01-27 11:24:01.907040,-0.035964649170637054
2023-01-27 11:24:01.912040,-0.035839357246922415
2023-01-27 11:24:01.917040,-0.036012731492519275
2023-01-27 11:24:01.922040,-0.03635243263482126
2023-01-27 11:24:01.927040,-0.03656566143035879
2023-01-27 11:24:01.932040,-0.036587761019606875
2023-01-27 11:24:01.937040,-0.036565661430358755
2023-01-27 11:24:01.942040,-0.03660092414490098
2023-01-27 11:24:01.947040,-0.036757986992597455
2023-01-27 11:24:01.952040,-0.037160246558372724
2023-01-27 11:24:01.957040,-0.037767689675092614
2023-01-27 11:24:01.962040,-0.038151207521130284
2023-01-27 11:24:01.967040,-0.03776768967509255
2023-01-27 11:24:01.972040,-0.036423533730903
2023-01-27 11:24:01.977040,-0.034305851906537996
2023-01-27 11:24:01.982040,-0.03171041957160364
2023-01-27 11:24:01.987040,-0.028968852013349512
2023-01-27 11:24:01.992040,-0.026486971539766545
2023-01-27 11:24:01.997040,-0.024545392021536792
2023-01-27 11:24:02.002040,-0.023091081252711372
2023-01-27 11:24:02.007040,-0.02192497253417961
2023-01-27 11:24:02.012040,-0.021028814640578822
2023-01-27 11:24:02.017040,-0.02053062245249741
2023-01-27 11:24:02.022040,-0.020446335721045053
2023-01-27 11:24:02.027040,-0.0206508245319128
2023-01-27 11:24:02.032040,-0.0210204782138583
2023-01-27 11:24:02.037040,-0.02142012119293208
2023-01-27 11:24:02.042040,-0.02163431965568042
2023-01-27 11:24:02.047040,-0.02151628397405138
2023-01-27 11:24:02.052040,-0.02118737285795216
2023-01-27 11:24:02.057040,-0.02096335217356673
2023-01-27 11:24:02.062040,-0.021114280338949687
2023-01-27 11:24:02.067040,-0.02175668999552723
2023-01-27 11:24:02.072040,-0.022859360742651564
2023-01-27 11:24:02.077040,-0.024208825081586772
2023-01-27 11:24:02.082040,-0.025402310528505157
2023-01-27 11:24:02.087040,-0.025963783264160097
2023-01-27 11:24:02.092040,-0.025489430621506035
2023-01-27 11:24:02.097040,-0.02375205419957628
2023-01-27 11:24:02.102040,-0.020783151626393076
2023-01-27 11:24:02.107040,-0.016828378662467034
2023-01-27 11:24:02.112040,-0.012135617009345468
2023-01-27 11:24:02.117040,-0.006899635307490775
2023-01-27 11:24:02.122040,-0.0015378831016989712
2023-01-27 11:24:02.127040,0.0032454729080199723
2023-01-27 11:24:02.132040,0.007042949411647967
2023-01-27 11:24:02.137040,0.010241270065307574
2023-01-27 11:24:02.142040,0.013495288638536242
2023-01-27 11:24:02.147040,0.016780298203229935
2023-01-27 11:24:02.152040,0.0194315587793574
2023-01-27 11:24:02.157040,0.021035473793744982
2023-01-27 11:24:02.162040,0.021648831314143416
2023-01-27 11:24:02.167040,0.021059513092041002
2023-01-27 11:24:02.172040,0.018537402749969914
2023-01-27 11:24:02.177040,0.013679067604243741
2023-01-27 11:24:02.182040,0.0070423483428735025
2023-01-27 11:24:02.187040,-0.0003365675802342025
2023-01-27 11:24:02.192040,-0.007609493317899464
2023-01-27 11:24:02.197040,-0.014063715934753362
2023-01-27 11:24:02.202040,-0.01900141340291312
2023-01-27 11:24:02.207040,-0.02221345901489249
2023-01-27 11:24:02.212040,-0.024304410037415066
2023-01-27 11:24:02.217040,-0.026156108826398804
2023-01-27 11:24:02.222040,-0.028241236804860046
2023-01-27 11:24:02.227040,-0.030555527657270397
2023-01-27 11:24:02.232040,-0.0325999448934277
2023-01-27 11:24:02.237040,-0.0328393802046775
2023-01-27 11:24:02.242040,-0.028508674892752543
2023-01-27 11:24:02.247040,-0.016756257042288707
2023-01-27 11:24:02.252040,0.0034765628652069533
2023-01-27 11:24:02.257040,0.030122797936200946
2023-01-27 11:24:02.262040,0.057598312657382876
2023-01-27 11:24:02.267040,0.07741054147481909
2023-01-27 11:24:02.272040,0.08036016015396841
2023-01-27 11:24:02.277040,0.060245595872402066
2023-01-27 11:24:02.282040,0.01715624271772764
2023-01-27 11:24:02.287040,-0.041782461106777115
2023-01-27 11:24:02.292040,-0.10442566039862049
2023-01-27 11:24:02.297040,-0.15715301036834708
2023-01-27 11:24:02.302040,-0.1888568576620147
2023-01-27 11:24:02.307040,-0.1943437308073043
2023-01-27 11:24:02.312040,-0.1756151979393642
2023-01-27 11:24:02.317040,-0.1402284801006317
2023-01-27 11:24:02.322040,-0.09794391111620417
2023-01-27 11:24:02.327040,-0.05764921754598612
2023-01-27 11:24:02.332040,-0.025396641020048846
2023-01-27 11:24:02.337040,-0.0034858784638344955
2023-01-27 11:24:02.342040,0.009195812039696827
2023-01-27 11:24:02.347040,0.015554229728877515
2023-01-27 11:24:02.352040,0.01846427858143691
2023-01-27 11:24:02.357040,0.019929608330130435
2023-01-27 11:24:02.362040,0.021102247890911988
2023-01-27 11:24:02.367040,0.02238174341619007
2023-01-27 11:24:02.372040,0.023565919292186967
2023-01-27 11:24:02.377040,0.02437710762023916
2023-01-27 11:24:02.382040,0.024943340616047985
2023-01-27 11:24:02.387040,0.025651257485151187
2023-01-27 11:24:02.392040,0.026741049072550534
2023-01-27 11:24:02.397040,0.028319757431745505
2023-01-27 11:24:02.402040,0.03056582688433178
2023-01-27 11:24:02.407040,0.03356059640645984
2023-01-27 11:24:02.412040,0.03702680044168329
2023-01-27 11:24:02.417040,0.04055639356374739
2023-01-27 11:24:02.422040,0.04404679423101838
2023-01-27 11:24:02.427040,0.04772047325968738
2023-01-27 11:24:02.432040,0.051909997485630716
2023-01-27 11:24:02.437040,0.05712032318115227
2023-01-27 11:24:02.442040,0.06412521258334831
2023-01-27 11:24:02.447040,0.0736121386289596
2023-01-27 11:24:02.452040,0.08572394014601233
2023-01-27 11:24:02.457040,0.10012885183095929
2023-01-27 11:24:02.462040,0.11639046971843969
2023-01-27 11:24:02.467040,0.13402602076530445
2023-01-27 11:24:02.472040,0.15238202651677382
2023-01-27 11:24:02.477040,0.1707839965820312
2023-01-27 11:24:02.482040,0.18871518997201966
2023-01-27 11:24:02.487040,0.2055466175079344
2023-01-27 11:24:02.492040,0.22013876825436463
2023-01-27 11:24:02.497040,0.23093342781066886
2023-01-27 11:24:02.502040,0.236363019938467
2023-01-27 11:24:02.507040,0.23504436016082755
2023-01-27 11:24:02.512040,0.2259080244706978
2023-01-27 11:24:02.517040,0.20867189764976496
2023-01-27 11:24:02.522040,0.1843110591874843
2023-01-27 11:24:02.527040,0.15489320456981648
2023-01-27 11:24:02.532040,0.12295939085282334
2023-01-27 11:24:02.537040,0.0910655707120895
2023-01-27 11:24:02.542040,0.06148352589252486
2023-01-27 11:24:02.547040,0.03574828431010238
2023-01-27 11:24:02.552040,0.014343252503321002
2023-01-27 11:24:02.557040,-0.003005067585036047
2023-01-27 11:24:02.562040,-0.016740425087048184
2023-01-27 11:24:02.567040,-0.0272619724273681
2023-01-27 11:24:02.572040,-0.035022146413553897
2023-01-27 11:24:02.577040,-0.04046022891998287
2023-01-27 11:24:02.582040,-0.04386246840376075
2023-01-27 11:24:02.587040,-0.045532785356044644
2023-01-27 11:24:02.592040,-0.046054685336133744
2023-01-27 11:24:02.597040,-0.0461578369140625
2023-01-27 11:24:02.602040,-0.04635527410200418
2023-01-27 11:24:02.607040,-0.04685501381754874
2023-01-27 11:24:02.612040,-0.04767756215832064
2023-01-27 11:24:02.617040,-0.048609972000122015
2023-01-27 11:24:02.622040,-0.049156482436917226
2023-01-27 11:24:02.627040,-0.04885037988424302
2023-01-27 11:24:02.632040,-0.04766692309263206
2023-01-27 11:24:02.637040,-0.04601359367370598
2023-01-27 11:24:02.642040,-0.044403602360343145
2023-01-27 11:24:02.647040,-0.04327297210693346
2023-01-27 11:24:02.652040,-0.04291916846768392
2023-01-27 11:24:02.657040,-0.043297015130519784
2023-01-27 11:24:02.662040,-0.04389056562537423
2023-01-27 11:24:02.667040,-0.04401823133230197
2023-01-27 11:24:02.672040,-0.0433027305498138
2023-01-27 11:24:02.677040,-0.04178246110677709
2023-01-27 11:24:02.682040,-0.03973050950005727
2023-01-27 11:24:02.687040,-0.03757536411285396
2023-01-27 11:24:02.692040,-0.03586869608992506
2023-01-27 11:24:02.697040,-0.03502706810832017
2023-01-27 11:24:02.702040,-0.03504396910764953
2023-01-27 11:24:02.707040,-0.03555595874786366
2023-01-27 11:24:02.712040,-0.03613786688081461
2023-01-27 11:24:02.717040,-0.03644546121358866
2023-01-27 11:24:02.722040,-0.03622554240275571
2023-01-27 11:24:02.727040,-0.03541171550750728
2023-01-27 11:24:02.732040,-0.03419239638926925
2023-01-27 11:24:02.737040,-0.03286341950297348
2023-01-27 11:24:02.742040,-0.03164573626746933
2023-01-27 11:24:02.747040,-0.030675729736685677
2023-01-27 11:24:02.752040,-0.0300114276837085
2023-01-27 11:24:02.757040,-0.029545824974775228
2023-01-27 11:24:02.762040,-0.029074422748024582
2023-01-27 11:24:02.767040,-0.028560161590576075
2023-01-27 11:24:02.772040,-0.02816612285172881
2023-01-27 11:24:02.777040,-0.027935108169913174
2023-01-27 11:24:02.782040,-0.02767059285214218
2023-01-27 11:24:02.787040,-0.027286013588309208
2023-01-27 11:24:02.792040,-0.0270279280875705
2023-01-27 11:24:02.797040,-0.027141770347952784
2023-01-27 11:24:02.802040,-0.027517002523528237
2023-01-27 11:24:02.807040,-0.027862986549734965
2023-01-27 11:24:02.812040,-0.028018372300470634
2023-01-27 11:24:02.817040,-0.027862986549734993
2023-01-27 11:24:02.822040,-0.027168983888914113
2023-01-27 11:24:02.827040,-0.0258676223456859
2023-01-27 11:24:02.832040,-0.024337658099504514
2023-01-27 11:24:02.837040,-0.02315104007720934
2023-01-27 11:24:02.842040,-0.022618144290518245
2023-01-27 11:24:02.847040,-0.02276639267802226
2023-01-27 11:24:02.852040,-0.023560509053336554
2023-01-27 11:24:02.857040,-0.02483387850224968
2023-01-27 11:24:02.862040,-0.02612454817219654
2023-01-27 11:24:02.867040,-0.026901364326477023
2023-01-27 11:24:02.872040,-0.026942981733552102
2023-01-27 11:24:02.877040,-0.026324391365051197
2023-01-27 11:24:02.882040,-0.02516055747910847
2023-01-27 11:24:02.887040,-0.023583769798278833
2023-01-27 11:24:02.892040,-0.02180804056255138
2023-01-27 11:24:02.897040,-0.019881527870893426
2023-01-27 11:24:02.902040,-0.017398032939952714
2023-01-27 11:24:02.907040,-0.013703107833862319
2023-01-27 11:24:02.912040,-0.008409191290685625
2023-01-27 11:24:02.917040,-0.0016347568016498405
2023-01-27 11:24:02.922040,0.0060517613215009215
2023-01-27 11:24:02.927040,0.013655027374625208
2023-01-27 11:24:02.932040,0.0198694878281831
2023-01-27 11:24:02.937040,0.023559730499982785
2023-01-27 11:24:02.942040,0.024253742543809933
2023-01-27 11:24:02.947040,0.022117298096418315
2023-01-27 11:24:02.952040,0.017597332521671026
2023-01-27 11:24:02.957040,0.01127501390874378
2023-01-27 11:24:02.962040,0.003893020833299168
2023-01-27 11:24:02.967040,-0.0037984054069966195
2023-01-27 11:24:02.972040,-0.01123811255909372
2023-01-27 11:24:02.977040,-0.017958283424377434
2023-01-27 11:24:02.982040,-0.023429527256446356
2023-01-27 11:24:02.987040,-0.027261972427368115
2023-01-27 11:24:02.992040,-0.029532288694463726
2023-01-27 11:24:02.997040,-0.030747851356863913
2023-01-27 11:24:03.002040,-0.03157352177025138
2023-01-27 11:24:03.007040,-0.03271917626261712
2023-01-27 11:24:03.012040,-0.03480804500234689
2023-01-27 11:24:03.017040,-0.03783981129527093
2023-01-27 11:24:03.022040,-0.040574262429935004
2023-01-27 11:24:03.027040,-0.04055639356374743
2023-01-27 11:24:03.032040,-0.03491787901056364
2023-01-27 11:24:03.037040,-0.021588405594229622
2023-01-27 11:24:03.042040,-0.0007145265950385541
2023-01-27 11:24:03.047040,0.02404054068028917
2023-01-27 11:24:03.052040,0.04532150131840385
2023-01-27 11:24:03.057040,0.053922932595014496
2023-01-27 11:24:03.062040,0.04215459102066579
2023-01-27 11:24:03.067040,0.0071160001680254225
2023-01-27 11:24:03.072040,-0.047498922109298784
2023-01-27 11:24:03.077040,-0.11171638965606681
2023-01-27 11:24:03.082040,-0.1719045462080428
2023-01-27 11:24:03.087040,-0.21509072184562666
2023-01-27 11:24:03.092040,-0.23316634698738353
2023-01-27 11:24:03.097040,-0.22499541938304893
2023-01-27 11:24:03.102040,-0.19583536550974873
2023-01-27 11:24:03.107040,-0.15491724014282218
2023-01-27 11:24:03.112040,-0.11230271665212038
2023-01-27 11:24:03.117040,-0.0759440660476684
2023-01-27 11:24:03.122040,-0.04993277449515966
2023-01-27 11:24:03.127040,-0.03454625606536858
2023-01-27 11:24:03.132040,-0.027586439224423477
2023-01-27 11:24:03.137040,-0.02586762234568591
2023-01-27 11:24:03.142040,-0.02627502317219811
2023-01-27 11:24:03.147040,-0.02649267576634876
2023-01-27 11:24:03.152040,-0.025378777726447053
2023-01-27 11:24:03.157040,-0.022790431976318287
2023-01-27 11:24:03.162040,-0.019093230607941374
2023-01-27 11:24:03.167040,-0.01485705375671379
2023-01-27 11:24:03.172040,-0.010759336619254364
2023-01-27 11:24:03.177040,-0.00735640525817873
2023-01-27 11:24:03.182040,-0.004780342823263434
2023-01-27 11:24:03.187040,-0.002740621566772418
2023-01-27 11:24:03.192040,-0.0008024023507307447
2023-01-27 11:24:03.197040,0.0014424324035644484
2023-01-27 11:24:03.202040,0.004361089772922519
2023-01-27 11:24:03.207040,0.008173784241080204
2023-01-27 11:24:03.212040,0.012825669189912839
2023-01-27 11:24:03.217040,0.018126567825675052
2023-01-27 11:24:03.222040,0.02404726753567228
2023-01-27 11:24:03.227040,0.030795931816101015
2023-01-27 11:24:03.232040,0.038693493207736615
2023-01-27 11:24:03.237040,0.04815320298075672
2023-01-27 11:24:03.242040,0.0597102291531404
2023-01-27 11:24:03.247040,0.07380446046590797
2023-01-27 11:24:03.252040,0.09042899377669476
2023-01-27 11:24:03.257040,0.10904788970947255
2023-01-27 11:24:03.262040,0.1287917255798847
2023-01-27 11:24:03.267040,0.14859458804130543
2023-01-27 11:24:03.272040,0.16722587159197738
2023-01-27 11:24:03.277040,0.18342933058738692
2023-01-27 11:24:03.282040,0.19608797349438364
2023-01-27 11:24:03.287040,0.20415227115154247
2023-01-27 11:24:03.292040,0.2064731850056843
2023-01-27 11:24:03.297040,0.20194053649902335
2023-01-27 11:24:03.302040,0.18991222800652385
2023-01-27 11:24:03.307040,0.17054359614849085
2023-01-27 11:24:03.312040,0.14487585007761042
2023-01-27 11:24:03.317040,0.11481761932373037
2023-01-27 11:24:03.322040,0.08294644787951808
2023-01-27 11:24:03.327040,0.051951609551906454
2023-01-27 11:24:03.332040,0.02395237620920334
2023-01-27 11:24:03.337040,0.00016828379011711784
2023-01-27 11:24:03.342040,-0.01899676973114315
2023-01-27 11:24:03.347040,-0.03377696126699439
2023-01-27 11:24:03.352040,-0.044871892513258835
2023-01-27 11:24:03.357040,-0.0531295947730541
2023-01-27 11:24:03.362040,-0.059189002949489866
2023-01-27 11:24:03.367040,-0.06339490413665773
2023-01-27 11:24:03.372040,-0.06597557455976578
2023-01-27 11:24:03.377040,-0.06716927140951143
2023-01-27 11:24:03.382040,-0.06721299246574047
2023-01-27 11:24:03.387040,-0.06637593358755103
2023-01-27 11:24:03.392040,-0.06504042652824556
2023-01-27 11:24:03.397040,-0.06363531202077856
2023-01-27 11:24:03.402040,-0.06244313008638987
2023-01-27 11:24:03.407040,-0.06151974201202383
2023-01-27 11:24:03.412040,-0.060778888869519467
2023-01-27 11:24:03.417040,-0.060077309608459355
2023-01-27 11:24:03.422040,-0.05924992721610232
2023-01-27 11:24:03.427040,-0.05817810818552969
2023-01-27 11:24:03.432040,-0.0568634229227782
2023-01-27 11:24:03.437040,-0.0554134473204612
2023-01-27 11:24:03.442040,-0.05397487495836597
2023-01-27 11:24:03.447040,-0.052672825753688764
2023-01-27 11:24:03.452040,-0.05150618167371635
2023-01-27 11:24:03.457040,-0.05024472996592516
2023-01-27 11:24:03.462040,-0.048542949899483157
2023-01-27 11:24:03.467040,-0.0462540015578269
2023-01-27 11:24:03.472040,-0.043554664726582815
2023-01-27 11:24:03.477040,-0.040700636804103775
2023-01-27 11:24:03.482040,-0.037789635135428684
2023-01-27 11:24:03.487040,-0.03485878556966779
2023-01-27 11:24:03.492040,-0.03204651413454362
2023-01-27 11:24:03.497040,-0.029473703354597015
2023-01-27 11:24:03.502040,-0.02706725923948442
2023-01-27 11:24:03.507040,-0.024689635261893213
2023-01-27 11:24:03.512040,-0.02238443889010913
2023-01-27 11:24:03.517040,-0.02033829689025865
2023-01-27 11:24:03.522040,-0.01866880177749471
2023-01-27 11:24:03.527040,-0.017405351623892684
2023-01-27 11:24:03.532040,-0.016591468256905717
2023-01-27 11:24:03.537040,-0.016203325241804116
2023-01-27 11:24:03.542040,-0.016007252310242647
2023-01-27 11:24:03.547040,-0.015698473900556502
2023-01-27 11:24:03.552040,-0.015194443713262997
2023-01-27 11:24:03.557040,-0.014664730057120223
2023-01-27 11:24:03.562040,-0.014313650735340777
2023-01-27 11:24:03.567040,-0.014280080795287925
2023-01-27 11:24:03.572040,-0.014684031003630029
2023-01-27 11:24:03.577040,-0.015554229728877449
2023-01-27 11:24:03.582040,-0.016690876973921884
2023-01-27 11:24:03.587040,-0.01776595972478378
2023-01-27 11:24:03.592040,-0.018585568750351635
2023-01-27 11:24:03.597040,-0.019136270508170076
2023-01-27 11:24:03.602040,-0.019408396090403734
2023-01-27 11:24:03.607040,-0.01935263536870471
2023-01-27 11:24:03.612040,-0.01902449336235259
2023-01-27 11:24:03.617040,-0.018607378005981376
2023-01-27 11:24:03.622040,-0.018252085439149184
2023-01-27 11:24:03.627040,-0.01800636574625963
2023-01-27 11:24:03.632040,-0.017891059741906214
2023-01-27 11:24:03.637040,-0.01788616180419918
2023-01-27 11:24:03.642040,-0.017822550301126377
2023-01-27 11:24:03.647040,-0.017453432083129737
2023-01-27 11:24:03.652040,-0.016702978086068066
2023-01-27 11:24:03.657040,-0.015746554359793562
2023-01-27 11:24:03.662040,-0.014821427888586534
2023-01-27 11:24:03.667040,-0.014063715934753378
2023-01-27 11:24:03.672040,-0.013527271830686378
2023-01-27 11:24:03.677040,-0.013198256492614734
2023-01-27 11:24:03.682040,-0.012922375330567917
2023-01-27 11:24:03.687040,-0.012428959831595407
2023-01-27 11:24:03.692040,-0.011483997884706203
2023-01-27 11:24:03.697040,-0.009928743354976101
2023-01-27 11:24:03.702040,-0.007541084636990821
2023-01-27 11:24:03.707040,-0.003990729805081998
2023-01-27 11:24:03.712040,0.0009747853740446525
2023-01-27 11:24:03.717040,0.0073323650285600575
2023-01-27 11:24:03.722040,0.014744922676407594
2023-01-27 11:24:03.727040,0.022574067115783535
2023-01-27 11:24:03.732040,0.02989377079801569
2023-01-27 11:24:03.737040,0.03567616268992418
2023-01-27 11:24:03.742040,0.03915922425432031
2023-01-27 11:24:03.747040,0.040075581520795746
2023-01-27 11:24:03.752040,0.0385454352349953
2023-01-27 11:24:03.757040,0.03485878556966776
2023-01-27 11:24:03.762040,0.02940763491271347
2023-01-27 11:24:03.767040,0.022694271057844065
2023-01-27 11:24:03.772040,0.01526375898826825
2023-01-27 11:24:03.777040,0.0076448917388916016
2023-01-27 11:24:03.782040,0.00039466510657655714
2023-01-27 11:24:03.787040,-0.0059139728546141815
2023-01-27 11:24:03.792040,-0.010907229343849342
2023-01-27 11:24:03.797040,-0.014640688896179142
2023-01-27 11:24:03.802040,-0.017573294905303957
2023-01-27 11:24:03.807040,-0.020314257591962755
2023-01-27 11:24:03.812040,-0.02332088642606231
2023-01-27 11:24:03.817040,-0.026540756225585847
2023-01-27 11:24:03.822040,-0.028973243095084034
2023-01-27 11:24:03.827040,-0.028464000672101836
2023-01-27 11:24:03.832040,-0.022189117671101485
2023-01-27 11:24:03.837040,-0.007885297760367303
2023-01-27 11:24:03.842040,0.014622485435241576
2023-01-27 11:24:03.847040,0.042215190827846506
2023-01-27 11:24:03.852040,0.0682162320980175
2023-01-27 11:24:03.857040,0.08363704383373258
2023-01-27 11:24:03.862040,0.07999959173913
2023-01-27 11:24:03.867040,0.05279302597045889
2023-01-27 11:24:03.872040,0.003932727031551925
2023-01-27 11:24:03.877040,-0.058033864945173194
2023-01-27 11:24:03.882040,-0.12015371351544467
2023-01-27 11:24:03.887040,-0.16895692050456995
2023-01-27 11:24:03.892040,-0.19464921894456302
2023-01-27 11:24:03.897040,-0.19398312270641316
2023-01-27 11:24:03.902040,-0.17060920379090008
2023-01-27 11:24:03.907040,-0.13296823203563687
2023-01-27 11:24:03.912040,-0.09099421632326432
2023-01-27 11:24:03.917040,-0.05308151245117178
2023-01-27 11:24:03.922040,-0.024176028054494234
2023-01-27 11:24:03.927040,-0.005336999893188391
2023-01-27 11:24:03.932040,0.005271246834750514
2023-01-27 11:24:03.937040,0.010625919327139797
2023-01-27 11:24:03.942040,0.013400404276082193
2023-01-27 11:24:03.947040,0.015385946258902501
2023-01-27 11:24:03.952040,0.017482504066706175
2023-01-27 11:24:03.957040,0.019857486709952278
2023-01-27 11:24:03.962040,0.02229354268809497
2023-01-27 11:24:03.967040,0.02466559410095205
2023-01-27 11:24:03.972040,0.027100709461809838
2023-01-27 11:24:03.977040,0.029690068215131656
2023-01-27 11:24:03.982040,0.0322990102024707
2023-01-27 11:24:03.987040,0.03481070324778549
2023-01-27 11:24:03.992040,0.037341600427832466
2023-01-27 11:24:03.997040,0.04005154222249978
2023-01-27 11:24:04.002040,0.04297406232319372
2023-01-27 11:24:04.007040,0.04622995853424067
2023-01-27 11:24:04.012040,0.05015036673836963
2023-01-27 11:24:04.017040,0.0549326352775096
2023-01-27 11:24:04.022040,0.060415687014126945
2023-01-27 11:24:04.027040,0.06647209823131559
2023-01-27 11:24:04.032040,0.07337565654109078
2023-01-27 11:24:04.037040,0.08149743080139157
2023-01-27 11:24:04.042040,0.09094530478350465
2023-01-27 11:24:04.047040,0.10185977071523655
2023-01-27 11:24:04.052040,0.11471367263583404
2023-01-27 11:24:04.057040,0.12981891632080067
2023-01-27 11:24:04.062040,0.14678073153140542
2023-01-27 11:24:04.067040,0.1648700237274169
2023-01-27 11:24:04.072040,0.1835436093724716
2023-01-27 11:24:04.077040,0.20198862254619582
2023-01-27 11:24:04.082040,0.2185315069366965
2023-01-27 11:24:04.087040,0.23124596476554862
2023-01-27 11:24:04.092040,0.23884218949492758
2023-01-27 11:24:04.097040,0.24023711681365958
2023-01-27 11:24:04.102040,0.23384519698179512
2023-01-27 11:24:04.107040,0.2186006307601927
2023-01-27 11:24:04.112040,0.19551610096438427
2023-01-27 11:24:04.117040,0.1669856011867522
2023-01-27 11:24:04.122040,0.13480792126191424
2023-01-27 11:24:04.127040,0.10053753852844223
2023-01-27 11:24:04.132040,0.06761028922159801
2023-01-27 11:24:04.137040,0.040580432862043304
2023-01-27 11:24:04.142040,0.02103716200584731
2023-01-27 11:24:04.147040,0.006130337715148921
2023-01-27 11:24:04.152040,-0.007355649142275477
2023-01-27 11:24:04.157040,-0.018992027267813634
2023-01-27 11:24:04.162040,-0.026426795342262388
2023-01-27 11:24:04.167040,-0.02961794659495346
2023-01-27 11:24:04.172040,-0.030990629164783404
2023-01-27 11:24:04.177040,-0.03207008168101311
2023-01-27 11:24:04.182040,-0.03238285485158071
2023-01-27 11:24:04.187040,-0.031685434281826
2023-01-27 11:24:04.192040,-0.031053843281503058
2023-01-27 11:24:04.197040,-0.031228661537170372
2023-01-27 11:24:04.202040,-0.03164026229226185
2023-01-27 11:24:04.207040,-0.03178159520030017
2023-01-27 11:24:04.212040,-0.03216136629570105
2023-01-27 11:24:04.217040,-0.03319998830556853
2023-01-27 11:24:04.222040,-0.034366695505668246
2023-01-27 11:24:04.227040,-0.03512322902679436
2023-01-27 11:24:04.232040,-0.035719834170176774
2023-01-27 11:24:04.237040,-0.03637333959341034
2023-01-27 11:24:04.242040,-0.036545757999844844
2023-01-27 11:24:04.247040,-0.03572424501180635
2023-01-27 11:24:04.252040,-0.03417062653595426
2023-01-27 11:24:04.257040,-0.03228644654154768
2023-01-27 11:24:04.262040,-0.029939804616749496
2023-01-27 11:24:04.267040,-0.027021568268537497
2023-01-27 11:24:04.272040,-0.024011174443828612
2023-01-27 11:24:04.277040,-0.021372040733694926
2023-01-27 11:24:04.282040,-0.01893969723577085
2023-01-27 11:24:04.287040,-0.016467770561575733
2023-01-27 11:24:04.292040,-0.01425776782237113
2023-01-27 11:24:04.297040,-0.012717446312308344
2023-01-27 11:24:04.302040,-0.011792817527994968
2023-01-27 11:24:04.307040,-0.01134713552892197
2023-01-27 11:24:04.312040,-0.011610268937874701
2023-01-27 11:24:04.317040,-0.012717446312308242
2023-01-27 11:24:04.322040,-0.01423052051354412
2023-01-27 11:24:04.327040,-0.015626352280378262
2023-01-27 11:24:04.332040,-0.01688384869875819
2023-01-27 11:24:04.337040,-0.01815060898661611
2023-01-27 11:24:04.342040,-0.01925408462270808
2023-01-27 11:24:04.347040,-0.020025771111249837
2023-01-27 11:24:04.352040,-0.020729310533312763
2023-01-27 11:24:04.357040,-0.02168456837534898
2023-01-27 11:24:04.362040,-0.02278844639705406
2023-01-27 11:24:04.367040,-0.02382417581975459
2023-01-27 11:24:04.372040,-0.024889787186043275
2023-01-27 11:24:04.377040,-0.026083987206220592
2023-01-27 11:24:04.382040,-0.027103789495185188
2023-01-27 11:24:04.387040,-0.027598541229963258
2023-01-27 11:24:04.392040,-0.02763890354047612
2023-01-27 11:24:04.397040,-0.02745429798960679
2023-01-27 11:24:04.402040,-0.027034092230974555
2023-01-27 11:24:04.407040,-0.02639651298522939
2023-01-27 11:24:04.412040,-0.025931991702706474
2023-01-27 11:24:04.417040,-0.026035904884338226
2023-01-27 11:24:04.422040,-0.026635591758962202
2023-01-27 11:24:04.427040,-0.027430256828665706
2023-01-27 11:24:04.432040,-0.028306822909121367
2023-01-27 11:24:04.437040,-0.02916117571294304
2023-01-27 11:24:04.442040,-0.029639538361128037
2023-01-27 11:24:04.447040,-0.029497742652893
2023-01-27 11:24:04.452040,-0.028989630607428655
2023-01-27 11:24:04.457040,-0.02853612229228007
2023-01-27 11:24:04.462040,-0.02824989614332451
2023-01-27 11:24:04.467040,-0.028103392571210785
2023-01-27 11:24:04.472040,-0.028243043606748845
2023-01-27 11:24:04.477040,-0.028728445991873748
2023-01-27 11:24:04.482040,-0.029216853426368504
2023-01-27 11:24:04.487040,-0.029305418953299512
2023-01-27 11:24:04.492040,-0.028984141838747993
2023-01-27 11:24:04.497040,-0.028439959511160802
2023-01-27 11:24:04.502040,-0.02770233159009884
2023-01-27 11:24:04.507040,-0.026853283867239956
2023-01-27 11:24:04.512040,-0.026303991331210093
2023-01-27 11:24:04.517040,-0.02642055414617059
2023-01-27 11:24:04.522040,-0.027020370029215743
2023-01-27 11:24:04.527040,-0.02752641960978503
2023-01-27 11:24:04.532040,-0.027369101891846846
2023-01-27 11:24:04.537040,-0.025939743965864133
2023-01-27 11:24:04.542040,-0.022517235884716186
2023-01-27 11:24:04.547040,-0.016780298203229897
2023-01-27 11:24:04.552040,-0.009326415969441776
2023-01-27 11:24:04.557040,-0.00139435136225073
2023-01-27 11:24:04.562040,0.005776933926324765
2023-01-27 11:24:04.567040,0.011154810898005905
2023-01-27 11:24:04.572040,0.013942142310640797
2023-01-27 11:24:04.577040,0.013943513855337977
2023-01-27 11:24:04.582040,0.011766856506807116
2023-01-27 11:24:04.587040,0.008269946090876938
2023-01-27 11:24:04.592040,0.0038848607519749406
2023-01-27 11:24:04.597040,-0.0013222297420725155
2023-01-27 11:24:04.602040,-0.007235701751739283
2023-01-27 11:24:04.607040,-0.013679067604243724
2023-01-27 11:24:04.612040,-0.02053032969113429
2023-01-27 11:24:04.617040,-0.027430256828665726
2023-01-27 11:24:04.622040,-0.03357027054337497
2023-01-27 11:24:04.627040,-0.03817638009786598
2023-01-27 11:24:04.632040,-0.04112663649261631
2023-01-27 11:24:04.637040,-0.04288832470774648
2023-01-27 11:24:04.642040,-0.04408787408845414
2023-01-27 11:24:04.647040,-0.045316420495510046
2023-01-27 11:24:04.652040,-0.04681083659950536
2023-01-27 11:24:04.657040,-0.0476483516395092
2023-01-27 11:24:04.662040,-0.04535281963851889
2023-01-27 11:24:04.667040,-0.036902230232953956
2023-01-27 11:24:04.672040,-0.020587935074376597
2023-01-27 11:24:04.677040,0.002524256706237698
2023-01-27 11:24:04.682040,0.027929275047264532
2023-01-27 11:24:04.687040,0.047912798821926096
2023-01-27 11:24:04.692040,0.05340505561292661
2023-01-27 11:24:04.697040,0.03755132481455793
2023-01-27 11:24:04.702040,-0.0008437919552003071
2023-01-27 11:24:04.707040,-0.05618274211883541
2023-01-27 11:24:04.712040,-0.11753735916969457
2023-01-27 11:24:04.717040,-0.17164945602416984
2023-01-27 11:24:04.722040,-0.20672759816846806
2023-01-27 11:24:04.727040,-0.21619658172130568
2023-01-27 11:24:04.732040,-0.200598332439424
2023-01-27 11:24:04.737040,-0.16643266379833216
2023-01-27 11:24:04.742040,-0.12306670613627262
2023-01-27 11:24:04.747040,-0.0797905549407005
2023-01-27 11:24:04.752040,-0.04370068960835954
2023-01-27 11:24:04.757040,-0.018222730606794243
2023-01-27 11:24:04.762040,-0.0028833190711419
2023-01-27 11:24:04.767040,0.005144675727933567
2023-01-27 11:24:04.772040,0.008963597887782613
2023-01-27 11:24:04.777040,0.011034607887267943
2023-01-27 11:24:04.782040,0.013201567339633442
2023-01-27 11:24:04.787040,0.01639564894139761
2023-01-27 11:24:04.792040,0.020240195459136467
2023-01-27 11:24:04.797040,0.023703973740339175
2023-01-27 11:24:04.802040,0.0263626979925363
2023-01-27 11:24:04.807040,0.028632283210754256
2023-01-27 11:24:04.812040,0.03088076976435265
2023-01-27 11:24:04.817040,0.032983623445033985
2023-01-27 11:24:04.822040,0.0348725151562257
2023-01-27 11:24:04.827040,0.036926269531249986
2023-01-27 11:24:04.832040,0.039556894860311144
2023-01-27 11:24:04.837040,0.042792163789272315
2023-01-27 11:24:04.842040,0.04645168334666229
2023-01-27 11:24:04.847040,0.05041301250457758
2023-01-27 11:24:04.852040,0.05457340882935306
2023-01-27 11:24:04.857040,0.05887528508901592
2023-01-27 11:24:04.862040,0.06355273770297827
2023-01-27 11:24:04.867040,0.06916463375091547
2023-01-27 11:24:04.872040,0.07630694336924987
2023-01-27 11:24:04.877040,0.08544008433818812
2023-01-27 11:24:04.882040,0.09692226750309241
2023-01-27 11:24:04.887040,0.11089901626110069
2023-01-27 11:24:04.892040,0.12710043307831623
2023-01-27 11:24:04.897040,0.14494042098522178
2023-01-27 11:24:04.902040,0.16378465625256697
2023-01-27 11:24:04.907040,0.18290042877197257
2023-01-27 11:24:04.912040,0.2011933106819771
2023-01-27 11:24:04.917040,0.21723031997680659
2023-01-27 11:24:04.922040,0.22948164223115342
2023-01-27 11:24:04.927040,0.2363665997982024
2023-01-27 11:24:04.932040,0.2362802832572003
2023-01-27 11:24:04.937040,0.22804856300353996
2023-01-27 11:24:04.942040,0.21152909590253124
2023-01-27 11:24:04.947040,0.18770854175090773
2023-01-27 11:24:04.952040,0.15837674456078715
2023-01-27 11:24:04.957040,0.125900313258171
2023-01-27 11:24:04.962040,0.0930069106970903
2023-01-27 11:24:04.967040,0.06219287961721422
2023-01-27 11:24:04.972040,0.03508924468482143
2023-01-27 11:24:04.977040,0.012428959831595395
2023-01-27 11:24:04.982040,-0.0055705951776070985
2023-01-27 11:24:04.987040,-0.019064148887991916
2023-01-27 11:24:04.992040,-0.02863035355125595
2023-01-27 11:24:04.997040,-0.03505110740661618
2023-01-27 11:24:05.002040,-0.03899388684402727
2023-01-27 11:24:05.007040,-0.041085284203290856
2023-01-27 11:24:05.012040,-0.04213344625421475
2023-01-27 11:24:05.017040,-0.042936407029628684
2023-01-27 11:24:05.022040,-0.04389773652750827
2023-01-27 11:24:05.027040,-0.04505197331309309
2023-01-27 11:24:05.032040,-0.04635059901018722
2023-01-27 11:24:05.037040,-0.04767239093780513
2023-01-27 11:24:05.042040,-0.04871928590454616
2023-01-27 11:24:05.047040,-0.049259066581725956
2023-01-27 11:24:05.052040,-0.049425597848008145
2023-01-27 11:24:05.057040,-0.04952351376414295
2023-01-27 11:24:05.062040,-0.04963218887416368
2023-01-27 11:24:05.067040,-0.049643717706203364
2023-01-27 11:24:05.072040,-0.049535500672790604
2023-01-27 11:24:05.077040,-0.049307148903608294
2023-01-27 11:24:05.082040,-0.04878979372717987
2023-01-27 11:24:05.087040,-0.04784067720174777
2023-01-27 11:24:05.092040,-0.046624043729804866
2023-01-27 11:24:05.097040,-0.04541258141398422
2023-01-27 11:24:05.102040,-0.044230404502905794
2023-01-27 11:24:05.107040,-0.04296044632792467
2023-01-27 11:24:05.112040,-0.04163328378950684
2023-01-27 11:24:05.117040,-0.04029194638133041
2023-01-27 11:24:05.122040,-0.0387329827418104
2023-01-27 11:24:05.127040,-0.03673394769430157
2023-01-27 11:24:05.132040,-0.03443814243606699
2023-01-27 11:24:05.137040,-0.03223836421966547
2023-01-27 11:24:05.142040,-0.030444737401225
2023-01-27 11:24:05.147040,-0.029353499412536586
2023-01-27 11:24:05.152040,-0.02940665047693565
2023-01-27 11:24:05.157040,-0.03086805343627923
2023-01-27 11:24:05.162040,-0.033445465433743105
2023-01-27 11:24:05.167040,-0.0365416221320629
2023-01-27 11:24:05.172040,-0.03971467190319737
2023-01-27 11:24:05.177040,-0.04259983822703362
2023-01-27 11:24:05.182040,-0.04465393703063584
2023-01-27 11:24:05.187040,-0.0454366207122802
2023-01-27 11:24:05.192040,-0.04502407222146065
2023-01-27 11:24:05.197040,-0.04380186647176741
2023-01-27 11:24:05.202040,-0.042040761856413554
2023-01-27 11:24:05.207040,-0.040027499198913484
2023-01-27 11:24:05.212040,-0.038346927708415204
2023-01-27 11:24:05.217040,-0.037551324814557994
2023-01-27 11:24:05.222040,-0.037677256316325944
2023-01-27 11:24:05.227040,-0.03844082355499257
2023-01-27 11:24:05.232040,-0.0396690301900436
2023-01-27 11:24:05.237040,-0.041133366525173146
2023-01-27 11:24:05.242040,-0.042250278289225576
2023-01-27 11:24:05.247040,-0.0424796342849731
2023-01-27 11:24:05.252040,-0.04186520528782581
2023-01-27 11:24:05.257040,-0.04077275842428191
2023-01-27 11:24:05.262040,-0.0393520456251775
2023-01-27 11:24:05.267040,-0.03769556805491436
2023-01-27 11:24:05.272040,-0.036183578313330515
2023-01-27 11:24:05.277040,-0.035099189728498396
2023-01-27 11:24:05.282040,-0.03417717645324645
2023-01-27 11:24:05.287040,-0.03310382366180411
2023-01-27 11:24:05.292040,-0.032182327949040065
2023-01-27 11:24:05.297040,-0.03192583844065658
2023-01-27 11:24:05.302040,-0.03231026850697613
2023-01-27 11:24:05.307040,-0.0330317020416259
2023-01-27 11:24:05.312040,-0.03409766224829394
2023-01-27 11:24:05.317040,-0.0354357585310935
2023-01-27 11:24:05.322040,-0.036339145859890246
2023-01-27 11:24:05.327040,-0.036181014031171715
2023-01-27 11:24:05.332040,-0.03535931152996763
2023-01-27 11:24:05.337040,-0.034666460007429074
2023-01-27 11:24:05.342040,-0.034116731636397134
2023-01-27 11:24:05.347040,-0.03336827084422106
2023-01-27 11:24:05.352040,-0.032778399142162566
2023-01-27 11:24:05.357040,-0.03269513696432106
2023-01-27 11:24:05.362040,-0.032050222051762334
2023-01-27 11:24:05.367040,-0.02925733849406239
2023-01-27 11:24:05.372040,-0.02446982893827396
2023-01-27 11:24:05.377040,-0.019304554909467527
2023-01-27 11:24:05.382040,-0.014249001768650979
2023-01-27 11:24:05.387040,-0.008293986320495564
2023-01-27 11:24:05.392040,-0.0017003499542197612
2023-01-27 11:24:05.397040,0.002908905502408686
2023-01-27 11:24:05.402040,0.003484759299045649
2023-01-27 11:24:05.407040,0.0010818243026732783
2023-01-27 11:24:05.412040,-0.001910417790217309
2023-01-27 11:24:05.417040,-0.004808108322322359
2023-01-27 11:24:05.422040,-0.008397467248079644
2023-01-27 11:24:05.427040,-0.012741486541926823
2023-01-27 11:24:05.432040,-0.017101585085629787
2023-01-27 11:24:05.437040,-0.021612446755170763
2023-01-27 11:24:05.442040,-0.027276210496316528
2023-01-27 11:24:05.447040,-0.034209690988063805
2023-01-27 11:24:05.452040,-0.04120469345472824
2023-01-27 11:24:05.457040,-0.04716753959655759
2023-01-27 11:24:05.462040,-0.051952752852857664
2023-01-27 11:24:05.467040,-0.05572597309947008
2023-01-27 11:24:05.472040,-0.058559228359615634
2023-01-27 11:24:05.477040,-0.0607985258102416
2023-01-27 11:24:05.482040,-0.06273953372791818
2023-01-27 11:24:05.487040,-0.06339490413665767
2023-01-27 11:24:05.492040,-0.06015494000374453
2023-01-27 11:24:05.497040,-0.05012452602386467
2023-01-27 11:24:05.502040,-0.03184952866544119
2023-01-27 11:24:05.507040,-0.006466905586421402
2023-01-27 11:24:05.512040,0.021479338172483178
2023-01-27 11:24:05.517040,0.04397014901041975
2023-01-27 11:24:05.522040,0.05147102532219605
2023-01-27 11:24:05.527040,0.036709904670715256
2023-01-27 11:24:05.532040,-0.0019522825924368067
2023-01-27 11:24:05.537040,-0.05935609340667715
2023-01-27 11:24:05.542040,-0.12461010877458996
2023-01-27 11:24:05.547040,-0.18388609588146188
2023-01-27 11:24:05.552040,-0.22452473999691897
2023-01-27 11:24:05.557040,-0.239083170890808
2023-01-27 11:24:05.562040,-0.22723903802992784
2023-01-27 11:24:05.567040,-0.19480049610137923
2023-01-27 11:24:05.572040,-0.15101853109016905
2023-01-27 11:24:05.577040,-0.10563413798809047
2023-01-27 11:24:05.582040,-0.06629468285602172
2023-01-27 11:24:05.587040,-0.03692626953124994
2023-01-27 11:24:05.592040,-0.017765762254318057
2023-01-27 11:24:05.597040,-0.006779432296752894
2023-01-27 11:24:05.602040,-0.0011991488957970352
2023-01-27 11:24:05.607040,0.0015866756439207941
2023-01-27 11:24:05.612040,0.0035212379670362705
2023-01-27 11:24:05.617040,0.0055533647537231445
2023-01-27 11:24:05.622040,0.007808166747967874
2023-01-27 11:24:05.627040,0.01016914844512929
2023-01-27 11:24:05.632040,0.012614917367204138
2023-01-27 11:24:05.637040,0.015121500007808217
2023-01-27 11:24:05.642040,0.01763588258095772
2023-01-27 11:24:05.647040,0.020290216431021593
2023-01-27 11:24:05.652040,0.02340865726935735
2023-01-27 11:24:05.657040,0.027189850807189865
2023-01-27 11:24:05.662040,0.03154853854231117
2023-01-27 11:24:05.667040,0.03630121797323217
2023-01-27 11:24:05.672040,0.04130517751833691
2023-01-27 11:24:05.677040,0.04639824479818342
2023-01-27 11:24:05.682040,0.05146017959221828
2023-01-27 11:24:05.687040,0.05663951486349099
2023-01-27 11:24:05.692040,0.06235574254168316
2023-01-27 11:24:05.697040,0.06902039051055897
2023-01-27 11:24:05.702040,0.07689829709585347
2023-01-27 11:24:05.707040,0.08623342216014854
2023-01-27 11:24:05.712040,0.09728999678395091
2023-01-27 11:24:05.717040,0.11020183563232414
2023-01-27 11:24:05.722040,0.12492524808844181
2023-01-27 11:24:05.727040,0.14133433997631073
2023-01-27 11:24:05.732040,0.15914148173600318
2023-01-27 11:24:05.737040,0.17763555049896232
2023-01-27 11:24:05.742040,0.19561387398327532
2023-01-27 11:24:05.747040,0.2115807980298995
2023-01-27 11:24:05.752040,0.2238911367469753
2023-01-27 11:24:05.757040,0.23078918457031242
2023-01-27 11:24:05.762040,0.2306550906178557
2023-01-27 11:24:05.767040,0.22247116267681113
2023-01-27 11:24:05.772040,0.20612241437659737
2023-01-27 11:24:05.777040,0.18239557743072493
2023-01-27 11:24:05.782040,0.1529194811619755
2023-01-27 11:24:05.787040,0.12008249759674068
2023-01-27 11:24:05.792040,0.08666558514334372
2023-01-27 11:24:05.797040,0.05522112175822248
2023-01-27 11:24:05.802040,0.02760904216601569
2023-01-27 11:24:05.807040,0.004880229942500537
2023-01-27 11:24:05.812040,-0.012689406562748317
2023-01-27 11:24:05.817040,-0.025507014244794783
2023-01-27 11:24:05.822040,-0.0343863871056393
2023-01-27 11:24:05.827040,-0.04017174243927004
2023-01-27 11:24:05.832040,-0.04357207829385542
2023-01-27 11:24:05.837040,-0.04524429887533178
2023-01-27 11:24:05.842040,-0.045849503133875785
2023-01-27 11:24:05.847040,-0.045989554375410004
2023-01-27 11:24:05.852040,-0.046192617829642
2023-01-27 11:24:05.857040,-0.04695117473602291
2023-01-27 11:24:05.862040,-0.04862234829131985
2023-01-27 11:24:05.867040,-0.051230393350124255
2023-01-27 11:24:05.872040,-0.05443757814801829
2023-01-27 11:24:05.877040,-0.05772133916616436
2023-01-27 11:24:05.882040,-0.06053722121062127
2023-01-27 11:24:05.887040,-0.06240924447774883
2023-01-27 11:24:05.892040,-0.06307840378926881
2023-01-27 11:24:05.897040,-0.06264965236186976
2023-01-27 11:24:05.902040,-0.06151418412866422
2023-01-27 11:24:05.907040,-0.060077309608459376
2023-01-27 11:24:05.912040,-0.05857017212619623
2023-01-27 11:24:05.917040,-0.0570482015609741
2023-01-27 11:24:05.922040,-0.05544700889472565
2023-01-27 11:24:05.927040,-0.0536584854125976
2023-01-27 11:24:05.932040,-0.05168648372011463
2023-01-27 11:24:05.937040,-0.04976391792297361
2023-01-27 11:24:05.942040,-0.04824079499263409
2023-01-27 11:24:05.947040,-0.047335825860500336
2023-01-27 11:24:05.952040,-0.04702911363356128
2023-01-27 11:24:05.957040,-0.0471435002982616
2023-01-27 11:24:05.962040,-0.04743941367422472
2023-01-27 11:24:05.967040,-0.04767239093780508
2023-01-27 11:24:05.972040,-0.047689663462875585
2023-01-27 11:24:05.977040,-0.047504108399152714
2023-01-27 11:24:05.982040,-0.04722065206063119
2023-01-27 11:24:05.987040,-0.046903096139430944
2023-01-27 11:24:05.992040,-0.0465660038922527
2023-01-27 11:24:05.997040,-0.046254001557826864
2023-01-27 11:24:06.002040,-0.0460410365552155
2023-01-27 11:24:06.007040,-0.045965515077114105
2023-01-27 11:24:06.012040,-0.046029284368207385
2023-01-27 11:24:06.017040,-0.046229958534240646
2023-01-27 11:24:06.022040,-0.046529325610468776
2023-01-27 11:24:06.027040,-0.04683097451925272
2023-01-27 11:24:06.032040,-0.047068296938892036
2023-01-27 11:24:06.037040,-0.047287743538618
2023-01-27 11:24:06.042040,-0.047577391149657776
2023-01-27 11:24:06.047040,-0.047936838120222036
2023-01-27 11:24:06.052040,-0.04825750549825243
2023-01-27 11:24:06.057040,-0.048369567841291386
2023-01-27 11:24:06.062040,-0.04805581709392776
2023-01-27 11:24:06.067040,-0.0471194609999656
2023-01-27 11:24:06.072040,-0.04557046711480619
2023-01-27 11:24:06.077040,-0.043729744851589175
2023-01-27 11:24:06.082040,-0.04207013756809623
2023-01-27 11:24:06.087040,-0.040965080261230385
2023-01-27 11:24:06.092040,-0.04059984570313944
2023-01-27 11:24:06.097040,-0.04098912328481669
2023-01-27 11:24:06.102040,-0.04193033207943425
2023-01-27 11:24:06.107040,-0.04298448562622069
2023-01-27 11:24:06.112040,-0.04365990886791415
2023-01-27 11:24:06.117040,-0.0436816625297069
2023-01-27 11:24:06.122040,-0.043091814182906855
2023-01-27 11:24:06.127040,-0.042167108505964224
2023-01-27 11:24:06.132040,-0.041295759437779384
2023-01-27 11:24:06.137040,-0.040820837020874
2023-01-27 11:24:06.142040,-0.04083080050344452
2023-01-27 11:24:06.147040,-0.04106124490499493
2023-01-27 11:24:06.152040,-0.041037387473468995
2023-01-27 11:24:06.157040,-0.040291946381330365
2023-01-27 11:24:06.162040,-0.038448839453051706
2023-01-27 11:24:06.167040,-0.03524343296885488
2023-01-27 11:24:06.172040,-0.030623374490499816
2023-01-27 11:24:06.177040,-0.02483387850224971
2023-01-27 11:24:06.182040,-0.01834613287683269
2023-01-27 11:24:06.187040,-0.011731783859431725
2023-01-27 11:24:06.192040,-0.005619356251547041
2023-01-27 11:24:06.197040,-0.0006250540609470268
2023-01-27 11:24:06.202040,0.0028459302094417183
2023-01-27 11:24:06.207040,0.004735986702144042
2023-01-27 11:24:06.212040,0.005207292385056254
2023-01-27 11:24:06.217040,0.004399418830871497
2023-01-27 11:24:06.222040,0.002335185348528133
2023-01-27 11:24:06.227040,-0.0010337432613596416
2023-01-27 11:24:06.232040,-0.0057657783200537735
2023-01-27 11:24:06.237040,-0.0118039054796099
2023-01-27 11:24:06.242040,-0.0187622567754042
2023-01-27 11:24:06.247040,-0.02586762234568586
2023-01-27 11:24:06.252040,-0.0322485865766278
2023-01-27 11:24:06.257040,-0.03735899925231929
2023-01-27 11:24:06.262040,-0.04119110951957236
2023-01-27 11:24:06.267040,-0.0442105531692504
2023-01-27 11:24:06.272040,-0.04707431130692933
2023-01-27 11:24:06.277040,-0.0500764474272727
2023-01-27 11:24:06.282040,-0.05243586921002422
2023-01-27 11:24:06.287040,-0.051975648850202484
2023-01-27 11:24:06.292040,-0.04572387683796898
2023-01-27 11:24:06.297040,-0.03134886547923077
2023-01-27 11:24:06.302040,-0.008831842107656047
2023-01-27 11:24:06.307040,0.01829485222697249
2023-01-27 11:24:06.312040,0.04282437972098121
2023-01-27 11:24:06.317040,0.05546152591705322
2023-01-27 11:24:06.322040,0.04799512691623072
2023-01-27 11:24:06.327040,0.016804337501525806
2023-01-27 11:24:06.332040,-0.03499713567883607
2023-01-27 11:24:06.337040,-0.09779691696166987
2023-01-27 11:24:06.342040,-0.15806420624311787
2023-01-27 11:24:06.347040,-0.20244538784027083
2023-01-27 11:24:06.352040,-0.2219405945501017
2023-01-27 11:24:06.357040,-0.21446566283702842
2023-01-27 11:24:06.362040,-0.18476539089505248
2023-01-27 11:24:06.367040,-0.14203152060508714
2023-01-27 11:24:06.372040,-0.09655124609936452
2023-01-27 11:24:06.377040,-0.05668759346008302
2023-01-27 11:24:06.382040,-0.027037068041868992
2023-01-27 11:24:06.387040,-0.008197824470698814
2023-01-27 11:24:06.392040,0.002014682832490649
2023-01-27 11:24:06.397040,0.006779432296752882
2023-01-27 11:24:06.402040,0.008903397407253266
2023-01-27 11:24:06.407040,0.010241270065307579
2023-01-27 11:24:06.412040,0.011687256005959492
2023-01-27 11:24:06.417040,0.013486742973327618
2023-01-27 11:24:06.422040,0.01568225842318266
2023-01-27 11:24:06.427040,0.01839101314544671
2023-01-27 11:24:06.432040,0.021714362241052165
2023-01-27 11:24:06.437040,0.02550701424479478
2023-01-27 11:24:06.442040,0.0293763607662973
2023-01-27 11:24:06.447040,0.03291150182485579
2023-01-27 11:24:06.452040,0.03587447347354245
2023-01-27 11:24:06.457040,0.03827254101634017
2023-01-27 11:24:06.462040,0.04039673193917549
2023-01-27 11:24:06.467040,0.042768120765685994
2023-01-27 11:24:06.472040,0.04590021848040131
2023-01-27 11:24:06.477040,0.05005240440368647
2023-01-27 11:24:06.482040,0.05522693114102745
2023-01-27 11:24:06.487040,0.06135145947337151
2023-01-27 11:24:06.492040,0.06841072949341334
2023-01-27 11:24:06.497040,0.07649700343608848
2023-01-27 11:24:06.502040,0.08587279459458624
2023-01-27 11:24:06.507040,0.09695550054311744
2023-01-27 11:24:06.512040,0.11009212165325895
2023-01-27 11:24:06.517040,0.12527525424957264
2023-01-27 11:24:06.522040,0.14206415695491578
2023-01-27 11:24:06.527040,0.15970131754875178
2023-01-27 11:24:06.532040,0.1772360623856534
2023-01-27 11:24:06.537040,0.19362251460552204
2023-01-27 11:24:06.542040,0.20783886796216264
2023-01-27 11:24:06.547040,0.21891316771507252
2023-01-27 11:24:06.552040,0.2257653173725123
2023-01-27 11:24:06.557040,0.22708694636821736
2023-01-27 11:24:06.562040,0.22154782374294046
2023-01-27 11:24:06.567040,0.2082632035017012
2023-01-27 11:24:06.572040,0.18721752833949018
2023-01-27 11:24:06.577040,0.15948495268821705
2023-01-27 11:24:06.582040,0.1272143368637606
2023-01-27 11:24:06.587040,0.09327729791402802
2023-01-27 11:24:06.592040,0.06058658889196709
2023-01-27 11:24:06.597040,0.031420987099409124
2023-01-27 11:24:06.602040,0.007119164200026077
2023-01-27 11:24:06.607040,-0.011876027099788092
2023-01-27 11:24:06.612040,-0.025856031278820864
2023-01-27 11:24:06.617040,-0.03562808036804194
2023-01-27 11:24:06.622040,-0.04220580378404933
2023-01-27 11:24:06.627040,-0.04654248803853981
2023-01-27 11:24:06.632040,-0.04944920703759064
2023-01-27 11:24:06.637040,-0.0515910014510154
2023-01-27 11:24:06.642040,-0.053413711633927635
2023-01-27 11:24:06.647040,-0.05510091781616207
2023-01-27 11:24:06.652040,-0.056689554671925074
2023-01-27 11:24:06.657040,-0.05820214748382563
2023-01-27 11:24:06.662040,-0.05961524274979
2023-01-27 11:24:06.667040,-0.06077448651194565
2023-01-27 11:24:06.672040,-0.06144420615844304
2023-01-27 11:24:06.677040,-0.06142358109354973
2023-01-27 11:24:06.682040,-0.06058799044348378
2023-01-27 11:24:06.687040,-0.05892336368560788
2023-01-27 11:24:06.692040,-0.056621643979829675
2023-01-27 11:24:06.697040,-0.05406717583537094
2023-01-27 11:24:06.702040,-0.05160533327268736
2023-01-27 11:24:06.707040,-0.049331188201904165
2023-01-27 11:24:06.712040,-0.04713658471591897
2023-01-27 11:24:06.717040,-0.04488369077444069
2023-01-27 11:24:06.722040,-0.04249271561848122
2023-01-27 11:24:06.727040,-0.04000345990061748
2023-01-27 11:24:06.732040,-0.03766859465901331
2023-01-27 11:24:06.737040,-0.035868488252162906
2023-01-27 11:24:06.742040,-0.03477985800780234
2023-01-27 11:24:06.747040,-0.034185647964477435
2023-01-27 11:24:06.752040,-0.03371157200234029
2023-01-27 11:24:06.757040,-0.03315190598368643
2023-01-27 11:24:06.762040,-0.03245427013052071
2023-01-27 11:24:06.767040,-0.03154119104146958
2023-01-27 11:24:06.772040,-0.030373553450919407
2023-01-27 11:24:06.777040,-0.02913713455200193
2023-01-27 11:24:06.782040,-0.028161014945520303
2023-01-27 11:24:06.787040,-0.02764662168920046
2023-01-27 11:24:06.792040,-0.027599502597251264
2023-01-27 11:24:06.797040,-0.027959149330854416
2023-01-27 11:24:06.802040,-0.028608629826570336
2023-01-27 11:24:06.807040,-0.029281377792358322
2023-01-27 11:24:06.812040,-0.029656190732820806
2023-01-27 11:24:06.817040,-0.029593905434012385
2023-01-27 11:24:06.822040,-0.02918675733451524
2023-01-27 11:24:06.827040,-0.028608243912458392
2023-01-27 11:24:06.832040,-0.02804393426996752
2023-01-27 11:24:06.837040,-0.027718743309378575
2023-01-27 11:24:06.842040,-0.02779522500342992
2023-01-27 11:24:06.847040,-0.028199553489685
2023-01-27 11:24:06.852040,-0.028659187642532103
2023-01-27 11:24:06.857040,-0.028920769691467185
2023-01-27 11:24:06.862040,-0.02884133807455735
2023-01-27 11:24:06.867040,-0.028319757431745515
2023-01-27 11:24:06.872040,-0.02730887464560854
2023-01-27 11:24:06.877040,-0.025915702804923037
2023-01-27 11:24:06.882040,-0.024367161031082947
2023-01-27 11:24:06.887040,-0.022862553596496478
2023-01-27 11:24:06.892040,-0.021546334404037533
2023-01-27 11:24:06.897040,-0.02057870291173452
2023-01-27 11:24:06.902040,-0.020080171035619716
2023-01-27 11:24:06.907040,-0.020001729950308696
2023-01-27 11:24:06.912040,-0.020173614696477292
2023-01-27 11:24:06.917040,-0.020482540130615186
2023-01-27 11:24:06.922040,-0.020893307949840987
2023-01-27 11:24:06.927040,-0.021323960274457883
2023-01-27 11:24:06.932040,-0.021633078404375276
2023-01-27 11:24:06.937040,-0.021708607673644957
2023-01-27 11:24:06.942040,-0.02142237454525293
2023-01-27 11:24:06.947040,-0.020506581291556244
2023-01-27 11:24:06.952040,-0.018636866804436634
2023-01-27 11:24:06.957040,-0.01567443273961542
2023-01-27 11:24:06.962040,-0.01172733865514267
2023-01-27 11:24:06.967040,-0.006995797157287465
2023-01-27 11:24:06.972040,-0.0017001080742701713
2023-01-27 11:24:06.977040,0.003846486564725647
2023-01-27 11:24:06.982040,0.009260798895193479
2023-01-27 11:24:06.987040,0.014232000336050883
2023-01-27 11:24:06.992040,0.018535129391908288
2023-01-27 11:24:06.997040,0.021900933235883713
2023-01-27 11:24:07.002040,0.02400315741394049
2023-01-27 11:24:07.007040,0.024593472480773905
2023-01-27 11:24:07.012040,0.023536643660875243
2023-01-27 11:24:07.017040,0.02072294615209096
2023-01-27 11:24:07.022040,0.01610574796125297
2023-01-27 11:24:07.027040,0.00988066196441646
2023-01-27 11:24:07.032040,0.0025382462513412964
2023-01-27 11:24:07.037040,-0.005264878273010202
2023-01-27 11:24:07.042040,-0.012799036953849097
2023-01-27 11:24:07.047040,-0.019304554909467603
2023-01-27 11:24:07.052040,-0.024201560541418757
2023-01-27 11:24:07.057040,-0.02740621566772458
2023-01-27 11:24:07.062040,-0.029381985430883602
2023-01-27 11:24:07.067040,-0.03079593181610097
2023-01-27 11:24:07.072040,-0.03202416101215896
2023-01-27 11:24:07.077040,-0.03269513696432106
2023-01-27 11:24:07.082040,-0.03135590936629173
2023-01-27 11:24:07.087040,-0.025627216324210077
2023-01-27 11:24:07.092040,-0.013296998043973737
2023-01-27 11:24:07.097040,0.005889932624995737
2023-01-27 11:24:07.102040,0.02878566797339207
2023-01-27 11:24:07.107040,0.04873017594218251
2023-01-27 11:24:07.112040,0.057089226779420146
2023-01-27 11:24:07.117040,0.04613379761576653
2023-01-27 11:24:07.122040,0.012397855955890406
2023-01-27 11:24:07.127040,-0.040965080261230385
2023-01-27 11:24:07.132040,-0.10427087469001577
2023-01-27 11:24:07.137040,-0.16407668590545643
2023-01-27 11:24:07.142040,-0.20739370865837395
2023-01-27 11:24:07.147040,-0.22559642791748039
2023-01-27 11:24:07.152040,-0.21672394276421655
2023-01-27 11:24:07.157040,-0.1854968070983885
2023-01-27 11:24:07.162040,-0.14110574078520863
2023-01-27 11:24:07.167040,-0.09380619227886185
2023-01-27 11:24:07.172040,-0.05190056037504225
2023-01-27 11:24:07.177040,-0.02014597319066521
2023-01-27 11:24:07.182040,0.00039360770612194783
2023-01-27 11:24:07.187040,0.011491378769278549
2023-01-27 11:24:07.192040,0.016316230844011476
2023-01-27 11:24:07.197040,0.01795828342437746
2023-01-27 11:24:07.202040,0.01856712419166891
2023-01-27 11:24:07.207040,0.01928051374852653
2023-01-27 11:24:07.212040,0.020522886170512112
2023-01-27 11:24:07.217040,0.0222855806350708
2023-01-27 11:24:07.222040,0.024389399926250346
2023-01-27 11:24:07.227040,0.026733081787824624
2023-01-27 11:24:07.232040,0.02933049686381622
2023-01-27 11:24:07.237040,0.03214220330119134
2023-01-27 11:24:07.242040,0.035022572479043765
2023-01-27 11:24:07.247040,0.03788789361715314
2023-01-27 11:24:07.252040,0.04080782253968487
2023-01-27 11:24:07.257040,0.04387398809194559
2023-01-27 11:24:07.262040,0.04711029153558258
2023-01-27 11:24:07.267040,0.0505812987685203
2023-01-27 11:24:07.272040,0.054466929505865
2023-01-27 11:24:07.277040,0.05897144600749006
2023-01-27 11:24:07.282040,0.06429970161812296
2023-01-27 11:24:07.287040,0.07079939544200889
2023-01-27 11:24:07.292040,0.07897294359480692
2023-01-27 11:24:07.297040,0.08921444416046134
2023-01-27 11:24:07.302040,0.10159686142795897
2023-01-27 11:24:07.307040,0.11594752967357627
2023-01-27 11:24:07.312040,0.13197269547618543
2023-01-27 11:24:07.317040,0.14921963214874254
2023-01-27 11:24:07.322040,0.1670816866751722
2023-01-27 11:24:07.327040,0.18496792018413538
2023-01-27 11:24:07.332040,0.20231272255074395
2023-01-27 11:24:07.337040,0.21826407313346854
2023-01-27 11:24:07.342040,0.23151692808314775
2023-01-27 11:24:07.347040,0.24066984653472892
2023-01-27 11:24:07.352040,0.24466246209297746
2023-01-27 11:24:07.357040,0.24268925189971913
2023-01-27 11:24:07.362040,0.2338735473126996
2023-01-27 11:24:07.367040,0.2174947708845137
2023-01-27 11:24:07.372040,0.19378364997863082
2023-01-27 11:24:07.377040,0.16438922286033625
2023-01-27 11:24:07.382040,0.13194195287201083
2023-01-27 11:24:07.387040,0.09916722774505606
2023-01-27 11:24:07.392040,0.06830571521271525
2023-01-27 11:24:07.397040,0.04098912328481666
2023-01-27 11:24:07.402040,0.01823640845604149
2023-01-27 11:24:07.407040,0.00040868920041238076
2023-01-27 11:24:07.412040,-0.012730719822563208
2023-01-27 11:24:07.417040,-0.021780729293823242
2023-01-27 11:24:07.422040,-0.027471371904920192
2023-01-27 11:24:07.427040,-0.03060360811650748
2023-01-27 11:24:07.432040,-0.0320714131043766
2023-01-27 11:24:07.437040,-0.032767258584499304
2023-01-27 11:24:07.442040,-0.033365628821532614
2023-01-27 11:24:07.447040,-0.03418564796447749
2023-01-27 11:24:07.452040,-0.03524933678334642
2023-01-27 11:24:07.457040,-0.03642141819000239
2023-01-27 11:24:07.462040,-0.03749686430192752
2023-01-27 11:24:07.467040,-0.0382725410163402
2023-01-27 11:24:07.472040,-0.03865864966947922
2023-01-27 11:24:07.477040,-0.03872931003570552
2023-01-27 11:24:07.482040,-0.03862262351252848
2023-01-27 11:24:07.487040,-0.03841678425669672
2023-01-27 11:24:07.492040,-0.038140569335866
2023-01-27 11:24:07.497040,-0.03783981129527091
2023-01-27 11:24:07.502040,-0.03754021515647642
2023-01-27 11:24:07.507040,-0.03716667741537081
2023-01-27 11:24:07.512040,-0.036576042720428394
2023-01-27 11:24:07.517040,-0.03565212339162819
2023-01-27 11:24:07.522040,-0.03431771106724409
2023-01-27 11:24:07.527040,-0.03252685070037842
2023-01-27 11:24:07.532040,-0.030371306453570165
2023-01-27 11:24:07.537040,-0.028175514191388997
2023-01-27 11:24:07.542040,-0.026365121541561416
2023-01-27 11:24:07.547040,-0.02521852776408188
2023-01-27 11:24:07.552040,-0.02479660886656239
2023-01-27 11:24:07.557040,-0.02505024336278427
2023-01-27 11:24:07.562040,-0.02586155265330083
2023-01-27 11:24:07.567040,-0.026997527107596266
2023-01-27 11:24:07.572040,-0.028167758378146335
2023-01-27 11:24:07.577040,-0.029161175712942963
2023-01-27 11:24:07.582040,-0.029846866901039104
2023-01-27 11:24:07.587040,-0.030074715614318744
2023-01-27 11:24:07.592040,-0.02972337835536875
2023-01-27 11:24:07.597040,-0.02887268923223006
2023-01-27 11:24:07.602040,-0.027818885795118868
2023-01-27 11:24:07.607040,-0.026901364326477006
2023-01-27 11:24:07.612040,-0.026397787192470778
2023-01-27 11:24:07.617040,-0.02654075622558589
2023-01-27 11:24:07.622040,-0.02745078293566809
2023-01-27 11:24:07.627040,-0.028992891311645508
2023-01-27 11:24:07.632040,-0.030811815763705584
2023-01-27 11:24:07.637040,-0.032550893723964545
2023-01-27 11:24:07.642040,-0.033964103964451896
2023-01-27 11:24:07.647040,-0.0348587855696678
2023-01-27 11:24:07.652040,-0.03511681999884187
2023-01-27 11:24:07.657040,-0.03483474254608141
2023-01-27 11:24:07.662040,-0.03431773442723901
2023-01-27 11:24:07.667040,-0.03387312218546859
2023-01-27 11:24:07.672040,-0.0336758650947179
2023-01-27 11:24:07.677040,-0.03380100056529036
2023-01-27 11:24:07.682040,-0.034217171032593405
2023-01-27 11:24:07.687040,-0.03471454232931125
2023-01-27 11:24:07.692040,-0.03500212975743875
2023-01-27 11:24:07.697040,-0.03495494648814205
2023-01-27 11:24:07.702040,-0.03466957612597791
2023-01-27 11:24:07.707040,-0.03425776958465574
2023-01-27 11:24:07.712040,-0.03371517153438573
2023-01-27 11:24:07.717040,-0.03300766274332998
2023-01-27 11:24:07.722040,-0.03211739868068967
2023-01-27 11:24:07.727040,-0.03094017505645752
2023-01-27 11:24:07.732040,-0.029280568286245822
2023-01-27 11:24:07.737040,-0.027021568268537525
2023-01-27 11:24:07.742040,-0.024194902136775973
2023-01-27 11:24:07.747040,-0.020867189392447395
2023-01-27 11:24:07.752040,-0.01712004854212364
2023-01-27 11:24:07.757040,-0.013198256492614694
2023-01-27 11:24:07.762040,-0.009511996436818288
2023-01-27 11:24:07.767040,-0.006394783966243186
2023-01-27 11:24:07.772040,-0.003963513883404909
2023-01-27 11:24:07.777040,-0.0022598109208047342
2023-01-27 11:24:07.782040,-0.001394258495114343
2023-01-27 11:24:07.787040,-0.0015145540237426142
2023-01-27 11:24:07.792040,-0.002798334326983936
2023-01-27 11:24:07.797040,-0.005529324524104472
2023-01-27 11:24:07.802040,-0.009967958117137141
2023-01-27 11:24:07.807040,-0.01598696038126939
2023-01-27 11:24:07.812040,-0.022924585762345257
2023-01-27 11:24:07.817040,-0.029882391914725293
2023-01-27 11:24:07.822040,-0.03609880782299658
2023-01-27 11:24:07.827040,-0.0410852842032909
2023-01-27 11:24:07.832040,-0.044704821909334565
2023-01-27 11:24:07.837040,-0.047311782836913986
2023-01-27 11:24:07.842040,-0.04962234276005293
2023-01-27 11:24:07.847040,-0.052119892090558964
2023-01-27 11:24:07.852040,-0.0543900502200248
2023-01-27 11:24:07.857040,-0.054860513657331335
2023-01-27 11:24:07.862040,-0.05103517545899727
2023-01-27 11:24:07.867040,-0.040267907083034474
2023-01-27 11:24:07.872040,-0.021232604421926034
2023-01-27 11:24:07.877040,0.0043032569810748005
2023-01-27 11:24:07.882040,0.030588951880482274
2023-01-27 11:24:07.887040,0.048874419182538854
2023-01-27 11:24:07.892040,0.050114099568625524
2023-01-27 11:24:07.897040,0.02836783789098257
2023-01-27 11:24:07.902040,-0.01632482230869674
2023-01-27 11:24:07.907040,-0.07685761153697954
2023-01-27 11:24:07.912040,-0.140686757131691
2023-01-27 11:24:07.917040,-0.19381484389305104
2023-01-27 11:24:07.922040,-0.22529223170717302
2023-01-27 11:24:07.927040,-0.23026029765605907
2023-01-27 11:24:07.932040,-0.2107038945728121
2023-01-27 11:24:07.937040,-0.1740775555372237
2023-01-27 11:24:07.942040,-0.13038229338214793
2023-01-27 11:24:07.947040,-0.08878171443939198
2023-01-27 11:24:07.952040,-0.055248195354372684
2023-01-27 11:24:07.957040,-0.032046042382717084
2023-01-27 11:24:07.962040,-0.018516759874897395
2023-01-27 11:24:07.967040,-0.012212594971060696
2023-01-27 11:24:07.972040,-0.010057699341262633
2023-01-27 11:24:07.977040,-0.009471973404288169
2023-01-27 11:24:07.982040,-0.008973466813082592
2023-01-27 11:24:07.987040,-0.007933378219604362
2023-01-27 11:24:07.992040,-0.0060590268255453095
2023-01-27 11:24:07.997040,-0.003341635223478005
2023-01-27 11:24:08.002040,-0.00024626556446539637
2023-01-27 11:24:08.007040,0.002548297401517594
2023-01-27 11:24:08.012040,0.004737846721724683
2023-01-27 11:24:08.017040,0.006539027206599655
2023-01-27 11:24:08.022040,0.008268380612555977
2023-01-27 11:24:08.027040,0.010048946365713962
2023-01-27 11:24:08.032040,0.012005979653463532
2023-01-27 11:24:08.037040,0.014496445655822653
2023-01-27 11:24:08.042040,0.017940100381367615
2023-01-27 11:24:08.047040,0.02247790619730933
2023-01-27 11:24:08.052040,0.027887638346224642
2023-01-27 11:24:08.057040,0.03380100056529032
2023-01-27 11:24:08.062040,0.03998231795268326
2023-01-27 11:24:08.067040,0.04649440571665755
2023-01-27 11:24:08.072040,0.05370976082156026
2023-01-27 11:24:08.077040,0.06219287961721416
2023-01-27 11:24:08.082040,0.07252263656169859
2023-01-27 11:24:08.087040,0.0851035118103026
2023-01-27 11:24:08.092040,0.09997752017731214
2023-01-27 11:24:08.097040,0.11671682447195042
2023-01-27 11:24:08.102040,0.1345132575242765
2023-01-27 11:24:08.107040,0.15239298343658436
2023-01-27 11:24:08.112040,0.1693213529447524
2023-01-27 11:24:08.117040,0.18415054678916912
2023-01-27 11:24:08.122040,0.19561639589880897
2023-01-27 11:24:08.127040,0.2024694383144377
2023-01-27 11:24:08.132040,0.20359041361818805
2023-01-27 11:24:08.137040,0.19807001948356612
2023-01-27 11:24:08.142040,0.18544357678744247
2023-01-27 11:24:08.147040,0.16604802012443534
2023-01-27 11:24:08.152040,0.14115062099956258
2023-01-27 11:24:08.157040,0.11270205676555628
2023-01-27 11:24:08.162040,0.08296774287410347
2023-01-27 11:24:08.167040,0.054211419075727414
2023-01-27 11:24:08.172040,0.028319773182414916
2023-01-27 11:24:08.177040,0.006418824195861816
2023-01-27 11:24:08.182040,-0.011187968185311599
2023-01-27 11:24:08.187040,-0.024713676422834233
2023-01-27 11:24:08.192040,-0.03460745098707384
2023-01-27 11:24:08.197040,-0.0414939746260642
2023-01-27 11:24:08.202040,-0.04607841946020096
2023-01-27 11:24:08.207040,-0.04892250150442118
2023-01-27 11:24:08.212040,-0.05040122020958929
2023-01-27 11:24:08.217040,-0.05091786384582502
2023-01-27 11:24:08.222040,-0.050979402746441846
2023-01-27 11:24:08.227040,-0.0509659461677074
2023-01-27 11:24:08.232040,-0.05097610327084694
2023-01-27 11:24:08.237040,-0.05096594616770739
2023-01-27 11:24:08.242040,-0.05086374765127031
2023-01-27 11:24:08.247040,-0.05048513412475579
2023-01-27 11:24:08.252040,-0.04957222834243329
2023-01-27 11:24:08.257040,-0.04808108136057847
2023-01-27 11:24:08.262040,-0.0462938321412567
2023-01-27 11:24:08.267040,-0.04454712197184553
2023-01-27 11:24:08.272040,-0.04299763397379538
2023-01-27 11:24:08.277040,-0.04171033948659889
2023-01-27 11:24:08.282040,-0.04075161877334101
2023-01-27 11:24:08.287040,-0.040075581520795794
2023-01-27 11:24:08.292040,-0.03952363493471478
2023-01-27 11:24:08.297040,-0.03906587883830066
2023-01-27 11:24:08.302040,-0.038853816553726925
2023-01-27 11:24:08.307040,-0.038921635597944176
2023-01-27 11:24:08.312040,-0.03904144756506997
2023-01-27 11:24:08.317040,-0.038993757218122385
2023-01-27 11:24:08.322040,-0.03877544125996391
2023-01-27 11:24:08.327040,-0.03844082355499256
2023-01-27 11:24:08.332040,-0.03799025827728194
2023-01-27 11:24:08.337040,-0.037551324814557974
2023-01-27 11:24:08.342040,-0.03740455941480892
2023-01-27 11:24:08.347040,-0.037647485733032164
2023-01-27 11:24:08.352040,-0.03805391006839284
2023-01-27 11:24:08.357040,-0.03841678425669662
2023-01-27 11:24:08.362040,-0.0387914411235579
2023-01-27 11:24:08.367040,-0.039258204400539266
2023-01-27 11:24:08.372040,-0.03972275488475943
2023-01-27 11:24:08.377040,-0.04012366384267794
2023-01-27 11:24:08.382040,-0.040548178080342466
2023-01-27 11:24:08.387040,-0.040941040962934376
2023-01-27 11:24:08.392040,-0.04098351681718925
2023-01-27 11:24:08.397040,-0.04048427194356908
2023-01-27 11:24:08.402040,-0.03963072657471474
2023-01-27 11:24:08.407040,-0.03865718841552727
2023-01-27 11:24:08.412040,-0.03755352388152426
2023-01-27 11:24:08.417040,-0.03630121797323215
2023-01-27 11:24:08.422040,-0.035064220402864194
2023-01-27 11:24:08.427040,-0.03389716148376461
2023-01-27 11:24:08.432040,-0.0325943658902048
2023-01-27 11:24:08.437040,-0.031108459457754974
2023-01-27 11:24:08.442040,-0.029813748513145725
2023-01-27 11:24:08.447040,-0.029089054092764768
2023-01-27 11:24:08.452040,-0.02895977623031329
2023-01-27 11:24:08.457040,-0.02940158173441881
2023-01-27 11:24:08.462040,-0.03059271519748058
2023-01-27 11:24:08.467040,-0.03250281140208243
2023-01-27 11:24:08.472040,-0.03456905033008966
2023-01-27 11:24:08.477040,-0.036132931709289474
2023-01-27 11:24:08.482040,-0.03688420574809706
2023-01-27 11:24:08.487040,-0.03658970445394506
2023-01-27 11:24:08.492040,-0.03483767522672933
2023-01-27 11:24:08.497040,-0.031493108719587284
2023-01-27 11:24:08.502040,-0.02704378038525365
2023-01-27 11:24:08.507040,-0.02206921577453606
2023-01-27 11:24:08.512040,-0.016713495566185912
2023-01-27 11:24:08.517040,-0.011058649048209114
2023-01-27 11:24:08.522040,-0.005564131413201371
2023-01-27 11:24:08.527040,-0.0006490945816040181
2023-01-27 11:24:08.532040,0.003740737347425906
2023-01-27 11:24:08.537040,0.007644891738891568
2023-01-27 11:24:08.542040,0.010587312702613661
2023-01-27 11:24:08.547040,0.01206835173070429
2023-01-27 11:24:08.552040,0.012095957876224825
2023-01-27 11:24:08.557040,0.010698040947317987
2023-01-27 11:24:08.562040,0.007459893420794119
2023-01-27 11:24:08.567040,0.0022357702255249214
2023-01-27 11:24:08.572040,-0.004146997935395671
2023-01-27 11:24:08.577040,-0.010577837936580084
2023-01-27 11:24:08.582040,-0.01658852860799968
2023-01-27 11:24:08.587040,-0.021973054856061887
2023-01-27 11:24:08.592040,-0.026196867584816003
2023-01-27 11:24:08.597040,-0.02911309525370588
2023-01-27 11:24:08.602040,-0.03165254093132744
2023-01-27 11:24:08.607040,-0.03469049930572497
2023-01-27 11:24:08.612040,-0.037545803339588096
2023-01-27 11:24:08.617040,-0.03836870193481435
2023-01-27 11:24:08.622040,-0.03529299389709815
2023-01-27 11:24:08.627040,-0.02630035206675514
2023-01-27 11:24:08.632040,-0.009322801486388073
2023-01-27 11:24:08.637040,0.015193621627986412
2023-01-27 11:24:08.642040,0.04175605071239278
2023-01-27 11:24:08.647040,0.06135145947337145
2023-01-27 11:24:08.652040,0.06557856267132396
2023-01-27 11:24:08.657040,0.04887441918253889
2023-01-27 11:24:08.662040,0.00923818593510136
2023-01-27 11:24:08.667040,-0.04911482334136956
2023-01-27 11:24:08.672040,-0.11361201810986805
2023-01-27 11:24:08.677040,-0.16792318224906916
2023-01-27 11:24:08.682040,-0.20131615090945584
2023-01-27 11:24:08.687040,-0.21247029304504386
2023-01-27 11:24:08.692040,-0.20429711798600791
2023-01-27 11:24:08.697040,-0.17890970408916465
2023-01-27 11:24:08.702040,-0.1399284675231777
2023-01-27 11:24:08.707040,-0.09616216272115699
2023-01-27 11:24:08.712040,-0.05826943762910899
2023-01-27 11:24:08.717040,-0.03175755590200419
2023-01-27 11:24:08.722040,-0.015569031713630417
2023-01-27 11:24:08.727040,-0.006611148826777939
2023-01-27 11:24:08.732040,-0.0027157574688624576
2023-01-27 11:24:08.737040,-0.001562635181471696
2023-01-27 11:24:08.742040,-0.0002427084143162119
2023-01-27 11:24:08.747040,0.0026444594841449763
2023-01-27 11:24:08.752040,0.006160239475416661
2023-01-27 11:24:08.757040,0.009111365303397059
2023-01-27 11:24:08.762040,0.011569972829864883
2023-01-27 11:24:08.767040,0.013847351074218712
2023-01-27 11:24:08.772040,0.015564124163653166
2023-01-27 11:24:08.777040,0.016587972640991204
2023-01-27 11:24:08.782040,0.01769498701517711
2023-01-27 11:24:08.787040,0.019496878609061234
2023-01-27 11:24:08.792040,0.02164664557516655
2023-01-27 11:24:08.797040,0.02375205419957628
2023-01-27 11:24:08.802040,0.02620621169449281
2023-01-27 11:24:08.807040,0.029521783813834104
2023-01-27 11:24:08.812040,0.03366404045245616
2023-01-27 11:24:08.817040,0.038633149117231244
2023-01-27 11:24:08.822040,0.04495487539578396
2023-01-27 11:24:08.827040,0.05298535153269758
2023-01-27 11:24:08.832040,0.06235203319643544
2023-01-27 11:24:08.837040,0.07262647151947016
2023-01-27 11:24:08.842040,0.08399751731656957
2023-01-27 11:24:08.847040,0.09681125730276093
2023-01-27 11:24:08.852040,0.11099297377769918
2023-01-27 11:24:08.857040,0.1263570785522459
2023-01-27 11:24:08.862040,0.1428933209721607
2023-01-27 11:24:08.867040,0.1601821184158324
2023-01-27 11:24:08.872040,0.17691758004393435
2023-01-27 11:24:08.877040,0.19143483042716963
2023-01-27 11:24:08.882040,0.20233700366475
2023-01-27 11:24:08.887040,0.2083112895488738
2023-01-27 11:24:08.892040,0.2079149143172458
2023-01-27 11:24:08.897040,0.20016154646873457
2023-01-27 11:24:08.902040,0.18514757764008255
2023-01-27 11:24:08.907040,0.16386032104492168
2023-01-27 11:24:08.912040,0.13776922683096293
2023-01-27 11:24:08.917040,0.1089036464691161
2023-01-27 11:24:08.922040,0.07980956465628293
2023-01-27 11:24:08.927040,0.05279302597045888
2023-01-27 11:24:08.932040,0.02921064344286273
2023-01-27 11:24:08.937040,0.009592175483703577
2023-01-27 11:24:08.942040,-0.005965578251904505
2023-01-27 11:24:08.947040,-0.017838081344962054
2023-01-27 11:24:08.952040,-0.02688821000963199
2023-01-27 11:24:08.957040,-0.03394524380564674
2023-01-27 11:24:08.962040,-0.03936639013762738
2023-01-27 11:24:08.967040,-0.043297015130519784
2023-01-27 11:24:08.972040,-0.04605660646027913
2023-01-27 11:24:08.977040,-0.047984920442104284
2023-01-27 11:24:08.982040,-0.049190969025429104
2023-01-27 11:24:08.987040,-0.04976391792297354
2023-01-27 11:24:08.992040,-0.049994652214384226
2023-01-27 11:24:08.997040,-0.05010048672556867
2023-01-27 11:24:09.002040,-0.049953271462370566
2023-01-27 11:24:09.007040,-0.049355231225490445
2023-01-27 11:24:09.012040,-0.04837927249305522
2023-01-27 11:24:09.017040,-0.04719158262014374
2023-01-27 11:24:09.022040,-0.04576266953429117
2023-01-27 11:24:09.027040,-0.04401823133230196
2023-01-27 11:24:09.032040,-0.04207801461113301
2023-01-27 11:24:09.037040,-0.04009962081909164
2023-01-27 11:24:09.042040,-0.03808450806921255
2023-01-27 11:24:09.047040,-0.03608485311269758
2023-01-27 11:24:09.052040,-0.034410501382505995
2023-01-27 11:24:09.057040,-0.0333682708442211
2023-01-27 11:24:09.062040,-0.03292607291589226
2023-01-27 11:24:09.067040,-0.032815337181091295
2023-01-27 11:24:09.072040,-0.032781096605940765
2023-01-27 11:24:09.077040,-0.03255089372396456
2023-01-27 11:24:09.082040,-0.03180288175987912
2023-01-27 11:24:09.087040,-0.030459364876150943
2023-01-27 11:24:09.092040,-0.028895789079466192
2023-01-27 11:24:09.097040,-0.027646621689200394
2023-01-27 11:24:09.102040,-0.027005689934668377
2023-01-27 11:24:09.107040,-0.02702156826853751
2023-01-27 11:24:09.112040,-0.027629185829805513
2023-01-27 11:24:09.117040,-0.02853612229228011
2023-01-27 11:24:09.122040,-0.029169940153424438
2023-01-27 11:24:09.127040,-0.029040973633527707
2023-01-27 11:24:09.132040,-0.028120507688281737
2023-01-27 11:24:09.137040,-0.026733081787824582
2023-01-27 11:24:09.142040,-0.025226905107237383
2023-01-27 11:24:09.147040,-0.023896297439932813
2023-01-27 11:24:09.152040,-0.02300394451833539
2023-01-27 11:24:09.157040,-0.022598108276724788
2023-01-27 11:24:09.162040,-0.022394099076944923
2023-01-27 11:24:09.167040,-0.022045176476240085
2023-01-27 11:24:09.172040,-0.021469928638862882
2023-01-27 11:24:09.177040,-0.02079506777226919
2023-01-27 11:24:09.182040,-0.020132992003832773
2023-01-27 11:24:09.187040,-0.01959304139018051
2023-01-27 11:24:09.192040,-0.01935842612086295
2023-01-27 11:24:09.197040,-0.019520919770002306
2023-01-27 11:24:09.202040,-0.019905831210771927
2023-01-27 11:24:09.207040,-0.02021809481084342
2023-01-27 11:24:09.212040,-0.02027320394226075
2023-01-27 11:24:09.217040,-0.019953649491071673
2023-01-27 11:24:09.222040,-0.019077879990532665
2023-01-27 11:24:09.227040,-0.01750151440501212
2023-01-27 11:24:09.232040,-0.015260025569814862
2023-01-27 11:24:09.237040,-0.012453000061213913
2023-01-27 11:24:09.242040,-0.009079834130952567
2023-01-27 11:24:09.247040,-0.005144675727933588
2023-01-27 11:24:09.252040,-0.0008403133520490844
2023-01-27 11:24:09.257040,0.003509918926283717
2023-01-27 11:24:09.262040,0.007608703560674963
2023-01-27 11:24:09.267040,0.011178851127624512
2023-01-27 11:24:09.272040,0.013948426828628294
2023-01-27 11:24:09.277040,0.015818675979971816
2023-01-27 11:24:09.282040,0.016950402688255414
2023-01-27 11:24:09.287040,0.017501514405012093
2023-01-27 11:24:09.292040,0.0173077062714421
2023-01-27 11:24:09.297040,0.015914838761091236
2023-01-27 11:24:09.302040,0.012852455856030568
2023-01-27 11:24:09.307040,0.00783721636980767
2023-01-27 11:24:09.312040,0.0009443520304874131
2023-01-27 11:24:09.317040,-0.007164081092923822
2023-01-27 11:24:09.322040,-0.01525352206837062
2023-01-27 11:24:09.327040,-0.022021135315298996
2023-01-27 11:24:09.332040,-0.02673498931650698
2023-01-27 11:24:09.337040,-0.029473703354596956
2023-01-27 11:24:09.342040,-0.030930503856687122
2023-01-27 11:24:09.347040,-0.03204604238271712
2023-01-27 11:24:09.352040,-0.033515882250307015
2023-01-27 11:24:09.357040,-0.035171311348676626
2023-01-27 11:24:09.362040,-0.035564651005098924
2023-01-27 11:24:09.367040,-0.03216624259948729
2023-01-27 11:24:09.372040,-0.022250714099861922
2023-01-27 11:24:09.377040,-0.004327297210693265
2023-01-27 11:24:09.382040,0.020192307350563
2023-01-27 11:24:09.387040,0.04591743275523181
2023-01-27 11:24:09.392040,0.06415358446383715
2023-01-27 11:24:09.397040,0.06565471738576878
2023-01-27 11:24:09.402040,0.04428576342618788
2023-01-27 11:24:09.407040,-0.00014424324035641688
2023-01-27 11:24:09.412040,-0.060968222833028274
2023-01-27 11:24:09.417040,-0.1259964704513548
2023-01-27 11:24:09.422040,-0.18094589826481172
2023-01-27 11:24:09.427040,-0.21396081149578078
2023-01-27 11:24:09.432040,-0.21929785879668384
2023-01-27 11:24:09.437040,-0.19852678477764113
2023-01-27 11:24:09.442040,-0.15911893734184682
2023-01-27 11:24:09.447040,-0.11150002479553214
2023-01-27 11:24:09.452040,-0.06573564134897981
2023-01-27 11:24:09.457040,-0.02880056761205189
2023-01-27 11:24:09.462040,-0.0033331289183577083
2023-01-27 11:24:09.467040,0.011755824089050196
2023-01-27 11:24:09.472040,0.019526270118506633
2023-01-27 11:24:09.477040,0.023295283317565908
2023-01-27 11:24:09.482040,0.025577262333995442
2023-01-27 11:24:09.487040,0.027646621689200342
2023-01-27 11:24:09.492040,0.029670428535711037
2023-01-27 11:24:09.497040,0.03134886547923077
2023-01-27 11:24:09.502040,0.0326074654526853
2023-01-27 11:24:09.507040,0.03380100056529041
2023-01-27 11:24:09.512040,0.035461365680135686
2023-01-27 11:24:09.517040,0.03803213685750961
2023-01-27 11:24:09.522040,0.041751742486960716
2023-01-27 11:24:09.527040,0.04654248803853979
2023-01-27 11:24:09.532040,0.05195757867972718
2023-01-27 11:24:09.537040,0.057384770363569204
2023-01-27 11:24:09.542040,0.06238513941115507
2023-01-27 11:24:09.547040,0.06683270633220666
2023-01-27 11:24:09.552040,0.07083319467891329
2023-01-27 11:24:09.557040,0.07466991990804661
2023-01-27 11:24:09.562040,0.07880719991231903
2023-01-27 11:24:09.567040,0.08378128707408895
2023-01-27 11:24:09.572040,0.09003243981947563
2023-01-27 11:24:09.577040,0.09789308160543433
2023-01-27 11:24:09.582040,0.10767463925668334
2023-01-27 11:24:09.587040,0.11960168927907935
2023-01-27 11:24:09.592040,0.1336219179472524
2023-01-27 11:24:09.597040,0.14936387538909907
2023-01-27 11:24:09.602040,0.16627427460017513
2023-01-27 11:24:09.607040,0.18369376659393302
2023-01-27 11:24:09.612040,0.20079351471012893
2023-01-27 11:24:09.617040,0.21653315424919112
2023-01-27 11:24:09.622040,0.22969054775339498
2023-01-27 11:24:09.627040,0.23886680603027327
2023-01-27 11:24:09.632040,0.2425341764964004
2023-01-27 11:24:09.637040,0.23932358622550948
2023-01-27 11:24:09.642040,0.2284940124813182
2023-01-27 11:24:09.647040,0.21025857329368583
2023-01-27 11:24:09.652040,0.18578700349014896
2023-01-27 11:24:09.657040,0.15698473155498494
2023-01-27 11:24:09.662040,0.12615500013051795
2023-01-27 11:24:09.667040,0.09556114673614498
2023-01-27 11:24:09.672040,0.06701555736501491
2023-01-27 11:24:09.677040,0.04171033948659892
2023-01-27 11:24:09.682040,0.02030374759647503
2023-01-27 11:24:09.687040,0.0030531487427651136
2023-01-27 11:24:09.692040,-0.010127850229915282
2023-01-27 11:24:09.697040,-0.019617080688476465
2023-01-27 11:24:09.702040,-0.025990989202285993
2023-01-27 11:24:09.707040,-0.029954513534903516
2023-01-27 11:24:09.712040,-0.03229277105862973
2023-01-27 11:24:09.717040,-0.03375291824340815
2023-01-27 11:24:09.722040,-0.03487139938845405
2023-01-27 11:24:09.727040,-0.03589252755045889
2023-01-27 11:24:09.732040,-0.0368316556180871
2023-01-27 11:24:09.737040,-0.037575364112853976
2023-01-27 11:24:09.742040,-0.03794471943204031
2023-01-27 11:24:09.747040,-0.03776768967509259
2023-01-27 11:24:09.752040,-0.03697423913815679
2023-01-27 11:24:09.757040,-0.03562808036804191
2023-01-27 11:24:09.762040,-0.0338613213031649
2023-01-27 11:24:09.767040,-0.03180563449859604
2023-01-27 11:24:09.772040,-0.02959386150273307
2023-01-27 11:24:09.777040,-0.027382176369428596
2023-01-27 11:24:09.782040,-0.02532874962697403
2023-01-27 11:24:09.787040,-0.023559730499982775
2023-01-27 11:24:09.792040,-0.022173341098128255
2023-01-27 11:24:09.797040,-0.02125183865427968
2023-01-27 11:24:09.802040,-0.020826205919079542
2023-01-27 11:24:09.807040,-0.020819108933210276
2023-01-27 11:24:09.812040,-0.021043547640203795
2023-01-27 11:24:09.817040,-0.02127587795257556
2023-01-27 11:24:09.822040,-0.021346935409392833
2023-01-27 11:24:09.827040,-0.021203756332397364
2023-01-27 11:24:09.832040,-0.020938287077438205
2023-01-27 11:24:09.837040,-0.020771026611328087
2023-01-27 11:24:09.842040,-0.02095674187504917
2023-01-27 11:24:09.847040,-0.02163648605346672
2023-01-27 11:24:09.852040,-0.022741147281202995
2023-01-27 11:24:09.857040,-0.024016499519348096
2023-01-27 11:24:09.862040,-0.025117966659611576
2023-01-27 11:24:09.867040,-0.025699337944388313
2023-01-27 11:24:09.872040,-0.02550999242141603
2023-01-27 11:24:09.877040,-0.024521350860595644
2023-01-27 11:24:09.882040,-0.022988410348259974
2023-01-27 11:24:09.887040,-0.021347999572753858
2023-01-27 11:24:09.892040,-0.020026637842080135
2023-01-27 11:24:09.897040,-0.019304554909467593
2023-01-27 11:24:09.902040,-0.019245573654024014
2023-01-27 11:24:09.907040,-0.01964112184941762
2023-01-27 11:24:09.912040,-0.020053849526571032
2023-01-27 11:24:09.917040,-0.020049810409545784
2023-01-27 11:24:09.922040,-0.019451412160193474
2023-01-27 11:24:09.927040,-0.018366973847150782
2023-01-27 11:24:09.932040,-0.017057957312179458
2023-01-27 11:24:09.937040,-0.01586675643920889
2023-01-27 11:24:09.942040,-0.015151616703137942
2023-01-27 11:24:09.947040,-0.0150493783876299
2023-01-27 11:24:09.952040,-0.015267605456803793
2023-01-27 11:24:09.957040,-0.015265743248164591
2023-01-27 11:24:09.962040,-0.014632765297381018
2023-01-27 11:24:09.967040,-0.013126134872436513
2023-01-27 11:24:09.972040,-0.010465755694421394
2023-01-27 11:24:09.977040,-0.006514986511319814
2023-01-27 11:24:09.982040,-0.0017695151818193152
2023-01-27 11:24:09.987040,0.0027646622620521744
2023-01-27 11:24:09.992040,0.006475624603114518
2023-01-27 11:24:09.997040,0.009640256874263183
2023-01-27 11:24:10.002040,0.012727183457522027
2023-01-27 11:24:10.007040,0.015506148338317819
2023-01-27 11:24:10.012040,0.01724274155462811
2023-01-27 11:24:10.017040,0.017525553703308144
2023-01-27 11:24:10.022040,0.016383429309960295
2023-01-27 11:24:10.027040,0.013703107833862313
2023-01-27 11:24:10.032040,0.009149393956770155
2023-01-27 11:24:10.037040,0.0028367838822305155
2023-01-27 11:24:10.042040,-0.004326620621276303
2023-01-27 11:24:10.047040,-0.011154810898005893
2023-01-27 11:24:10.052040,-0.01678493183519045
2023-01-27 11:24:10.057040,-0.020746987313032046
2023-01-27 11:24:10.062040,-0.022925023741603164
2023-01-27 11:24:10.067040,-0.023776095360517443
2023-01-27 11:24:10.072040,-0.024324518027038416
2023-01-27 11:24:10.077040,-0.02555509470403188
2023-01-27 11:24:10.082040,-0.027708833406502462
2023-01-27 11:24:10.087040,-0.03002663515508171
2023-01-27 11:24:10.092040,-0.03076550420299007
2023-01-27 11:24:10.097040,-0.0273100547492504
2023-01-27 11:24:10.102040,-0.01686555752659829
2023-01-27 11:24:10.107040,0.0019472837448120306
2023-01-27 11:24:10.112040,0.02735122936481714
2023-01-27 11:24:10.117040,0.05373060703277576
2023-01-27 11:24:10.122040,0.07254634836012164
2023-01-27 11:24:10.127040,0.07466991990804664
2023-01-27 11:24:10.132040,0.05364224626971684
2023-01-27 11:24:10.137040,0.008822878822684212
2023-01-27 11:24:10.142040,-0.05318557982445552
2023-01-27 11:24:10.147040,-0.11993825435638417
2023-01-27 11:24:10.152040,-0.17689126663993593
2023-01-27 11:24:10.157040,-0.2118452489376068
2023-01-27 11:24:10.162040,-0.21848296387283755
2023-01-27 11:24:10.167040,-0.19792577624320978
2023-01-27 11:24:10.172040,-0.1577730844114208
2023-01-27 11:24:10.177040,-0.10899981111288067
2023-01-27 11:24:10.182040,-0.06216650235078779
2023-01-27 11:24:10.187040,-0.0245934724807739
2023-01-27 11:24:10.192040,0.000751652554951986
2023-01-27 11:24:10.197040,0.014833013527095292
2023-01-27 11:24:10.202040,0.02106667245183942
2023-01-27 11:24:10.207040,0.023391446098685206
2023-01-27 11:24:10.212040,0.024734247182857744
2023-01-27 11:24:10.217040,0.026492675766348853
2023-01-27 11:24:10.222040,0.028887220866890932
2023-01-27 11:24:10.227040,0.031565230339765486
2023-01-27 11:24:10.232040,0.034089852301318696
2023-01-27 11:24:10.237040,0.03627717494964588
2023-01-27 11:24:10.242040,0.03829748107334387
2023-01-27 11:24:10.247040,0.04046022891998294
2023-01-27 11:24:10.252040,0.04291211699634555
2023-01-27 11:24:10.257040,0.04558086395263672
2023-01-27 11:24:10.262040,0.048341560030780155
2023-01-27 11:24:10.267040,0.051134228706359766
2023-01-27 11:24:10.272040,0.0539745789159046
2023-01-27 11:24:10.277040,0.057000122964382116
2023-01-27 11:24:10.282040,0.060526720371469396
2023-01-27 11:24:10.287040,0.0649575442075729
2023-01-27 11:24:10.292040,0.07059630971814518
2023-01-27 11:24:10.297040,0.07757882773876187
2023-01-27 11:24:10.302040,0.08594410581709189
2023-01-27 11:24:10.307040,0.09568135440349568
2023-01-27 11:24:10.312040,0.10672377286496167
2023-01-27 11:24:10.317040,0.11900067329406727
2023-01-27 11:24:10.322040,0.13252224449242037
2023-01-27 11:24:10.327040,0.14734447002410878
2023-01-27 11:24:10.332040,0.16340883630686065
2023-01-27 11:24:10.337040,0.18040022253990165
2023-01-27 11:24:10.342040,0.19766269656743707
2023-01-27 11:24:10.347040,0.2141050547361373
2023-01-27 11:24:10.352040,0.22814940530287742
2023-01-27 11:24:10.357040,0.237881153821945
2023-01-27 11:24:10.362040,0.24140774159072087
2023-01-27 11:24:10.367040,0.2372560948133467
2023-01-27 11:24:10.372040,0.22469499249366964
2023-01-27 11:24:10.377040,0.20398399233818038
2023-01-27 11:24:10.382040,0.17649020102553678
2023-01-27 11:24:10.387040,0.14453172683715815
2023-01-27 11:24:10.392040,0.11092963202416714
2023-01-27 11:24:10.397040,0.07844428718090052
2023-01-27 11:24:10.402040,0.049289064970752736
2023-01-27 11:24:10.407040,0.024809837341308462
2023-01-27 11:24:10.412040,0.005384969359731879
2023-01-27 11:24:10.417040,-0.009399851784110026
2023-01-27 11:24:10.422040,-0.020360863701156855
2023-01-27 11:24:10.427040,-0.028319757431745467
2023-01-27 11:24:10.432040,-0.033895652094664046
2023-01-27 11:24:10.437040,-0.03750324249267565
2023-01-27 11:24:10.442040,-0.03945307423793264
2023-01-27 11:24:10.447040,-0.04007558152079577
2023-01-27 11:24:10.452040,-0.039828593827265495
2023-01-27 11:24:10.457040,-0.03930628299713125
2023-01-27 11:24:10.462040,-0.03907268377628653
2023-01-27 11:24:10.467040,-0.039402447640895816
2023-01-27 11:24:10.472040,-0.040151438574597
2023-01-27 11:24:10.477040,-0.04086891934275617
2023-01-27 11:24:10.482040,-0.04102511578142181
2023-01-27 11:24:10.487040,-0.04019578546285624
2023-01-27 11:24:10.492040,-0.03820541375669506
2023-01-27 11:24:10.497040,-0.03524343296885491
2023-01-27 11:24:10.502040,-0.0318186559909104
2023-01-27 11:24:10.507040,-0.028488039970397835
2023-01-27 11:24:10.512040,-0.02559633278148313
2023-01-27 11:24:10.517040,-0.02327124401926982
2023-01-27 11:24:10.522040,-0.021537545312749044
2023-01-27 11:24:10.527040,-0.020290216431021576
2023-01-27 11:24:10.532040,-0.019241033654596222
2023-01-27 11:24:10.537040,-0.018102526664733762
2023-01-27 11:24:10.542040,-0.016834989794367868
2023-01-27 11:24:10.547040,-0.01557826995849597
2023-01-27 11:24:10.552040,-0.014428572517665173
2023-01-27 11:24:10.557040,-0.013534824363887265
2023-01-27 11:24:10.562040,-0.0133418007216534
2023-01-27 11:24:10.567040,-0.014328162185847685
2023-01-27 11:24:10.572040,-0.01638633633390102
2023-01-27 11:24:10.577040,-0.01882374286651609
2023-01-27 11:24:10.582040,-0.02114778222075591
2023-01-27 11:24:10.587040,-0.02346356771886337
2023-01-27 11:24:10.592040,-0.025833064827282887
2023-01-27 11:24:10.597040,-0.027670662850141532
2023-01-27 11:24:10.602040,-0.028266712750024982
2023-01-27 11:24:10.607040,-0.027670662850141466
2023-01-27 11:24:10.612040,-0.026532804599980787
2023-01-27 11:24:10.617040,-0.025194486603140744
2023-01-27 11:24:10.622040,-0.0234755458522197
2023-01-27 11:24:10.627040,-0.021347999572753868
2023-01-27 11:24:10.632040,-0.019267331158292555
2023-01-27 11:24:10.637040,-0.0176938381046056
2023-01-27 11:24:10.642040,-0.01672637965600529
2023-01-27 11:24:10.647040,-0.01637160778045645
2023-01-27 11:24:10.652040,-0.016746120788767693
2023-01-27 11:24:10.657040,-0.017741918563842697
2023-01-27 11:24:10.662040,-0.018797087114548066
2023-01-27 11:24:10.667040,-0.019280513748526573
2023-01-27 11:24:10.672040,-0.01893391666539576
2023-01-27 11:24:10.677040,-0.017790000885724994
2023-01-27 11:24:10.682040,-0.01592059306383215
2023-01-27 11:24:10.687040,-0.013486742973327632
2023-01-27 11:24:10.692040,-0.010804457490353239
2023-01-27 11:24:10.697040,-0.0080776214599609
2023-01-27 11:24:10.702040,-0.005172393657939754
2023-01-27 11:24:10.707040,-0.0018511216621845095
2023-01-27 11:24:10.712040,0.0018727192929710163
2023-01-27 11:24:10.717040,0.005745689384639209
2023-01-27 11:24:10.722040,0.009463472906599373
2023-01-27 11:24:10.727040,0.012645324692129969
2023-01-27 11:24:10.732040,0.01474955305761935
2023-01-27 11:24:10.737040,0.015241703018546113
2023-01-27 11:24:10.742040,0.013825790499303608
2023-01-27 11:24:10.747040,0.010433594696223708
2023-01-27 11:24:10.752040,0.005155940708428673
2023-01-27 11:24:10.757040,-0.001610716222785424
2023-01-27 11:24:10.762040,-0.00903327158610757
2023-01-27 11:24:10.767040,-0.016059082001447577
2023-01-27 11:24:10.772040,-0.02179626965926275
2023-01-27 11:24:10.777040,-0.025699337944388292
2023-01-27 11:24:10.782040,-0.0276253401986606
2023-01-27 11:24:10.787040,-0.02795914933085437
2023-01-27 11:24:10.792040,-0.02762010294172221
2023-01-27 11:24:10.797040,-0.0276947021484375
2023-01-27 11:24:10.802040,-0.028885775857557017
2023-01-27 11:24:10.807040,-0.031108459457755006
2023-01-27 11:24:10.812040,-0.03323337415137318
2023-01-27 11:24:10.817040,-0.032983623445033965
2023-01-27 11:24:10.822040,-0.027415519971702842
2023-01-27 11:24:10.827040,-0.01430412195622918
2023-01-27 11:24:10.832040,0.006076704313757356
2023-01-27 11:24:10.837040,0.029810270294547005
2023-01-27 11:24:10.842040,0.049541351635992215
2023-01-27 11:24:10.847040,0.05620678514242168
2023-01-27 11:24:10.852040,0.042066287175979086
2023-01-27 11:24:10.857040,0.00413497304543849
2023-01-27 11:24:10.862040,-0.053608067817103346
2023-01-27 11:24:10.867040,-0.12061139196157446
2023-01-27 11:24:10.872040,-0.18274671658139213
2023-01-27 11:24:10.877040,-0.22663018107414237
2023-01-27 11:24:10.882040,-0.24365520782154138
2023-01-27 11:24:10.887040,-0.23237586021423323
2023-01-27 11:24:10.892040,-0.19837124042249474
2023-01-27 11:24:10.897040,-0.151695817708969
2023-01-27 11:24:10.902040,-0.10320814600783881
2023-01-27 11:24:10.907040,-0.06144762039184568
2023-01-27 11:24:10.912040,-0.031004045526880804
2023-01-27 11:24:10.917040,-0.012428959831595377
2023-01-27 11:24:10.922040,-0.00334306007648568
2023-01-27 11:24:10.927040,-0.00016828379011712494
2023-01-27 11:24:10.932040,0.00034054801315289276
2023-01-27 11:24:10.937040,0.00038464865065173607
2023-01-27 11:24:10.942040,0.0011424956511282053
2023-01-27 11:24:10.947040,0.00302910804748529
2023-01-27 11:24:10.952040,0.005955031295938258
2023-01-27 11:24:10.957040,0.009616216644644694
2023-01-27 11:24:10.962040,0.013715122591876313
2023-01-27 11:24:10.967040,0.017958283424377365
2023-01-27 11:24:10.972040,0.021970478527837133
2023-01-27 11:24:10.977040,0.025386810302734278
2023-01-27 11:24:10.982040,0.028063981786337663
2023-01-27 11:24:10.987040,0.03014683723449698
2023-01-27 11:24:10.992040,0.03196886490045563
2023-01-27 11:24:10.997040,0.033969283103942795
2023-01-27 11:24:11.002040,0.03664498785836048
2023-01-27 11:24:11.007040,0.04043618962168691
2023-01-27 11:24:11.012040,0.04562690020371123
2023-01-27 11:24:11.017040,0.05240837857127175
2023-01-27 11:24:11.022040,0.06099771061683223
2023-01-27 11:24:11.027040,0.07159273326396934
2023-01-27 11:24:11.032040,0.08421182801972925
2023-01-27 11:24:11.037040,0.09863834083080292
2023-01-27 11:24:11.042040,0.1144880231483597
2023-01-27 11:24:11.047040,0.13126134872436512
2023-01-27 11:24:11.052040,0.14838669405768093
2023-01-27 11:24:11.057040,0.16532680392265303
2023-01-27 11:24:11.062040,0.18162143208927184
2023-01-27 11:24:11.067040,0.1966997087001799
2023-01-27 11:24:11.072040,0.20960389739180352
2023-01-27 11:24:11.077040,0.2189372032880783
2023-01-27 11:24:11.082040,0.22310107481576036
2023-01-27 11:24:11.087040,0.2206440865993498
2023-01-27 11:24:11.092040,0.21061901249648554
2023-01-27 11:24:11.097040,0.19292533397674555
2023-01-27 11:24:11.102040,0.16848359615935507
2023-01-27 11:24:11.107040,0.13907453417778007
2023-01-27 11:24:11.112040,0.10694713946211319
2023-01-27 11:24:11.117040,0.07445355504751201
2023-01-27 11:24:11.122040,0.04377428650842659
2023-01-27 11:24:11.127040,0.016636054962873386
2023-01-27 11:24:11.132040,-0.005934206316835575
2023-01-27 11:24:11.137040,-0.02365589141845702
2023-01-27 11:24:11.142040,-0.03683933973477745
2023-01-27 11:24:11.147040,-0.0461818799376487
2023-01-27 11:24:11.152040,-0.05257451882693918
2023-01-27 11:24:11.157040,-0.05687991902232163
2023-01-27 11:24:11.162040,-0.05974412092217594
2023-01-27 11:24:11.167040,-0.06156782433390608
2023-01-27 11:24:11.172040,-0.06260819605344124
2023-01-27 11:24:11.177040,-0.06305833905935279
2023-01-27 11:24:11.182040,-0.06305640063170294
2023-01-27 11:24:11.187040,-0.0626977309584617
2023-01-27 11:24:11.192040,-0.06206949026764022
2023-01-27 11:24:11.197040,-0.06125529855489731
2023-01-27 11:24:11.202040,-0.06031128412432169
2023-01-27 11:24:11.207040,-0.05925993248820302
2023-01-27 11:24:11.212040,-0.05809356877882815
2023-01-27 11:24:11.217040,-0.05675971508026121
2023-01-27 11:24:11.222040,-0.05516640094373536
2023-01-27 11:24:11.227040,-0.053249798715114476
2023-01-27 11:24:11.232040,-0.051058199503765715
2023-01-27 11:24:11.237040,-0.04877825826406467
2023-01-27 11:24:11.242040,-0.04669360949240059
2023-01-27 11:24:11.247040,-0.045100055634975364
2023-01-27 11:24:11.252040,-0.04419559542582771
2023-01-27 11:24:11.257040,-0.043994188308715744
2023-01-27 11:24:11.262040,-0.04432479961674904
2023-01-27 11:24:11.267040,-0.04490773007273664
2023-01-27 11:24:11.272040,-0.045459712604706985
2023-01-27 11:24:11.277040,-0.045821271836757584
2023-01-27 11:24:11.282040,-0.04606592226131216
2023-01-27 11:24:11.287040,-0.046446323394775293
2023-01-27 11:24:11.292040,-0.047146219750006726
2023-01-27 11:24:11.297040,-0.0481051206588745
2023-01-27 11:24:11.302040,-0.04915016362888474
2023-01-27 11:24:11.307040,-0.0502206906676292
2023-01-27 11:24:11.312040,-0.05131764051299232
2023-01-27 11:24:11.317040,-0.05228817462921137
2023-01-27 11:24:11.322040,-0.0528834883498257
2023-01-27 11:24:11.327040,-0.05308151245117183
2023-01-27 11:24:11.332040,-0.05317160218836118
2023-01-27 11:24:11.337040,-0.053442120552062856
2023-01-27 11:24:11.342040,-0.05394100229984071
2023-01-27 11:24:11.347040,-0.054620109498500824
2023-01-27 11:24:11.352040,-0.05552315315615508
2023-01-27 11:24:11.357040,-0.05666355416178694
2023-01-27 11:24:11.362040,-0.05782420608545651
2023-01-27 11:24:11.367040,-0.05863487720489502
2023-01-27 11:24:11.372040,-0.05879708038374769
2023-01-27 11:24:11.377040,-0.05815406888723366
2023-01-27 11:24:11.382040,-0.05667518859658882
2023-01-27 11:24:11.387040,-0.0545479878783226
2023-01-27 11:24:11.392040,-0.05222541887177179
2023-01-27 11:24:11.397040,-0.05019664764404288
2023-01-27 11:24:11.402040,-0.04865889418950476
2023-01-27 11:24:11.407040,-0.04743198677897448
2023-01-27 11:24:11.412040,-0.0460978773156657
2023-01-27 11:24:11.417040,-0.04413843154907219
2023-01-27 11:24:11.422040,-0.04109482162416981
2023-01-27 11:24:11.427040,-0.03687819093465802
2023-01-27 11:24:11.432040,-0.03204265485289455
2023-01-27 11:24:11.437040,-0.02769470214843749
2023-01-27 11:24:11.442040,-0.025076772926242503
2023-01-27 11:24:11.447040,-0.025146406143903653
2023-01-27 11:24:11.452040,-0.028291123150546736
2023-01-27 11:24:11.457040,-0.034137569367885486
2023-01-27 11:24:11.462040,-0.04156295399806258
2023-01-27 11:24:11.467040,-0.049066744744777555
2023-01-27 11:24:11.472040,-0.055335400488601943
2023-01-27 11:24:11.477040,-0.059620540589094086
2023-01-27 11:24:11.482040,-0.06180677024478168
2023-01-27 11:24:11.487040,-0.06233712285757059
2023-01-27 11:24:11.492040,-0.062079466951327315
2023-01-27 11:24:11.497040,-0.06204863637685766
2023-01-27 11:24:11.502040,-0.06298896295057065
2023-01-27 11:24:11.507040,-0.06495754420757291
2023-01-27 11:24:11.512040,-0.06701160289843089
2023-01-27 11:24:11.517040,-0.06712119281291956
2023-01-27 11:24:11.522040,-0.06259537852045198
2023-01-27 11:24:11.527040,-0.05123039335012426
2023-01-27 11:24:11.532040,-0.032876841250799614
2023-01-27 11:24:11.537040,-0.010649959556758385
2023-01-27 11:24:11.542040,0.008977682976042577
2023-01-27 11:24:11.547040,0.017573636025190287
2023-01-27 11:24:11.552040,0.007472863830413265
2023-01-27 11:24:11.557040,-0.02500216290354719
2023-01-27 11:24:11.562040,-0.07723984018847466
2023-01-27 11:24:11.567040,-0.14022848010063177
2023-01-27 11:24:11.572040,-0.20090372219970412
2023-01-27 11:24:11.577040,-0.24605493247509003
2023-01-27 11:24:11.582040,-0.2663049850419364
2023-01-27 11:24:11.587040,-0.2587483525276183
2023-01-27 11:24:11.592040,-0.227340650501111
2023-01-27 11:24:11.597040,-0.1810012310743331
2023-01-27 11:24:11.602040,-0.1303620893035463
2023-01-27 11:24:11.607040,-0.0845746248960494
2023-01-27 11:24:11.612040,-0.04927105379246971
2023-01-27 11:24:11.617040,-0.026059946045279444
2023-01-27 11:24:11.622040,-0.013335218270462652
2023-01-27 11:24:11.627040,-0.00781317614018908
2023-01-27 11:24:11.632040,-0.006063487870116915
2023-01-27 11:24:11.637040,-0.005481243133544907
2023-01-27 11:24:11.642040,-0.004591740844141782
2023-01-27 11:24:11.647040,-0.002908905502408771
2023-01-27 11:24:11.652040,-0.0005841554971951694
2023-01-27 11:24:11.657040,0.001995364902540993
2023-01-27 11:24:11.662040,0.004500890361282141
2023-01-27 11:24:11.667040,0.0067553920671343005
2023-01-27 11:24:11.672040,0.008712215256575962
2023-01-27 11:24:11.677040,0.010457634925842176
2023-01-27 11:24:11.682040,0.012222175235222905
2023-01-27 11:24:11.687040,0.01430412195622921
2023-01-27 11:24:11.692040,0.01694188876795052
2023-01-27 11:24:11.697040,0.0202661752700805
2023-01-27 11:24:11.702040,0.024346127350042147
2023-01-27 11:24:11.707040,0.029233297333121164
2023-01-27 11:24:11.712040,0.034982875384731243
2023-01-27 11:24:11.717040,0.04171033948659887
2023-01-27 11:24:11.722040,0.049654652144011206
2023-01-27 11:24:11.727040,0.05913972854614248
2023-01-27 11:24:11.732040,0.07043083045555984
2023-01-27 11:24:11.737040,0.08361300081014629
2023-01-27 11:24:11.742040,0.09856939417506187
2023-01-27 11:24:11.747040,0.11500994861125938
2023-01-27 11:24:11.752040,0.1324925025567367
2023-01-27 11:24:11.757040,0.15044569969177235
2023-01-27 11:24:11.762040,0.16819527700686
2023-01-27 11:24:11.767040,0.1849438846111296
2023-01-27 11:24:11.772040,0.1996876952165603
2023-01-27 11:24:11.777040,0.2111480683088301
2023-01-27 11:24:11.782040,0.21782266549077453
2023-01-27 11:24:11.787040,0.2181919515132904
2023-01-27 11:24:11.792040,0.21104259432910003
2023-01-27 11:24:11.797040,0.19583424925804122
2023-01-27 11:24:11.802040,0.17300481976602317
2023-01-27 11:24:11.807040,0.14407496154308302
2023-01-27 11:24:11.812040,0.11144496538445446
2023-01-27 11:24:11.817040,0.07791539281606666
2023-01-27 11:24:11.822040,0.046113419567114636
2023-01-27 11:24:11.827040,0.018030405044555563
2023-01-27 11:24:11.832040,-0.005224599688527337
2023-01-27 11:24:11.837040,-0.023439526557922252
2023-01-27 11:24:11.842040,-0.0370957521705335
2023-01-27 11:24:11.847040,-0.04702329635620113
2023-01-27 11:24:11.852040,-0.054084725685371066
2023-01-27 11:24:11.857040,-0.059019528329372385
2023-01-27 11:24:11.862040,-0.0624073263894042
2023-01-27 11:24:11.867040,-0.06464501470327369
2023-01-27 11:24:11.872040,-0.06595635664287418
2023-01-27 11:24:11.877040,-0.06649613380432119
2023-01-27 11:24:11.882040,-0.06646244576562012
2023-01-27 11:24:11.887040,-0.06608744710683813
2023-01-27 11:24:11.892040,-0.0655692145864788
2023-01-27 11:24:11.897040,-0.06507774442434307
2023-01-27 11:24:11.902040,-0.06475986610709632
2023-01-27 11:24:11.907040,-0.06462097167968747
2023-01-27 11:24:11.912040,-0.06445308865657615
2023-01-27 11:24:11.917040,-0.0640199631452559
2023-01-27 11:24:11.922040,-0.06325523766555716
2023-01-27 11:24:11.927040,-0.06209671497344966
2023-01-27 11:24:11.932040,-0.06021753745822425
2023-01-27 11:24:11.937040,-0.05726456642150871
2023-01-27 11:24:11.942040,-0.05342694256183972
2023-01-27 11:24:11.947040,-0.04942735284566875
2023-01-27 11:24:11.952040,-0.04578981154144372
2023-01-27 11:24:11.957040,-0.04243155568838102
2023-01-27 11:24:11.962040,-0.03918696565387616
2023-01-27 11:24:11.967040,-0.03637333959341037
2023-01-27 11:24:11.972040,-0.03445238792151128
2023-01-27 11:24:11.977040,-0.033368270844221046
2023-01-27 11:24:11.982040,-0.032662556717622304
2023-01-27 11:24:11.987040,-0.03211816400289522
2023-01-27 11:24:11.992040,-0.03184010283199671
2023-01-27 11:24:11.997040,-0.031757555902004186
2023-01-27 11:24:12.002040,-0.031544375210942034
2023-01-27 11:24:12.007040,-0.031132500618696227
2023-01-27 11:24:12.012040,-0.030888671453292726
2023-01-27 11:24:12.017040,-0.03110845945775496
2023-01-27 11:24:12.022040,-0.031639161469719235
2023-01-27 11:24:12.027040,-0.03214220330119129
2023-01-27 11:24:12.032040,-0.032428989422975674
2023-01-27 11:24:12.037040,-0.03238260746002193
2023-01-27 11:24:12.042040,-0.03185616245949622
2023-01-27 11:24:12.047040,-0.0308920945972204
2023-01-27 11:24:12.052040,-0.029841012368839376
2023-01-27 11:24:12.057040,-0.02904097363352764
2023-01-27 11:24:12.062040,-0.028507869304368435
2023-01-27 11:24:12.067040,-0.028079351410269678
2023-01-27 11:24:12.072040,-0.027682207687589198
2023-01-27 11:24:12.077040,-0.027286013588309187
2023-01-27 11:24:12.082040,-0.02675366747978623
2023-01-27 11:24:12.087040,-0.02591570280492302
2023-01-27 11:24:12.092040,-0.02465366731355549
2023-01-27 11:24:12.097040,-0.0227423515170812
2023-01-27 11:24:12.102040,-0.019762464602425752
2023-01-27 11:24:12.107040,-0.015409986488521049
2023-01-27 11:24:12.112040,-0.009887379024382388
2023-01-27 11:24:12.117040,-0.0039186081849037985
2023-01-27 11:24:12.122040,0.0015008638771651281
2023-01-27 11:24:12.127040,0.005288918968289981
2023-01-27 11:24:12.132040,0.006469676038268158
2023-01-27 11:24:12.137040,0.004543662071227963
2023-01-27 11:24:12.142040,-0.0002298680552123405
2023-01-27 11:24:12.147040,-0.006971756927669073
2023-01-27 11:24:12.152040,-0.01456730085159485
2023-01-27 11:24:12.157040,-0.021924972534179615
2023-01-27 11:24:12.162040,-0.028123043705041983
2023-01-27 11:24:12.167040,-0.03262301534414289
2023-01-27 11:24:12.172040,-0.03541932407089695
2023-01-27 11:24:12.177040,-0.03692626953125002
2023-01-27 11:24:12.182040,-0.03775481402809744
2023-01-27 11:24:12.187040,-0.03858506679534911
2023-01-27 11:24:12.192040,-0.039959217447879156
2023-01-27 11:24:12.197040,-0.0417824611067771
2023-01-27 11:24:12.202040,-0.042819630380925455
2023-01-27 11:24:12.207040,-0.04072467610239977
2023-01-27 11:24:12.212040,-0.03279651878911322
2023-01-27 11:24:12.217040,-0.01728514954447739
2023-01-27 11:24:12.222040,0.005074219244827093
2023-01-27 11:24:12.227040,0.02993047237396244
2023-01-27 11:24:12.232040,0.049548405726291274
2023-01-27 11:24:12.237040,0.054932635277509585
2023-01-27 11:24:12.242040,0.0392019229083498
2023-01-27 11:24:12.247040,0.0007212162017822182
2023-01-27 11:24:12.252040,-0.05540324764688565
2023-01-27 11:24:12.257040,-0.11820733547210689
2023-01-27 11:24:12.262040,-0.17404201625931515
2023-01-27 11:24:12.267040,-0.21093170344829543
2023-01-27 11:24:12.272040,-0.22226524814289042
2023-01-27 11:24:12.277040,-0.20828723907470695
2023-01-27 11:24:12.282040,-0.17511532756277262
2023-01-27 11:24:12.287040,-0.13210277259349817
2023-01-27 11:24:12.292040,-0.08869791645951375
2023-01-27 11:24:12.297040,-0.05187948793172829
2023-01-27 11:24:12.302040,-0.024985109422629985
2023-01-27 11:24:12.307040,-0.008077621459960872
2023-01-27 11:24:12.312040,0.0008137019784736784
2023-01-27 11:24:12.317040,0.0044234595261513805
2023-01-27 11:24:12.322040,0.0053270130350113925
2023-01-27 11:24:12.327040,0.005385081283748072
2023-01-27 11:24:12.332040,0.005608924425956029
2023-01-27 11:24:12.337040,0.006418824195861811
2023-01-27 11:24:12.342040,0.007975669418113594
2023-01-27 11:24:12.347040,0.010289351455867188
2023-01-27 11:24:12.352040,0.013194970524779973
2023-01-27 11:24:12.357040,0.01641969010233874
2023-01-27 11:24:12.362040,0.01970027156244502
2023-01-27 11:24:12.367040,0.022814473137259345
2023-01-27 11:24:12.372040,0.025605302150268603
2023-01-27 11:24:12.377040,0.028103392571210802
2023-01-27 11:24:12.382040,0.03059985711939126
2023-01-27 11:24:12.387040,0.033512514084577484
2023-01-27 11:24:12.392040,0.037197582668180594
2023-01-27 11:24:12.397040,0.041926704347133595
2023-01-27 11:24:12.402040,0.04795659691779975
2023-01-27 11:24:12.407040,0.055509608238935415
2023-01-27 11:24:12.412040,0.06471129659254167
2023-01-27 11:24:12.417040,0.07560750097036359
2023-01-27 11:24:12.422040,0.08817587973011196
2023-01-27 11:24:12.427040,0.10222037881612762
2023-01-27 11:24:12.432040,0.1172896255120771
2023-01-27 11:24:12.437040,0.13279995322227459
2023-01-27 11:24:12.442040,0.1482498389116203
2023-01-27 11:24:12.447040,0.16328334808349595
2023-01-27 11:24:12.452040,0.17758154480833188
2023-01-27 11:24:12.457040,0.19071361422538735
2023-01-27 11:24:12.462040,0.201979882665967
2023-01-27 11:24:12.467040,0.21025857329368586
2023-01-27 11:24:12.472040,0.21402341294717075
2023-01-27 11:24:12.477040,0.2116769552230834
2023-01-27 11:24:12.482040,0.20206816763385055
2023-01-27 11:24:12.487040,0.18491983413696278
2023-01-27 11:24:12.492040,0.16102865033528063
2023-01-27 11:24:12.497040,0.13222298026084883
2023-01-27 11:24:12.502040,0.10104893583139096
2023-01-27 11:24:12.507040,0.07022242248058305
2023-01-27 11:24:12.512040,0.04205518910996667
2023-01-27 11:24:12.517040,0.018078487366437895
2023-01-27 11:24:12.522040,-0.0010812027225926037
2023-01-27 11:24:12.527040,-0.015626352280378307
2023-01-27 11:24:12.532040,-0.02634855108920782
2023-01-27 11:24:12.537040,-0.03428181260824201
2023-01-27 11:24:12.542040,-0.0403689915458732
2023-01-27 11:24:12.547040,-0.04524429887533179
2023-01-27 11:24:12.552040,-0.04917131106186347
2023-01-27 11:24:12.557040,-0.052143931388854904
2023-01-27 11:24:12.562040,-0.054093221996061314
2023-01-27 11:24:12.567040,-0.05505283921957009
