2023-01-28 08:58:30.014119,-0.012645324692129993
2023-01-28 08:58:30.019119,-0.011598488466449168
2023-01-28 08:58:30.024119,-0.009375810623168888
2023-01-28 08:58:30.029119,-0.006996057317045095
2023-01-28 08:58:30.034119,-0.004904270172119079
2023-01-28 08:58:30.039119,-0.002717624403732136
2023-01-28 08:58:30.044119,-0.0005769729614257031
2023-01-28 08:58:30.049119,0.0007097640347839741
2023-01-28 08:58:30.054119,0.000937581062316788
2023-01-28 08:58:30.059119,0.000803731743345575
2023-01-28 08:58:30.064119,0.0008654594421386008
2023-01-28 08:58:30.069119,0.0011755962807817846
2023-01-28 08:58:30.074119,0.0020194053649901823
2023-01-28 08:58:30.079119,0.004024606119965943
2023-01-28 08:58:30.084119,0.007284283638000412
2023-01-28 08:58:30.089119,0.011133882946279433
2023-01-28 08:58:30.094119,0.015025338158011388
2023-01-28 08:58:30.099119,0.01899176743797498
2023-01-28 08:58:30.104119,0.023127000778913383
2023-01-28 08:58:30.109119,0.027291766696984476
2023-01-28 08:58:30.114119,0.031541191041469456
2023-01-28 08:58:30.119119,0.036229923191331344
2023-01-28 08:58:30.124119,0.04142185300588598
2023-01-28 08:58:30.129119,0.04661379072962864
2023-01-28 08:58:30.134119,0.05113422870635979
2023-01-28 08:58:30.139119,0.05431339432548463
2023-01-28 08:58:30.144119,0.05517303943634033
2023-01-28 08:58:30.149119,0.05256929565197756
2023-01-28 08:58:30.154119,0.046013593673706
2023-01-28 08:58:30.159119,0.03612818352714691
2023-01-28 08:58:30.164119,0.02425690554082391
2023-01-28 08:58:30.169119,0.011984419247029032
2023-01-28 08:58:30.174119,0.0009616216411813856
2023-01-28 08:58:30.179119,-0.007491837563369145
2023-01-28 08:58:30.184119,-0.013029973022639675
2023-01-28 08:58:30.189119,-0.016326160857847247
2023-01-28 08:58:30.194119,-0.018366973847150813
2023-01-28 08:58:30.199119,-0.019914850444275073
2023-01-28 08:58:30.204119,-0.021540325134992513
2023-01-28 08:58:30.209119,-0.0235550195495762
2023-01-28 08:58:30.214119,-0.025531053543090793
2023-01-28 08:58:30.219119,-0.026009280587841275
2023-01-28 08:58:30.224119,-0.022694271057844044
2023-01-28 08:58:30.229119,-0.012731689448637458
2023-01-28 08:58:30.234119,0.0068755946122108945
2023-01-28 08:58:30.239119,0.03805007587163375
2023-01-28 08:58:30.244119,0.07981459796428682
2023-01-28 08:58:30.249119,0.12722927134001327
2023-01-28 08:58:30.254119,0.17203411459922785
2023-01-28 08:58:30.259119,0.20467381239580792
2023-01-28 08:58:30.264119,0.21703800559043876
2023-01-28 08:58:30.269119,0.20535917662156167
2023-01-28 08:58:30.274119,0.17210623621940604
2023-01-28 08:58:30.279119,0.12542838002746376
2023-01-28 08:58:30.284119,0.07611235231161109
2023-01-28 08:58:30.289119,0.03379480355834544
2023-01-28 08:58:30.294119,0.004231135360896485
2023-01-28 08:58:30.299119,-0.01171182741494733
2023-01-28 08:58:30.304119,-0.017285149544477418
2023-01-28 08:58:30.309119,-0.017552079957234918
2023-01-28 08:58:30.314119,-0.016684135422110526
2023-01-28 08:58:30.319119,-0.016506404319798797
2023-01-28 08:58:30.324119,-0.016828378662467
2023-01-28 08:58:30.329119,-0.016590754265740745
2023-01-28 08:58:30.334119,-0.014833013527095304
2023-01-28 08:58:30.339119,-0.011340491912939368
2023-01-28 08:58:30.344119,-0.006923675537109278
2023-01-28 08:58:30.349119,-0.0029896482149815236
2023-01-28 08:58:30.354119,-0.0006010135402902096
2023-01-28 08:58:30.359119,0.00010071133095740355
2023-01-28 08:58:30.364119,-0.00028848648071277695
2023-01-28 08:58:30.369119,-0.0008700260171915381
2023-01-28 08:58:30.374119,-0.0007452567806466798
2023-01-28 08:58:30.379119,0.0006044946934087592
2023-01-28 08:58:30.384119,0.0029089055024087156
2023-01-28 08:58:30.389119,0.005238899251142533
2023-01-28 08:58:30.394119,0.006755392067134326
2023-01-28 08:58:30.399119,0.007337330628959633
2023-01-28 08:58:30.404119,0.007596810813993235
2023-01-28 08:58:30.409119,0.008566276388814124
2023-01-28 08:58:30.414119,0.011323094367980933
2023-01-28 08:58:30.419119,0.016433390901990756
2023-01-28 08:58:30.424119,0.023439526557922315
2023-01-28 08:58:30.429119,0.03103696959622634
2023-01-28 08:58:30.434119,0.037960015237331265
2023-01-28 08:58:30.439119,0.04373739833855433
2023-01-28 08:58:30.444119,0.04877825826406469
2023-01-28 08:58:30.449119,0.05408142778302622
2023-01-28 08:58:30.454119,0.06084660813212389
2023-01-28 08:58:30.459119,0.06986553913582223
2023-01-28 08:58:30.464119,0.08092045783996579
2023-01-28 08:58:30.469119,0.09285667984072404
2023-01-28 08:58:30.474119,0.10435998439788804
2023-01-28 08:58:30.479119,0.11460067107397308
2023-01-28 08:58:30.484119,0.12325584888458246
2023-01-28 08:58:30.489119,0.13031541359047238
2023-01-28 08:58:30.494119,0.1359973400831222
2023-01-28 08:58:30.499119,0.14050952109732387
2023-01-28 08:58:30.504119,0.14364223182201377
2023-01-28 08:58:30.509119,0.14473721928748212
2023-01-28 08:58:30.514119,0.1431614160537719
2023-01-28 08:58:30.519119,0.13865195763820265
2023-01-28 08:58:30.524119,0.13121327757835377
2023-01-28 08:58:30.529119,0.12103912558734856
2023-01-28 08:58:30.534119,0.10871132463216777
2023-01-28 08:58:30.539119,0.09520125907091218
2023-01-28 08:58:30.544119,0.0814493522047996
2023-01-28 08:58:30.549119,0.06805142859902621
2023-01-28 08:58:30.554119,0.05536536499857895
2023-01-28 08:58:30.559119,0.04361008072940089
2023-01-28 08:58:30.564119,0.03271917626261712
2023-01-28 08:58:30.569119,0.02239109907261249
2023-01-28 08:58:30.574119,0.012501081451773605
2023-01-28 08:58:30.579119,0.003296444385015789
2023-01-28 08:58:30.584119,-0.00490427017211906
2023-01-28 08:58:30.589119,-0.011941687751129004
2023-01-28 08:58:30.594119,-0.01762171648442737
2023-01-28 08:58:30.599119,-0.02159293303864782
2023-01-28 08:58:30.604119,-0.023631852120160998
2023-01-28 08:58:30.609119,-0.023852029873593566
2023-01-28 08:58:30.614119,-0.02250194549560541
2023-01-28 08:58:30.619119,-0.019814996194314052
2023-01-28 08:58:30.624119,-0.016203325241804113
2023-01-28 08:58:30.629119,-0.012290070443810875
2023-01-28 08:58:30.634119,-0.008510351181030211
2023-01-28 08:58:30.639119,-0.00489858038840859
2023-01-28 08:58:30.644119,-0.001442432403564344
2023-01-28 08:58:30.649119,0.0016272061792704069
2023-01-28 08:58:30.654119,0.004110932350158625
2023-01-28 08:58:30.659119,0.006134804388916327
2023-01-28 08:58:30.664119,0.00793337821960441
2023-01-28 08:58:30.669119,0.009582172768523084
2023-01-28 08:58:30.674119,0.011154810898005877
2023-01-28 08:58:30.679119,0.012849880187158318
2023-01-28 08:58:30.684119,0.014688770286738815
2023-01-28 08:58:30.689119,0.016366352151749884
2023-01-28 08:58:30.694119,0.017717879265546674
2023-01-28 08:58:30.699119,0.019110507755066643
2023-01-28 08:58:30.704119,0.02108355425298209
2023-01-28 08:58:30.709119,0.023820966697203554
2023-01-28 08:58:30.714119,0.027213891968131003
2023-01-28 08:58:30.719119,0.03110182207217273
2023-01-28 08:58:30.724119,0.03509918972849836
2023-01-28 08:58:30.729119,0.0385362416521153
2023-01-28 08:58:30.734119,0.04106124490499484
2023-01-28 08:58:30.739119,0.04307082720955859
2023-01-28 08:58:30.744119,0.04507601261138903
2023-01-28 08:58:30.749119,0.046846105593479286
2023-01-28 08:58:30.754119,0.04760026931762686
2023-01-28 08:58:30.759119,0.046708971244215254
2023-01-28 08:58:30.764119,0.043633580207824686
2023-01-28 08:58:30.769119,0.037614633678278324
2023-01-28 08:58:30.774119,0.028464000672101898
2023-01-28 08:58:30.779119,0.01770358343764245
2023-01-28 08:58:30.784119,0.007909337989985912
2023-01-28 08:58:30.789119,0.000507232460149801
2023-01-28 08:58:30.794119,-0.0051446757279336236
2023-01-28 08:58:30.799119,-0.010248880195338837
2023-01-28 08:58:30.804119,-0.014977256767451715
2023-01-28 08:58:30.809119,-0.01888149631192395
2023-01-28 08:58:30.814119,-0.022069215774536067
2023-01-28 08:58:30.819119,-0.025028475784433093
2023-01-28 08:58:30.824119,-0.02757450006902206
2023-01-28 08:58:30.829119,-0.028791309523100935
2023-01-28 08:58:30.834119,-0.027935108169913195
2023-01-28 08:58:30.839119,-0.024631046893345276
2023-01-28 08:58:30.844119,-0.018006365746259623
2023-01-28 08:58:30.849119,-0.0062035900040559155
2023-01-28 08:58:30.854119,0.0128376483917236
2023-01-28 08:58:30.859119,0.04002899876811709
2023-01-28 08:58:30.864119,0.07406890392303458
2023-01-28 08:58:30.869119,0.11081547798845857
2023-01-28 08:58:30.874119,0.14340183138847346
2023-01-28 08:58:30.879119,0.1638223815059
2023-01-28 08:58:30.884119,0.1658797264099121
2023-01-28 08:58:30.889119,0.14795559721215
2023-01-28 08:58:30.894119,0.11395215988159169
2023-01-28 08:58:30.899119,0.07200337457305243
2023-01-28 08:58:30.904119,0.031661391258239704
2023-01-28 08:58:30.909119,0.0006345625413053757
2023-01-28 08:58:30.914119,-0.01766979694366451
2023-01-28 08:58:30.919119,-0.024630806373181862
2023-01-28 08:58:30.924119,-0.02471367642283431
2023-01-28 08:58:30.929119,-0.022740107822760154
2023-01-28 08:58:30.934119,-0.021756689995527215
2023-01-28 08:58:30.939119,-0.02236234220529898
2023-01-28 08:58:30.944119,-0.0233433656394481
2023-01-28 08:58:30.949119,-0.022988318823641694
2023-01-28 08:58:30.954119,-0.02036233805119991
2023-01-28 08:58:30.959119,-0.015891164138781822
2023-01-28 08:58:30.964119,-0.011010567657649512
2023-01-28 08:58:30.969119,-0.00727224026073455
2023-01-28 08:58:30.974119,-0.0055774054490028875
2023-01-28 08:58:30.979119,-0.0058989223482141424
2023-01-28 08:58:30.984119,-0.007428526878356902
2023-01-28 08:58:30.989119,-0.008974471112635878
2023-01-28 08:58:30.994119,-0.009471973404288216
2023-01-28 08:58:30.999119,-0.008404028954128402
2023-01-28 08:58:31.004119,-0.005913972854614191
2023-01-28 08:58:31.009119,-0.0025985621444843663
2023-01-28 08:58:31.014119,0.0008173784008248977
2023-01-28 08:58:31.019119,0.003762467268519425
2023-01-28 08:58:31.024119,0.006034175865352125
2023-01-28 08:58:31.029119,0.007907775573260613
2023-01-28 08:58:31.034119,0.010024905204772904
2023-01-28 08:58:31.039119,0.013064329866520655
2023-01-28 08:58:31.044119,0.017405351623892708
2023-01-28 08:58:31.049119,0.022996527818174933
2023-01-28 08:58:31.054119,0.029449662193655916
2023-01-28 08:58:31.059119,0.03626405006705057
2023-01-28 08:58:31.064119,0.043104689568281104
2023-01-28 08:58:31.069119,0.05002829041536932
2023-01-28 08:58:31.074119,0.0574809312820434
2023-01-28 08:58:31.079119,0.06600081188452483
2023-01-28 08:58:31.084119,0.0758238658308982
2023-01-28 08:58:31.089119,0.08668283635817033
2023-01-28 08:58:31.094119,0.09789308160543442
2023-01-28 08:58:31.099119,0.10860308466307154
2023-01-28 08:58:31.104119,0.1180630922317504
2023-01-28 08:58:31.109119,0.12581249516338464
2023-01-28 08:58:31.114119,0.13169407844543446
2023-01-28 08:58:31.119119,0.1356797511857276
2023-01-28 08:58:31.124119,0.1376561373472212
2023-01-28 08:58:31.129119,0.13735104929957462
2023-01-28 08:58:31.134119,0.13441066443920127
2023-01-28 08:58:31.139119,0.12851121280460395
2023-01-28 08:58:31.144119,0.11945744603872288
2023-01-28 08:58:31.149119,0.1072929573100182
2023-01-28 08:58:31.154119,0.09238779544830314
2023-01-28 08:58:31.159119,0.07543907929513954
2023-01-28 08:58:31.164119,0.05740880966186521
2023-01-28 08:58:31.169119,0.039440761229766357
2023-01-28 08:58:31.174119,0.022694271057844113
2023-01-28 08:58:31.179119,0.00806351575091612
2023-01-28 08:58:31.184119,-0.004038810729980402
2023-01-28 08:58:31.189119,-0.013628999352256461
2023-01-28 08:58:31.194119,-0.020915269851684494
2023-01-28 08:58:31.199119,-0.026140325354933474
2023-01-28 08:58:31.204119,-0.029569864273071185
2023-01-28 08:58:31.209119,-0.03148192393996352
2023-01-28 08:58:31.214119,-0.0321181640028953
2023-01-28 08:58:31.219119,-0.03169966374042454
2023-01-28 08:58:31.224119,-0.03048340603709215
2023-01-28 08:58:31.229119,-0.028721071577405964
2023-01-28 08:58:31.234119,-0.026564797386526947
2023-01-28 08:58:31.239119,-0.02411296377551497
2023-01-28 08:58:31.244119,-0.021564364433288477
2023-01-28 08:58:31.249119,-0.019215286272557766
2023-01-28 08:58:31.254119,-0.017237067222595187
2023-01-28 08:58:31.259119,-0.015499663672295994
2023-01-28 08:58:31.264119,-0.013630986213683997
2023-01-28 08:58:31.269119,-0.011203796866465802
2023-01-28 08:58:31.274119,-0.007909337989985844
2023-01-28 08:58:31.279119,-0.00370673776230655
2023-01-28 08:58:31.284119,0.001129905460402321
2023-01-28 08:58:31.289119,0.006216000901059215
2023-01-28 08:58:31.294119,0.011395215988159084
2023-01-28 08:58:31.299119,0.01682814519120885
2023-01-28 08:58:31.304119,0.0226942710578441
2023-01-28 08:58:31.309119,0.028833779091557543
2023-01-28 08:58:31.314119,0.03466646000742913
2023-01-28 08:58:31.319119,0.03937534025062925
2023-01-28 08:58:31.324119,0.0422151908278465
2023-01-28 08:58:31.329119,0.04288791130125702
2023-01-28 08:58:31.334119,0.041806500405073124
2023-01-28 08:58:31.339119,0.039927833475421434
2023-01-28 08:58:31.344119,0.03815233707427969
2023-01-28 08:58:31.349119,0.036775831205302395
2023-01-28 08:58:31.354119,0.03541171550750733
2023-01-28 08:58:31.359119,0.03328747279191506
2023-01-28 08:58:31.364119,0.02961794659495349
2023-01-28 08:58:31.369119,0.023963368523426534
2023-01-28 08:58:31.374119,0.016515851020812898
2023-01-28 08:58:31.379119,0.008088588592000841
2023-01-28 08:58:31.384119,-0.0002644459600560083
2023-01-28 08:58:31.389119,-0.007672387664983235
2023-01-28 08:58:31.394119,-0.013606945984065514
2023-01-28 08:58:31.399119,-0.017888640110915916
2023-01-28 08:58:31.404119,-0.02074698731303207
2023-01-28 08:58:31.409119,-0.02280917733090901
2023-01-28 08:58:31.414119,-0.024809837341308465
2023-01-28 08:58:31.419119,-0.02714484083449728
2023-01-28 08:58:31.424119,-0.02952178381383413
2023-01-28 08:58:31.429119,-0.030733102132912117
2023-01-28 08:58:31.434119,-0.028560161590576123
2023-01-28 08:58:31.439119,-0.020089147370444572
2023-01-28 08:58:31.444119,-0.0026444594841449885
2023-01-28 08:58:31.449119,0.024972412826421955
2023-01-28 08:58:31.454119,0.06149570271372788
2023-01-28 08:58:31.459119,0.10277400458912564
2023-01-28 08:58:31.464119,0.14210364222526548
2023-01-28 08:58:31.469119,0.17160228833341482
2023-01-28 08:58:31.474119,0.1845351904630661
2023-01-28 08:58:31.479119,0.17765938432194017
2023-01-28 08:58:31.484119,0.15239298343658436
2023-01-28 08:58:31.489119,0.11436380148739624
2023-01-28 08:58:31.494119,0.07168889045715328
2023-01-28 08:58:31.499119,0.03251816360739729
2023-01-28 08:58:31.504119,0.0025242567062376932
2023-01-28 08:58:31.509119,-0.01655901311933053
2023-01-28 08:58:31.514119,-0.0264926757663488
2023-01-28 08:58:31.519119,-0.030664933939495966
2023-01-28 08:58:31.524119,-0.03231048583984374
2023-01-28 08:58:31.529119,-0.03373306745385286
2023-01-28 08:58:31.534119,-0.03615697473287581
2023-01-28 08:58:31.539119,-0.03961753855626508
2023-01-28 08:58:31.544119,-0.04305660724639887
2023-01-28 08:58:31.549119,-0.04498191689247524
2023-01-28 08:58:31.554119,-0.04435479640960691
2023-01-28 08:58:31.559119,-0.041023106482883
2023-01-28 08:58:31.564119,-0.03558000177144999
2023-01-28 08:58:31.569119,-0.02906538529901344
2023-01-28 08:58:31.574119,-0.022718310356140074
2023-01-28 08:58:31.579119,-0.017628062382045045
2023-01-28 08:58:31.584119,-0.014304121956229177
2023-01-28 08:58:31.589119,-0.012512804913653627
2023-01-28 08:58:31.594119,-0.011563500389456687
2023-01-28 08:58:31.599119,-0.010778624083612243
2023-01-28 08:58:31.604119,-0.009784500114619685
2023-01-28 08:58:31.609119,-0.00854596680221412
2023-01-28 08:58:31.614119,-0.007260243408381901
2023-01-28 08:58:31.619119,-0.006173645945072183
2023-01-28 08:58:31.624119,-0.005361040588468259
2023-01-28 08:58:31.629119,-0.004606933889312571
2023-01-28 08:58:31.634119,-0.003509918926283731
2023-01-28 08:58:31.639119,-0.0017148461818066376
2023-01-28 08:58:31.644119,0.0009616216411813786
2023-01-28 08:58:31.649119,0.004602547249277841
2023-01-28 08:58:31.654119,0.00932773016393178
2023-01-28 08:58:31.659119,0.01535234352955615
2023-01-28 08:58:31.664119,0.0229587163776159
2023-01-28 08:58:31.669119,0.032409160310877115
2023-01-28 08:58:31.674119,0.04377782344818107
2023-01-28 08:58:31.679119,0.056745625131161846
2023-01-28 08:58:31.684119,0.07053494453430166
2023-01-28 08:58:31.689119,0.08409457204269849
2023-01-28 08:58:31.694119,0.09640257060527797
2023-01-28 08:58:31.699119,0.10667687208190528
2023-01-28 08:58:31.704119,0.11445701122283927
2023-01-28 08:58:31.709119,0.11962611182314081
2023-01-28 08:58:31.714119,0.1223423108458518
2023-01-28 08:58:31.719119,0.12282721488302804
2023-01-28 08:58:31.724119,0.12114028632640828
2023-01-28 08:58:31.729119,0.11712995473416456
2023-01-28 08:58:31.734119,0.11053840816020963
2023-01-28 08:58:31.739119,0.10110577268717266
2023-01-28 08:58:31.744119,0.08868555724620808
2023-01-28 08:58:31.749119,0.07348043833658217
2023-01-28 08:58:31.754119,0.05627890676259989
2023-01-28 08:58:31.759119,0.038414335357717315
2023-01-28 08:58:31.764119,0.02142012119293213
2023-01-28 08:58:31.769119,0.006640153589655033
2023-01-28 08:58:31.774119,-0.005048513412475446
2023-01-28 08:58:31.779119,-0.013437607410737056
2023-01-28 08:58:31.784119,-0.019040107727050688
2023-01-28 08:58:31.789119,-0.022809484631775366
2023-01-28 08:58:31.794119,-0.0256272163242101
2023-01-28 08:58:31.799119,-0.027960324672168007
2023-01-28 08:58:31.804119,-0.029882391914725297
2023-01-28 08:58:31.809119,-0.03125462847911028
2023-01-28 08:58:31.814119,-0.03187775611877437
2023-01-28 08:58:31.819119,-0.03165954914639528
2023-01-28 08:58:31.824119,-0.03077189251780498
2023-01-28 08:58:31.829119,-0.029593647407808527
2023-01-28 08:58:31.834119,-0.028439959511160774
2023-01-28 08:58:31.839119,-0.027387947531175672
2023-01-28 08:58:31.844119,-0.02634843252599224
2023-01-28 08:58:31.849119,-0.025166508139184286
2023-01-28 08:58:31.854119,-0.023607810959219842
2023-01-28 08:58:31.859119,-0.021408781677162078
2023-01-28 08:58:31.864119,-0.018487175926566096
2023-01-28 08:58:31.869119,-0.015081449170846672
2023-01-28 08:58:31.874119,-0.011659662239253491
2023-01-28 08:58:31.879119,-0.00876886567778007
2023-01-28 08:58:31.884119,-0.006947716232389212
2023-01-28 08:58:31.889119,-0.006546509926285703
2023-01-28 08:58:31.894119,-0.007428526878356872
2023-01-28 08:58:31.899119,-0.008875947523548887
2023-01-28 08:58:31.904119,-0.009880661964416499
2023-01-28 08:58:31.909119,-0.00953246023926395
2023-01-28 08:58:31.914119,-0.007212162017822218
2023-01-28 08:58:31.919119,-0.002688554604319298
2023-01-28 08:58:31.924119,0.0037503242492675118
2023-01-28 08:58:31.929119,0.011303918465426915
2023-01-28 08:58:31.934119,0.0189199056476354
2023-01-28 08:58:31.939119,0.02557908259086015
2023-01-28 08:58:31.944119,0.030435323715209895
2023-01-28 08:58:31.949119,0.03298966650068626
2023-01-28 08:58:31.954119,0.03336827084422109
2023-01-28 08:58:31.959119,0.032361696105876324
2023-01-28 08:58:31.964119,0.03101229667663572
2023-01-28 08:58:31.969119,0.030091443146500824
2023-01-28 08:58:31.974119,0.0298583507537841
2023-01-28 08:58:31.979119,0.0300335406766304
2023-01-28 08:58:31.984119,0.02983431145548823
2023-01-28 08:58:31.989119,0.028234088963671362
2023-01-28 08:58:31.994119,0.02449731156229969
2023-01-28 08:58:31.999119,0.018571657567949092
2023-01-28 08:58:32.004119,0.0110105676576495
2023-01-28 08:58:32.009119,0.0026914873146214545
2023-01-28 08:58:32.014119,-0.0053369998931884054
2023-01-28 08:58:32.019119,-0.012040439230443276
2023-01-28 08:58:32.024119,-0.016804337501525785
2023-01-28 08:58:32.029119,-0.019730146582570888
2023-01-28 08:58:32.034119,-0.02146820351481429
2023-01-28 08:58:32.039119,-0.022810801951779515
2023-01-28 08:58:32.044119,-0.02437710762023921
2023-01-28 08:58:32.049119,-0.02622933233810036
2023-01-28 08:58:32.054119,-0.027261972427368112
2023-01-28 08:58:32.059119,-0.024854330835306984
2023-01-28 08:58:32.064119,-0.015385946258902517
2023-01-28 08:58:32.069119,0.0045108103784201195
2023-01-28 08:58:32.074119,0.036517582833766916
2023-01-28 08:58:32.079119,0.07932882360213851
2023-01-28 08:58:32.084119,0.12782356142997742
2023-01-28 08:58:32.089119,0.17349416086133873
2023-01-28 08:58:32.094119,0.20660440623760215
2023-01-28 08:58:32.099119,0.21930957117011382
2023-01-28 08:58:32.104119,0.20826320350170127
2023-01-28 08:58:32.109119,0.17574241451161712
2023-01-28 08:58:32.114119,0.12902557849884028
2023-01-28 08:58:32.119119,0.07807834542655329
2023-01-28 08:58:32.124119,0.032238364219665507
2023-01-28 08:58:32.129119,-0.002545186444995778
2023-01-28 08:58:32.134119,-0.024593472480773912
2023-01-28 08:58:32.139119,-0.03561647553943439
2023-01-28 08:58:32.144119,-0.039113961160182856
2023-01-28 08:58:32.149119,-0.03876914554205322
2023-01-28 08:58:32.154119,-0.0371666774153709
2023-01-28 08:58:32.159119,-0.0353493117518225
2023-01-28 08:58:32.164119,-0.033416353166103294
2023-01-28 08:58:32.169119,-0.031383700995861186
2023-01-28 08:58:32.174119,-0.02940158173441878
2023-01-28 08:58:32.179119,-0.02751286404507678
2023-01-28 08:58:32.184119,-0.025651257485151128
2023-01-28 08:58:32.189119,-0.023816759038430394
2023-01-28 08:58:32.194119,-0.021973054856061876
2023-01-28 08:58:32.199119,-0.01992867832145328
2023-01-28 08:58:32.204119,-0.01766979694366446
2023-01-28 08:58:32.209119,-0.01567251548326904
2023-01-28 08:58:32.214119,-0.014496445655822716
2023-01-28 08:58:32.219119,-0.014154338429438652
2023-01-28 08:58:32.224119,-0.014207959175109806
2023-01-28 08:58:32.229119,-0.014283900905563049
2023-01-28 08:58:32.234119,-0.014063715934753437
2023-01-28 08:58:32.239119,-0.013033708011016117
2023-01-28 08:58:32.244119,-0.010914405807852745
2023-01-28 08:58:32.249119,-0.008237546342282001
2023-01-28 08:58:32.254119,-0.005769729614257765
2023-01-28 08:58:32.259119,-0.00334522741197551
2023-01-28 08:58:32.264119,-2.4040540665704194e-05
2023-01-28 08:58:32.269119,0.004524102469221364
2023-01-28 08:58:32.274119,0.00971237849444145
2023-01-28 08:58:32.279119,0.015420417815391312
2023-01-28 08:58:32.284119,0.022694271057844065
2023-01-28 08:58:32.289119,0.03232543913431736
2023-01-28 08:58:32.294119,0.04339317604899401
2023-01-28 08:58:32.299119,0.05406388011095955
2023-01-28 08:58:32.304119,0.06346702575683584
2023-01-28 08:58:32.309119,0.0720327369542148
2023-01-28 08:58:32.314119,0.08031944930553431
2023-01-28 08:58:32.319119,0.08840632842275488
2023-01-28 08:58:32.324119,0.09635448455810537
2023-01-28 08:58:32.329119,0.10434481331174376
2023-01-28 08:58:32.334119,0.11205296218395228
2023-01-28 08:58:32.339119,0.11842511750254614
2023-01-28 08:58:32.344119,0.12234231084585179
2023-01-28 08:58:32.349119,0.12319735696887267
2023-01-28 08:58:32.354119,0.12077967822551718
2023-01-28 08:58:32.359119,0.1150823300315134
2023-01-28 08:58:32.364119,0.10645151138305654
2023-01-28 08:58:32.369119,0.09557207324533713
2023-01-28 08:58:32.374119,0.08303602784872047
2023-01-28 08:58:32.379119,0.06910874268645252
2023-01-28 08:58:32.384119,0.05406717583537103
2023-01-28 08:58:32.389119,0.03858263142228241
2023-01-28 08:58:32.394119,0.023655891418456986
2023-01-28 08:58:32.399119,0.010341799134624992
2023-01-28 08:58:32.404119,-0.0004327297210693075
2023-01-28 08:58:32.409119,-0.008103318029888774
2023-01-28 08:58:32.414119,-0.012789567932486501
2023-01-28 08:58:32.419119,-0.01530343778787238
2023-01-28 08:58:32.424119,-0.01668413542211047
2023-01-28 08:58:32.429119,-0.017712735797527572
2023-01-28 08:58:32.434119,-0.018799703568220097
2023-01-28 08:58:32.439119,-0.02007486671137646
2023-01-28 08:58:32.444119,-0.021420121192932108
2023-01-28 08:58:32.449119,-0.022537248838212624
2023-01-28 08:58:32.454119,-0.023151040077209396
2023-01-28 08:58:32.459119,-0.023155276070705003
2023-01-28 08:58:32.464119,-0.022574067115783587
2023-01-28 08:58:32.469119,-0.021526184030674536
2023-01-28 08:58:32.474119,-0.020314257591962776
2023-01-28 08:58:32.479119,-0.0194324528359422
2023-01-28 08:58:32.484119,-0.019328594207763634
2023-01-28 08:58:32.489119,-0.02010925044619994
2023-01-28 08:58:32.494119,-0.021444162353873166
2023-01-28 08:58:32.499119,-0.02267831062527464
2023-01-28 08:58:32.504119,-0.02305487915873521
2023-01-28 08:58:32.509119,-0.022024346196874545
2023-01-28 08:58:32.514119,-0.01954495906829829
2023-01-28 08:58:32.519119,-0.0161471558055489
2023-01-28 08:58:32.524119,-0.012669364921748572
2023-01-28 08:58:32.529119,-0.009860968242111691
2023-01-28 08:58:32.534119,-0.008101662620902032
2023-01-28 08:58:32.539119,-0.007315937016519427
2023-01-28 08:58:32.544119,-0.007067918777465801
2023-01-28 08:58:32.549119,-0.006822917839803618
2023-01-28 08:58:32.554119,-0.006274580955505285
2023-01-28 08:58:32.559119,-0.005530045651994224
2023-01-28 08:58:32.564119,-0.005024473182856998
2023-01-28 08:58:32.569119,-0.005240714607835988
2023-01-28 08:58:32.574119,-0.0064188241958617834
2023-01-28 08:58:32.579119,-0.008410123747036242
2023-01-28 08:58:32.584119,-0.0107461214065551
2023-01-28 08:58:32.589119,-0.012876881709093681
2023-01-28 08:58:32.594119,-0.014424324035644493
2023-01-28 08:58:32.599119,-0.015299859748359144
2023-01-28 08:58:32.604119,-0.015650391578674306
2023-01-28 08:58:32.609119,-0.015689952354320028
2023-01-28 08:58:32.614119,-0.015506148338317809
2023-01-28 08:58:32.619119,-0.0149574536492445
2023-01-28 08:58:32.624119,-0.013751189224421912
2023-01-28 08:58:32.629119,-0.011646596510339705
2023-01-28 08:58:32.634119,-0.008606513962149596
2023-01-28 08:58:32.639119,-0.004796038850246168
2023-01-28 08:58:32.644119,-0.0004808108205906905
2023-01-28 08:58:32.649119,0.004094076054116548
2023-01-28 08:58:32.654119,0.00879883766174312
2023-01-28 08:58:32.659119,0.013609148673913093
2023-01-28 08:58:32.664119,0.01843909546732899
2023-01-28 08:58:32.669119,0.02295302882846454
2023-01-28 08:58:32.674119,0.026588838547468085
2023-01-28 08:58:32.679119,0.028812851894244616
2023-01-28 08:58:32.684119,0.029377540573477707
2023-01-28 08:58:32.689119,0.028401387074708087
2023-01-28 08:58:32.694119,0.026276310905814084
2023-01-28 08:58:32.699119,0.023444539344516395
2023-01-28 08:58:32.704119,0.020097892731428077
2023-01-28 08:58:32.709119,0.016007665155080047
2023-01-28 08:58:32.714119,0.010722081176936583
2023-01-28 08:58:32.719119,0.004044056568004057
2023-01-28 08:58:32.724119,-0.003606081008911085
2023-01-28 08:58:32.729119,-0.011218941981104801
2023-01-28 08:58:32.734119,-0.017573636025190315
2023-01-28 08:58:32.739119,-0.021797739281252868
2023-01-28 08:58:32.744119,-0.023896297439932823
2023-01-28 08:58:32.749119,-0.02489062698969826
2023-01-28 08:58:32.754119,-0.026276310905814112
2023-01-28 08:58:32.759119,-0.02899858185917147
2023-01-28 08:58:32.764119,-0.032550893723964594
2023-01-28 08:58:32.769119,-0.03465753756232836
2023-01-28 08:58:32.774119,-0.031637351959943716
2023-01-28 08:58:32.779119,-0.019422389502474165
2023-01-28 08:58:32.784119,0.004904270172119093
2023-01-28 08:58:32.789119,0.04156196545003221
2023-01-28 08:58:32.794119,0.08724312484264365
2023-01-28 08:58:32.799119,0.1353823111680014
2023-01-28 08:58:32.804119,0.17741918563842762
2023-01-28 08:58:32.809119,0.2047998038776642
2023-01-28 08:58:32.814119,0.2113403975963591
2023-01-28 08:58:32.819119,0.19519116613019452
2023-01-28 08:58:32.824119,0.15950898826122278
2023-01-28 08:58:32.829119,0.1115252784357413
2023-01-28 08:58:32.834119,0.06043791770935049
2023-01-28 08:58:32.839119,0.014837072903533425
2023-01-28 08:58:32.844119,-0.019569000229239398
2023-01-28 08:58:32.849119,-0.041072936965225855
2023-01-28 08:58:32.854119,-0.051446758210659006
2023-01-28 08:58:32.859119,-0.05427423483450902
2023-01-28 08:58:32.864119,-0.05324979871511446
2023-01-28 08:58:32.869119,-0.051144121314133484
2023-01-28 08:58:32.874119,-0.04945139214396469
2023-01-28 08:58:32.879119,-0.04858570755405331
2023-01-28 08:58:32.884119,-0.0484657287597656
2023-01-28 08:58:32.889119,-0.04899943562984242
2023-01-28 08:58:32.894119,-0.05002836510539048
2023-01-28 08:58:32.899119,-0.05103088373297176
2023-01-28 08:58:32.904119,-0.05123039335012431
2023-01-28 08:58:32.909119,-0.05007200377880863
2023-01-28 08:58:32.914119,-0.04748006910085671
2023-01-28 08:58:32.919119,-0.04378938119392776
2023-01-28 08:58:32.924119,-0.039714973419904695
2023-01-28 08:58:32.929119,-0.03628065767441925
2023-01-28 08:58:32.934119,-0.03432989120483393
2023-01-28 08:58:32.939119,-0.03395308848759958
2023-01-28 08:58:32.944119,-0.034570299088954884
2023-01-28 08:58:32.949119,-0.03549575570059802
2023-01-28 08:58:32.954119,-0.03613293170928949
2023-01-28 08:58:32.959119,-0.035821814443798596
2023-01-28 08:58:32.964119,-0.03411352634429925
2023-01-28 08:58:32.969119,-0.031279486070023524
2023-01-28 08:58:32.974119,-0.028007229790091487
2023-01-28 08:58:32.979119,-0.02447882825419117
2023-01-28 08:58:32.984119,-0.020314257591962818
2023-01-28 08:58:32.989119,-0.015516514582174304
2023-01-28 08:58:32.994119,-0.010649959556758423
2023-01-28 08:58:32.999119,-0.00563694583301635
2023-01-28 08:58:33.004119,0.0008654594421385865
2023-01-28 08:58:33.009119,0.010127365611964326
2023-01-28 08:58:33.014119,0.02178072929382318
2023-01-28 08:58:33.019119,0.034233377620193406
2023-01-28 08:58:33.024119,0.04625400155782692
2023-01-28 08:58:33.029119,0.05742079341107764
2023-01-28 08:58:33.034119,0.06736159324645992
2023-01-28 08:58:33.039119,0.07557313961474516
2023-01-28 08:58:33.044119,0.0821224898099899
2023-01-28 08:58:33.049119,0.08775352260843161
2023-01-28 08:58:33.054119,0.09298881143331518
2023-01-28 08:58:33.059119,0.09754154596401417
2023-01-28 08:58:33.064119,0.1006817817687988
2023-01-28 08:58:33.069119,0.10165593437763391
2023-01-28 08:58:33.074119,0.0996240004897117
2023-01-28 08:58:33.079119,0.09378798815578071
2023-01-28 08:58:33.084119,0.08399765193462369
2023-01-28 08:58:33.089119,0.07101409521703135
2023-01-28 08:58:33.094119,0.05601445958018296
2023-01-28 08:58:33.099119,0.04008014652937342
2023-01-28 08:58:33.104119,0.0242088250815868
2023-01-28 08:58:33.109119,0.009378507801060611
2023-01-28 08:58:33.114119,-0.0037022433243691258
2023-01-28 08:58:33.119119,-0.014719796705791698
2023-01-28 08:58:33.124119,-0.023511648178100506
2023-01-28 08:58:33.129119,-0.02996473619829293
2023-01-28 08:58:33.134119,-0.03430585190653798
2023-01-28 08:58:33.139119,-0.037220415945560234
2023-01-28 08:58:33.144119,-0.03945052623748772
2023-01-28 08:58:33.149119,-0.04137697121557569
2023-01-28 08:58:33.154119,-0.04303256794810287
2023-01-28 08:58:33.159119,-0.044273077736917396
2023-01-28 08:58:33.164119,-0.04483560845255849
2023-01-28 08:58:33.169119,-0.0445264151585625
2023-01-28 08:58:33.174119,-0.04358550161123268
2023-01-28 08:58:33.179119,-0.042713807840133455
2023-01-28 08:58:33.184119,-0.042551755905151284
2023-01-28 08:58:33.189119,-0.04318336735617753
2023-01-28 08:58:33.194119,-0.04416247457265846
2023-01-28 08:58:33.199119,-0.044826578719023374
2023-01-28 08:58:33.204119,-0.044547121971845585
2023-01-28 08:58:33.209119,-0.042989396916528866
2023-01-28 08:58:33.214119,-0.040388107299804556
2023-01-28 08:58:33.219119,-0.037469261468570325
2023-01-28 08:58:33.224119,-0.03493090718984596
2023-01-28 08:58:33.229119,-0.033014376609301316
2023-01-28 08:58:33.234119,-0.031565230339765486
2023-01-28 08:58:33.239119,-0.03032868719605187
2023-01-28 08:58:33.244119,-0.029137134552001908
2023-01-28 08:58:33.249119,-0.028037753244795946
2023-01-28 08:58:33.254119,-0.027382176369428537
2023-01-28 08:58:33.259119,-0.02762718428650128
2023-01-28 08:58:33.264119,-0.02887268923223005
2023-01-28 08:58:33.269119,-0.03064443974938083
2023-01-28 08:58:33.274119,-0.03219028562307346
2023-01-28 08:58:33.279119,-0.03292792353883077
2023-01-28 08:58:33.284119,-0.032671093940734794
2023-01-28 08:58:33.289119,-0.03169764685687158
2023-01-28 08:58:33.294119,-0.030723810195922754
2023-01-28 08:58:33.299119,-0.030595115934706343
2023-01-28 08:58:33.304119,-0.031757555902004186
2023-01-28 08:58:33.309119,-0.033994995699137234
2023-01-28 08:58:33.314119,-0.03666182607412333
2023-01-28 08:58:33.319119,-0.039060229953140395
2023-01-28 08:58:33.324119,-0.040652554482221555
2023-01-28 08:58:33.329119,-0.0412174302557287
2023-01-28 08:58:33.334119,-0.040989123284816686
2023-01-28 08:58:33.339119,-0.040514715666533314
2023-01-28 08:58:33.344119,-0.040219824761152205
2023-01-28 08:58:33.349119,-0.04013299545512212
2023-01-28 08:58:33.354119,-0.04000345990061755
2023-01-28 08:58:33.359119,-0.039505752447494345
2023-01-28 08:58:33.364119,-0.03829658031463618
2023-01-28 08:58:33.369119,-0.03610719360889398
2023-01-28 08:58:33.374119,-0.03293554112315171
2023-01-28 08:58:33.379119,-0.02902816136900769
2023-01-28 08:58:33.384119,-0.02456943318247789
2023-01-28 08:58:33.389119,-0.019486350135208223
2023-01-28 08:58:33.394119,-0.013606945984065503
2023-01-28 08:58:33.399119,-0.006885403680484273
2023-01-28 08:58:33.404119,0.0005288919201120071
2023-01-28 08:58:33.409119,0.008195772396794159
2023-01-28 08:58:33.414119,0.015217661857604866
2023-01-28 08:58:33.419119,0.020350659363219687
2023-01-28 08:58:33.424119,0.022501945495605365
2023-01-28 08:58:33.429119,0.02117843830620619
2023-01-28 08:58:33.434119,0.016563933342695188
2023-01-28 08:58:33.439119,0.009403890309686786
2023-01-28 08:58:33.444119,0.0008414189214818084
2023-01-28 08:58:33.449119,-0.00796748245024141
2023-01-28 08:58:33.454119,-0.016371607780456505
2023-01-28 08:58:33.459119,-0.024346724799425092
2023-01-28 08:58:33.464119,-0.03204604238271709
2023-01-28 08:58:33.469119,-0.03932834044396574
2023-01-28 08:58:33.474119,-0.04574915021657936
2023-01-28 08:58:33.479119,-0.050849482552955086
2023-01-28 08:58:33.484119,-0.054427783936262075
2023-01-28 08:58:33.489119,-0.05675827697450535
2023-01-28 08:58:33.494119,-0.058586798608302945
2023-01-28 08:58:33.499119,-0.060497897105119505
2023-01-28 08:58:33.504119,-0.06178418919444079
2023-01-28 08:58:33.509119,-0.05974841865863836
2023-01-28 08:58:33.514119,-0.050196647644042865
2023-01-28 08:58:33.519119,-0.028970761086962785
2023-01-28 08:58:33.524119,0.0060822567902504825
2023-01-28 08:58:33.529119,0.05328737542590315
2023-01-28 08:58:33.534119,0.10630726814270004
2023-01-28 08:58:33.539119,0.15522950666036722
2023-01-28 08:58:33.544119,0.1895115822553633
2023-01-28 08:58:33.549119,0.20139231644296812
2023-01-28 08:58:33.554119,0.18826147913932792
2023-01-28 08:58:33.559119,0.15336323353353778
2023-01-28 08:58:33.564119,0.10474463552236547
2023-01-28 08:58:33.569119,0.05258715880969307
2023-01-28 08:58:33.574119,0.005865891929715791
2023-01-28 08:58:33.579119,-0.029995808206070656
2023-01-28 08:58:33.584119,-0.053538285195827366
2023-01-28 08:58:33.589119,-0.06630865760974623
2023-01-28 08:58:33.594119,-0.07149656862020488
2023-01-28 08:58:33.599119,-0.0725083884275877
2023-01-28 08:58:33.604119,-0.07176101207733145
2023-01-28 08:58:33.609119,-0.07034804280446572
2023-01-28 08:58:33.614119,-0.06865978240966786
2023-01-28 08:58:33.619119,-0.06701036884648026
2023-01-28 08:58:33.624119,-0.06560663878917686
2023-01-28 08:58:33.629119,-0.06437077885344507
2023-01-28 08:58:33.634119,-0.06315450370311726
2023-01-28 08:58:33.639119,-0.061903760658137
2023-01-28 08:58:33.644119,-0.06038983911275858
2023-01-28 08:58:33.649119,-0.058118164380155185
2023-01-28 08:58:33.654119,-0.0548605136573314
2023-01-28 08:58:33.659119,-0.051058024900157845
2023-01-28 08:58:33.664119,-0.04743198677897448
2023-01-28 08:58:33.669119,-0.044476276318859614
2023-01-28 08:58:33.674119,-0.04255175590515127
2023-01-28 08:58:33.679119,-0.041963788366477246
2023-01-28 08:58:33.684119,-0.04240751266479491
2023-01-28 08:58:33.689119,-0.04268711915279378
2023-01-28 08:58:33.694119,-0.04159013554453838
2023-01-28 08:58:33.699119,-0.03886427109260504
2023-01-28 08:58:33.704119,-0.03493090718984596
2023-01-28 08:58:33.709119,-0.03009653958766386
2023-01-28 08:58:33.714119,-0.02471367642283427
2023-01-28 08:58:33.719119,-0.01960207324262211
2023-01-28 08:58:33.724119,-0.01521766185760488
2023-01-28 08:58:33.729119,-0.010556719247022596
2023-01-28 08:58:33.734119,-0.004038810729980384
2023-01-28 08:58:33.739119,0.0044168614912291175
2023-01-28 08:58:33.744119,0.013342499732971134
2023-01-28 08:58:33.749119,0.022013935014336006
2023-01-28 08:58:33.754119,0.0315171480178833
2023-01-28 08:58:33.759119,0.04281824028627529
2023-01-28 08:58:33.764119,0.054860513657331376
2023-01-28 08:58:33.769119,0.06564560526207958
2023-01-28 08:58:33.774119,0.07452567666769017
2023-01-28 08:58:33.779119,0.08232224525764564
2023-01-28 08:58:33.784119,0.08959909528493867
2023-01-28 08:58:33.789119,0.09596297185506421
2023-01-28 08:58:33.794119,0.10092218965291966
2023-01-28 08:58:33.799119,0.10428053856222243
2023-01-28 08:58:33.804119,0.10544180870056147
2023-01-28 08:58:33.809119,0.10320915022654177
2023-01-28 08:58:33.814119,0.09671509265899648
2023-01-28 08:58:33.819119,0.08611017533928399
2023-01-28 08:58:33.824119,0.07219374179840078
2023-01-28 08:58:33.829119,0.05592892375135956
2023-01-28 08:58:33.834119,0.038536988198757095
2023-01-28 08:58:33.839119,0.02147833670609816
2023-01-28 08:58:33.844119,0.005865891929715834
2023-01-28 08:58:33.849119,-0.007907489710590198
2023-01-28 08:58:33.854119,-0.01978536508977411
2023-01-28 08:58:33.859119,-0.0296084271651901
2023-01-28 08:58:33.864119,-0.03726283833384507
2023-01-28 08:58:33.869119,-0.04295397883100527
2023-01-28 08:58:33.874119,-0.04707137867808338
2023-01-28 08:58:33.879119,-0.04999182096751332
2023-01-28 08:58:33.884119,-0.05219201371073719
2023-01-28 08:58:33.889119,-0.05426669325984593
2023-01-28 08:58:33.894119,-0.056519310921430484
2023-01-28 08:58:33.899119,-0.0586391478049981
2023-01-28 08:58:33.904119,-0.05998114868998518
2023-01-28 08:58:33.909119,-0.06008669676196523
2023-01-28 08:58:33.914119,-0.058875285089015905
2023-01-28 08:58:33.919119,-0.056599429102254704
2023-01-28 08:58:33.924119,-0.0538508109748363
2023-01-28 08:58:33.929119,-0.05142427814859859
2023-01-28 08:58:33.934119,-0.04986008256673807
2023-01-28 08:58:33.939119,-0.04909805155484317
2023-01-28 08:58:33.944119,-0.048682093620300175
2023-01-28 08:58:33.949119,-0.048209237780417385
2023-01-28 08:58:33.954119,-0.04748006910085668
2023-01-28 08:58:33.959119,-0.04640224776924683
2023-01-28 08:58:33.964119,-0.045003890991210896
2023-01-28 08:58:33.969119,-0.04350686841771798
2023-01-28 08:58:33.974119,-0.04221519082784651
2023-01-28 08:58:33.979119,-0.04135373895531519
2023-01-28 08:58:33.984119,-0.0411093235015869
2023-01-28 08:58:33.989119,-0.04169315362013359
2023-01-28 08:58:33.994119,-0.04312872886657711
2023-01-28 08:58:33.999119,-0.044980347412064414
2023-01-28 08:58:34.004119,-0.046470366418361664
2023-01-28 08:58:34.009119,-0.0469430569257572
2023-01-28 08:58:34.014119,-0.04622995853424072
2023-01-28 08:58:34.019119,-0.04471210008647328
2023-01-28 08:58:34.024119,-0.04317681118845932
2023-01-28 08:58:34.029119,-0.04248067335611091
2023-01-28 08:58:34.034119,-0.043032567948102875
2023-01-28 08:58:34.039119,-0.04445433958247031
2023-01-28 08:58:34.044119,-0.04582127183675754
2023-01-28 08:58:34.049119,-0.046321039735397855
2023-01-28 08:58:34.054119,-0.04574915021657939
2023-01-28 08:58:34.059119,-0.04454644934691136
2023-01-28 08:58:34.064119,-0.04353741928935052
2023-01-28 08:58:34.069119,-0.043546119678875214
2023-01-28 08:58:34.074119,-0.04495581239461891
2023-01-28 08:58:34.079119,-0.04742587696410891
2023-01-28 08:58:34.084119,-0.05002836510539047
2023-01-28 08:58:34.089119,-0.05170559495235952
2023-01-28 08:58:34.094119,-0.0516631230711936
2023-01-28 08:58:34.099119,-0.04953267972910707
2023-01-28 08:58:34.104119,-0.045436620712280204
2023-01-28 08:58:34.109119,-0.03997372348607445
2023-01-28 08:58:34.114119,-0.033969283103942795
2023-01-28 08:58:34.119119,-0.028047486609402223
2023-01-28 08:58:34.124119,-0.02235770225524898
2023-01-28 08:58:34.129119,-0.01662898913573047
2023-01-28 08:58:34.134119,-0.010409554466605077
2023-01-28 08:58:34.139119,-0.0033563507131896247
2023-01-28 08:58:34.144119,0.004423459526151374
2023-01-28 08:58:34.149119,0.012115673747399682
2023-01-28 08:58:34.154119,0.018318891525268485
2023-01-28 08:58:34.159119,0.021567811580532104
2023-01-28 08:58:34.164119,0.02089123055338851
2023-01-28 08:58:34.169119,0.016083716769147396
2023-01-28 08:58:34.174119,0.007717013359069824
2023-01-28 08:58:34.179119,-0.002993827021741263
2023-01-28 08:58:34.184119,-0.014496445655822705
2023-01-28 08:58:34.189119,-0.025339506269621892
2023-01-28 08:58:34.194119,-0.03449817746877668
2023-01-28 08:58:34.199119,-0.04143658761916841
2023-01-28 08:58:34.204119,-0.0460616759955883
2023-01-28 08:58:34.209119,-0.04873503088180282
2023-01-28 08:58:34.214119,-0.050244729965925224
2023-01-28 08:58:34.219119,-0.05159140114694658
2023-01-28 08:58:34.224119,-0.05365848541259754
2023-01-28 08:58:34.229119,-0.056878869049482916
2023-01-28 08:58:34.234119,-0.06084660813212387
2023-01-28 08:58:34.239119,-0.06389073413761777
2023-01-28 08:58:34.244119,-0.06293813884258272
2023-01-28 08:58:34.249119,-0.05402400079231694
2023-01-28 08:58:34.254119,-0.033440392464399255
2023-01-28 08:58:34.259119,0.0007829306851367145
2023-01-28 08:58:34.264119,0.04743198677897451
2023-01-28 08:58:34.269119,0.10122889420027989
2023-01-28 08:58:34.274119,0.15325844287872306
2023-01-28 08:58:34.279119,0.1930654433331321
2023-01-28 08:58:34.284119,0.21179716289043418
2023-01-28 08:58:34.289119,0.2050731023275032
2023-01-28 08:58:34.294119,0.17446219921112052
2023-01-28 08:58:34.299119,0.12706924149866317
2023-01-28 08:58:34.304119,0.0732755661010742
2023-01-28 08:58:34.309119,0.023344596720884035
2023-01-28 08:58:34.314119,-0.015650391578674316
2023-01-28 08:58:34.319119,-0.041155458599597926
2023-01-28 08:58:34.324119,-0.05447586625814426
2023-01-28 08:58:34.329119,-0.059072942512534504
2023-01-28 08:58:34.334119,-0.05885124206542958
2023-01-28 08:58:34.339119,-0.05690243126529979
2023-01-28 08:58:34.344119,-0.054932635277509585
2023-01-28 08:58:34.349119,-0.053506887541363755
2023-01-28 08:58:34.354119,-0.052720904350280685
2023-01-28 08:58:34.359119,-0.05253893258813059
2023-01-28 08:58:34.364119,-0.05262474343180651
2023-01-28 08:58:34.369119,-0.052287282889582315
2023-01-28 08:58:34.374119,-0.050893824547529165
2023-01-28 08:58:34.379119,-0.04827067995107192
2023-01-28 08:58:34.384119,-0.04466732591390595
2023-01-28 08:58:34.389119,-0.0405807925823145
2023-01-28 08:58:34.394119,-0.03670990467071529
2023-01-28 08:58:34.399119,-0.033703722565070475
2023-01-28 08:58:34.404119,-0.03161331266164768
2023-01-28 08:58:34.409119,-0.02976472444697217
2023-01-28 08:58:34.414119,-0.027430256828665726
2023-01-28 08:58:34.419119,-0.024460905444040906
2023-01-28 08:58:34.424119,-0.021107595413923194
2023-01-28 08:58:34.429119,-0.01761152921953154
2023-01-28 08:58:34.434119,-0.014328162185847726
2023-01-28 08:58:34.439119,-0.011822747480659255
2023-01-28 08:58:34.444119,-0.010217229835689024
2023-01-28 08:58:34.449119,-0.008664515549036243
2023-01-28 08:58:34.454119,-0.006082256790250521
2023-01-28 08:58:34.459119,-0.0021931758249282133
2023-01-28 08:58:34.464119,0.0028367838822304916
2023-01-28 08:58:34.469119,0.00945486333018106
2023-01-28 08:58:34.474119,0.018294852226972465
2023-01-28 08:58:34.479119,0.028672410110560143
2023-01-28 08:58:34.484119,0.038825474679470014
2023-01-28 08:58:34.489119,0.04822289656419061
2023-01-28 08:58:34.494119,0.05851467698812476
2023-01-28 08:58:34.499119,0.07129888910336903
2023-01-28 08:58:34.504119,0.08577664941549301
2023-01-28 08:58:34.509119,0.09962208628289668
2023-01-28 08:58:34.514119,0.11150002479553218
2023-01-28 08:58:34.519119,0.12153358108904412
2023-01-28 08:58:34.524119,0.12972275912761677
2023-01-28 08:58:34.529119,0.13532034026223394
2023-01-28 08:58:34.534119,0.137872502207756
2023-01-28 08:58:34.539119,0.13767877045825583
2023-01-28 08:58:34.544119,0.13484339416027058
2023-01-28 08:58:34.549119,0.12876874192219767
2023-01-28 08:58:34.554119,0.11902471631765354
2023-01-28 08:58:34.559119,0.10606047294192782
2023-01-28 08:58:34.564119,0.09072899818420406
2023-01-28 08:58:34.569119,0.07378346309027792
2023-01-28 08:58:34.574119,0.05625486373901358
2023-01-28 08:58:34.579119,0.03971325456428431
2023-01-28 08:58:34.584119,0.02557913586497297
2023-01-28 08:58:34.589119,0.014425001424597074
2023-01-28 08:58:34.594119,0.006178419105708447
2023-01-28 08:58:34.599119,0.000534708111994675
2023-01-28 08:58:34.604119,-0.003173351287841697
2023-01-28 08:58:34.609119,-0.006010313303036658
2023-01-28 08:58:34.614119,-0.008774797432124648
2023-01-28 08:58:34.619119,-0.011452177521536289
2023-01-28 08:58:34.624119,-0.0136069459840655
2023-01-28 08:58:34.629119,-0.01505811854462603
2023-01-28 08:58:34.634119,-0.01591483876109119
2023-01-28 08:58:34.639119,-0.016304154448440633
2023-01-28 08:58:34.644119,-0.0164437294006347
2023-01-28 08:58:34.649119,-0.016713783341536472
2023-01-28 08:58:34.654119,-0.01726110838353628
2023-01-28 08:58:34.659119,-0.017703594974994845
2023-01-28 08:58:34.664119,-0.017549594864249184
2023-01-28 08:58:34.669119,-0.016759015703686982
2023-01-28 08:58:34.674119,-0.015650391578674306
2023-01-28 08:58:34.679119,-0.014484167294504144
2023-01-28 08:58:34.684119,-0.013414621353149378
2023-01-28 08:58:34.689119,-0.012598669042577199
2023-01-28 08:58:34.694119,-0.011996230110526016
2023-01-28 08:58:34.699119,-0.011239511265640373
2023-01-28 08:58:34.704119,-0.010048946365713999
2023-01-28 08:58:34.709119,-0.008675411313067554
2023-01-28 08:58:34.714119,-0.007668932434171431
2023-01-28 08:58:34.719119,-0.007344249196121029
2023-01-28 08:58:34.724119,-0.007692973129451189
2023-01-28 08:58:34.729119,-0.008590237962912146
2023-01-28 08:58:34.734119,-0.009760459885001087
2023-01-28 08:58:34.739119,-0.010722068279760763
2023-01-28 08:58:34.744119,-0.011154810898005886
2023-01-28 08:58:34.749119,-0.011285551100514126
2023-01-28 08:58:34.754119,-0.011659662239253504
2023-01-28 08:58:34.759119,-0.012610176736126771
2023-01-28 08:58:34.764119,-0.01413583755493166
2023-01-28 08:58:34.769119,-0.016081852507423826
2023-01-28 08:58:34.774119,-0.018102526664733783
2023-01-28 08:58:34.779119,-0.0195756299556973
2023-01-28 08:58:34.784119,-0.019929608330130556
2023-01-28 08:58:34.789119,-0.019091760582176105
2023-01-28 08:58:34.794119,-0.01745343208312979
2023-01-28 08:58:34.799119,-0.015509612258002401
2023-01-28 08:58:34.804119,-0.013703107833862313
2023-01-28 08:58:34.809119,-0.012360978516667986
2023-01-28 08:58:34.814119,-0.011371175758540597
2023-01-28 08:58:34.819119,-0.00996306378301168
2023-01-28 08:58:34.824119,-0.007140040397644009
2023-01-28 08:58:34.829119,-0.002400936470670743
2023-01-28 08:58:34.834119,0.004038810729980417
2023-01-28 08:58:34.839119,0.01152227121476024
2023-01-28 08:58:34.844119,0.019184350967407227
2023-01-28 08:58:34.849119,0.026122825494730904
2023-01-28 08:58:34.854119,0.03175755590200417
2023-01-28 08:58:34.859119,0.03602839382957417
2023-01-28 08:58:34.864119,0.03896971791982648
2023-01-28 08:58:34.869119,0.040112377668142025
2023-01-28 08:58:34.874119,0.038536988198757116
2023-01-28 08:58:34.879119,0.03349670609542429
2023-01-28 08:58:34.884119,0.024881958961486816
2023-01-28 08:58:34.889119,0.013345597456479277
2023-01-28 08:58:34.894119,0.0003606081008910943
2023-01-28 08:58:34.899119,-0.011967888482249122
2023-01-28 08:58:34.904119,-0.021660527214407886
2023-01-28 08:58:34.909119,-0.027734284979308327
2023-01-28 08:58:34.914119,-0.0304112844169139
2023-01-28 08:58:34.919119,-0.030738665475612218
2023-01-28 08:58:34.924119,-0.030243000015616407
2023-01-28 08:58:34.929119,-0.030636932169837972
2023-01-28 08:58:34.934119,-0.03317594528198241
2023-01-28 08:58:34.939119,-0.03788572984923016
2023-01-28 08:58:34.944119,-0.04327297210693351
2023-01-28 08:58:34.949119,-0.04649980743755508
2023-01-28 08:58:34.954119,-0.04363358020782474
2023-01-28 08:58:34.959119,-0.030235273037361086
2023-01-28 08:58:34.964119,-0.002836783882230499
2023-01-28 08:58:34.969119,0.03908065831328168
2023-01-28 08:58:34.974119,0.09176274389028538
2023-01-28 08:58:34.979119,0.1471991645757595
2023-01-28 08:58:34.984119,0.1945120096206665
2023-01-28 08:58:34.989119,0.22270636941337404
2023-01-28 08:58:34.994119,0.22434632480144495
2023-01-28 08:58:34.999119,0.1985536829367332
2023-01-28 08:58:35.004119,0.15150348842144007
2023-01-28 08:58:35.009119,0.09415189902423303
2023-01-28 08:58:35.014119,0.03853698819875711
2023-01-28 08:58:35.019119,-0.005848824707638518
2023-01-28 08:58:35.024119,-0.03454625606536854
2023-01-28 08:58:35.029119,-0.04854949271864508
2023-01-28 08:58:35.034119,-0.0524324178695678
2023-01-28 08:58:35.039119,-0.051453263313761564
2023-01-28 08:58:35.044119,-0.04947543144226074
2023-01-28 08:58:35.049119,-0.04833882139014489
2023-01-28 08:58:35.054119,-0.04810512065887446
2023-01-28 08:58:35.059119,-0.047744519945105944
2023-01-28 08:58:35.064119,-0.046181879937648655
2023-01-28 08:58:35.069119,-0.043161848142826024
2023-01-28 08:58:35.074119,-0.039258204400539294
2023-01-28 08:58:35.079119,-0.03529091914172915
2023-01-28 08:58:35.084119,-0.03197392076253888
2023-01-28 08:58:35.089119,-0.02987356372379845
2023-01-28 08:58:35.094119,-0.02918521687388418
2023-01-28 08:58:35.099119,-0.02946496031541936
2023-01-28 08:58:35.104119,-0.02988239191472527
2023-01-28 08:58:35.109119,-0.029791420576121375
2023-01-28 08:58:35.114119,-0.02889673039317126
2023-01-28 08:58:35.119119,-0.027051067822974912
2023-01-28 08:58:35.124119,-0.024280946701764974
2023-01-28 08:58:35.129119,-0.02094982039421138
2023-01-28 08:58:35.134119,-0.017501514405012065
2023-01-28 08:58:35.139119,-0.014010117235229833
2023-01-28 08:58:35.144119,-0.01024127006530756
2023-01-28 08:58:35.149119,-0.006056426075942548
2023-01-28 08:58:35.154119,-0.001418391941115137
2023-01-28 08:58:35.159119,0.003892825564323658
2023-01-28 08:58:35.164119,0.010169148445129287
2023-01-28 08:58:35.169119,0.01744491636859231
2023-01-28 08:58:35.174119,0.025651257485151194
2023-01-28 08:58:35.179119,0.034973712576693156
2023-01-28 08:58:35.184119,0.04558086395263667
2023-01-28 08:58:35.189119,0.05704284485471441
2023-01-28 08:58:35.194119,0.06846746057271949
2023-01-28 08:58:35.199119,0.07915681605164493
2023-01-28 08:58:35.204119,0.08870959281921373
2023-01-28 08:58:35.209119,0.09670485094576155
2023-01-28 08:58:35.214119,0.10301371663808814
2023-01-28 08:58:35.219119,0.10840578283909288
2023-01-28 08:58:35.224119,0.11404832452535614
2023-01-28 08:58:35.229119,0.12018395971037144
2023-01-28 08:58:35.234119,0.12592434883117665
2023-01-28 08:58:35.239119,0.13045687245167953
2023-01-28 08:58:35.244119,0.13361732661724082
2023-01-28 08:58:35.249119,0.13491027622169205
2023-01-28 08:58:35.254119,0.13282398879528035
2023-01-28 08:58:35.259119,0.12588449645512204
2023-01-28 08:58:35.264119,0.11402428150176996
2023-01-28 08:58:35.269119,0.0984030946645435
2023-01-28 08:58:35.274119,0.08031944930553425
2023-01-28 08:58:35.279119,0.06090871571778308
2023-01-28 08:58:35.284119,0.04154205322265618
2023-01-28 08:58:35.289119,0.023702357134352932
2023-01-28 08:58:35.294119,0.008342067711055163
2023-01-28 08:58:35.299119,-0.004298908647492552
2023-01-28 08:58:35.304119,-0.01435220241546627
2023-01-28 08:58:35.309119,-0.02217529358995164
2023-01-28 08:58:35.314119,-0.028391879051923728
2023-01-28 08:58:35.319119,-0.03356570822942904
2023-01-28 08:58:35.324119,-0.03771960735321038
2023-01-28 08:58:35.329119,-0.040413001917423426
2023-01-28 08:58:35.334119,-0.04130164906382558
2023-01-28 08:58:35.339119,-0.040467105365122914
2023-01-28 08:58:35.344119,-0.03834466263651835
2023-01-28 08:58:35.349119,-0.03561435748606697
2023-01-28 08:58:35.354119,-0.033079784363508204
2023-01-28 08:58:35.359119,-0.03132313452533465
2023-01-28 08:58:35.364119,-0.030387243255972734
2023-01-28 08:58:35.369119,-0.029895773856402175
2023-01-28 08:58:35.374119,-0.029425621032714806
2023-01-28 08:58:35.379119,-0.028663473349810894
2023-01-28 08:58:35.384119,-0.02738217636942859
2023-01-28 08:58:35.389119,-0.02554306820070978
2023-01-28 08:58:35.394119,-0.023415487259626284
2023-01-28 08:58:35.399119,-0.021431514137766897
2023-01-28 08:58:35.404119,-0.019929608330130535
2023-01-28 08:58:35.409119,-0.01909809288202218
2023-01-28 08:58:35.414119,-0.0190160684287548
2023-01-28 08:58:35.419119,-0.019566635409277527
2023-01-28 08:58:35.424119,-0.020386379212140995
2023-01-28 08:58:35.429119,-0.02106530666157035
2023-01-28 08:58:35.434119,-0.02137204073369498
2023-01-28 08:58:35.439119,-0.021224232545792143
2023-01-28 08:58:35.444119,-0.020578702911734477
2023-01-28 08:58:35.449119,-0.019496575708183896
2023-01-28 08:58:35.454119,-0.018222730606794278
2023-01-28 08:58:35.459119,-0.01706129626825908
2023-01-28 08:58:35.464119,-0.01622736454010002
2023-01-28 08:58:35.469119,-0.01588395766293392
2023-01-28 08:58:35.474119,-0.0161792840808629
2023-01-28 08:58:35.479119,-0.017100104241934918
2023-01-28 08:58:35.484119,-0.018366973847150792
2023-01-28 08:58:35.489119,-0.019590526444325348
2023-01-28 08:58:35.494119,-0.020482540130615196
2023-01-28 08:58:35.499119,-0.02088781836868414
2023-01-28 08:58:35.504119,-0.020771026611328104
2023-01-28 08:58:35.509119,-0.020284685959527145
2023-01-28 08:58:35.514119,-0.019713243469595926
2023-01-28 08:58:35.519119,-0.01918874996110813
2023-01-28 08:58:35.524119,-0.01848717592656615
2023-01-28 08:58:35.529119,-0.017144214484668567
2023-01-28 08:58:35.534119,-0.014688770286738843
2023-01-28 08:58:35.539119,-0.010773218387019426
2023-01-28 08:58:35.544119,-0.005288918968290052
2023-01-28 08:58:35.549119,0.0015106719077752
2023-01-28 08:58:35.554119,0.009111365303397102
2023-01-28 08:58:35.559119,0.017056875475177397
2023-01-28 08:58:35.564119,0.02507428452372545
2023-01-28 08:58:35.569119,0.03283184614797628
2023-01-28 08:58:35.574119,0.039690934121608665
2023-01-28 08:58:35.579119,0.044742843462086034
2023-01-28 08:58:35.584119,0.046975217759609125
2023-01-28 08:58:35.589119,0.0454421021966082
2023-01-28 08:58:35.594119,0.03959476947784415
2023-01-28 08:58:35.599119,0.02970946631287308
2023-01-28 08:58:35.604119,0.016972621902823375
2023-01-28 08:58:35.609119,0.003076358167380396
2023-01-28 08:58:35.614119,-0.010265311226248708
2023-01-28 08:58:35.619119,-0.021584043235250948
2023-01-28 08:58:35.624119,-0.02988239191472527
2023-01-28 08:58:35.629119,-0.034895516490159637
2023-01-28 08:58:35.634119,-0.03709455579519268
2023-01-28 08:58:35.639119,-0.03734588881967959
2023-01-28 08:58:35.644119,-0.03658970445394509
2023-01-28 08:58:35.649119,-0.035706779620916076
2023-01-28 08:58:35.654119,-0.03526747226715073
2023-01-28 08:58:35.659119,-0.035030094671445806
2023-01-28 08:58:35.664119,-0.03356059640645979
2023-01-28 08:58:35.669119,-0.028280366316534505
2023-01-28 08:58:35.674119,-0.015890797600150112
2023-01-28 08:58:35.679119,0.006763000307278704
2023-01-28 08:58:35.684119,0.04118144512176512
2023-01-28 08:58:35.689119,0.08546558496025546
2023-01-28 08:58:35.694119,0.13349711894989008
2023-01-28 08:58:35.699119,0.1759023727984156
2023-01-28 08:58:35.704119,0.20261368155479426
2023-01-28 08:58:35.709119,0.2061612578059948
2023-01-28 08:58:35.714119,0.18458327651023848
2023-01-28 08:58:35.719119,0.14262248023489552
2023-01-28 08:58:35.724119,0.09024818986654276
2023-01-28 08:58:35.729119,0.03900891792129929
2023-01-28 08:58:35.734119,-0.0018751621246337084
2023-01-28 08:58:35.739119,-0.027889420351515027
2023-01-28 08:58:35.744119,-0.03949860855937
2023-01-28 08:58:35.749119,-0.040673746013224606
2023-01-28 08:58:35.754119,-0.03646950051188464
2023-01-28 08:58:35.759119,-0.030846887926242732
2023-01-28 08:58:35.764119,-0.025819540023803725
2023-01-28 08:58:35.769119,-0.021929628831089728
2023-01-28 08:58:35.774119,-0.01908819004893302
2023-01-28 08:58:35.779119,-0.017072148054041784
2023-01-28 08:58:35.784119,-0.015746554359793625
2023-01-28 08:58:35.789119,-0.015155810866469863
2023-01-28 08:58:35.794119,-0.01536190509796142
2023-01-28 08:58:35.799119,-0.016165231102864306
2023-01-28 08:58:35.804119,-0.017116865143179793
2023-01-28 08:58:35.809119,-0.01778428260980279
2023-01-28 08:58:35.814119,-0.017814040184020885
2023-01-28 08:58:35.819119,-0.016778600954610656
2023-01-28 08:58:35.824119,-0.014256040565669514
2023-01-28 08:58:35.829119,-0.010140134838218849
2023-01-28 08:58:35.834119,-0.004687905311584385
2023-01-28 08:58:35.839119,0.0017305021226504493
2023-01-28 08:58:35.844119,0.008702675811946349
2023-01-28 08:58:35.849119,0.01563953616779378
2023-01-28 08:58:35.854119,0.021900933235883716
2023-01-28 08:58:35.859119,0.027151980426468762
2023-01-28 08:58:35.864119,0.03142098709940915
2023-01-28 08:58:35.869119,0.03486543196180211
2023-01-28 08:58:35.874119,0.03776768967509261
2023-01-28 08:58:35.879119,0.040715835662258254
2023-01-28 08:58:35.884119,0.04442691802978504
2023-01-28 08:58:35.889119,0.04932708997197502
2023-01-28 08:58:35.894119,0.0555336475372314
2023-01-28 08:58:35.899119,0.06314288073463266
2023-01-28 08:58:35.904119,0.07214566320180886
2023-01-28 08:58:35.909119,0.08210736637771779
2023-01-28 08:58:35.914119,0.09236375987529749
2023-01-28 08:58:35.919119,0.10254156843391148
2023-01-28 08:58:35.924119,0.11250972747802723
2023-01-28 08:58:35.929119,0.12194286416040202
2023-01-28 08:58:35.934119,0.13049206137657154
2023-01-28 08:58:35.939119,0.1383030786046172
2023-01-28 08:58:35.944119,0.14563760161399836
2023-01-28 08:58:35.949119,0.1519021901704771
2023-01-28 08:58:35.954119,0.15583078563213337
2023-01-28 08:58:35.959119,0.15684272606535
2023-01-28 08:58:35.964119,0.15539805591106404
2023-01-28 08:58:35.969119,0.15163511902175691
2023-01-28 08:58:35.974119,0.14453172683715815
2023-01-28 08:58:35.979119,0.13312118661799927
2023-01-28 08:58:35.984119,0.11794289201498032
2023-01-28 08:58:35.989119,0.100576453091487
2023-01-28 08:58:35.994119,0.08224269002676007
2023-01-28 08:58:35.999119,0.0636539092615312
2023-01-28 08:58:36.004119,0.045845311135053586
2023-01-28 08:58:36.009119,0.030166070533345867
2023-01-28 08:58:36.014119,0.017381310462951594
2023-01-28 08:58:36.019119,0.007399807948909666
2023-01-28 08:58:36.024119,-0.0001202027051475909
2023-01-28 08:58:36.029119,-0.005457812138710925
2023-01-28 08:58:36.034119,-0.009087324142456
2023-01-28 08:58:36.039119,-0.01162276328567072
2023-01-28 08:58:36.044119,-0.013318459503352552
2023-01-28 08:58:36.049119,-0.013983520519662316
2023-01-28 08:58:36.054119,-0.013462702743709011
2023-01-28 08:58:36.059119,-0.011897606986289024
2023-01-28 08:58:36.064119,-0.009544095024466471
2023-01-28 08:58:36.069119,-0.006716973915987267
2023-01-28 08:58:36.074119,-0.003942648880183541
2023-01-28 08:58:36.079119,-0.0017843254712800226
2023-01-28 08:58:36.084119,-0.0003846486506516721
2023-01-28 08:58:36.089119,0.0006041602189469325
2023-01-28 08:58:36.094119,0.0016107162227854393
2023-01-28 08:58:36.099119,0.002851983294945101
2023-01-28 08:58:36.104119,0.004351337905973118
2023-01-28 08:58:36.109119,0.005917728730928429
2023-01-28 08:58:36.114119,0.007091959472745654
2023-01-28 08:58:36.119119,0.007414696005978683
2023-01-28 08:58:36.124119,0.006851553916931124
2023-01-28 08:58:36.129119,0.005816665947115557
2023-01-28 08:58:36.134119,0.004808108322322311
2023-01-28 08:58:36.139119,0.004188745843714353
2023-01-28 08:58:36.144119,0.004231135360896455
2023-01-28 08:58:36.149119,0.005102984984097901
2023-01-28 08:58:36.154119,0.006803472992032662
2023-01-28 08:58:36.159119,0.009330646748075669
2023-01-28 08:58:36.164119,0.012909770011901751
2023-01-28 08:58:36.169119,0.017849254926543608
2023-01-28 08:58:36.174119,0.024136703461408577
2023-01-28 08:58:36.179119,0.031280427218327606
2023-01-28 08:58:36.184119,0.038464866578578845
2023-01-28 08:58:36.189119,0.04470995696071519
2023-01-28 08:58:36.194119,0.04904270172119138
2023-01-28 08:58:36.199119,0.05087956736140704
2023-01-28 08:58:36.204119,0.05036493390798553
2023-01-28 08:58:36.209119,0.048215127314431935
2023-01-28 08:58:36.214119,0.045196216553449575
2023-01-28 08:58:36.219119,0.041764755333232935
2023-01-28 08:58:36.224119,0.03800809383392324
2023-01-28 08:58:36.229119,0.033663991522003354
2023-01-28 08:58:36.234119,0.02824763581156726
2023-01-28 08:58:36.239119,0.02143552918101043
2023-01-28 08:58:36.244119,0.01343866251409049
2023-01-28 08:58:36.249119,0.004956524954172896
2023-01-28 08:58:36.254119,-0.0031733512878417067
2023-01-28 08:58:36.259119,-0.010211714232896659
2023-01-28 08:58:36.264119,-0.01560231111943725
2023-01-28 08:58:36.269119,-0.019123820345454116
2023-01-28 08:58:36.274119,-0.021011432632803917
2023-01-28 08:58:36.279119,-0.021802829650814152
2023-01-28 08:58:36.284119,-0.02204517647624012
2023-01-28 08:58:36.289119,-0.02215281193646111
2023-01-28 08:58:36.294119,-0.022309621796011914
2023-01-28 08:58:36.299119,-0.022156721809702472
2023-01-28 08:58:36.304119,-0.020434459671378108
2023-01-28 08:58:36.309119,-0.01499159548585918
2023-01-28 08:58:36.314119,-0.0032695136032998076
2023-01-28 08:58:36.319119,0.01685039058218896
2023-01-28 08:58:36.324119,0.04586935043334961
2023-01-28 08:58:36.329119,0.08144411613819355
2023-01-28 08:58:36.334119,0.11794289201498032
2023-01-28 08:58:36.339119,0.1475242511646552
2023-01-28 08:58:36.344119,0.1625380963087081
2023-01-28 08:58:36.349119,0.15824868885299162
2023-01-28 08:58:36.354119,0.13479530811309803
2023-01-28 08:58:36.359119,0.09753527631723488
2023-01-28 08:58:36.364119,0.055341325700282974
2023-01-28 08:58:36.369119,0.01739866849169843
2023-01-28 08:58:36.374119,-0.0099287433549761
2023-01-28 08:58:36.379119,-0.024660014222070543
2023-01-28 08:58:36.384119,-0.02882460877299295
2023-01-28 08:58:36.389119,-0.026767000375622126
2023-01-28 08:58:36.394119,-0.022982757538556938
2023-01-28 08:58:36.399119,-0.02035953950228807
2023-01-28 08:58:36.404119,-0.019593041390180494
2023-01-28 08:58:36.409119,-0.019863333554652213
2023-01-28 08:58:36.414119,-0.019977688789367558
2023-01-28 08:58:36.419119,-0.01913755019615463
2023-01-28 08:58:36.424119,-0.01718898676335803
2023-01-28 08:58:36.429119,-0.014583479683373151
2023-01-28 08:58:36.434119,-0.012092391960322742
2023-01-28 08:58:36.439119,-0.0103448089136271
2023-01-28 08:58:36.444119,-0.009544095024466494
2023-01-28 08:58:36.449119,-0.009555432788886384
2023-01-28 08:58:36.454119,-0.010072986595332593
2023-01-28 08:58:36.459119,-0.010615536028825102
2023-01-28 08:58:36.464119,-0.010553797706961566
2023-01-28 08:58:36.469119,-0.00935174037052316
2023-01-28 08:58:36.474119,-0.006779432296752911
2023-01-28 08:58:36.479119,-0.0028920088021612807
2023-01-28 08:58:36.484119,0.0020194053649901585
2023-01-28 08:58:36.489119,0.007365587107826784
2023-01-28 08:58:36.494119,0.012356838211417061
2023-01-28 08:58:36.499119,0.016400490873297677
2023-01-28 08:58:36.504119,0.019424756988882977
2023-01-28 08:58:36.509119,0.021809908986340776
2023-01-28 08:58:36.514119,0.024136703461408594
2023-01-28 08:58:36.519119,0.027029984637295584
2023-01-28 08:58:36.524119,0.031012296676635697
2023-01-28 08:58:36.529119,0.03630455464464043
2023-01-28 08:58:36.534119,0.042816203087568165
2023-01-28 08:58:36.539119,0.0503935815729903
2023-01-28 08:58:36.544119,0.05897144600749004
2023-01-28 08:58:36.549119,0.06843235829618108
2023-01-28 08:58:36.554119,0.07846832275390614
2023-01-28 08:58:36.559119,0.088666950241703
2023-01-28 08:58:36.564119,0.09861429780721656
2023-01-28 08:58:36.569119,0.107865138267166
2023-01-28 08:58:36.574119,0.11597156524658195
2023-01-28 08:58:36.579119,0.12261752837312843
2023-01-28 08:58:36.584119,0.1275831460952757
2023-01-28 08:58:36.589119,0.13050619204106534
2023-01-28 08:58:36.594119,0.13080458343029017
2023-01-28 08:58:36.599119,0.1278730402791762
2023-01-28 08:58:36.604119,0.12123644351959219
2023-01-28 08:58:36.609119,0.11056944739084136
2023-01-28 08:58:36.614119,0.0958736762404441
2023-01-28 08:58:36.619119,0.07779358193609892
2023-01-28 08:58:36.624119,0.05762517452239995
2023-01-28 08:58:36.629119,0.03692698609065315
2023-01-28 08:58:36.634119,0.017164945602416916
2023-01-28 08:58:36.639119,-0.00043663135486520584
2023-01-28 08:58:36.644119,-0.015097459778189529
2023-01-28 08:58:36.649119,-0.02668751001273366
2023-01-28 08:58:36.654119,-0.03553191944956763
2023-01-28 08:58:36.659119,-0.041916407896550364
2023-01-28 08:58:36.664119,-0.04591743275523173
2023-01-28 08:58:36.669119,-0.047675912247471745
2023-01-28 08:58:36.674119,-0.04757623001933086
2023-01-28 08:58:36.679119,-0.04613754889707883
2023-01-28 08:58:36.684119,-0.043970149010419804
2023-01-28 08:58:36.689119,-0.04180498345498594
2023-01-28 08:58:36.694119,-0.04021982476115219
2023-01-28 08:58:36.699119,-0.03924796078465989
2023-01-28 08:58:36.704119,-0.038488905876874896
2023-01-28 08:58:36.709119,-0.03760136519493208
2023-01-28 08:58:36.714119,-0.03644546121358867
2023-01-28 08:58:36.719119,-0.03486935066884587
2023-01-28 08:58:36.724119,-0.03279129788279529
2023-01-28 08:58:36.729119,-0.030476027644460467
2023-01-28 08:58:36.734119,-0.028295716270804384
2023-01-28 08:58:36.739119,-0.026225122952811958
2023-01-28 08:58:36.744119,-0.024016499519348082
2023-01-28 08:58:36.749119,-0.021784407751578933
2023-01-28 08:58:36.754119,-0.01978536508977409
2023-01-28 08:58:36.759119,-0.017615329029804484
2023-01-28 08:58:36.764119,-0.014400283806025873
2023-01-28 08:58:36.769119,-0.009982505410655004
2023-01-28 08:58:36.774119,-0.005144675727933626
2023-01-28 08:58:36.779119,-0.00035298455511195925
2023-01-28 08:58:36.784119,0.004856189247220697
2023-01-28 08:58:36.789119,0.010649565732287853
2023-01-28 08:58:36.794119,0.015818675979971795
2023-01-28 08:58:36.799119,0.018793972201372668
2023-01-28 08:58:36.804119,0.01937667652964593
2023-01-28 08:58:36.809119,0.01876371306895451
2023-01-28 08:58:36.814119,0.018174648284912102
2023-01-28 08:58:36.819119,0.01813657176463638
2023-01-28 08:58:36.824119,0.018775662407278976
2023-01-28 08:58:36.829119,0.01986520304146903
2023-01-28 08:58:36.834119,0.020482540130615207
2023-01-28 08:58:36.839119,0.019303189744599922
2023-01-28 08:58:36.844119,0.015506148338317823
2023-01-28 08:58:36.849119,0.00914936410428163
2023-01-28 08:58:36.854119,0.0007933378219604113
2023-01-28 08:58:36.859119,-0.008745838598785022
2023-01-28 08:58:36.864119,-0.0182948522269725
2023-01-28 08:58:36.869119,-0.026546516915287664
2023-01-28 08:58:36.874119,-0.03267109394073477
2023-01-28 08:58:36.879119,-0.03658654224646523
2023-01-28 08:58:36.884119,-0.03870527073740951
2023-01-28 08:58:36.889119,-0.03968637359985048
2023-01-28 08:58:36.894119,-0.04029194638133042
2023-01-28 08:58:36.899119,-0.04096061033001313
2023-01-28 08:58:36.904119,-0.041253566741943345
2023-01-28 08:58:36.909119,-0.039779124690278486
2023-01-28 08:58:36.914119,-0.034594338387250935
2023-01-28 08:58:36.919119,-0.023580682356243148
2023-01-28 08:58:36.924119,-0.004832148551940895
2023-01-28 08:58:36.929119,0.022485139380270226
2023-01-28 08:58:36.934119,0.05700012296438207
2023-01-28 08:58:36.939119,0.09457260048932997
2023-01-28 08:58:36.944119,0.1287611424922942
2023-01-28 08:58:36.949119,0.15219606681590608
2023-01-28 08:58:36.954119,0.15866756439208968
2023-01-28 08:58:36.959119,0.14548988058478604
2023-01-28 08:58:36.964119,0.11498590558767308
2023-01-28 08:58:36.969119,0.07396262072451802
2023-01-28 08:58:36.974119,0.031324826180934885
2023-01-28 08:58:36.979119,-0.004881608431830036
2023-01-28 08:58:36.984119,-0.029762189835309923
2023-01-28 08:58:36.989119,-0.04253698006644803
2023-01-28 08:58:36.994119,-0.04589339345693583
2023-01-28 08:58:36.999119,-0.04405679110293787
2023-01-28 08:58:37.004119,-0.04072467610239977
2023-01-28 08:58:37.009119,-0.03799920093129359
2023-01-28 08:58:37.014119,-0.03644546121358869
2023-01-28 08:58:37.019119,-0.03567230857292887
2023-01-28 08:58:37.024119,-0.0350030288100242
2023-01-28 08:58:37.029119,-0.034051257277379364
2023-01-28 08:58:37.034119,-0.032911501824855825
2023-01-28 08:58:37.039119,-0.03185670154351974
2023-01-28 08:58:37.044119,-0.030964216217398605
2023-01-28 08:58:37.049119,-0.030084863887318722
2023-01-28 08:58:37.054119,-0.028992891311645508
2023-01-28 08:58:37.059119,-0.027424162372422085
2023-01-28 08:58:37.064119,-0.025146406143903673
2023-01-28 08:58:37.069119,-0.02222766417521877
2023-01-28 08:58:37.074119,-0.019184350967407213
2023-01-28 08:58:37.079119,-0.016697254192908146
2023-01-28 08:58:37.084119,-0.015169581398367781
2023-01-28 08:58:37.089119,-0.014542329605740959
2023-01-28 08:58:37.094119,-0.014328162185847674
2023-01-28 08:58:37.099119,-0.0136980354723661
2023-01-28 08:58:37.104119,-0.011755824089050185
2023-01-28 08:58:37.109119,-0.00802842296426549
2023-01-28 08:58:37.114119,-0.002740621566772391
2023-01-28 08:58:37.119119,0.003436617783763751
2023-01-28 08:58:37.124119,0.009856621734797896
2023-01-28 08:58:37.129119,0.01616567406812227
2023-01-28 08:58:37.134119,0.022381743416190123
2023-01-28 08:58:37.139119,0.028896686510945645
2023-01-28 08:58:37.144119,0.03627717494964588
2023-01-28 08:58:37.149119,0.04488639057616077
2023-01-28 08:58:37.154119,0.054692231118679005
2023-01-28 08:58:37.159119,0.06541063470205821
2023-01-28 08:58:37.164119,0.0766652822494506
2023-01-28 08:58:37.169119,0.08797649776159937
2023-01-28 08:58:37.174119,0.09880661964416498
2023-01-28 08:58:37.179119,0.1087351167704158
2023-01-28 08:58:37.184119,0.11746208369731899
2023-01-28 08:58:37.189119,0.12457651956775434
2023-01-28 08:58:37.194119,0.12945830821990958
2023-01-28 08:58:37.199119,0.13145511467126939
2023-01-28 08:58:37.204119,0.13003528118133534
2023-01-28 08:58:37.209119,0.12481168329169987
2023-01-28 08:58:37.214119,0.11568307876586906
2023-01-28 08:58:37.219119,0.10305875549748049
2023-01-28 08:58:37.224119,0.0877960547804832
2023-01-28 08:58:37.229119,0.07086824898049271
2023-01-28 08:58:37.234119,0.053201716393232276
2023-01-28 08:58:37.239119,0.03574561211626617
2023-01-28 08:58:37.244119,0.0194007158279418
2023-01-28 08:58:37.249119,0.0047866677634368715
2023-01-28 08:58:37.254119,-0.00778913497924798
2023-01-28 08:58:37.259119,-0.018186341601570462
2023-01-28 08:58:37.264119,-0.02646863460540769
2023-01-28 08:58:37.269119,-0.03301511059590667
2023-01-28 08:58:37.274119,-0.038296580314636196
2023-01-28 08:58:37.279119,-0.04249859376411033
2023-01-28 08:58:37.284119,-0.04553278535604465
2023-01-28 08:58:37.289119,-0.0473251110325023
2023-01-28 08:58:37.294119,-0.047840677201747776
2023-01-28 08:58:37.299119,-0.04694127452850778
2023-01-28 08:58:37.304119,-0.044571161270141546
2023-01-28 08:58:37.309119,-0.04107861954928524
2023-01-28 08:58:37.314119,-0.03709455579519266
2023-01-28 08:58:37.319119,-0.033151592292486126
2023-01-28 08:58:37.324119,-0.02964198589324949
2023-01-28 08:58:37.329119,-0.026940737957534197
2023-01-28 08:58:37.334119,-0.025170445442199686
2023-01-28 08:58:37.339119,-0.023951438483330756
2023-01-28 08:58:37.344119,-0.02276639267802227
2023-01-28 08:58:37.349119,-0.02148979142309199
2023-01-28 08:58:37.354119,-0.020242135971784488
2023-01-28 08:58:37.359119,-0.018914841633112682
2023-01-28 08:58:37.364119,-0.01723706722259519
2023-01-28 08:58:37.369119,-0.015105536828229755
2023-01-28 08:58:37.374119,-0.012404918670654201
2023-01-28 08:58:37.379119,-0.008742986883077827
2023-01-28 08:58:37.384119,-0.003918608184903821
2023-01-28 08:58:37.389119,0.0014884030929783758
2023-01-28 08:58:37.394119,0.006490945816040021
2023-01-28 08:58:37.399119,0.01050471368214341
2023-01-28 08:58:37.404119,0.013390581123530807
2023-01-28 08:58:37.409119,0.015086900882825003
2023-01-28 08:58:37.414119,0.015842717140913013
2023-01-28 08:58:37.419119,0.01647457306933051
2023-01-28 08:58:37.424119,0.017597675323486328
2023-01-28 08:58:37.429119,0.018726552739803982
2023-01-28 08:58:37.434119,0.018727581948041905
2023-01-28 08:58:37.439119,0.016881575889636152
2023-01-28 08:58:37.444119,0.012933811172842882
2023-01-28 08:58:37.449119,0.006678743031080295
2023-01-28 08:58:37.454119,-0.0015385946026071024
2023-01-28 08:58:37.459119,-0.010305313286094445
2023-01-28 08:58:37.464119,-0.0181506089866161
2023-01-28 08:58:37.469119,-0.024828453780402434
2023-01-28 08:58:37.474119,-0.03079593181610101
2023-01-28 08:58:37.479119,-0.03602492897889561
2023-01-28 08:58:37.484119,-0.04043618962168688
2023-01-28 08:58:37.489119,-0.044831165096218095
2023-01-28 08:58:37.494119,-0.04993220418691631
2023-01-28 08:58:37.499119,-0.054936062864070975
2023-01-28 08:58:37.504119,-0.0583704337477684
2023-01-28 08:58:37.509119,-0.05963990648672336
2023-01-28 08:58:37.514119,-0.057961743324994985
2023-01-28 08:58:37.519119,-0.05056394144991062
2023-01-28 08:58:37.524119,-0.03428181260824198
2023-01-28 08:58:37.529119,-0.0086670473029066
2023-01-28 08:58:37.534119,0.024473270401358577
2023-01-28 08:58:37.539119,0.06341910420527223
2023-01-28 08:58:37.544119,0.10488887876272196
2023-01-28 08:58:37.549119,0.14059747405814638
2023-01-28 08:58:37.554119,0.16037444770336146
2023-01-28 08:58:37.559119,0.16055687549236308
2023-01-28 08:58:37.564119,0.14580588042736048
2023-01-28 08:58:37.569119,0.12120105865924892
2023-01-28 08:58:37.574119,0.08702675998210896
2023-01-28 08:58:37.579119,0.04436880625724507
2023-01-28 08:58:37.584119,0.0014424324035643577
2023-01-28 08:58:37.589119,-0.03105881236925001
2023-01-28 08:58:37.594119,-0.04947543144226072
2023-01-28 08:58:37.599119,-0.05796621913833376
2023-01-28 08:58:37.604119,-0.06123125553131099
2023-01-28 08:58:37.609119,-0.060896461806696764
2023-01-28 08:58:37.614119,-0.05839447304606427
2023-01-28 08:58:37.619119,-0.05637508227544469
2023-01-28 08:58:37.624119,-0.05587021633982653
2023-01-28 08:58:37.629119,-0.055346489408686333
2023-01-28 08:58:37.634119,-0.05385081097483625
2023-01-28 08:58:37.639119,-0.05258506326390375
2023-01-28 08:58:37.644119,-0.052432417869567795
2023-01-28 08:58:37.649119,-0.052349826824265144
2023-01-28 08:58:37.654119,-0.051302514970302464
2023-01-28 08:58:37.659119,-0.04974069238437517
2023-01-28 08:58:37.664119,-0.048153202980756704
2023-01-28 08:58:37.669119,-0.046037303663856305
2023-01-28 08:58:37.674119,-0.043321054428815745
2023-01-28 08:58:37.679119,-0.04111531672943767
2023-01-28 08:58:37.684119,-0.040003459900617495
2023-01-28 08:58:37.689119,-0.038992209165977065
2023-01-28 08:58:37.694119,-0.0370464734733104
2023-01-28 08:58:37.699119,-0.03435258857295459
2023-01-28 08:58:37.704119,-0.031300783157348605
2023-01-28 08:58:37.709119,-0.027578703920571206
2023-01-28 08:58:37.714119,-0.023127000778913394
2023-01-28 08:58:37.719119,-0.018759011632440203
2023-01-28 08:58:37.724119,-0.014953216537833183
2023-01-28 08:58:37.729119,-0.011065906625051594
2023-01-28 08:58:37.734119,-0.006466905586421399
2023-01-28 08:58:37.739119,-0.0014244374198521031
2023-01-28 08:58:37.744119,0.0038224458694458186
2023-01-28 08:58:37.749119,0.009846560787449363
2023-01-28 08:58:37.754119,0.017188986763358064
2023-01-28 08:58:37.759119,0.025668205204741622
2023-01-28 08:58:37.764119,0.03514727205038066
2023-01-28 08:58:37.769119,0.046014354019156926
2023-01-28 08:58:37.774119,0.058202147483825586
2023-01-28 08:58:37.779119,0.07057236830262713
2023-01-28 08:58:37.784119,0.08190612494945516
2023-01-28 08:58:37.789119,0.09173127964465418
2023-01-28 08:58:37.794119,0.09967207908630367
2023-01-28 08:58:37.799119,0.10488456831292282
2023-01-28 08:58:37.804119,0.10676404088735578
2023-01-28 08:58:37.809119,0.10543293376804384
2023-01-28 08:58:37.814119,0.10097026824951168
2023-01-28 08:58:37.819119,0.09294688753399172
2023-01-28 08:58:37.824119,0.0813051089644432
2023-01-28 08:58:37.829119,0.06697597006298617
2023-01-28 08:58:37.834119,0.051086150109767824
2023-01-28 08:58:37.839119,0.03423783490443712
2023-01-28 08:58:37.844119,0.017020702362060505
2023-01-28 08:58:37.849119,0.00044669983677456316
2023-01-28 08:58:37.854119,-0.014688770286738796
2023-01-28 08:58:37.859119,-0.028208266908187594
2023-01-28 08:58:37.864119,-0.039835177361965096
2023-01-28 08:58:37.869119,-0.04878059070188949
2023-01-28 08:58:37.874119,-0.0545720271766185
2023-01-28 08:58:37.879119,-0.057684862679869484
2023-01-28 08:58:37.884119,-0.05892336368560789
2023-01-28 08:58:37.889119,-0.05882499637703879
2023-01-28 08:58:37.894119,-0.05805790424346916
2023-01-28 08:58:37.899119,-0.05760962588748744
2023-01-28 08:58:37.904119,-0.05796174332499494
2023-01-28 08:58:37.909119,-0.05861645127906549
2023-01-28 08:58:37.914119,-0.05889932438731184
2023-01-28 08:58:37.919119,-0.0587000130659036
2023-01-28 08:58:37.924119,-0.05810598656535134
2023-01-28 08:58:37.929119,-0.057033419125822035
2023-01-28 08:58:37.934119,-0.05570193380117407
2023-01-28 08:58:37.939119,-0.054813581377165535
2023-01-28 08:58:37.944119,-0.05471627041697493
2023-01-28 08:58:37.949119,-0.05490012946269635
2023-01-28 08:58:37.954119,-0.054740309715270864
2023-01-28 08:58:37.959119,-0.05420578376839368
2023-01-28 08:58:37.964119,-0.05349020287394518
2023-01-28 08:58:37.969119,-0.05258722469416979
2023-01-28 08:58:37.974119,-0.05166312307119358
2023-01-28 08:58:37.979119,-0.0512188684063718
2023-01-28 08:58:37.984119,-0.05137463659048078
2023-01-28 08:58:37.989119,-0.05150386423697252
2023-01-28 08:58:37.994119,-0.051014028489589545
2023-01-28 08:58:37.999119,-0.050019056679381425
2023-01-28 08:58:38.004119,-0.04892250150442118
2023-01-28 08:58:38.009119,-0.04793198893213238
2023-01-28 08:58:38.014119,-0.0473598651587963
2023-01-28 08:58:38.019119,-0.04775501638619711
2023-01-28 08:58:38.024119,-0.049210987985134055
2023-01-28 08:58:38.029119,-0.05101511244704667
2023-01-28 08:58:38.034119,-0.0524083785712718
2023-01-28 08:58:38.039119,-0.053253419984892233
2023-01-28 08:58:38.044119,-0.05365848541259754
2023-01-28 08:58:38.049119,-0.053534335184696455
2023-01-28 08:58:38.054119,-0.05291322991251936
2023-01-28 08:58:38.059119,-0.052109685292740786
2023-01-28 08:58:38.064119,-0.05108615010976784
2023-01-28 08:58:38.069119,-0.04915660024685987
2023-01-28 08:58:38.074119,-0.04577318951487536
2023-01-28 08:58:38.079119,-0.04117999910796686
2023-01-28 08:58:38.084119,-0.03594060987234111
2023-01-28 08:58:38.089119,-0.030317751622684633
2023-01-28 08:58:38.094119,-0.024473270401358594
2023-01-28 08:58:38.099119,-0.01872815267905067
2023-01-28 08:58:38.104119,-0.013198256492614668
2023-01-28 08:58:38.109119,-0.007701767678679687
2023-01-28 08:58:38.114119,-0.0025242567062377327
2023-01-28 08:58:38.119119,0.0011263880518335837
2023-01-28 08:58:38.124119,0.0018511216621845523
2023-01-28 08:58:38.129119,-0.0010691098916007437
2023-01-28 08:58:38.134119,-0.007692973129451215
2023-01-28 08:58:38.139119,-0.017631480355587398
2023-01-28 08:58:38.144119,-0.02973814867436877
2023-01-28 08:58:38.149119,-0.042081538115219023
2023-01-28 08:58:38.154119,-0.0528170689940452
2023-01-28 08:58:38.159119,-0.06095344721784274
2023-01-28 08:58:38.164119,-0.0661836117506027
2023-01-28 08:58:38.169119,-0.0686051720685938
2023-01-28 08:58:38.174119,-0.06904443353414529
2023-01-28 08:58:38.179119,-0.06911075787299131
2023-01-28 08:58:38.184119,-0.07027050107717508
2023-01-28 08:58:38.189119,-0.07288477828706107
2023-01-28 08:58:38.194119,-0.07611235231161112
2023-01-28 08:58:38.199119,-0.07804732532984943
2023-01-28 08:58:38.204119,-0.07553537935018528
2023-01-28 08:58:38.209119,-0.06455262540789627
2023-01-28 08:58:38.214119,-0.04178246110677709
2023-01-28 08:58:38.219119,-0.006342832211727987
2023-01-28 08:58:38.224119,0.039450526237487675
2023-01-28 08:58:38.229119,0.0900163977029938
2023-01-28 08:58:38.234119,0.13688683509826655
2023-01-28 08:58:38.239119,0.17037573554253932
2023-01-28 08:58:38.244119,0.18270811438560475
2023-01-28 08:58:38.249119,0.1708771178703221
2023-01-28 08:58:38.254119,0.13753592967987055
2023-01-28 08:58:38.259119,0.09005085681155077
2023-01-28 08:58:38.264119,0.038464866578578866
2023-01-28 08:58:38.269119,-0.007475839568712637
2023-01-28 08:58:38.274119,-0.04149397462606428
2023-01-28 08:58:38.279119,-0.06226185219182635
2023-01-28 08:58:38.284119,-0.07228990644216532
2023-01-28 08:58:38.289119,-0.07562721806885706
2023-01-28 08:58:38.294119,-0.07608830928802492
2023-01-28 08:58:38.299119,-0.07619525173286909
2023-01-28 08:58:38.304119,-0.07661720365285868
2023-01-28 08:58:38.309119,-0.07660600972346103
2023-01-28 08:58:38.314119,-0.07536709308624258
2023-01-28 08:58:38.319119,-0.07300406560379682
2023-01-28 08:58:38.324119,-0.07022242248058302
2023-01-28 08:58:38.329119,-0.06767470495101298
2023-01-28 08:58:38.334119,-0.06579896062612527
2023-01-28 08:58:38.339119,-0.0647032740915904
2023-01-28 08:58:38.344119,-0.06380359828472129
2023-01-28 08:58:38.349119,-0.062018416362140706
2023-01-28 08:58:38.354119,-0.05875508114695536
2023-01-28 08:58:38.359119,-0.05446795901012401
2023-01-28 08:58:38.364119,-0.0500764474272727
2023-01-28 08:58:38.369119,-0.04624290844227787
2023-01-28 08:58:38.374119,-0.043369136750698034
2023-01-28 08:58:38.379119,-0.0416820802843026
2023-01-28 08:58:38.384119,-0.040892958641052204
2023-01-28 08:58:38.389119,-0.040187598172807225
2023-01-28 08:58:38.394119,-0.03894567489624018
2023-01-28 08:58:38.399119,-0.03717391321141955
2023-01-28 08:58:38.404119,-0.035027068108320195
2023-01-28 08:58:38.409119,-0.03235336326312701
2023-01-28 08:58:38.414119,-0.02896885201334947
2023-01-28 08:58:38.419119,-0.024873250984626206
2023-01-28 08:58:38.424119,-0.01983344554901121
2023-01-28 08:58:38.429119,-0.013196833149821438
2023-01-28 08:58:38.434119,-0.004519621841609395
2023-01-28 08:58:38.439119,0.00591920536705827
2023-01-28 08:58:38.444119,0.01745343208312978
2023-01-28 08:58:38.449119,0.029464409237033008
2023-01-28 08:58:38.454119,0.041277609765529556
2023-01-28 08:58:38.459119,0.052193833426949804
2023-01-28 08:58:38.464119,0.062048636376857653
2023-01-28 08:58:38.469119,0.07135095297920417
2023-01-28 08:58:38.474119,0.08048772811889635
2023-01-28 08:58:38.479119,0.08908681939344801
2023-01-28 08:58:38.484119,0.09637852758169166
2023-01-28 08:58:38.489119,0.10174759159483002
2023-01-28 08:58:38.494119,0.10467251390218726
2023-01-28 08:58:38.499119,0.10463293951408968
2023-01-28 08:58:38.504119,0.10147511959075917
2023-01-28 08:58:38.509119,0.09548975970988693
2023-01-28 08:58:38.514119,0.08681039512157437
2023-01-28 08:58:38.519119,0.07515270613242771
2023-01-28 08:58:38.524119,0.06051003932952879
2023-01-28 08:58:38.529119,0.043760610168488
2023-01-28 08:58:38.534119,0.02630035206675519
2023-01-28 08:58:38.539119,0.009436795387804599
2023-01-28 08:58:38.544119,-0.005673567764461019
2023-01-28 08:58:38.549119,-0.018097222161007457
2023-01-28 08:58:38.554119,-0.02764662168920044
2023-01-28 08:58:38.559119,-0.035018842017072754
2023-01-28 08:58:38.564119,-0.041037201881408636
2023-01-28 08:58:38.569119,-0.045989886642866205
2023-01-28 08:58:38.574119,-0.04986008256673811
2023-01-28 08:58:38.579119,-0.05269555957167263
2023-01-28 08:58:38.584119,-0.05440374463796608
2023-01-28 08:58:38.589119,-0.054635012943929334
2023-01-28 08:58:38.594119,-0.05329787731170649
2023-01-28 08:58:38.599119,-0.05089445038415378
2023-01-28 08:58:38.604119,-0.04805704206228247
2023-01-28 08:58:38.609119,-0.04509934622780877
2023-01-28 08:58:38.614119,-0.04226326942443842
2023-01-28 08:58:38.619119,-0.03994055841814894
2023-01-28 08:58:38.624119,-0.03827254101634018
2023-01-28 08:58:38.629119,-0.036893534138843914
2023-01-28 08:58:38.634119,-0.035411715507507276
2023-01-28 08:58:38.639119,-0.033823533344226046
2023-01-28 08:58:38.644119,-0.03221432492136943
2023-01-28 08:58:38.649119,-0.03050039123533561
2023-01-28 08:58:38.654119,-0.02882460877299299
2023-01-28 08:58:38.659119,-0.027818344681749565
2023-01-28 08:58:38.664119,-0.0280793514102697
2023-01-28 08:58:38.669119,-0.029634246065860376
2023-01-28 08:58:38.674119,-0.03209412097930898
2023-01-28 08:58:38.679119,-0.034895627608745865
2023-01-28 08:58:38.684119,-0.037118595093488624
2023-01-28 08:58:38.689119,-0.037594341697204325
2023-01-28 08:58:38.694119,-0.035724245011806384
2023-01-28 08:58:38.699119,-0.032022764786861446
2023-01-28 08:58:38.704119,-0.027646621689200377
2023-01-28 08:58:38.709119,-0.023707223923924197
2023-01-28 08:58:38.714119,-0.021155675873160282
2023-01-28 08:58:38.719119,-0.020708266440427454
2023-01-28 08:58:38.724119,-0.022357702255248985
2023-01-28 08:58:38.729119,-0.02523364356324111
2023-01-28 08:58:38.734119,-0.028295716270804346
2023-01-28 08:58:38.739119,-0.030940952149346418
2023-01-28 08:58:38.744119,-0.03281533718109124
2023-01-28 08:58:38.749119,-0.03356943791287753
2023-01-28 08:58:38.754119,-0.03319998830556862
2023-01-28 08:58:38.759119,-0.03225962451861655
2023-01-28 08:58:38.764119,-0.0313488654792308
2023-01-28 08:58:38.769119,-0.030661084123337696
2023-01-28 08:58:38.774119,-0.03021895885467518
2023-01-28 08:58:38.779119,-0.03010052226474688
2023-01-28 08:58:38.784119,-0.030098756775259874
2023-01-28 08:58:38.789119,-0.029580954598859767
2023-01-28 08:58:38.794119,-0.028103392571210774
2023-01-28 08:58:38.799119,-0.02591716596265604
2023-01-28 08:58:38.804119,-0.023631852120161074
2023-01-28 08:58:38.809119,-0.021726389047399635
2023-01-28 08:58:38.814119,-0.020578702911734477
2023-01-28 08:58:38.819119,-0.020437505288282826
2023-01-28 08:58:38.824119,-0.02091526985168451
2023-01-28 08:58:38.829119,-0.020845817307253364
2023-01-28 08:58:38.834119,-0.019064148887991905
2023-01-28 08:58:38.839119,-0.015174112814316711
2023-01-28 08:58:38.844119,-0.009447932243347073
2023-01-28 08:58:38.849119,-0.0024427829899343768
2023-01-28 08:58:38.854119,0.005000432487577131
2023-01-28 08:58:38.859119,0.011879322293370213
2023-01-28 08:58:38.864119,0.017645757645368527
2023-01-28 08:58:38.869119,0.022488909058731157
2023-01-28 08:58:38.874119,0.02673308178782457
2023-01-28 08:58:38.879119,0.030222128831900362
2023-01-28 08:58:38.884119,0.03247877210378635
2023-01-28 08:58:38.889119,0.03305161968167672
2023-01-28 08:58:38.894119,0.03142098709940909
2023-01-28 08:58:38.899119,0.02700268704730765
2023-01-28 08:58:38.904119,0.01968920230865468
2023-01-28 08:58:38.909119,0.01019088004981516
2023-01-28 08:58:38.914119,-0.00038464865065173076
2023-01-28 08:58:38.919119,-0.011005870756924637
2023-01-28 08:58:38.924119,-0.02062678337097155
2023-01-28 08:58:38.929119,-0.02814323957072103
2023-01-28 08:58:38.934119,-0.03293554112315173
2023-01-28 08:58:38.939119,-0.03533573948684534
2023-01-28 08:58:38.944119,-0.03637333959341039
2023-01-28 08:58:38.949119,-0.03725466193600941
2023-01-28 08:58:38.954119,-0.03904183954000469
2023-01-28 08:58:38.959119,-0.042113119011729726
2023-01-28 08:58:38.964119,-0.04524429887533176
2023-01-28 08:58:38.969119,-0.04520255265469204
2023-01-28 08:58:38.974119,-0.03752728551626195
2023-01-28 08:58:38.979119,-0.018007682210166683
2023-01-28 08:58:38.984119,0.015794634819030727
2023-01-28 08:58:38.989119,0.0630580238793831
2023-01-28 08:58:38.994119,0.11864006519317619
2023-01-28 08:58:38.999119,0.1734563500975023
2023-01-28 08:58:39.004119,0.21665334701538078
2023-01-28 08:58:39.009119,0.23869948132130586
2023-01-28 08:58:39.014119,0.23429910838603957
2023-01-28 08:58:39.019119,0.2043093138230552
2023-01-28 08:58:39.024119,0.1557105779647826
2023-01-28 08:58:39.029119,0.09921118599989995
2023-01-28 08:58:39.034119,0.04570106789469707
2023-01-28 08:58:39.039119,0.003387440819330521
2023-01-28 08:58:39.044119,-0.023848216980695627
2023-01-28 08:58:39.049119,-0.03703991755357205
2023-01-28 08:58:39.054119,-0.040965080261230406
2023-01-28 08:58:39.059119,-0.04096862668180752
2023-01-28 08:58:39.064119,-0.04009962081909169
2023-01-28 08:58:39.069119,-0.03916308208442334
2023-01-28 08:58:39.074119,-0.03860910981893529
2023-01-28 08:58:39.079119,-0.039015639932355656
2023-01-28 08:58:39.084119,-0.039931338280439266
2023-01-28 08:58:39.089119,-0.03985119640364954
2023-01-28 08:58:39.094119,-0.037911932915449115
2023-01-28 08:58:39.099119,-0.034661221857406437
2023-01-28 08:58:39.104119,-0.030868053436279148
2023-01-28 08:58:39.109119,-0.026682311068907536
2023-01-28 08:58:39.114119,-0.022405784577131205
2023-01-28 08:58:39.119119,-0.0189642513375411
2023-01-28 08:58:39.124119,-0.016900500282645173
2023-01-28 08:58:39.129119,-0.01569245535213522
2023-01-28 08:58:39.134119,-0.014616648666560617
2023-01-28 08:58:39.139119,-0.013490826751384525
2023-01-28 08:58:39.144119,-0.012068351730704302
2023-01-28 08:58:39.149119,-0.009610797152891582
2023-01-28 08:58:39.154119,-0.005769729614257856
2023-01-28 08:58:39.159119,-0.001206601700669921
2023-01-28 08:58:39.164119,0.0032695136032998106
2023-01-28 08:58:39.169119,0.007550080962810097
2023-01-28 08:58:39.174119,0.011755824089050196
2023-01-28 08:58:39.179119,0.01572419571749635
2023-01-28 08:58:39.184119,0.019593041390180477
2023-01-28 08:58:39.189119,0.024190396564535366
2023-01-28 08:58:39.194119,0.030194919556379245
2023-01-28 08:58:39.199119,0.03749504221790535
2023-01-28 08:58:39.204119,0.04589339345693576
2023-01-28 08:58:39.209119,0.055745119736611275
2023-01-28 08:58:39.214119,0.06728947162628166
2023-01-28 08:58:39.219119,0.07997515815899711
2023-01-28 08:58:39.224119,0.09301285445690145
2023-01-28 08:58:39.229119,0.10596328831344874
2023-01-28 08:58:39.234119,0.11825542151927937
2023-01-28 08:58:39.239119,0.12886677806781247
2023-01-28 08:58:39.244119,0.13717532157897933
2023-01-28 08:58:39.249119,0.1435487992983853
2023-01-28 08:58:39.254119,0.14847438037395466
2023-01-28 08:58:39.259119,0.15163890190017904
2023-01-28 08:58:39.264119,0.15234491229057304
2023-01-28 08:58:39.269119,0.15014000945624115
2023-01-28 08:58:39.274119,0.14448365569114674
2023-01-28 08:58:39.279119,0.13458610249884434
2023-01-28 08:58:39.284119,0.12039502710103973
2023-01-28 08:58:39.289119,0.10326889596604145
2023-01-28 08:58:39.294119,0.08507947623729699
2023-01-28 08:58:39.299119,0.06713741711036289
2023-01-28 08:58:39.304119,0.05038897320628156
2023-01-28 08:58:39.309119,0.035816845718424306
2023-01-28 08:58:39.314119,0.023872256278991623
2023-01-28 08:58:39.319119,0.014091097508422796
2023-01-28 08:58:39.324119,0.005938013549894005
2023-01-28 08:58:39.329119,-0.0005125511553219522
2023-01-28 08:58:39.334119,-0.005264878273010165
2023-01-28 08:58:39.339119,-0.009044327244623654
2023-01-28 08:58:39.344119,-0.012549161911010694
2023-01-28 08:58:39.349119,-0.01565144063249464
2023-01-28 08:58:39.354119,-0.017958283424377382
2023-01-28 08:58:39.359119,-0.019533285930088348
2023-01-28 08:58:39.364119,-0.02045850083231915
2023-01-28 08:58:39.369119,-0.020403570871571925
2023-01-28 08:58:39.374119,-0.01935263536870472
2023-01-28 08:58:39.379119,-0.018107639265885947
2023-01-28 08:58:39.384119,-0.01733323000371449
2023-01-28 08:58:39.389119,-0.01668234305166989
2023-01-28 08:58:39.394119,-0.015530189499258886
2023-01-28 08:58:39.399119,-0.013958202350773354
2023-01-28 08:58:39.404119,-0.012380878441035683
2023-01-28 08:58:39.409119,-0.010901964459808306
2023-01-28 08:58:39.414119,-0.009736418724060029
2023-01-28 08:58:39.419119,-0.00953043582599086
2023-01-28 08:58:39.424119,-0.01043359469622367
2023-01-28 08:58:39.429119,-0.011446131793072599
2023-01-28 08:58:39.434119,-0.011443297378718752
2023-01-28 08:58:39.439119,-0.010309275492604348
2023-01-28 08:58:39.444119,-0.008486310951411686
2023-01-28 08:58:39.449119,-0.006190464251908563
2023-01-28 08:58:39.454119,-0.0038224458694458173
2023-01-28 08:58:39.459119,-0.0023577566666438867
2023-01-28 08:58:39.464119,-0.002404054161161099
2023-01-28 08:58:39.469119,-0.003431913974822817
2023-01-28 08:58:39.474119,-0.004663865081965898
2023-01-28 08:58:39.479119,-0.006058316195979868
2023-01-28 08:58:39.484119,-0.0077170133590698
2023-01-28 08:58:39.489119,-0.009138060341282703
2023-01-28 08:58:39.494119,-0.009928743354976113
2023-01-28 08:58:39.499119,-0.010533870456661156
2023-01-28 08:58:39.504119,-0.011395215988159122
2023-01-28 08:58:39.509119,-0.012095095273370783
2023-01-28 08:58:39.514119,-0.012164513580501047
2023-01-28 08:58:39.519119,-0.011986277536309549
2023-01-28 08:58:39.524119,-0.01204431056976308
2023-01-28 08:58:39.529119,-0.012076042217368202
2023-01-28 08:58:39.534119,-0.011876027099788104
2023-01-28 08:58:39.539119,-0.012119527050916493
2023-01-28 08:58:39.544119,-0.013390581123530794
2023-01-28 08:58:39.549119,-0.015116290652236948
2023-01-28 08:58:39.554119,-0.01637160778045651
2023-01-28 08:58:39.559119,-0.016930619870914935
2023-01-28 08:58:39.564119,-0.016612013801932297
2023-01-28 08:58:39.569119,-0.014558550682965792
2023-01-28 08:58:39.574119,-0.010337432846426901
2023-01-28 08:58:39.579119,-0.004983679831178913
2023-01-28 08:58:39.584119,0.00014424324035638847
2023-01-28 08:58:39.589119,0.004820969751413566
2023-01-28 08:58:39.594119,0.009375810623168902
2023-01-28 08:58:39.599119,0.013709981804325441
2023-01-28 08:58:39.604119,0.018030405044555615
2023-01-28 08:58:39.609119,0.02347894437750734
2023-01-28 08:58:39.614119,0.030603608116507464
2023-01-28 08:58:39.619119,0.03795348223349884
2023-01-28 08:58:39.624119,0.04336913675069796
2023-01-28 08:58:39.629119,0.045805662663967864
2023-01-28 08:58:39.634119,0.044859647750854395
2023-01-28 08:58:39.639119,0.03985477928172406
2023-01-28 08:58:39.644119,0.031012296676635683
2023-01-28 08:58:39.649119,0.020489511952564494
2023-01-28 08:58:39.654119,0.010625919327139783
2023-01-28 08:58:39.659119,0.001998601758772568
2023-01-28 08:58:39.664119,-0.005505283828824716
2023-01-28 08:58:39.669119,-0.011069249573165294
2023-01-28 08:58:39.674119,-0.014159878715872702
2023-01-28 08:58:39.679119,-0.016074707884850003
2023-01-28 08:58:39.684119,-0.01834293268620962
2023-01-28 08:58:39.689119,-0.02074798778645682
2023-01-28 08:58:39.694119,-0.022814473137259417
2023-01-28 08:58:39.699119,-0.02577170888631731
2023-01-28 08:58:39.704119,-0.030651688575744608
2023-01-28 08:58:39.709119,-0.03561248002978744
2023-01-28 08:58:39.714119,-0.037358999252319294
2023-01-28 08:58:39.719119,-0.03360581814853363
2023-01-28 08:58:39.724119,-0.021540325134992502
2023-01-28 08:58:39.729119,0.0039124782320445846
2023-01-28 08:58:39.734119,0.04594147205352779
2023-01-28 08:58:39.739119,0.1003651528094204
2023-01-28 08:58:39.744119,0.1573453396558761
2023-01-28 08:58:39.749119,0.2071351595704828
2023-01-28 08:58:39.754119,0.2406217753887176
2023-01-28 08:58:39.759119,0.24746341195653243
2023-01-28 08:58:39.764119,0.2219182252883911
2023-01-28 08:58:39.769119,0.1720428169458041
2023-01-28 08:58:39.774119,0.11640429496765128
2023-01-28 08:58:39.779119,0.06844751050490935
2023-01-28 08:58:39.784119,0.028680365532636604
2023-01-28 08:58:39.789119,-0.005971276124603852
2023-01-28 08:58:39.794119,-0.032166242599487305
2023-01-28 08:58:39.799119,-0.04486064107004752
2023-01-28 08:58:39.804119,-0.04687905311584466
2023-01-28 08:58:39.809119,-0.04661830617048999
2023-01-28 08:58:39.814119,-0.047936838120221974
2023-01-28 08:58:39.819119,-0.04811376341731545
2023-01-28 08:58:39.824119,-0.04488369077444067
2023-01-28 08:58:39.829119,-0.03990836853258638
2023-01-28 08:58:39.834119,-0.035027068108320174
2023-01-28 08:58:39.839119,-0.02997379928871073
2023-01-28 08:58:39.844119,-0.02505024336278427
2023-01-28 08:58:39.849119,-0.022307764583170613
2023-01-28 08:58:39.854119,-0.02255002781748769
2023-01-28 08:58:39.859119,-0.023848255978305387
2023-01-28 08:58:39.864119,-0.024232864379882812
2023-01-28 08:58:39.869119,-0.023658095910444685
2023-01-28 08:58:39.874119,-0.022453865036368238
2023-01-28 08:58:39.879119,-0.02008437891841917
2023-01-28 08:58:39.884119,-0.016539892181754078
2023-01-28 08:58:39.889119,-0.013092674238020137
2023-01-28 08:58:39.894119,-0.01052975654602052
2023-01-28 08:58:39.899119,-0.008033479722428214
2023-01-28 08:58:39.904119,-0.004663865081965876
2023-01-28 08:58:39.909119,-0.0006521453144931044
2023-01-28 08:58:39.914119,0.003485878463834503
2023-01-28 08:58:39.919119,0.00782607519522817
2023-01-28 08:58:39.924119,0.012284716591238884
2023-01-28 08:58:39.929119,0.01618267166927596
2023-01-28 08:58:39.934119,0.01937667652964592
2023-01-28 08:58:39.939119,0.022923583235612662
2023-01-28 08:58:39.944119,0.027983188629150314
2023-01-28 08:58:39.949119,0.03486770289751712
2023-01-28 08:58:39.954119,0.04360954090952871
2023-01-28 08:58:39.959119,0.05447935534889475
2023-01-28 08:58:39.964119,0.06728947162628167
2023-01-28 08:58:39.969119,0.0809392515758852
2023-01-28 08:58:39.974119,0.09423892199993125
2023-01-28 08:58:39.979119,0.10660566961712478
2023-01-28 08:58:39.984119,0.11760632693767532
2023-01-28 08:58:39.989119,0.1265764343224712
2023-01-28 08:58:39.994119,0.1331845968961714
2023-01-28 08:58:39.999119,0.13773623998023
2023-01-28 08:58:40.004119,0.14042079448699943
2023-01-28 08:58:40.009119,0.14073866688989822
2023-01-28 08:58:40.014119,0.1380167454481124
2023-01-28 08:58:40.019119,0.13198324110684534
2023-01-28 08:58:40.024119,0.12255867570638648
2023-01-28 08:58:40.029119,0.10970587940040616
2023-01-28 08:58:40.034119,0.09395043551921836
2023-01-28 08:58:40.039119,0.07663646332608112
2023-01-28 08:58:40.044119,0.05928397178649897
2023-01-28 08:58:40.049119,0.04295571201902916
2023-01-28 08:58:40.054119,0.028343796730041476
2023-01-28 08:58:40.059119,0.015906779620140837
2023-01-28 08:58:40.064119,0.005577405449002905
2023-01-28 08:58:40.069119,-0.003243302986845819
2023-01-28 08:58:40.074119,-0.011034607887268018
2023-01-28 08:58:40.079119,-0.017726521081437355
2023-01-28 08:58:40.084119,-0.023054879158735175
2023-01-28 08:58:40.089119,-0.02698095386177053
2023-01-28 08:58:40.094119,-0.029593905434012403
2023-01-28 08:58:40.099119,-0.03099225246778784
2023-01-28 08:58:40.104119,-0.03149310871958727
2023-01-28 08:58:40.109119,-0.03162355131076468
2023-01-28 08:58:40.114119,-0.03166139125823966
2023-01-28 08:58:40.119119,-0.031426092723755246
2023-01-28 08:58:40.124119,-0.030675729736685656
2023-01-28 08:58:40.129119,-0.029456247975595568
2023-01-28 08:58:40.134119,-0.027959149330854388
2023-01-28 08:58:40.139119,-0.02635052764617609
2023-01-28 08:58:40.144119,-0.024881958961486803
2023-01-28 08:58:40.149119,-0.023858008412089314
2023-01-28 08:58:40.154119,-0.023295283317565852
2023-01-28 08:58:40.159119,-0.022822907291393326
2023-01-28 08:58:40.164119,-0.02204517647624006
2023-01-28 08:58:40.169119,-0.020807466294892288
2023-01-28 08:58:40.174119,-0.01906414888799191
2023-01-28 08:58:40.179119,-0.016785931241991205
2023-01-28 08:58:40.184119,-0.014135837554931592
2023-01-28 08:58:40.189119,-0.011500310530710189
2023-01-28 08:58:40.194119,-0.00920752715319388
2023-01-28 08:58:40.199119,-0.007379949624633157
2023-01-28 08:58:40.204119,-0.006106297485530317
2023-01-28 08:58:40.209119,-0.005512054775570791
2023-01-28 08:58:40.214119,-0.005553364753723058
2023-01-28 08:58:40.219119,-0.005932876404195938
2023-01-28 08:58:40.224119,-0.0062986216507851765
2023-01-28 08:58:40.229119,-0.006350774469413358
2023-01-28 08:58:40.234119,-0.005721648689359405
2023-01-28 08:58:40.239119,-0.003999250453981152
2023-01-28 08:58:40.244119,-0.001009702682495096
2023-01-28 08:58:40.249119,0.003034453937799499
2023-01-28 08:58:40.254119,0.007692973129451204
2023-01-28 08:58:40.259119,0.012465481277037381
2023-01-28 08:58:40.264119,0.016852419823408054
2023-01-28 08:58:40.269119,0.020552468344615087
2023-01-28 08:58:40.274119,0.023752054199576277
2023-01-28 08:58:40.279119,0.027069549251970068
2023-01-28 08:58:40.284119,0.031060378998517886
2023-01-28 08:58:40.289119,0.035743011315918866
2023-01-28 08:58:40.294119,0.040484271943569114
2023-01-28 08:58:40.299119,0.0441540593091869
2023-01-28 08:58:40.304119,0.04546066373586649
2023-01-28 08:58:40.309119,0.043491524908247405
2023-01-28 08:58:40.314119,0.03820041939616198
2023-01-28 08:58:40.319119,0.030401152142935546
2023-01-28 08:58:40.324119,0.021275877952575566
2023-01-28 08:58:40.329119,0.01188143856982224
2023-01-28 08:58:40.334119,0.0029569864273070743
2023-01-28 08:58:40.339119,-0.005067730316004616
2023-01-28 08:58:40.344119,-0.011972188949584904
2023-01-28 08:58:40.349119,-0.01755588665421655
2023-01-28 08:58:40.354119,-0.02151628397405138
2023-01-28 08:58:40.359119,-0.023587377413128933
2023-01-28 08:58:40.364119,-0.023800134658813372
2023-01-28 08:58:40.369119,-0.022552188708134205
2023-01-28 08:58:40.374119,-0.0204585008323192
2023-01-28 08:58:40.379119,-0.018152869974361184
2023-01-28 08:58:40.384119,-0.016010999679565395
2023-01-28 08:58:40.389119,-0.013690890985155808
2023-01-28 08:58:40.394119,-0.00971237849444149
2023-01-28 08:58:40.399119,-0.0014966144912591042
2023-01-28 08:58:40.404119,0.013943513855338012
2023-01-28 08:58:40.409119,0.03874151840572184
2023-01-28 08:58:40.414119,0.07260243594646444
2023-01-28 08:58:40.419119,0.11157858815168259
2023-01-28 08:58:40.424119,0.14820992946624742
2023-01-28 08:58:40.429119,0.17354254975555056
2023-01-28 08:58:40.434119,0.18032810091972346
2023-01-28 08:58:40.439119,0.16592719457612468
2023-01-28 08:58:40.444119,0.13361732661724085
2023-01-28 08:58:40.449119,0.09165333610647265
2023-01-28 08:58:40.454119,0.050268769264221094
2023-01-28 08:58:40.459119,0.01789172535108343
2023-01-28 08:58:40.464119,-0.0015145540237426426
2023-01-28 08:58:40.469119,-0.008806880929072903
2023-01-28 08:58:40.474119,-0.008077621459960918
2023-01-28 08:58:40.479119,-0.004318104383355691
2023-01-28 08:58:40.484119,-0.0013222297420724788
2023-01-28 08:58:40.489119,-0.0005473168180127802
2023-01-28 08:58:40.494119,-0.0014183919411151849
2023-01-28 08:58:40.499119,-0.00270835175461807
2023-01-28 08:58:40.504119,-0.003702243324369092
2023-01-28 08:58:40.509119,-0.004267380063900856
2023-01-28 08:58:40.514119,-0.004351337905973094
2023-01-28 08:58:40.519119,-0.0038465483157111464
2023-01-28 08:58:40.524119,-0.0027887027245013817
2023-01-28 08:58:40.529119,-0.0012897107638652396
2023-01-28 08:58:40.534119,0.0007212162017821696
2023-01-28 08:58:40.539119,0.0033919040375441226
2023-01-28 08:58:40.544119,0.006563067436218176
2023-01-28 08:58:40.549119,0.009749193113488293
2023-01-28 08:58:40.554119,0.0125732030719518
2023-01-28 08:58:40.559119,0.015064062240794507
2023-01-28 08:58:40.564119,0.017525553703308053
2023-01-28 08:58:40.569119,0.020292649703566947
2023-01-28 08:58:40.574119,0.023607810959219933
2023-01-28 08:58:40.579119,0.027494284640796573
2023-01-28 08:58:40.584119,0.03163735195994372
2023-01-28 08:58:40.589119,0.035521248922985596
2023-01-28 08:58:40.594119,0.03880143165588374
2023-01-28 08:58:40.599119,0.041551279902213197
2023-01-28 08:58:40.604119,0.04421055316925041
2023-01-28 08:58:40.609119,0.04741101890880738
2023-01-28 08:58:40.614119,0.05180736631155012
2023-01-28 08:58:40.619119,0.05786946510208342
2023-01-28 08:58:40.624119,0.06570279598236078
2023-01-28 08:58:40.629119,0.07506836578589816
2023-01-28 08:58:40.634119,0.08556028455495826
2023-01-28 08:58:40.639119,0.09672282457728448
2023-01-28 08:58:40.644119,0.1080622300505637
2023-01-28 08:58:40.649119,0.11908638978091352
2023-01-28 08:58:40.654119,0.12938618659973133
2023-01-28 08:58:40.659119,0.13865366541749308
2023-01-28 08:58:40.664119,0.14664730429649353
2023-01-28 08:58:40.669119,0.1531794293762791
2023-01-28 08:58:40.674119,0.15806655585765828
2023-01-28 08:58:40.679119,0.16097280692675722
2023-01-28 08:58:40.684119,0.16128799319267265
2023-01-28 08:58:40.689119,0.1582291510384797
2023-01-28 08:58:40.694119,0.15111884474754328
2023-01-28 08:58:40.699119,0.13966616938874982
2023-01-28 08:58:40.704119,0.12419342994689937
2023-01-28 08:58:40.709119,0.10577650812383602
2023-01-28 08:58:40.714119,0.08613725751638408
2023-01-28 08:58:40.719119,0.06720410570025365
2023-01-28 08:58:40.724119,0.050557255744933985
2023-01-28 08:58:40.729119,0.03705677459080128
2023-01-28 08:58:40.734119,0.026733081787824593
2023-01-28 08:58:40.739119,0.018896172393693116
2023-01-28 08:58:40.744119,0.012477040290832514
2023-01-28 08:58:40.749119,0.006530277863902381
2023-01-28 08:58:40.754119,0.0006250540609471476
2023-01-28 08:58:40.759119,-0.00508399901819593
2023-01-28 08:58:40.764119,-0.010024905204772887
2023-01-28 08:58:40.769119,-0.013454505927269256
2023-01-28 08:58:40.774119,-0.014760891906916943
2023-01-28 08:58:40.779119,-0.013777333135822948
2023-01-28 08:58:40.784119,-0.010914405807852688
2023-01-28 08:58:40.789119,-0.007019204361830607
2023-01-28 08:58:40.794119,-0.0031252703629433727
2023-01-28 08:58:40.799119,-0.00023141211641031608
2023-01-28 08:58:40.804119,0.0009616216411814662
2023-01-28 08:58:40.809119,0.00036172767736102664
2023-01-28 08:58:40.814119,-0.0013943513622507073
2023-01-28 08:58:40.819119,-0.003173885623298607
2023-01-28 08:58:40.824119,-0.003774364944547367
2023-01-28 08:58:40.829119,-0.0023199859008629364
2023-01-28 08:58:40.834119,0.0014183919411151938
2023-01-28 08:58:40.839119,0.006846556646747912
2023-01-28 08:58:40.844119,0.012717446312308353
2023-01-28 08:58:40.849119,0.017664269614269368
2023-01-28 08:58:40.854119,0.020746987313032084
2023-01-28 08:58:40.859119,0.021686485863673298
2023-01-28 08:58:40.864119,0.020819108933210283
2023-01-28 08:58:40.869119,0.01893252352666524
2023-01-28 08:58:40.874119,0.016996663063764524
2023-01-28 08:58:40.879119,0.015821602510256258
2023-01-28 08:58:40.884119,0.01584271714091298
2023-01-28 08:58:40.889119,0.017141380542474428
2023-01-28 08:58:40.894119,0.019544959068298295
2023-01-28 08:58:40.899119,0.02267635431217487
2023-01-28 08:58:40.904119,0.02605994604527949
2023-01-28 08:58:40.909119,0.029353679006407948
2023-01-28 08:58:40.914119,0.0325268507003784
2023-01-28 08:58:40.919119,0.03582257655783657
2023-01-28 08:58:40.924119,0.03959476947784419
2023-01-28 08:58:40.929119,0.044138090652239156
2023-01-28 08:58:40.934119,0.0494754314422607
2023-01-28 08:58:40.939119,0.05513932288841914
2023-01-28 08:58:40.944119,0.06017347425222389
2023-01-28 08:58:40.949119,0.06344364362046039
2023-01-28 08:58:40.954119,0.06401996314525599
2023-01-28 08:58:40.959119,0.061396457735980244
2023-01-28 08:58:40.964119,0.05558172985911362
2023-01-28 08:58:40.969119,0.047130282019052325
2023-01-28 08:58:40.974119,0.03702243417501444
2023-01-28 08:58:40.979119,0.026377275895973027
2023-01-28 08:58:40.984119,0.016203325241804102
2023-01-28 08:58:40.989119,0.007303925684740254
2023-01-28 08:58:40.994119,0.0001923243253258254
2023-01-28 08:58:40.999119,-0.0050577230056948535
2023-01-28 08:58:41.004119,-0.008822878822684174
2023-01-28 08:58:41.009119,-0.011676669284510595
2023-01-28 08:58:41.014119,-0.01408775709569449
2023-01-28 08:58:41.019119,-0.016292739848599004
2023-01-28 08:58:41.024119,-0.01824676990509032
2023-01-28 08:58:41.029119,-0.019493044845185204
2023-01-28 08:58:41.034119,-0.019040107727050677
2023-01-28 08:58:41.039119,-0.015384476000844386
2023-01-28 08:58:41.044119,-0.006635189056396408
2023-01-28 08:58:41.049119,0.009239367856177636
2023-01-28 08:58:41.054119,0.03377696126699436
2023-01-28 08:58:41.059119,0.06691413504569742
2023-01-28 08:58:41.064119,0.10592262446880336
2023-01-28 08:58:41.069119,0.14517226393970029
2023-01-28 08:58:41.074119,0.1771066635847091
2023-01-28 08:58:41.079119,0.19424945038003563
2023-01-28 08:58:41.084119,0.19167523086071006
2023-01-28 08:58:41.089119,0.16903838307972693
2023-01-28 08:58:41.094119,0.13109306991100306
2023-01-28 08:58:41.099119,0.08619315204821693
2023-01-28 08:58:41.104119,0.04341721534729
2023-01-28 08:58:41.109119,0.009724168962260879
2023-01-28 08:58:41.114119,-0.011707743629813099
2023-01-28 08:58:41.119119,-0.021577391002266296
2023-01-28 08:58:41.124119,-0.02322316169738759
2023-01-28 08:58:41.129119,-0.020703219980933548
2023-01-28 08:58:41.134119,-0.01714090630412101
2023-01-28 08:58:41.139119,-0.01408442057240794
2023-01-28 08:58:41.144119,-0.011851986870169574
2023-01-28 08:58:41.149119,-0.010209876245459935
2023-01-28 08:58:41.154119,-0.00887095928192129
2023-01-28 08:58:41.159119,-0.007763180728466037
2023-01-28 08:58:41.164119,-0.0070919594727455884
2023-01-28 08:58:41.169119,-0.007102215979850183
2023-01-28 08:58:41.174119,-0.007692973129451171
2023-01-28 08:58:41.179119,-0.008346737168533165
2023-01-28 08:58:41.184119,-0.008510351181030162
2023-01-28 08:58:41.189119,-0.007944934877746591
2023-01-28 08:58:41.194119,-0.006659229751676266
2023-01-28 08:58:41.199119,-0.004729231504257138
2023-01-28 08:58:41.204119,-0.002380013465881291
2023-01-28 08:58:41.209119,-1.8810370254035054e-05
2023-01-28 08:58:41.214119,0.0021876893006265133
2023-01-28 08:58:41.219119,0.004697964711301175
2023-01-28 08:58:41.224119,0.008149743080139103
2023-01-28 08:58:41.229119,0.012489389993996595
2023-01-28 08:58:41.234119,0.01697262190282342
2023-01-28 08:58:41.239119,0.0211740852155001
2023-01-28 08:58:41.244119,0.025531053543090796
2023-01-28 08:58:41.249119,0.030568528358318137
2023-01-28 08:58:41.254119,0.03601273149251927
2023-01-28 08:58:41.259119,0.04120142626697331
2023-01-28 08:58:41.264119,0.0461578369140625
2023-01-28 08:58:41.269119,0.05169684831133283
2023-01-28 08:58:41.274119,0.05851467698812479
2023-01-28 08:58:41.279119,0.06668241122916993
2023-01-28 08:58:41.284119,0.07604023069143284
2023-01-28 08:58:41.289119,0.086507338923761
2023-01-28 08:58:41.294119,0.0977728813886642
2023-01-28 08:58:41.299119,0.10911397774471224
2023-01-28 08:58:41.304119,0.11981805413961405
2023-01-28 08:58:41.309119,0.12951166722275909
2023-01-28 08:58:41.314119,0.13784846663475026
2023-01-28 08:58:41.319119,0.14415137912659468
2023-01-28 08:58:41.324119,0.1476329565048216
2023-01-28 08:58:41.329119,0.14778814308381485
2023-01-28 08:58:41.334119,0.14438748359680167
2023-01-28 08:58:41.339119,0.13733858750133465
2023-01-28 08:58:41.344119,0.12683789432048787
2023-01-28 08:58:41.349119,0.11350745473174137
2023-01-28 08:58:41.354119,0.09813348948955528
2023-01-28 08:58:41.359119,0.08137188093125382
2023-01-28 08:58:41.364119,0.06387571990489949
2023-01-28 08:58:41.369119,0.04652539122404184
2023-01-28 08:58:41.374119,0.03026704117655748
2023-01-28 08:58:41.379119,0.015784707163247005
2023-01-28 08:58:41.384119,0.0034618377685545713
2023-01-28 08:58:41.389119,-0.0065204664118369325
2023-01-28 08:58:41.394119,-0.014280080795288046
2023-01-28 08:58:41.399119,-0.02028815459299267
2023-01-28 08:58:41.404119,-0.025050243362784334
2023-01-28 08:58:41.409119,-0.02873937892531874
2023-01-28 08:58:41.414119,-0.0312527045607566
2023-01-28 08:58:41.419119,-0.03248600398450949
2023-01-28 08:58:41.424119,-0.032382607460021896
2023-01-28 08:58:41.429119,-0.03089595883539934
2023-01-28 08:58:41.434119,-0.02819955348968496
2023-01-28 08:58:41.439119,-0.02489327271673909
2023-01-28 08:58:41.444119,-0.021780729293823162
2023-01-28 08:58:41.449119,-0.019435973872503776
2023-01-28 08:58:41.454119,-0.01805444620549666
2023-01-28 08:58:41.459119,-0.01752910227651925
2023-01-28 08:58:41.464119,-0.01742939278483387
2023-01-28 08:58:41.469119,-0.017042209548737766
2023-01-28 08:58:41.474119,-0.015770595520734662
2023-01-28 08:58:41.479119,-0.013567370119068356
2023-01-28 08:58:41.484119,-0.010866324417293015
2023-01-28 08:58:41.489119,-0.008152635477669822
2023-01-28 08:58:41.494119,-0.0057216486893594265
2023-01-28 08:58:41.499119,-0.0036908285456246307
2023-01-28 08:58:41.504119,-0.001971324440091787
2023-01-28 08:58:41.509119,-0.00027004703220639097
2023-01-28 08:58:41.514119,0.0016347568016498878
2023-01-28 08:58:41.519119,0.0035965316300676543
2023-01-28 08:58:41.524119,0.005216797348111799
2023-01-28 08:58:41.529119,0.006209618870438566
2023-01-28 08:58:41.534119,0.006514986511319798
2023-01-28 08:58:41.539119,0.006170138299457832
2023-01-28 08:58:41.544119,0.005312959663569903
2023-01-28 08:58:41.549119,0.004295573113197444
2023-01-28 08:58:41.554119,0.0036060810089111137
2023-01-28 08:58:41.559119,0.0036821765784243563
2023-01-28 08:58:41.564119,0.004904270172119131
2023-01-28 08:58:41.569119,0.007618143685366751
2023-01-28 08:58:41.574119,0.01187602709978813
2023-01-28 08:58:41.579119,0.017144084826997877
2023-01-28 08:58:41.584119,0.022477906197309418
2023-01-28 08:58:41.589119,0.027058128286054747
2023-01-28 08:58:41.594119,0.03053148649632928
2023-01-28 08:58:41.599119,0.03301305057516022
2023-01-28 08:58:41.604119,0.035003028810024206
2023-01-28 08:58:41.609119,0.037201948685194365
2023-01-28 08:58:41.614119,0.040051542222499764
2023-01-28 08:58:41.619119,0.04329913266415817
2023-01-28 08:58:41.624119,0.04608571529388417
2023-01-28 08:58:41.629119,0.04744359783117571
2023-01-28 08:58:41.634119,0.04663864895701399
2023-01-28 08:58:41.639119,0.04322346812513592
2023-01-28 08:58:41.644119,0.03711859509348857
2023-01-28 08:58:41.649119,0.02874821825526459
2023-01-28 08:58:41.654119,0.01894394680857647
2023-01-28 08:58:41.659119,0.008665319312541176
2023-01-28 08:58:41.664119,-0.0011299054604023292
2023-01-28 08:58:41.669119,-0.009506205919901875
2023-01-28 08:58:41.674119,-0.01579463481903067
2023-01-28 08:58:41.679119,-0.01998159522474753
2023-01-28 08:58:41.684119,-0.022790431976318287
2023-01-28 08:58:41.689119,-0.025348982923527188
2023-01-28 08:58:41.694119,-0.02872844599187372
2023-01-28 08:58:41.699119,-0.03343194156829054
2023-01-28 08:58:41.704119,-0.0387293100357055
2023-01-28 08:58:41.709119,-0.04214379412883628
2023-01-28 08:58:41.714119,-0.039690934121608665
2023-01-28 08:58:41.719119,-0.027004861088758454
2023-01-28 08:58:41.724119,-0.0009135405416600074
2023-01-28 08:58:41.729119,0.03898030306928044
2023-01-28 08:58:41.734119,0.08909424394369117
2023-01-28 08:58:41.739119,0.14173560720629244
2023-01-28 08:58:41.744119,0.1866988390684126
2023-01-28 08:58:41.749119,0.21427709315670906
2023-01-28 08:58:41.754119,0.21838426589965812
2023-01-28 08:58:41.759119,0.19849789998739692
2023-01-28 08:58:41.764119,0.15979747474193562
2023-01-28 08:58:41.769119,0.11142177893496856
2023-01-28 08:58:41.774119,0.06334682554006568
2023-01-28 08:58:41.779119,0.02318406284349343
2023-01-28 08:58:41.784119,-0.005577405449002939
2023-01-28 08:58:41.789119,-0.023319831236875397
2023-01-28 08:58:41.794119,-0.03274321556091301
2023-01-28 08:58:41.799119,-0.037095098788124586
2023-01-28 08:58:41.804119,-0.03887355327606199
2023-01-28 08:58:41.809119,-0.03932723502406145
2023-01-28 08:58:41.814119,-0.03880143165588366
2023-01-28 08:58:41.819119,-0.03749382832278845
2023-01-28 08:58:41.824119,-0.035892527550458866
2023-01-28 08:58:41.829119,-0.034601638655178235
2023-01-28 08:58:41.834119,-0.03394524380564673
2023-01-28 08:58:41.839119,-0.033814551183080695
2023-01-28 08:58:41.844119,-0.03377696126699438
2023-01-28 08:58:41.849119,-0.033259394764712014
2023-01-28 08:58:41.854119,-0.0317815952003002
2023-01-28 08:58:41.859119,-0.02923656930902088
2023-01-28 08:58:41.864119,-0.02601186558604238
2023-01-28 08:58:41.869119,-0.02277888069776223
2023-01-28 08:58:41.874119,-0.02012193202972408
2023-01-28 08:58:41.879119,-0.018321471632356694
2023-01-28 08:58:41.884119,-0.017333230003714475
2023-01-28 08:58:41.889119,-0.01678905326061403
2023-01-28 08:58:41.894119,-0.016035040840506505
2023-01-28 08:58:41.899119,-0.014415626363407142
2023-01-28 08:58:41.904119,-0.011731783859431667
2023-01-28 08:58:41.909119,-0.008413836200963962
2023-01-28 08:58:41.914119,-0.00516871642321334
2023-01-28 08:58:41.919119,-0.0024777503581959763
2023-01-28 08:58:41.924119,-0.000384648650651684
2023-01-28 08:58:41.929119,0.0015392640748824202
2023-01-28 08:58:41.934119,0.004279216285794907
2023-01-28 08:58:41.939119,0.009174832003385591
2023-01-28 08:58:41.944119,0.017116865143179807
2023-01-28 08:58:41.949119,0.02783854772206303
2023-01-28 08:58:41.954119,0.04026790708303446
2023-01-28 08:58:41.959119,0.05348128617733385
2023-01-28 08:58:41.964119,0.06683270633220667
2023-01-28 08:58:41.969119,0.0792720106139591
2023-01-28 08:58:41.974119,0.08950293064117427
2023-01-28 08:58:41.979119,0.09733564045389338
2023-01-28 08:58:41.984119,0.10414361953735349
2023-01-28 08:58:41.989119,0.11114826021604501
2023-01-28 08:58:41.994119,0.11760632693767537
2023-01-28 08:58:41.999119,0.12143615847528766
2023-01-28 08:58:42.004119,0.12130856513977042
2023-01-28 08:58:42.009119,0.11728892312617159
2023-01-28 08:58:42.014119,0.10974507033824923
2023-01-28 08:58:42.019119,0.09884274428043553
2023-01-28 08:58:42.024119,0.08534391969442356
2023-01-28 08:58:42.029119,0.07085261189558308
2023-01-28 08:58:42.034119,0.056687593460082966
2023-01-28 08:58:42.039119,0.04307230984456642
2023-01-28 08:58:42.044119,0.029762189835309892
2023-01-28 08:58:42.049119,0.016833498676772137
2023-01-28 08:58:42.054119,0.004471540451049794
2023-01-28 08:58:42.059119,-0.007366168073494426
2023-01-28 08:58:42.064119,-0.018511217087507217
2023-01-28 08:58:42.069119,-0.028228489119954778
2023-01-28 08:58:42.074119,-0.03577232360839841
2023-01-28 08:58:42.079119,-0.04096909521540781
2023-01-28 08:58:42.084119,-0.04392206668853752
2023-01-28 08:58:42.089119,-0.04461548580086143
2023-01-28 08:58:42.094119,-0.04329701513051979
2023-01-28 08:58:42.099119,-0.04089317528597756
2023-01-28 08:58:42.104119,-0.03853698819875712
2023-01-28 08:58:42.109119,-0.036864736470468305
2023-01-28 08:58:42.114119,-0.03603677079081528
2023-01-28 08:58:42.119119,-0.03602677266530734
2023-01-28 08:58:42.124119,-0.03644546121358873
2023-01-28 08:58:42.129119,-0.036447724559041286
2023-01-28 08:58:42.134119,-0.03538767620921133
2023-01-28 08:58:42.139119,-0.03346197699227002
2023-01-28 08:58:42.144119,-0.03139694780111307
2023-01-28 08:58:42.149119,-0.029753136792988247
2023-01-28 08:58:42.154119,-0.028848648071289038
2023-01-28 08:58:42.159119,-0.028982037415000418
2023-01-28 08:58:42.164119,-0.030194919556379318
2023-01-28 08:58:42.169119,-0.031972238871916414
2023-01-28 08:58:42.174119,-0.0335846357047557
2023-01-28 08:58:42.179119,-0.03458829170637887
2023-01-28 08:58:42.184119,-0.03471454232931129
2023-01-28 08:58:42.189119,-0.033597459752905276
2023-01-28 08:58:42.194119,-0.03108441829681388
2023-01-28 08:58:42.199119,-0.02764716804401488
2023-01-28 08:58:42.204119,-0.024088621139526308
2023-01-28 08:58:42.209119,-0.02097954508081044
2023-01-28 08:58:42.214119,-0.018655460327863596
2023-01-28 08:58:42.219119,-0.01744840277098254
2023-01-28 08:58:42.224119,-0.01745343208312979
2023-01-28 08:58:42.229119,-0.01823600693929852
2023-01-28 08:58:42.234119,-0.019184350967407206
2023-01-28 08:58:42.239119,-0.020038651072833664
2023-01-28 08:58:42.244119,-0.020795067772269207
2023-01-28 08:58:42.249119,-0.021360529771859243
2023-01-28 08:58:42.254119,-0.021708607673645013
2023-01-28 08:58:42.259119,-0.022157468366424894
2023-01-28 08:58:42.264119,-0.02305487915873519
2023-01-28 08:58:42.269119,-0.024312296858493794
2023-01-28 08:58:42.274119,-0.02557913586497301
2023-01-28 08:58:42.279119,-0.026674975443276933
2023-01-28 08:58:42.284119,-0.027502378448843904
2023-01-28 08:58:42.289119,-0.027782153777796578
2023-01-28 08:58:42.294119,-0.027310054749250388
2023-01-28 08:58:42.299119,-0.0263106037921672
2023-01-28 08:58:42.304119,-0.025146406143903684
2023-01-28 08:58:42.309119,-0.023834123788114756
2023-01-28 08:58:42.314119,-0.022189419716596555
2023-01-28 08:58:42.319119,-0.02023064824770158
2023-01-28 08:58:42.324119,-0.0180544462054967
2023-01-28 08:58:42.329119,-0.015532207564478552
2023-01-28 08:58:42.334119,-0.012549161911010723
2023-01-28 08:58:42.339119,-0.009357353219786734
2023-01-28 08:58:42.344119,-0.006274580955505321
2023-01-28 08:58:42.349119,-0.0031862504503677087
2023-01-28 08:58:42.354119,0.00028848648071281484
2023-01-28 08:58:42.359119,0.0043232313970995
2023-01-28 08:58:42.364119,0.008919040672481006
2023-01-28 08:58:42.369119,0.014127820873568746
2023-01-28 08:58:42.374119,0.01976132392883297
2023-01-28 08:58:42.379119,0.02504105433462967
2023-01-28 08:58:42.384119,0.028968852013349495
2023-01-28 08:58:42.389119,0.030931025781729647
2023-01-28 08:58:42.394119,0.0306516885757446
2023-01-28 08:58:42.399119,0.027881946646774836
2023-01-28 08:58:42.404119,0.022646188735961862
2023-01-28 08:58:42.409119,0.015618568620739173
2023-01-28 08:58:42.414119,0.007789134979248044
2023-01-28 08:58:42.419119,-0.0001316406190231234
2023-01-28 08:58:42.424119,-0.007668932434171419
2023-01-28 08:58:42.429119,-0.014278439288927108
2023-01-28 08:58:42.434119,-0.019617080688476486
2023-01-28 08:58:42.439119,-0.023960364125219322
2023-01-28 08:58:42.444119,-0.027911067008972043
2023-01-28 08:58:42.449119,-0.03184383486389882
2023-01-28 08:58:42.454119,-0.03594060987234114
2023-01-28 08:58:42.459119,-0.040323013473268776
2023-01-28 08:58:42.464119,-0.04440287873148913
2023-01-28 08:58:42.469119,-0.04607744528631916
2023-01-28 08:58:42.474119,-0.04197478294372549
2023-01-28 08:58:42.479119,-0.028528322134054103
2023-01-28 08:58:42.484119,-0.0029569864273070907
2023-01-28 08:58:42.489119,0.03568203549412409
2023-01-28 08:58:42.494119,0.08498331159353249
2023-01-28 08:58:42.499119,0.13836072978015804
