2023-01-28 15:45:30.023141,-0.00894308090209952
2023-01-28 15:45:30.028141,-0.024081015131426676
2023-01-28 15:45:30.033141,-0.003101229667663489
2023-01-28 15:45:30.038141,0.010619022396447405
2023-01-28 15:45:30.043141,0.005072554107755442
2023-01-28 15:45:30.048141,0.003890791273688999
2023-01-28 15:45:30.053141,0.01776595972478373
2023-01-28 15:45:30.058141,0.030575243790720824
2023-01-28 15:45:30.063141,0.032935541123151696
2023-01-28 15:45:30.068141,0.03636650584477968
2023-01-28 15:45:30.073141,0.048393607139587416
2023-01-28 15:45:30.078141,0.05977350680408034
2023-01-28 15:45:30.083141,0.06416420638561242
2023-01-28 15:45:30.088141,0.06938112396441617
2023-01-28 15:45:30.093141,0.08096854388713828
2023-01-28 15:45:30.098141,0.0919708668997447
2023-01-28 15:45:30.103141,0.09688337892293931
2023-01-28 15:45:30.108141,0.10099486792912607
2023-01-28 15:45:30.113141,0.10844688117504109
2023-01-28 15:45:30.118141,0.11388455309877443
2023-01-28 15:45:30.123141,0.11303862184286109
2023-01-28 15:45:30.128141,0.11031152066051514
2023-01-28 15:45:30.133141,0.10921617597341528
2023-01-28 15:45:30.138141,0.10532261114177607
2023-01-28 15:45:30.143141,0.09491205215454107
2023-01-28 15:45:30.148141,0.08160522461414166
2023-01-28 15:45:30.153141,0.06863574683666218
2023-01-28 15:45:30.158141,0.052876975850698504
2023-01-28 15:45:30.163141,0.03209412097930898
2023-01-28 15:45:30.168141,0.010571526027018635
2023-01-28 15:45:30.173141,-0.007692973129451227
2023-01-28 15:45:30.178141,-0.024503380329274387
2023-01-28 15:45:30.183141,-0.04146993160247796
2023-01-28 15:45:30.188141,-0.055173146876130744
2023-01-28 15:45:30.193141,-0.06303429603576657
2023-01-28 15:45:30.198141,-0.06797854351674126
2023-01-28 15:45:30.203141,-0.07284283638000477
2023-01-28 15:45:30.208141,-0.07576288752552371
2023-01-28 15:45:30.213141,-0.07519881427288057
2023-01-28 15:45:30.218141,-0.07407339940815175
2023-01-28 15:45:30.223141,-0.07483820617198936
2023-01-28 15:45:30.228141,-0.07546065528753776
2023-01-28 15:45:30.233141,-0.07411698997020716
2023-01-28 15:45:30.238141,-0.07302851946958058
2023-01-28 15:45:30.243141,-0.07394870370626438
2023-01-28 15:45:30.248141,-0.07446152960326119
2023-01-28 15:45:30.253141,-0.07238607108592984
2023-01-28 15:45:30.258141,-0.06957547092998487
2023-01-28 15:45:30.263141,-0.06798665225505815
2023-01-28 15:45:30.268141,-0.06617935280654864
2023-01-28 15:45:30.273141,-0.0630102604627609
2023-01-28 15:45:30.278141,-0.06074761318500582
2023-01-28 15:45:30.283141,-0.06120721623301494
2023-01-28 15:45:30.288141,-0.0625074225187842
2023-01-28 15:45:30.293141,-0.062721773982048
2023-01-28 15:45:30.298141,-0.06314645233138931
2023-01-28 15:45:30.303141,-0.06502966582775105
2023-01-28 15:45:30.308141,-0.06663212519749794
2023-01-28 15:45:30.313141,-0.06647209823131561
2023-01-28 15:45:30.318141,-0.06613726261521168
2023-01-28 15:45:30.323141,-0.06707310676574704
2023-01-28 15:45:30.328141,-0.06781362703130107
2023-01-28 15:45:30.333141,-0.06709714978933333
2023-01-28 15:45:30.338141,-0.0665846422645403
2023-01-28 15:45:30.343141,-0.0678424090147018
2023-01-28 15:45:30.348141,-0.0696293915819223
2023-01-28 15:45:30.353141,-0.07067918777465816
2023-01-28 15:45:30.358141,-0.07218201673760995
2023-01-28 15:45:30.363141,-0.07500648498535153
2023-01-28 15:45:30.368141,-0.07734243658449466
2023-01-28 15:45:30.373141,-0.0775788277387619
2023-01-28 15:45:30.378141,-0.07681675232839516
2023-01-28 15:45:30.383141,-0.0762325525283813
2023-01-28 15:45:30.388141,-0.07468393719140813
2023-01-28 15:45:30.393141,-0.07123212516307821
2023-01-28 15:45:30.398141,-0.06737241985294073
2023-01-28 15:45:30.403141,-0.06445269286632524
2023-01-28 15:45:30.408141,-0.06137404586710575
2023-01-28 15:45:30.413141,-0.057000122964382116
2023-01-28 15:45:30.418141,-0.052334987385014894
2023-01-28 15:45:30.423141,-0.04820128530263892
2023-01-28 15:45:30.428141,-0.04330136199022312
2023-01-28 15:45:30.433141,-0.03683010861277582
2023-01-28 15:45:30.438141,-0.030740281217265467
2023-01-28 15:45:30.443141,-0.0273581352084875
2023-01-28 15:45:30.448141,-0.026951712116701443
2023-01-28 15:45:30.453141,-0.02944966219365588
2023-01-28 15:45:30.458141,-0.036012054559940464
2023-01-28 15:45:30.463141,-0.04668673127889624
2023-01-28 15:45:30.468141,-0.058684592039042624
2023-01-28 15:45:30.473141,-0.06909251213073728
2023-01-28 15:45:30.478141,-0.07742196709920726
2023-01-28 15:45:30.483141,-0.08387744426727285
2023-01-28 15:45:30.488141,-0.0874717747058631
2023-01-28 15:45:30.493141,-0.08779605478048325
2023-01-28 15:45:30.498141,-0.08636706564707262
2023-01-28 15:45:30.503141,-0.08397360891103736
2023-01-28 15:45:30.508141,-0.07837292653500387
2023-01-28 15:45:30.513141,-0.06637593358755116
2023-01-28 15:45:30.518141,-0.046606847736690375
2023-01-28 15:45:30.523141,-0.019256472587585397
2023-01-28 15:45:30.528141,0.013871648595633071
2023-01-28 15:45:30.533141,0.046566527336835736
2023-01-28 15:45:30.538141,0.06757010197807232
2023-01-28 15:45:30.543141,0.0657989606261253
2023-01-28 15:45:30.548141,0.03651584439041693
2023-01-28 15:45:30.553141,-0.017092823982238676
2023-01-28 15:45:30.558141,-0.08516247144849937
2023-01-28 15:45:30.563141,-0.15246510505676258
2023-01-28 15:45:30.568141,-0.20229840446570596
2023-01-28 15:45:30.573141,-0.2238174378871917
2023-01-28 15:45:30.578141,-0.2166696640903571
2023-01-28 15:45:30.583141,-0.1884537935256957
2023-01-28 15:45:30.588141,-0.14935182599500263
2023-01-28 15:45:30.593141,-0.10931234061717983
2023-01-28 15:45:30.598141,-0.07636747298875747
2023-01-28 15:45:30.603141,-0.05389889329671854
2023-01-28 15:45:30.608141,-0.040077527142905967
2023-01-28 15:45:30.613141,-0.031541191041469525
2023-01-28 15:45:30.618141,-0.026613625580319687
2023-01-28 15:45:30.623141,-0.024256905540823975
2023-01-28 15:45:30.628141,-0.02237963343795756
2023-01-28 15:45:30.633141,-0.01925647258758541
2023-01-28 15:45:30.638141,-0.015048907418437635
2023-01-28 15:45:30.643141,-0.010265311226248722
2023-01-28 15:45:30.648141,-0.0043292489958837825
2023-01-28 15:45:30.653141,0.002788702724501377
2023-01-28 15:45:30.658141,0.00931135632231233
2023-01-28 15:45:30.663141,0.013799270614981764
2023-01-28 15:45:30.668141,0.017065938160201237
2023-01-28 15:45:30.673141,0.020482540130615158
2023-01-28 15:45:30.678141,0.024065513354551947
2023-01-28 15:45:30.683141,0.027766823768615646
2023-01-28 15:45:30.688141,0.03281981770485565
2023-01-28 15:45:30.693141,0.040003459900617454
2023-01-28 15:45:30.698141,0.04817783964299093
2023-01-28 15:45:30.703141,0.05625486373901362
2023-01-28 15:45:30.708141,0.06502923217578423
2023-01-28 15:45:30.713141,0.07539113610982894
2023-01-28 15:45:30.718141,0.08639609885713251
2023-01-28 15:45:30.723141,0.09683530032634731
2023-01-28 15:45:30.728141,0.10699216273517483
2023-01-28 15:45:30.733141,0.11698126792907705
2023-01-28 15:45:30.738141,0.125065602849853
2023-01-28 15:45:30.743141,0.12965063750743872
2023-01-28 15:45:30.748141,0.13137287970720601
2023-01-28 15:45:30.753141,0.13121327757835377
2023-01-28 15:45:30.758141,0.12821540350623567
2023-01-28 15:45:30.763141,0.12128452956676485
2023-01-28 15:45:30.768141,0.11157586873362525
2023-01-28 15:45:30.773141,0.10056158155202857
2023-01-28 15:45:30.778141,0.08723153973557447
2023-01-28 15:45:30.783141,0.07012625783681851
2023-01-28 15:45:30.788141,0.051091060676254296
2023-01-28 15:45:30.793141,0.033873122185468604
2023-01-28 15:45:30.798141,0.019359538703572838
2023-01-28 15:45:30.803141,0.005120635032653818
2023-01-28 15:45:30.808141,-0.0102543883621517
2023-01-28 15:45:30.813141,-0.025026202201843203
2023-01-28 15:45:30.818141,-0.036940806440464054
2023-01-28 15:45:30.823141,-0.04570106789469704
2023-01-28 15:45:30.828141,-0.05205392613088961
2023-01-28 15:45:30.833141,-0.05620678514242176
2023-01-28 15:45:30.838141,-0.05809074982843905
2023-01-28 15:45:30.843141,-0.05808194726705552
2023-01-28 15:45:30.848141,-0.056756907257516725
2023-01-28 15:45:30.853141,-0.05459606647491451
2023-01-28 15:45:30.858141,-0.05218581359245966
2023-01-28 15:45:30.863141,-0.05007644742727265
2023-01-28 15:45:30.868141,-0.0483411640824436
2023-01-28 15:45:30.873141,-0.0467828921973704
2023-01-28 15:45:30.878141,-0.04542890317330116
2023-01-28 15:45:30.883141,-0.04430671781301489
2023-01-28 15:45:30.888141,-0.04306570821554286
2023-01-28 15:45:30.893141,-0.041445892304181976
2023-01-28 15:45:30.898141,-0.03979919994458445
2023-01-28 15:45:30.903141,-0.038585066795349024
2023-01-28 15:45:30.908141,-0.037765559660661606
2023-01-28 15:45:30.913141,-0.03723879903554912
2023-01-28 15:45:30.918141,-0.03732354549702823
2023-01-28 15:45:30.923141,-0.03817638009786598
2023-01-28 15:45:30.928141,-0.03925932838343188
2023-01-28 15:45:30.933141,-0.04002749919891348
2023-01-28 15:45:30.938141,-0.040631663132193435
2023-01-28 15:45:30.943141,-0.04137377068400379
2023-01-28 15:45:30.948141,-0.04208462875066338
2023-01-28 15:45:30.953141,-0.04264792054891569
2023-01-28 15:45:30.958141,-0.04347572035106619
2023-01-28 15:45:30.963141,-0.044787526130676214
2023-01-28 15:45:30.968141,-0.04603740845097072
2023-01-28 15:45:30.973141,-0.04671077057719233
2023-01-28 15:45:30.978141,-0.04707741902466767
2023-01-28 15:45:30.983141,-0.047552190721035004
2023-01-28 15:45:30.988141,-0.04798517728369722
2023-01-28 15:45:30.993141,-0.04820128530263901
2023-01-28 15:45:30.998141,-0.04851122013572495
2023-01-28 15:45:31.003141,-0.04899462312459949
2023-01-28 15:45:31.008141,-0.048963902883192814
2023-01-28 15:45:31.013141,-0.04784067720174776
2023-01-28 15:45:31.018141,-0.04593712380223983
2023-01-28 15:45:31.023141,-0.04375378414988516
2023-01-28 15:45:31.028141,-0.04118803229651115
2023-01-28 15:45:31.033141,-0.038032136857509516
2023-01-28 15:45:31.038141,-0.0344796924626977
2023-01-28 15:45:31.043141,-0.03045936487615101
2023-01-28 15:45:31.048141,-0.02524570150126279
2023-01-28 15:45:31.053141,-0.018535256385803184
2023-01-28 15:45:31.058141,-0.011349228382014928
2023-01-28 15:45:31.063141,-0.005288918968290014
2023-01-28 15:45:31.068141,-0.0015556494579395802
2023-01-28 15:45:31.073141,-0.0011539459228515625
2023-01-28 15:45:31.078141,-0.005023008742920126
2023-01-28 15:45:31.083141,-0.013005932793021202
2023-01-28 15:45:31.088141,-0.02328492254216087
2023-01-28 15:45:31.093141,-0.033608675003051716
2023-01-28 15:45:31.098141,-0.042641316129226184
2023-01-28 15:45:31.103141,-0.049787960946559955
2023-01-28 15:45:31.108141,-0.05472209414613682
2023-01-28 15:45:31.113141,-0.05788962170481682
2023-01-28 15:45:31.118141,-0.060611524550042956
2023-01-28 15:45:31.123141,-0.06361126899719236
2023-01-28 15:45:31.128141,-0.0656636998730211
2023-01-28 15:45:31.133141,-0.06401996314525601
2023-01-28 15:45:31.138141,-0.055483991634938036
2023-01-28 15:45:31.143141,-0.036998391151428126
2023-01-28 15:45:31.148141,-0.007024073633102925
2023-01-28 15:45:31.153141,0.031685434281826026
2023-01-28 15:45:31.158141,0.07056704260096304
2023-01-28 15:45:31.163141,0.09738823026418682
2023-01-28 15:45:31.168141,0.10069884991699392
2023-01-28 15:45:31.173141,0.07399678230285646
2023-01-28 15:45:31.178141,0.01883943105507611
2023-01-28 15:45:31.183141,-0.05385081097483625
2023-01-28 15:45:31.188141,-0.12647856655039685
2023-01-28 15:45:31.193141,-0.18155416846275302
2023-01-28 15:45:31.198141,-0.20836292170617562
2023-01-28 15:45:31.203141,-0.20545046031475045
2023-01-28 15:45:31.208141,-0.17918802538835416
2023-01-28 15:45:31.213141,-0.14061312377452861
2023-01-28 15:45:31.218141,-0.10126498486304829
2023-01-28 15:45:31.223141,-0.06890019029378883
2023-01-28 15:45:31.228141,-0.045759817248905696
2023-01-28 15:45:31.233141,-0.030483406037092247
2023-01-28 15:45:31.238141,-0.020882641305681772
2023-01-28 15:45:31.243141,-0.014857053756713867
2023-01-28 15:45:31.248141,-0.010372994369081102
2023-01-28 15:45:31.253141,-0.006130337715148907
2023-01-28 15:45:31.258141,-0.0019296249868894695
2023-01-28 15:45:31.263141,0.00230789184570303
2023-01-28 15:45:31.268141,0.007249655964931928
2023-01-28 15:45:31.273141,0.01327037811279293
2023-01-28 15:45:31.278141,0.01971429628176194
2023-01-28 15:45:31.283141,0.025843581184744797
2023-01-28 15:45:31.288141,0.03178854220764667
2023-01-28 15:45:31.293141,0.037839811295270843
2023-01-28 15:45:31.298141,0.04366277135628133
2023-01-28 15:45:31.303141,0.04906674474477758
2023-01-28 15:45:31.308141,0.054730049608341894
2023-01-28 15:45:31.313141,0.06125529855489729
2023-01-28 15:45:31.318141,0.06826793444041125
2023-01-28 15:45:31.323141,0.07531901448965074
2023-01-28 15:45:31.328141,0.08284944669457504
2023-01-28 15:45:31.333141,0.0913059711456298
2023-01-28 15:45:31.338141,0.10012408400349386
2023-01-28 15:45:31.343141,0.10859112441539762
2023-01-28 15:45:31.348141,0.11686972790907345
2023-01-28 15:45:31.353141,0.1250588893890381
2023-01-28 15:45:31.358141,0.13209513840694534
2023-01-28 15:45:31.363141,0.13686279952526087
2023-01-28 15:45:31.368141,0.13964951831684147
2023-01-28 15:45:31.373141,0.14114201068878163
2023-01-28 15:45:31.378141,0.1406950485280006
2023-01-28 15:45:31.383141,0.13719937205314636
2023-01-28 15:45:31.388141,0.13118801319466172
2023-01-28 15:45:31.393141,0.12428959459066377
2023-01-28 15:45:31.398141,0.11660860558426664
2023-01-28 15:45:31.403141,0.10630726814270008
2023-01-28 15:45:31.408141,0.09213344324480503
2023-01-28 15:45:31.413141,0.07505457103252397
2023-01-28 15:45:31.418141,0.05699663302466585
2023-01-28 15:45:31.423141,0.03913800045847896
2023-01-28 15:45:31.428141,0.021992784642385268
2023-01-28 15:45:31.433141,0.006202459335327035
2023-01-28 15:45:31.438141,-0.007543037973205457
2023-01-28 15:45:31.443141,-0.018967986106872576
2023-01-28 15:45:31.448141,-0.028130664077918463
2023-01-28 15:45:31.453141,-0.03512322902679438
2023-01-28 15:45:31.458141,-0.04005235750805394
2023-01-28 15:45:31.463141,-0.043056607246399
2023-01-28 15:45:31.468141,-0.04422515677987201
2023-01-28 15:45:31.473141,-0.043705701828002874
2023-01-28 15:45:31.478141,-0.04189169019543806
2023-01-28 15:45:31.483141,-0.03930628299713127
2023-01-28 15:45:31.488141,-0.03639373380698771
2023-01-28 15:45:31.493141,-0.033608675003051716
2023-01-28 15:45:31.498141,-0.031485456310758005
2023-01-28 15:45:31.503141,-0.030315121635794563
2023-01-28 15:45:31.508141,-0.02991240213060854
2023-01-28 15:45:31.513141,-0.029930472373962305
2023-01-28 15:45:31.518141,-0.030179112334693097
2023-01-28 15:45:31.523141,-0.030435323715209864
2023-01-28 15:45:31.528141,-0.030305337761921142
2023-01-28 15:45:31.533141,-0.029617946594953537
2023-01-28 15:45:31.538141,-0.02868671374764089
2023-01-28 15:45:31.543141,-0.02791106700897209
2023-01-28 15:45:31.548141,-0.02743008383857739
2023-01-28 15:45:31.553141,-0.027406215667724686
2023-01-28 15:45:31.558141,-0.028212169178588774
2023-01-28 15:45:31.563141,-0.029954513534903488
2023-01-28 15:45:31.568141,-0.032149996870361595
2023-01-28 15:45:31.573141,-0.03420969098806376
2023-01-28 15:45:31.578141,-0.03591849013589992
2023-01-28 15:45:31.583141,-0.03719071671366697
2023-01-28 15:45:31.588141,-0.03782959550345032
2023-01-28 15:45:31.593141,-0.037911932915449066
2023-01-28 15:45:31.598141,-0.03798583437194812
2023-01-28 15:45:31.603141,-0.03846486657857887
2023-01-28 15:45:31.608141,-0.039152272802730675
2023-01-28 15:45:31.613141,-0.039666891098022385
2023-01-28 15:45:31.618141,-0.039918202766315476
2023-01-28 15:45:31.623141,-0.03983517736196495
2023-01-28 15:45:31.628141,-0.0391080493435746
2023-01-28 15:45:31.633141,-0.037623446434736134
2023-01-28 15:45:31.638141,-0.03575133634968093
2023-01-28 15:45:31.643141,-0.033801000565290375
2023-01-28 15:45:31.648141,-0.031559238898457694
2023-01-28 15:45:31.653141,-0.028680365532636604
2023-01-28 15:45:31.658141,-0.025075956319366544
2023-01-28 15:45:31.663141,-0.020578702911734505
2023-01-28 15:45:31.668141,-0.014759932083377407
2023-01-28 15:45:31.673141,-0.007596810813993102
2023-01-28 15:45:31.678141,4.127689401229872e-06
2023-01-28 15:45:31.683141,0.006683270446956271
2023-01-28 15:45:31.688141,0.01124397489651786
2023-01-28 15:45:31.693141,0.012597243301570415
2023-01-28 15:45:31.698141,0.009808787139417366
2023-01-28 15:45:31.703141,0.0028367838822304634
2023-01-28 15:45:31.708141,-0.007092502819178662
2023-01-28 15:45:31.713141,-0.018246769905090332
2023-01-28 15:45:31.718141,-0.0292265389500324
2023-01-28 15:45:31.723141,-0.03892163559794422
2023-01-28 15:45:31.728141,-0.046385860160007494
2023-01-28 15:45:31.733141,-0.05135059356689441
2023-01-28 15:45:31.738141,-0.05443070187467246
2023-01-28 15:45:31.743141,-0.05627890676259987
2023-01-28 15:45:31.748141,-0.056708543020025634
2023-01-28 15:45:31.753141,-0.054668188095092676
2023-01-28 15:45:31.758141,-0.04831668384396647
2023-01-28 15:45:31.763141,-0.03481070324778547
2023-01-28 15:45:31.768141,-0.011170052128311852
2023-01-28 15:45:31.773141,0.023102959617972412
2023-01-28 15:45:31.778141,0.06357157057000723
2023-01-28 15:45:31.783141,0.1007779464125633
2023-01-28 15:45:31.788141,0.12253122612677622
2023-01-28 15:45:31.793141,0.11763036251068106
2023-01-28 15:45:31.798141,0.08053118453879643
2023-01-28 15:45:31.803141,0.015361905097961396
2023-01-28 15:45:31.808141,-0.0638736373339452
2023-01-28 15:45:31.813141,-0.13816098868846882
2023-01-28 15:45:31.818141,-0.1905361740420312
2023-01-28 15:45:31.823141,-0.21141251921653725
2023-01-28 15:45:31.828141,-0.20070018229537967
2023-01-28 15:45:31.833141,-0.16684135794639565
2023-01-28 15:45:31.838141,-0.12282588044971869
2023-01-28 15:45:31.843141,-0.08058389276266073
2023-01-28 15:45:31.848141,-0.047104426658558504
2023-01-28 15:45:31.853141,-0.024256905540823746
2023-01-28 15:45:31.858141,-0.010673230031331266
2023-01-28 15:45:31.863141,-0.0033416352234779652
2023-01-28 15:45:31.868141,0.0011317749582416923
2023-01-28 15:45:31.873141,0.005072554107755365
2023-01-28 15:45:31.878141,0.009164748114098984
2023-01-28 15:45:31.883141,0.013414621353149433
2023-01-28 15:45:31.888141,0.018056342697605504
2023-01-28 15:45:31.893141,0.023127000778913345
2023-01-28 15:45:31.898141,0.028011782379475523
2023-01-28 15:45:31.903141,0.0322143249213695
2023-01-28 15:45:31.908141,0.03605826567759791
2023-01-28 15:45:31.913141,0.04002749919891353
2023-01-28 15:45:31.918141,0.04405697516154682
2023-01-28 15:45:31.923141,0.04812916368246063
2023-01-28 15:45:31.928141,0.05286950585428487
2023-01-28 15:45:31.933141,0.058779120445251444
2023-01-28 15:45:31.938141,0.0655096226928919
2023-01-28 15:45:31.943141,0.07265051454305639
2023-01-28 15:45:31.948141,0.0805552725174122
2023-01-28 15:45:31.953141,0.08957505226135254
2023-01-28 15:45:31.958141,0.09917220677849997
2023-01-28 15:45:31.963141,0.10866324603557583
2023-01-28 15:45:31.968141,0.1181083471590481
2023-01-28 15:45:31.973141,0.12751102447509768
2023-01-28 15:45:31.978141,0.13591917259234346
2023-01-28 15:45:31.983141,0.14244019985198966
2023-01-28 15:45:31.988141,0.14741100152948167
2023-01-28 15:45:31.993141,0.15133520960807798
2023-01-28 15:45:31.998141,0.15339804003441165
2023-01-28 15:45:32.003141,0.15241703391075118
2023-01-28 15:45:32.008141,0.14850553862555224
2023-01-28 15:45:32.013141,0.14212767779827096
2023-01-28 15:45:32.018141,0.1322356115753323
2023-01-28 15:45:32.023141,0.1175822839140892
2023-01-28 15:45:32.028141,0.09975082987346783
2023-01-28 15:45:32.033141,0.08248309791088093
2023-01-28 15:45:32.038141,0.06742245001423544
2023-01-28 15:45:32.043141,0.052600704133510416
2023-01-28 15:45:32.048141,0.036025344296047306
2023-01-28 15:45:32.053141,0.01882374286651615
2023-01-28 15:45:32.058141,0.003506132096473398
2023-01-28 15:45:32.063141,-0.009279648773372173
2023-01-28 15:45:32.068141,-0.02052105836639606
2023-01-28 15:45:32.073141,-0.0303632020950317
2023-01-28 15:45:32.078141,-0.03769124600055674
2023-01-28 15:45:32.083141,-0.041902661323547245
2023-01-28 15:45:32.088141,-0.04362382484018343
2023-01-28 15:45:32.093141,-0.04363358020782474
2023-01-28 15:45:32.098141,-0.04221390676733925
2023-01-28 15:45:32.103141,-0.03971497341990467
2023-01-28 15:45:32.108141,-0.036824712585848275
2023-01-28 15:45:32.113141,-0.033969283103942774
2023-01-28 15:45:32.118141,-0.03106001357506983
2023-01-28 15:45:32.123141,-0.028079351410269605
2023-01-28 15:45:32.128141,-0.025465232560477336
2023-01-28 15:45:32.133141,-0.023728013038635178
2023-01-28 15:45:32.138141,-0.02303573100299773
2023-01-28 15:45:32.143141,-0.02329528331756586
2023-01-28 15:45:32.148141,-0.024298565673546175
2023-01-28 15:45:32.153141,-0.025627216324210052
2023-01-28 15:45:32.158141,-0.02668840901162419
2023-01-28 15:45:32.163141,-0.02706964872777456
2023-01-28 15:45:32.168141,-0.026787169627615525
2023-01-28 15:45:32.173141,-0.02613206766545761
2023-01-28 15:45:32.178141,-0.025388628287625805
2023-01-28 15:45:32.183141,-0.024737715721130142
2023-01-28 15:45:32.188141,-0.02428422339559817
2023-01-28 15:45:32.193141,-0.024064581841230278
2023-01-28 15:45:32.198141,-0.024073592138580673
2023-01-28 15:45:32.203141,-0.024353068321943224
2023-01-28 15:45:32.208141,-0.025038968807885757
2023-01-28 15:45:32.213141,-0.026276310905814074
2023-01-28 15:45:32.218141,-0.02807024646882443
2023-01-28 15:45:32.223141,-0.03021895885467519
2023-01-28 15:45:32.228141,-0.03238982832761501
2023-01-28 15:45:32.233141,-0.034257769584655706
2023-01-28 15:45:32.238141,-0.03558397452664311
2023-01-28 15:45:32.243141,-0.03622909635305397
2023-01-28 15:45:32.248141,-0.036187776298223846
2023-01-28 15:45:32.253141,-0.035628080368041784
2023-01-28 15:45:32.258141,-0.03480704793951785
2023-01-28 15:45:32.263141,-0.03387312218546863
2023-01-28 15:45:32.268141,-0.032750646712398974
2023-01-28 15:45:32.273141,-0.031180581077933388
2023-01-28 15:45:32.278141,-0.02877545200834506
2023-01-28 15:45:32.283141,-0.02505024336278431
2023-01-28 15:45:32.288141,-0.019593708901247113
2023-01-28 15:45:32.293141,-0.012380878441035652
2023-01-28 15:45:32.298141,-0.003949562430359417
2023-01-28 15:45:32.303141,0.0046879053115844345
2023-01-28 15:45:32.308141,0.01220653703438804
2023-01-28 15:45:32.313141,0.017116865143179873
2023-01-28 15:45:32.318141,0.01808502781159698
2023-01-28 15:45:32.323141,0.014424324035644398
2023-01-28 15:45:32.328141,0.006394172538114882
2023-01-28 15:45:32.333141,-0.004904270172119027
2023-01-28 15:45:32.338141,-0.017835288834178793
2023-01-28 15:45:32.343141,-0.030579566955566385
2023-01-28 15:45:32.348141,-0.041617339627387326
2023-01-28 15:45:32.353141,-0.05022069066762922
2023-01-28 15:45:32.358141,-0.05651804200376006
2023-01-28 15:45:32.363141,-0.061014890670776215
2023-01-28 15:45:32.368141,-0.06398819821425024
2023-01-28 15:45:32.373141,-0.0650537014007568
2023-01-28 15:45:32.378141,-0.06282017145423428
2023-01-28 15:45:32.383141,-0.05478839203715323
2023-01-28 15:45:32.388141,-0.03809198152178065
2023-01-28 15:45:32.393141,-0.011250972747802734
2023-01-28 15:45:32.398141,0.023864172630504072
2023-01-28 15:45:32.403141,0.06099085137248026
2023-01-28 15:45:32.408141,0.09008931896711059
2023-01-28 15:45:32.413141,0.09991248697042461
2023-01-28 15:45:32.418141,0.08218413159651088
2023-01-28 15:45:32.423141,0.03579636663198468
2023-01-28 15:45:32.428141,-0.031370545231171776
2023-01-28 15:45:32.433141,-0.1044080704450607
2023-01-28 15:45:32.438141,-0.16633667398476046
2023-01-28 15:45:32.443141,-0.20381569862365717
2023-01-28 15:45:32.448141,-0.21130088643846215
2023-01-28 15:45:32.453141,-0.19205987453460688
2023-01-28 15:45:32.458141,-0.15571668122151192
2023-01-28 15:45:32.463141,-0.11373579502105709
2023-01-28 15:45:32.468141,-0.07531825154258624
2023-01-28 15:45:32.473141,-0.04543662071228023
2023-01-28 15:45:32.478141,-0.025017357460988286
2023-01-28 15:45:32.483141,-0.01233279705047594
2023-01-28 15:45:32.488141,-0.004722877092167228
2023-01-28 15:45:32.493141,7.212162017814686e-05
2023-01-28 15:45:32.498141,0.0034799003556234046
2023-01-28 15:45:32.503141,0.0063947839662431534
2023-01-28 15:45:32.508141,0.009482684581986025
2023-01-28 15:45:32.513141,0.013150176033377552
2023-01-28 15:45:32.518141,0.017499736815087732
2023-01-28 15:45:32.523141,0.02247790619730938
2023-01-28 15:45:32.528141,0.02796046088469122
2023-01-28 15:45:32.533141,0.03368079662322985
2023-01-28 15:45:32.538141,0.03929671524073253
2023-01-28 15:45:32.543141,0.0446432828903198
2023-01-28 15:45:32.548141,0.04981278495263996
2023-01-28 15:45:32.553141,0.054980717599391764
2023-01-28 15:45:32.558141,0.060326246018190297
2023-01-28 15:45:32.563141,0.06613552570343006
2023-01-28 15:45:32.568141,0.07277857102088436
2023-01-28 15:45:32.573141,0.08051177114248276
2023-01-28 15:45:32.578141,0.08939675489336378
2023-01-28 15:45:32.583141,0.09933551400899876
2023-01-28 15:45:32.588141,0.10997050806797316
2023-01-28 15:45:32.593141,0.12058734893798813
2023-01-28 15:45:32.598141,0.13034603471294956
2023-01-28 15:45:32.603141,0.13861775398254383
2023-01-28 15:45:32.608141,0.14498843403167386
2023-01-28 15:45:32.613141,0.14914751052856434
2023-01-28 15:45:32.618141,0.1510895971361284
2023-01-28 15:45:32.623141,0.1512390375137328
2023-01-28 15:45:32.628141,0.149912474580326
2023-01-28 15:45:32.633141,0.14669537544250472
2023-01-28 15:45:32.638141,0.14077121966238454
2023-01-28 15:45:32.643141,0.13183832168579085
2023-01-28 15:45:32.648141,0.12026967767396435
2023-01-28 15:45:32.653141,0.10642747581005081
2023-01-28 15:45:32.658141,0.09039333989075884
2023-01-28 15:45:32.663141,0.07248222827911367
2023-01-28 15:45:32.668141,0.053497960997780605
2023-01-28 15:45:32.673141,0.03430585190653803
2023-01-28 15:45:32.678141,0.015614637404821432
2023-01-28 15:45:32.683141,-0.0016587972640990452
2023-01-28 15:45:32.688141,-0.016331633173410524
2023-01-28 15:45:32.693141,-0.027598541229963244
2023-01-28 15:45:32.698141,-0.03545372962265967
2023-01-28 15:45:32.703141,-0.04034002870321276
2023-01-28 15:45:32.708141,-0.04277380198385208
2023-01-28 15:45:32.713141,-0.043465297669172114
2023-01-28 15:45:32.718141,-0.04330294703763972
2023-01-28 15:45:32.723141,-0.042840242385864126
2023-01-28 15:45:32.728141,-0.042044504606938024
2023-01-28 15:45:32.733141,-0.0407487154006958
2023-01-28 15:45:32.738141,-0.039047354261865334
2023-01-28 15:45:32.743141,-0.03709455579519266
2023-01-28 15:45:32.748141,-0.03491814807649911
2023-01-28 15:45:32.753141,-0.032695136964321136
2023-01-28 15:45:32.758141,-0.03086578497043872
2023-01-28 15:45:32.763141,-0.029690068215131683
2023-01-28 15:45:32.768141,-0.02894544071913027
2023-01-28 15:45:32.773141,-0.028247635811567345
2023-01-28 15:45:32.778141,-0.027361846577653493
2023-01-28 15:45:32.783141,-0.026035904884338303
2023-01-28 15:45:32.788141,-0.02394182279873498
2023-01-28 15:45:32.793141,-0.021107595413923187
2023-01-28 15:45:32.798141,-0.01815049401482086
2023-01-28 15:45:32.803141,-0.01584271714091299
2023-01-28 15:45:32.808141,-0.014669321978998274
2023-01-28 15:45:32.813141,-0.01490513514727354
2023-01-28 15:45:32.818141,-0.016678293987348523
2023-01-28 15:45:32.823141,-0.019641121849417496
2023-01-28 15:45:32.828141,-0.022892181780829766
2023-01-28 15:45:32.833141,-0.025555094704031917
2023-01-28 15:45:32.838141,-0.027282707191310235
2023-01-28 15:45:32.843141,-0.028103392571210823
2023-01-28 15:45:32.848141,-0.028157561515505684
2023-01-28 15:45:32.853141,-0.027814906090497866
2023-01-28 15:45:32.858141,-0.027665017054864374
2023-01-28 15:45:32.863141,-0.028031270951032437
2023-01-28 15:45:32.868141,-0.02867438769071067
2023-01-28 15:45:32.873141,-0.02913713455200185
2023-01-28 15:45:32.878141,-0.029079081022180965
2023-01-28 15:45:32.883141,-0.028103392571210764
2023-01-28 15:45:32.888141,-0.02565847620937588
2023-01-28 15:45:32.893141,-0.021444162353873194
2023-01-28 15:45:32.898141,-0.01568047399250319
2023-01-28 15:45:32.903141,-0.008774797432124634
2023-01-28 15:45:32.908141,-0.00103225091349204
2023-01-28 15:45:32.913141,0.0070919594727456
2023-01-28 15:45:32.918141,0.014791067002964363
2023-01-28 15:45:32.923141,0.021203756332397364
2023-01-28 15:45:32.928141,0.025607573703388207
2023-01-28 15:45:32.933141,0.02714177034795291
2023-01-28 15:45:32.938141,0.024805765554953344
2023-01-28 15:45:32.943141,0.01817464828491211
2023-01-28 15:45:32.948141,0.007964652833690914
2023-01-28 15:45:32.953141,-0.004279216285794935
2023-01-28 15:45:32.958141,-0.016780097497189048
2023-01-28 15:45:32.963141,-0.027766823768615684
2023-01-28 15:45:32.968141,-0.035777807783177705
2023-01-28 15:45:32.973141,-0.04031598567962629
2023-01-28 15:45:32.978141,-0.04202649108413894
2023-01-28 15:45:32.983141,-0.04185458272695545
2023-01-28 15:45:32.988141,-0.04003758594130965
2023-01-28 15:45:32.993141,-0.03579636663198458
2023-01-28 15:45:32.998141,-0.027407787994505894
2023-01-28 15:45:33.003141,-0.012404918670654089
2023-01-28 15:45:33.008141,0.011309383540143205
2023-01-28 15:45:33.013141,0.04320085048675539
2023-01-28 15:45:33.018141,0.07827275945897849
2023-01-28 15:45:33.023141,0.10738909244537344
2023-01-28 15:45:33.028141,0.11975458333147387
2023-01-28 15:45:33.033141,0.10657171905040738
2023-01-28 15:45:33.038141,0.0650124998811568
2023-01-28 15:45:33.043141,0.0009856622200458958
2023-01-28 15:45:33.048141,-0.07158246475466745
2023-01-28 15:45:33.053141,-0.13554057478904716
2023-01-28 15:45:33.058141,-0.17679357560680037
2023-01-28 15:45:33.063141,-0.18869420886039723
2023-01-28 15:45:33.068141,-0.17321118449593897
2023-01-28 15:45:33.073141,-0.13919472694396967
2023-01-28 15:45:33.078141,-0.09836534197301074
2023-01-28 15:45:33.083141,-0.060558121651410904
2023-01-28 15:45:33.088141,-0.030862754207106442
2023-01-28 15:45:33.093141,-0.00997682474553576
2023-01-28 15:45:33.098141,0.0037946446669786457
2023-01-28 15:45:33.103141,0.013005932793021254
2023-01-28 15:45:33.108141,0.020142494042188257
2023-01-28 15:45:33.113141,0.026709040626883427
2023-01-28 15:45:33.118141,0.03295075004030004
2023-01-28 15:45:33.123141,0.03872931003570539
2023-01-28 15:45:33.128141,0.044347490135688256
2023-01-28 15:45:33.133141,0.0501966476440429
2023-01-28 15:45:33.138141,0.05619942254870886
2023-01-28 15:45:33.143141,0.06224095821380602
2023-01-28 15:45:33.148141,0.0686703075147378
2023-01-28 15:45:33.153141,0.07567962259054185
2023-01-28 15:45:33.158141,0.08264244832554961
2023-01-28 15:45:33.163141,0.08885383605957033
2023-01-28 15:45:33.168141,0.09455130144724466
2023-01-28 15:45:33.173141,0.10044138133525843
2023-01-28 15:45:33.178141,0.10671510283676824
2023-01-28 15:45:33.183141,0.1135194301605224
2023-01-28 15:45:33.188141,0.12189205793907074
2023-01-28 15:45:33.193141,0.13279995322227456
2023-01-28 15:45:33.198141,0.1452779875984418
2023-01-28 15:45:33.203141,0.15693664550781242
2023-01-28 15:45:33.208141,0.16664545119039562
2023-01-28 15:45:33.213141,0.1754719018936156
2023-01-28 15:45:33.218141,0.18449306083863182
2023-01-28 15:45:33.223141,0.19292533397674552
2023-01-28 15:45:33.228141,0.19925554068538018
2023-01-28 15:45:33.233141,0.20323872566223122
2023-01-28 15:45:33.238141,0.20569003758824217
2023-01-28 15:45:33.243141,0.2068448066711425
2023-01-28 15:45:33.248141,0.20596483470245786
2023-01-28 15:45:33.253141,0.20232519507408134
2023-01-28 15:45:33.258141,0.1956764764535099
2023-01-28 15:45:33.263141,0.18578529357910156
2023-01-28 15:45:33.268141,0.17235952848757408
2023-01-28 15:45:33.273141,0.15568654239177696
2023-01-28 15:45:33.278141,0.13690406773437344
2023-01-28 15:45:33.283141,0.11748611927032462
2023-01-28 15:45:33.288141,0.09873679551295986
2023-01-28 15:45:33.293141,0.08173783868551246
2023-01-28 15:45:33.298141,0.06729930909785713
2023-01-28 15:45:33.303141,0.05570193380117403
2023-01-28 15:45:33.308141,0.046680889361458214
2023-01-28 15:45:33.313141,0.039835177361965055
2023-01-28 15:45:33.318141,0.035000075044686
2023-01-28 15:45:33.323141,0.03223836421966555
2023-01-28 15:45:33.328141,0.031650107638660635
2023-01-28 15:45:33.333141,0.03324806690216059
2023-01-28 15:45:33.338141,0.03685324407768058
2023-01-28 15:45:33.343141,0.04197478294372553
2023-01-28 15:45:33.348141,0.04783387394117914
2023-01-28 15:45:33.353141,0.053610406816005554
2023-01-28 15:45:33.358141,0.05873811984958012
2023-01-28 15:45:33.363141,0.0630342960357667
2023-01-28 15:45:33.368141,0.06662734981329399
2023-01-28 15:45:33.373141,0.06978969275951374
2023-01-28 15:45:33.378141,0.07279225062956668
2023-01-28 15:45:33.383141,0.0758238658308982
2023-01-28 15:45:33.388141,0.07895303670642484
2023-01-28 15:45:33.393141,0.08212248980998986
2023-01-28 15:45:33.398141,0.08520386582507145
2023-01-28 15:45:33.403141,0.08808454126119615
2023-01-28 15:45:33.408141,0.0906932245806004
2023-01-28 15:45:33.413141,0.09296476840972898
2023-01-28 15:45:33.418141,0.09486358779672427
2023-01-28 15:45:33.423141,0.0964746922254563
2023-01-28 15:45:33.428141,0.09800097040242059
2023-01-28 15:45:33.433141,0.09962400048971173
2023-01-28 15:45:33.438141,0.10141343894901672
2023-01-28 15:45:33.443141,0.10337432473897937
2023-01-28 15:45:33.448141,0.10547440267125678
2023-01-28 15:45:33.453141,0.10758142173290253
2023-01-28 15:45:33.458141,0.10948656718963178
2023-01-28 15:45:33.463141,0.11106729507446281
2023-01-28 15:45:33.468141,0.11235878053533889
2023-01-28 15:45:33.473141,0.11344730854034425
2023-01-28 15:45:33.478141,0.11443307073056866
2023-01-28 15:45:33.483141,0.11556287854909893
2023-01-28 15:45:33.488141,0.11725307632630756
2023-01-28 15:45:33.493141,0.11986613273620603
2023-01-28 15:45:33.498141,0.12354073177444995
2023-01-28 15:45:33.503141,0.12828032672405246
2023-01-28 15:45:33.508141,0.13406995324197327
2023-01-28 15:45:33.513141,0.14085352420806876
2023-01-28 15:45:33.518141,0.14857122691078148
2023-01-28 15:45:33.523141,0.15729725360870356
2023-01-28 15:45:33.528141,0.16711381992695973
2023-01-28 15:45:33.533141,0.1776355504989624
2023-01-28 15:45:33.538141,0.18771833871742838
2023-01-28 15:45:33.543141,0.1957380771636961
2023-01-28 15:45:33.548141,0.20014015840218968
2023-01-28 15:45:33.553141,0.19989709556102744
2023-01-28 15:45:33.558141,0.19493602702219254
2023-01-28 15:45:33.563141,0.18645843863487238
2023-01-28 15:45:33.568141,0.17664721213702544
2023-01-28 15:45:33.573141,0.16768276691436762
2023-01-28 15:45:33.578141,0.16085718585583336
2023-01-28 15:45:33.583141,0.15643179416656494
2023-01-28 15:45:33.588141,0.1539592910221254
2023-01-28 15:45:33.593141,0.15263339877128596
2023-01-28 15:45:33.598141,0.1518215051864102
2023-01-28 15:45:33.603141,0.15186409652233115
2023-01-28 15:45:33.608141,0.15453879195142128
2023-01-28 15:45:33.613141,0.16268233954906464
2023-01-28 15:45:33.618141,0.17923376120641046
2023-01-28 15:45:33.623141,0.20600339770317055
2023-01-28 15:45:33.628141,0.24202782375009996
2023-01-28 15:45:33.633141,0.28194746375083907
2023-01-28 15:45:33.638141,0.3159496289927078
2023-01-28 15:45:33.643141,0.33236047625541676
2023-01-28 15:45:33.648141,0.32201543403675714
2023-01-28 15:45:33.653141,0.2823801934719084
2023-01-28 15:45:33.658141,0.21974736627867641
2023-01-28 15:45:33.663141,0.14837822318077087
2023-01-28 15:45:33.668141,0.08612248517267039
2023-01-28 15:45:33.673141,0.04793683812022202
2023-01-28 15:45:33.678141,0.04066868720045702
2023-01-28 15:45:33.683141,0.061784189194440876
2023-01-28 15:45:33.688141,0.10181802995599828
2023-01-28 15:45:33.693141,0.148546501994133
2023-01-28 15:45:33.698141,0.19125177781937827
2023-01-28 15:45:33.703141,0.22384147346019745
2023-01-28 15:45:33.708141,0.245499344760214
2023-01-28 15:45:33.713141,0.2587723731994628
2023-01-28 15:45:33.718141,0.26704668321227554
2023-01-28 15:45:33.723141,0.2732688188552857
2023-01-28 15:45:33.728141,0.27960809409165177
2023-01-28 15:45:33.733141,0.28704404830932595
2023-01-28 15:45:33.738141,0.2952730564149103
2023-01-28 15:45:33.743141,0.30358394980430603
2023-01-28 15:45:33.748141,0.31173187258944474
2023-01-28 15:45:33.753141,0.3196911215782165
2023-01-28 15:45:33.758141,0.3271555987431866
2023-01-28 15:45:33.763141,0.33401927351951594
2023-01-28 15:45:33.768141,0.3409424598829956
2023-01-28 15:45:33.773141,0.3486599624156951
2023-01-28 15:45:33.778141,0.3570782267380371
2023-01-28 15:45:33.783141,0.365824908018112
2023-01-28 15:45:33.788141,0.37519248238007163
2023-01-28 15:45:33.793141,0.38551411032676686
2023-01-28 15:45:33.798141,0.39608236247421025
2023-01-28 15:45:33.803141,0.4059966504573822
2023-01-28 15:45:33.808141,0.4157572030917571
2023-01-28 15:45:33.813141,0.42645514011383046
2023-01-28 15:45:33.818141,0.43749122618084046
2023-01-28 15:45:33.823141,0.44696173071861256
2023-01-28 15:45:33.828141,0.4546344850482873
2023-01-28 15:45:33.833141,0.46251595020294156
2023-01-28 15:45:33.838141,0.4715155176577998
2023-01-28 15:45:33.843141,0.4793924093246459
2023-01-28 15:45:33.848141,0.4834777281251572
2023-01-28 15:45:33.853141,0.48398417234420776
2023-01-28 15:45:33.858141,0.4828573902044386
2023-01-28 15:45:33.863141,0.4804021120071411
2023-01-28 15:45:33.868141,0.47506363912009025
2023-01-28 15:45:33.873141,0.46607396006584145
2023-01-28 15:45:33.878141,0.4543432327841916
2023-01-28 15:45:33.883141,0.4407352209091185
2023-01-28 15:45:33.888141,0.42524167195780666
2023-01-28 15:45:33.893141,0.40823242068290694
2023-01-28 15:45:33.898141,0.39105524985183043
2023-01-28 15:45:33.903141,0.37481606006622303
2023-01-28 15:45:33.908141,0.35963622386049066
2023-01-28 15:45:33.913141,0.3456068038940428
2023-01-28 15:45:33.918141,0.3335153193798585
2023-01-28 15:45:33.923141,0.324090540409088
2023-01-28 15:45:33.928141,0.31730129450538325
2023-01-28 15:45:33.933141,0.3128635883331299
2023-01-28 15:45:33.938141,0.3107134030851276
2023-01-28 15:45:33.943141,0.3105076253414153
2023-01-28 15:45:33.948141,0.3113415042318151
2023-01-28 15:45:33.953141,0.31252703070640536
2023-01-28 15:45:33.958141,0.3141965353241439
2023-01-28 15:45:33.963141,0.3167341351509094
2023-01-28 15:45:33.968141,0.32007354388617587
2023-01-28 15:45:33.973141,0.3238981962203977
2023-01-28 15:45:33.978141,0.32800211373834887
2023-01-28 15:45:33.983141,0.3320239186286925
2023-01-28 15:45:33.988141,0.33529739921200813
2023-01-28 15:45:33.993141,0.33745706081390375
2023-01-28 15:45:33.998141,0.3388848280106966
2023-01-28 15:45:34.003141,0.3401976823806762
2023-01-28 15:45:34.008141,0.34161250245818775
2023-01-28 15:45:34.013141,0.34310659766197193
2023-01-28 15:45:34.018141,0.3447832494665422
2023-01-28 15:45:34.023141,0.3466646075248718
2023-01-28 15:45:34.028141,0.3484349012187292
2023-01-28 15:45:34.033141,0.3497658371925353
2023-01-28 15:45:34.038141,0.35063026151226523
2023-01-28 15:45:34.043141,0.35099190473556496
2023-01-28 15:45:34.048141,0.3505237675913748
2023-01-28 15:45:34.053141,0.3490205705165862
2023-01-28 15:45:34.058141,0.34684285527165504
2023-01-28 15:45:34.063141,0.34462115168571456
2023-01-28 15:45:34.068141,0.3427587816972597
2023-01-28 15:45:34.073141,0.34149587154388406
2023-01-28 15:45:34.078141,0.3411232535380352
2023-01-28 15:45:34.083141,0.34173628687858565
2023-01-28 15:45:34.088141,0.34301509122132046
2023-01-28 15:45:34.093141,0.3446211516857146
2023-01-28 15:45:34.098141,0.3466303260181335
2023-01-28 15:45:34.103141,0.34928500652313216
2023-01-28 15:45:34.108141,0.3525626315561029
2023-01-28 15:45:34.113141,0.35630485415458657
2023-01-28 15:45:34.118141,0.3605159102537208
2023-01-28 15:45:34.123141,0.3651758134365082
2023-01-28 15:45:34.128141,0.36998534340644973
2023-01-28 15:45:34.133141,0.3746718168258665
2023-01-28 15:45:34.138141,0.37937200323243153
2023-01-28 15:45:34.143141,0.3843601644039153
2023-01-28 15:45:34.148141,0.3895226040896879
2023-01-28 15:45:34.153141,0.39433699846267684
2023-01-28 15:45:34.158141,0.39811210492640764
2023-01-28 15:45:34.163141,0.3999384343624113
2023-01-28 15:45:34.168141,0.39873137933622843
2023-01-28 15:45:34.173141,0.3938802182674406
2023-01-28 15:45:34.178141,0.385884093587527
2023-01-28 15:45:34.183141,0.376114249229431
2023-01-28 15:45:34.188141,0.3660608512776162
2023-01-28 15:45:34.193141,0.3569298982620238
2023-01-28 15:45:34.198141,0.34952452032084624
2023-01-28 15:45:34.203141,0.3439720571041106
2023-01-28 15:45:34.208141,0.33969953391203506
2023-01-28 15:45:34.213141,0.33618292212486245
2023-01-28 15:45:34.218141,0.3338833062997506
2023-01-28 15:45:34.223141,0.334476053714752
2023-01-28 15:45:34.228141,0.3405000164866371
2023-01-28 15:45:34.233141,0.35483837127685536
2023-01-28 15:45:34.238141,0.3795540276562154
2023-01-28 15:45:34.243141,0.41376173496246327
2023-01-28 15:45:34.248141,0.4518357361889781
2023-01-28 15:45:34.253141,0.4837437570095061
2023-01-28 15:45:34.258141,0.49774582747307605
2023-01-28 15:45:34.263141,0.484368801116943
2023-01-28 15:45:34.268141,0.4405210723519725
2023-01-28 15:45:34.273141,0.3722677826881407
2023-01-28 15:45:34.278141,0.2941453033337774
2023-01-28 15:45:34.283141,0.2242982387542725
2023-01-28 15:45:34.288141,0.1778726991699619
2023-01-28 15:45:34.293141,0.16227364540100087
2023-01-28 15:45:34.298141,0.17589116855466053
2023-01-28 15:45:34.303141,0.2098498791456222
2023-01-28 15:45:34.308141,0.2519776416994754
2023-01-28 15:45:34.313141,0.29163581132888783
2023-01-28 15:45:34.318141,0.3229055339046685
2023-01-28 15:45:34.323141,0.34452497959136963
2023-01-28 15:45:34.328141,0.3579057004592952
2023-01-28 15:45:34.333141,0.36556047201156616
2023-01-28 15:45:34.338141,0.37026271723335424
2023-01-28 15:45:34.343141,0.374094843864441
2023-01-28 15:45:34.348141,0.37785402200306617
2023-01-28 15:45:34.353141,0.3816676139831542
2023-01-28 15:45:34.358141,0.3858269623266779
2023-01-28 15:45:34.363141,0.39046645164489746
2023-01-28 15:45:34.368141,0.39498207836847593
2023-01-28 15:45:34.373141,0.39871236681938155
2023-01-28 15:45:34.378141,0.401917601203553
2023-01-28 15:45:34.383141,0.40527543425559986
2023-01-28 15:45:34.388141,0.4088515655588707
2023-01-28 15:45:34.393141,0.41255971789360046
2023-01-28 15:45:34.398141,0.4171299785212365
2023-01-28 15:45:34.403141,0.42332988977432257
2023-01-28 15:45:34.408141,0.4306000227612763
2023-01-28 15:45:34.413141,0.43792247772216797
2023-01-28 15:45:34.418141,0.44572014287961276
2023-01-28 15:45:34.423141,0.45511147379875183
2023-01-28 15:45:34.428141,0.4653940243321027
2023-01-28 15:45:34.433141,0.4744400680065154
2023-01-28 15:45:34.438141,0.48200130893730647
2023-01-28 15:45:34.443141,0.4902827739715575
2023-01-28 15:45:34.448141,0.5001359797865366
2023-01-28 15:45:34.453141,0.5088180303573607
2023-01-28 15:45:34.458141,0.5132011039594215
2023-01-28 15:45:34.463141,0.5135300159454345
2023-01-28 15:45:34.468141,0.51205854453149
2023-01-28 15:45:34.473141,0.5092748403549194
2023-01-28 15:45:34.478141,0.5037253515846387
2023-01-28 15:45:34.483141,0.49482643604278576
2023-01-28 15:45:34.488141,0.4835034000530492
2023-01-28 15:45:34.493141,0.470136821269989
2023-01-28 15:45:34.498141,0.45397245982983975
2023-01-28 15:45:34.503141,0.43496549129486073
2023-01-28 15:45:34.508141,0.4146315381721047
2023-01-28 15:45:34.513141,0.3946254849433897
2023-01-28 15:45:34.518141,0.37573391886846325
2023-01-28 15:45:34.523141,0.35858869552612294
2023-01-28 15:45:34.528141,0.3440661684724706
2023-01-28 15:45:34.533141,0.33238452672958363
2023-01-28 15:45:34.538141,0.32276408610025864
2023-01-28 15:45:34.543141,0.3145223855972289
2023-01-28 15:45:34.548141,0.30778530545752336
2023-01-28 15:45:34.553141,0.3027906119823454
2023-01-28 15:45:34.558141,0.299283089364624
2023-01-28 15:45:34.563141,0.2969728112220764
2023-01-28 15:45:34.568141,0.29585144709112676
2023-01-28 15:45:34.573141,0.2956505715847014
2023-01-28 15:45:34.578141,0.2956500946920416
2023-01-28 15:45:34.583141,0.29545825719833363
2023-01-28 15:45:34.588141,0.29546695122383676
2023-01-28 15:45:34.593141,0.2962034940719603
2023-01-28 15:45:34.598141,0.297712931980325
2023-01-28 15:45:34.603141,0.2998095750808716
2023-01-28 15:45:34.608141,0.30235402717856574
2023-01-28 15:45:34.613141,0.30495426058769215
2023-01-28 15:45:34.618141,0.30692438966869895
2023-01-28 15:45:34.623141,0.3079352974891662
2023-01-28 15:45:34.628141,0.30834816992534325
2023-01-28 15:45:34.633141,0.30865651369094826
2023-01-28 15:45:34.638141,0.3089861525015586
2023-01-28 15:45:34.643141,0.309329628944397
2023-01-28 15:45:34.648141,0.3097817762563502
2023-01-28 15:45:34.653141,0.3102431893348692
2023-01-28 15:45:34.658141,0.31029507759018643
2023-01-28 15:45:34.663141,0.30966621637344366
2023-01-28 15:45:34.668141,0.3085060000969027
2023-01-28 15:45:34.673141,0.3069977164268493
2023-01-28 15:45:34.678141,0.3050731750172967
2023-01-28 15:45:34.683141,0.30271849036216725
2023-01-28 15:45:34.688141,0.3001819587726192
2023-01-28 15:45:34.693141,0.2976459264755248
2023-01-28 15:45:34.698141,0.2950408129490887
2023-01-28 15:45:34.703141,0.29240509867668146
2023-01-28 15:45:34.708141,0.2900990015715662
2023-01-28 15:45:34.713141,0.2884624600410461
2023-01-28 15:45:34.718141,0.287593626281421
2023-01-28 15:45:34.723141,0.2876450717449189
2023-01-28 15:45:34.728141,0.2889662683955043
2023-01-28 15:45:34.733141,0.29170793294906605
2023-01-28 15:45:34.738141,0.295580978623088
2023-01-28 15:45:34.743141,0.30019423365592945
2023-01-28 15:45:34.748141,0.3053134584154482
2023-01-28 15:45:34.753141,0.31060379743576033
2023-01-28 15:45:34.758141,0.315452162286751
2023-01-28 15:45:34.763141,0.31925839185714716
2023-01-28 15:45:34.768141,0.32160859332905045
2023-01-28 15:45:34.773141,0.32199901342391973
2023-01-28 15:45:34.778141,0.3197578940951195
2023-01-28 15:45:34.783141,0.314522385597229
2023-01-28 15:45:34.788141,0.30658644024824716
2023-01-28 15:45:34.793141,0.29666027426719654
2023-01-28 15:45:34.798141,0.2855953642740057
2023-01-28 15:45:34.803141,0.2744468152523039
2023-01-28 15:45:34.808141,0.26433685201018653
2023-01-28 15:45:34.813141,0.2558875083923339
2023-01-28 15:45:34.818141,0.2489733071453754
2023-01-28 15:45:34.823141,0.2432181537151335
2023-01-28 15:45:34.828141,0.2385674764439165
2023-01-28 15:45:34.833141,0.2354530543088912
2023-01-28 15:45:34.838141,0.23502285310437301
2023-01-28 15:45:34.843141,0.2395639866590499
2023-01-28 15:45:34.848141,0.2521468283256032
2023-01-28 15:45:34.853141,0.2749035954475401
2023-01-28 15:45:34.858141,0.3068777984076094
2023-01-28 15:45:34.863141,0.3427700400352478
2023-01-28 15:45:34.868141,0.37313708691168745
2023-01-28 15:45:34.873141,0.38637956976890564
2023-01-28 15:45:34.878141,0.37278340350256345
2023-01-28 15:45:34.883141,0.3293794393539428
2023-01-28 15:45:34.888141,0.2626838168641941
2023-01-28 15:45:34.893141,0.18722772598266604
2023-01-28 15:45:34.898141,0.12063293234439398
2023-01-28 15:45:34.903141,0.07767498493194576
2023-01-28 15:45:34.908141,0.0655136532694612
2023-01-28 15:45:34.913141,0.08178591728210441
2023-01-28 15:45:34.918141,0.11663435022196264
2023-01-28 15:45:34.923141,0.1577059477567672
2023-01-28 15:45:34.928141,0.19502560280396417
2023-01-28 15:45:34.933141,0.22324046492576577
2023-01-28 15:45:34.938141,0.24137211845880846
2023-01-28 15:45:34.943141,0.2514640688896179
2023-01-28 15:45:34.948141,0.2567799411979104
2023-01-28 15:45:34.953141,0.259974420070648
2023-01-28 15:45:34.958141,0.2622838912218473
2023-01-28 15:45:34.963141,0.2641334235668181
2023-01-28 15:45:34.968141,0.26593151100023205
2023-01-28 15:45:34.973141,0.2679799199104308
2023-01-28 15:45:34.978141,0.270193884637081
2023-01-28 15:45:34.983141,0.2725235819816588
2023-01-28 15:45:34.988141,0.27535296042203516
2023-01-28 15:45:34.993141,0.27899047732353216
2023-01-28 15:45:34.998141,0.283110334314513
2023-01-28 15:45:35.003141,0.28723639249801614
2023-01-28 15:45:35.008141,0.29142350148425816
2023-01-28 15:45:35.013141,0.29586693644523604
2023-01-28 15:45:35.018141,0.3002691558597857
2023-01-28 15:45:35.023141,0.30442535877227755
2023-01-28 15:45:35.028141,0.309125364267826
2023-01-28 15:45:35.033141,0.3154359459877013
2023-01-28 15:45:35.038141,0.3231099215753587
2023-01-28 15:45:35.043141,0.33074975013732905
2023-01-28 15:45:35.048141,0.3377411634955351
2023-01-28 15:45:35.053141,0.34498175978660567
2023-01-28 15:45:35.058141,0.3532222817856333
2023-01-28 15:45:35.063141,0.3615937829017639
2023-01-28 15:45:35.068141,0.3684767067130604
2023-01-28 15:45:35.073141,0.37315726280212386
2023-01-28 15:45:35.078141,0.3758170796149371
2023-01-28 15:45:35.083141,0.37633061408996565
2023-01-28 15:45:35.088141,0.3739736462935251
2023-01-28 15:45:35.093141,0.36822897195816023
2023-01-28 15:45:35.098141,0.3591504525436787
2023-01-28 15:45:35.103141,0.34688097238540627
2023-01-28 15:45:35.108141,0.33142346959689706
2023-01-28 15:45:35.113141,0.31307995319366433
2023-01-28 15:45:35.118141,0.29270934992090164
2023-01-28 15:45:35.123141,0.27136963605880726
2023-01-28 15:45:35.128141,0.2499741140789592
2023-01-28 15:45:35.133141,0.22937080264091472
2023-01-28 15:45:35.138141,0.21039639919678793
2023-01-28 15:45:35.143141,0.19359847903251629
2023-01-28 15:45:35.148141,0.17905118290311564
2023-01-28 15:45:35.153141,0.16660094261169434
2023-01-28 15:45:35.158141,0.15619271246914
2023-01-28 15:45:35.163141,0.1478733718395233
2023-01-28 15:45:35.168141,0.14162028968319137
2023-01-28 15:45:35.173141,0.13729552924633004
2023-01-28 15:45:35.178141,0.1346776115361979
2023-01-28 15:45:35.183141,0.1334249973297118
2023-01-28 15:45:35.188141,0.13308004449997377
2023-01-28 15:45:35.193141,0.13323268294334414
2023-01-28 15:45:35.198141,0.13366629657633355
2023-01-28 15:45:35.203141,0.13426642119884497
2023-01-28 15:45:35.208141,0.1348020268838212
2023-01-28 15:45:35.213141,0.1348674297332762
2023-01-28 15:45:35.218141,0.13405681200862707
2023-01-28 15:45:35.223141,0.13219892978668213
2023-01-28 15:45:35.228141,0.12949705252746455
2023-01-28 15:45:35.233141,0.1265253722667695
2023-01-28 15:45:35.238141,0.12404295986888948
2023-01-28 15:45:35.243141,0.12263079732656476
2023-01-28 15:45:35.248141,0.12233680595001356
2023-01-28 15:45:35.253141,0.12260675430297854
2023-01-28 15:45:35.258141,0.1225794077817938
2023-01-28 15:45:35.263141,0.12152493000030512
2023-01-28 15:45:35.268141,0.11914792869464759
2023-01-28 15:45:35.273141,0.11565904319286349
2023-01-28 15:45:35.278141,0.1116574168362332
2023-01-28 15:45:35.283141,0.10786990821361543
2023-01-28 15:45:35.288141,0.10483297415719738
2023-01-28 15:45:35.293141,0.10270118713378902
2023-01-28 15:45:35.298141,0.10130509466453355
2023-01-28 15:45:35.303141,0.10034521669149384
2023-01-28 15:45:35.308141,0.09951430384406222
2023-01-28 15:45:35.313141,0.09851813316345205
2023-01-28 15:45:35.318141,0.09711244588935371
2023-01-28 15:45:35.323141,0.09517650306224815
2023-01-28 15:45:35.328141,0.09274086277332266
2023-01-28 15:45:35.333141,0.089983746409416
2023-01-28 15:45:35.338141,0.08727537739538477
2023-01-28 15:45:35.343141,0.08519967645406719
2023-01-28 15:45:35.348141,0.08440703028853422
2023-01-28 15:45:35.353141,0.0853679627180099
2023-01-28 15:45:35.358141,0.08825654696762143
2023-01-28 15:45:35.363141,0.0929888114333152
2023-01-28 15:45:35.368141,0.09922847435735704
2023-01-28 15:45:35.373141,0.10633131116628637
2023-01-28 15:45:35.378141,0.1134032077158215
2023-01-28 15:45:35.383141,0.11948148906230915
2023-01-28 15:45:35.388141,0.12364257181976411
2023-01-28 15:45:35.393141,0.1250348538160324
2023-01-28 15:45:35.398141,0.1230691973095916
2023-01-28 15:45:35.403141,0.1177505701780319
2023-01-28 15:45:35.408141,0.10979058561458371
2023-01-28 15:45:35.413141,0.1003452166914938
2023-01-28 15:45:35.418141,0.09064960467703607
2023-01-28 15:45:35.423141,0.08176188170909879
2023-01-28 15:45:35.428141,0.07432078510117282
2023-01-28 15:45:35.433141,0.06834726035594944
2023-01-28 15:45:35.438141,0.06340462747017453
2023-01-28 15:45:35.443141,0.059163771569728775
2023-01-28 15:45:35.448141,0.055937386813040404
2023-01-28 15:45:35.453141,0.054884552955627365
2023-01-28 15:45:35.458141,0.058016490819071787
2023-01-28 15:45:35.463141,0.06793856620788559
2023-01-28 15:45:35.468141,0.08682643467225805
2023-01-28 15:45:35.473141,0.11460125446319583
2023-01-28 15:45:35.478141,0.14733044281988256
2023-01-28 15:45:35.483141,0.17708262801170338
2023-01-28 15:45:35.488141,0.19363056515686516
2023-01-28 15:45:35.493141,0.18766045570373519
2023-01-28 15:45:35.498141,0.1547093802534706
2023-01-28 15:45:35.503141,0.09822964668273915
2023-01-28 15:45:35.508141,0.02966491233395528
2023-01-28 15:45:35.513141,-0.03521939367055874
2023-01-28 15:45:35.518141,-0.08195549098317474
2023-01-28 15:45:35.523141,-0.10207613557577129
2023-01-28 15:45:35.528141,-0.0952014416641544
2023-01-28 15:45:35.533141,-0.06822705268859867
2023-01-28 15:45:35.538141,-0.031963166805325335
2023-01-28 15:45:35.543141,0.0034618377685546875
2023-01-28 15:45:35.548141,0.03194796532591507
2023-01-28 15:45:35.553141,0.05180736631155009
2023-01-28 15:45:35.558141,0.0641330561767129
2023-01-28 15:45:35.563141,0.07128020375967015
2023-01-28 15:45:35.568141,0.0759480078342255
2023-01-28 15:45:35.573141,0.08007904142141331
2023-01-28 15:45:35.578141,0.08400733719792347
2023-01-28 15:45:35.583141,0.08714696019887921
2023-01-28 15:45:35.588141,0.08959922262343753
2023-01-28 15:45:35.593141,0.09241183847188936
2023-01-28 15:45:35.598141,0.09617512905672612
2023-01-28 15:45:35.603141,0.10029713809490198
2023-01-28 15:45:35.608141,0.10410763920075555
2023-01-28 15:45:35.613141,0.107845865190029
2023-01-28 15:45:35.618141,0.11192143900020445
2023-01-28 15:45:35.623141,0.11594752967357627
2023-01-28 15:45:35.628141,0.11939701158651676
2023-01-28 15:45:35.633141,0.1227509975433349
2023-01-28 15:45:35.638141,0.12705832110471657
2023-01-28 15:45:35.643141,0.13258358836174008
2023-01-28 15:45:35.648141,0.13876665933631963
2023-01-28 15:45:35.653141,0.14539718627929665
2023-01-28 15:45:35.658141,0.15291874608487852
2023-01-28 15:45:35.663141,0.16148030757904042
2023-01-28 15:45:35.668141,0.1704907981684136
2023-01-28 15:45:35.673141,0.1793183982372283
2023-01-28 15:45:35.678141,0.1877352190811864
2023-01-28 15:45:35.683141,0.19540151953697193
2023-01-28 15:45:35.688141,0.2015330532903107
2023-01-28 15:45:35.693141,0.20545046031475045
2023-01-28 15:45:35.698141,0.20701875712739717
2023-01-28 15:45:35.703141,0.20624379813671095
2023-01-28 15:45:35.708141,0.2028394207272197
2023-01-28 15:45:35.713141,0.19648334383964527
2023-01-28 15:45:35.718141,0.1871250173591345
2023-01-28 15:45:35.723141,0.1747506856918334
2023-01-28 15:45:35.728141,0.15921890068377073
2023-01-28 15:45:35.733141,0.14070928096771235
2023-01-28 15:45:35.738141,0.1201249976357545
2023-01-28 15:45:35.743141,0.09878258407115928
2023-01-28 15:45:35.748141,0.07789315166535357
2023-01-28 15:45:35.753141,0.058490633964538546
2023-01-28 15:45:35.758141,0.04147745305381921
2023-01-28 15:45:35.763141,0.02733409404754636
2023-01-28 15:45:35.768141,0.01592044860596431
2023-01-28 15:45:35.773141,0.006827513687312546
2023-01-28 15:45:35.778141,-0.000199776288705948
2023-01-28 15:45:35.783141,-0.005336999893188467
2023-01-28 15:45:35.788141,-0.00890075851562804
2023-01-28 15:45:35.793141,-0.011202892288565598
2023-01-28 15:45:35.798141,-0.012349381065655933
2023-01-28 15:45:35.803141,-0.012428959831595325
2023-01-28 15:45:35.808141,-0.011743529331238543
2023-01-28 15:45:35.813141,-0.01062591932713975
2023-01-28 15:45:35.818141,-0.009203972861089113
2023-01-28 15:45:35.823141,-0.0075968108139932156
2023-01-28 15:45:35.828141,-0.006194941594195654
2023-01-28 15:45:35.833141,-0.005481243133544884
2023-01-28 15:45:35.838141,-0.00565954046910781
2023-01-28 15:45:35.843141,-0.006635189056396371
2023-01-28 15:45:35.848141,-0.00819508555315816
2023-01-28 15:45:35.853141,-0.00997682474553586
2023-01-28 15:45:35.858141,-0.011431549568902738
2023-01-28 15:45:35.863141,-0.0121404733508825
2023-01-28 15:45:35.868141,-0.01216116289444155
2023-01-28 15:45:35.873141,-0.01190006732940669
2023-01-28 15:45:35.878141,-0.011736671902553439
2023-01-28 15:45:35.883141,-0.01192410849034771
2023-01-28 15:45:35.888141,-0.012681578470205238
2023-01-28 15:45:35.893141,-0.014111797325313053
2023-01-28 15:45:35.898141,-0.01609055631156413
2023-01-28 15:45:35.903141,-0.0184390954673291
2023-01-28 15:45:35.908141,-0.02112520297766544
2023-01-28 15:45:35.913141,-0.024112662300467394
2023-01-28 15:45:35.918141,-0.027128616576547738
2023-01-28 15:45:35.923141,-0.029810270294547022
2023-01-28 15:45:35.928141,-0.032030532074318115
2023-01-28 15:45:35.933141,-0.03392120450735098
2023-01-28 15:45:35.938141,-0.03568106864769823
2023-01-28 15:45:35.943141,-0.03752728551626196
2023-01-28 15:45:35.948141,-0.039672684842544825
2023-01-28 15:45:35.953141,-0.042070947587490026
2023-01-28 15:45:35.958141,-0.04421985076663558
2023-01-28 15:45:35.963141,-0.0454125814139843
2023-01-28 15:45:35.968141,-0.04515239073185673
2023-01-28 15:45:35.973141,-0.0432248935103416
2023-01-28 15:45:35.978141,-0.039563858125662155
2023-01-28 15:45:35.983141,-0.034329891204833915
2023-01-28 15:45:35.988141,-0.028077311174614532
2023-01-28 15:45:35.993141,-0.021660527214407872
2023-01-28 15:45:35.998141,-0.01605542495913701
2023-01-28 15:45:36.003141,-0.012404918670654116
2023-01-28 15:45:36.008141,-0.01198733811805541
2023-01-28 15:45:36.013141,-0.01569847390055647
2023-01-28 15:45:36.018141,-0.02342331995292655
2023-01-28 15:45:36.023141,-0.033993326127529026
2023-01-28 15:45:36.028141,-0.04570227704519514
2023-01-28 15:45:36.033141,-0.056855879724025726
2023-01-28 15:45:36.038141,-0.0662246397171167
2023-01-28 15:45:36.043141,-0.07349193096160875
2023-01-28 15:45:36.048141,-0.07934235286317937
2023-01-28 15:45:36.053141,-0.0848150253295898
2023-01-28 15:45:36.058141,-0.09032671831275178
2023-01-28 15:45:36.063141,-0.09508033841848365
2023-01-28 15:45:36.068141,-0.09695161288615012
2023-01-28 15:45:36.073141,-0.09267628192901603
2023-01-28 15:45:36.078141,-0.07870485601084048
2023-01-28 15:45:36.083141,-0.05308151245117176
2023-01-28 15:45:36.088141,-0.017617497322531657
2023-01-28 15:45:36.093141,0.02103547379374502
2023-01-28 15:45:36.098141,0.052202292445013586
2023-01-28 15:45:36.103141,0.06389975547790519
2023-01-28 15:45:36.108141,0.04707059244868777
2023-01-28 15:45:36.113141,4.8081081331398914e-05
2023-01-28 15:45:36.118141,-0.06922441791643152
2023-01-28 15:45:36.123141,-0.14513275027275072
2023-01-28 15:45:36.128141,-0.20978978989545316
2023-01-28 15:45:36.133141,-0.2491561621427535
2023-01-28 15:45:36.138141,-0.257391103154983
2023-01-28 15:45:36.143141,-0.23809751868247978
2023-01-28 15:45:36.148141,-0.20196643767539038
2023-01-28 15:45:36.153141,-0.1617207229137419
2023-01-28 15:45:36.158141,-0.12712320238578217
2023-01-28 15:45:36.163141,-0.10274927318096155
2023-01-28 15:45:36.168141,-0.08862928188642145
2023-01-28 15:45:36.173141,-0.08193016052246085
2023-01-28 15:45:36.178141,-0.07866130074629256
2023-01-28 15:45:36.183141,-0.07555942237377156
2023-01-28 15:45:36.188141,-0.07150828167623319
2023-01-28 15:45:36.193141,-0.06714522838592518
2023-01-28 15:45:36.198141,-0.06305685475419069
2023-01-28 15:45:36.203141,-0.05882720276713373
2023-01-28 15:45:36.208141,-0.053889464327903924
2023-01-28 15:45:36.213141,-0.048489771783351794
2023-01-28 15:45:36.218141,-0.04325176591903357
2023-01-28 15:45:36.223141,-0.038272541016340235
2023-01-28 15:45:36.228141,-0.03324480274283489
2023-01-28 15:45:36.233141,-0.028175514191388987
2023-01-28 15:45:36.238141,-0.023375395794780453
2023-01-28 15:45:36.243141,-0.018823742866516075
2023-01-28 15:45:36.248141,-0.014027468059110182
2023-01-28 15:45:36.253141,-0.008510351181030178
2023-01-28 15:45:36.258141,-0.002093955057476099
2023-01-28 15:45:36.263141,0.005264878273010197
2023-01-28 15:45:36.268141,0.013540836391720006
2023-01-28 15:45:36.273141,0.022477906197309418
2023-01-28 15:45:36.278141,0.031617604291710996
2023-01-28 15:45:36.283141,0.04055639356374735
2023-01-28 15:45:36.288141,0.04901762994787265
2023-01-28 15:45:36.293141,0.05668759346008306
2023-01-28 15:45:36.298141,0.06317963232040913
2023-01-28 15:45:36.303141,0.06817897409200654
2023-01-28 15:45:36.308141,0.07145829165698481
2023-01-28 15:45:36.313141,0.07272263616323468
2023-01-28 15:45:36.318141,0.07155721004480682
2023-01-28 15:45:36.323141,0.0675298795104026
2023-01-28 15:45:36.328141,0.0602547807025459
2023-01-28 15:45:36.333141,0.04942735284566866
2023-01-28 15:45:36.338141,0.035008820027151166
2023-01-28 15:45:36.343141,0.01747747324407098
2023-01-28 15:45:36.348141,-0.0021362793258044425
2023-01-28 15:45:36.353141,-0.022477906197309227
2023-01-28 15:45:36.358141,-0.042167749000149704
2023-01-28 15:45:36.363141,-0.060077309608459264
2023-01-28 15:45:36.368141,-0.07557930069525984
2023-01-28 15:45:36.373141,-0.08863747119903549
2023-01-28 15:45:36.378141,-0.09961158314247258
2023-01-28 15:45:36.383141,-0.10892768949270239
2023-01-28 15:45:36.388141,-0.11686870415672268
2023-01-28 15:45:36.393141,-0.12352029979228969
2023-01-28 15:45:36.398141,-0.12877806550261933
2023-01-28 15:45:36.403141,-0.13243934512138347
2023-01-28 15:45:36.408141,-0.13440705644966708
2023-01-28 15:45:36.413141,-0.13484339416027055
2023-01-28 15:45:36.418141,-0.13411838760815625
2023-01-28 15:45:36.423141,-0.13265570998191828
2023-01-28 15:45:36.428141,-0.1308526724636898
2023-01-28 15:45:36.433141,-0.1290496289730072
2023-01-28 15:45:36.438141,-0.12745441419739015
2023-01-28 15:45:36.443141,-0.12609264254569993
2023-01-28 15:45:36.448141,-0.1248842321982031
2023-01-28 15:45:36.453141,-0.12376070022582997
2023-01-28 15:45:36.458141,-0.12269584175234323
2023-01-28 15:45:36.463141,-0.12169321626424766
2023-01-28 15:45:36.468141,-0.12081349630784799
2023-01-28 15:45:36.473141,-0.12017866224050514
2023-01-28 15:45:36.478141,-0.1198867791484039
2023-01-28 15:45:36.483141,-0.11993825435638404
2023-01-28 15:45:36.488141,-0.12027526982897804
2023-01-28 15:45:36.493141,-0.12085179984569529
2023-01-28 15:45:36.498141,-0.1216291689856326
2023-01-28 15:45:36.503141,-0.12255867570638643
2023-01-28 15:45:36.508141,-0.12362850224346794
2023-01-28 15:45:36.513141,-0.12489061057567583
2023-01-28 15:45:36.518141,-0.12638207038353202
2023-01-28 15:45:36.523141,-0.12803992629051195
2023-01-28 15:45:36.528141,-0.12973366663923638
2023-01-28 15:45:36.533141,-0.13135752081871022
2023-01-28 15:45:36.538141,-0.1328685258335607
2023-01-28 15:45:36.543141,-0.13429045677185042
2023-01-28 15:45:36.548141,-0.13573164748905187
2023-01-28 15:45:36.553141,-0.1373436152935029
2023-01-28 15:45:36.558141,-0.1391703531164909
2023-01-28 15:45:36.563141,-0.14102181792259208
2023-01-28 15:45:36.568141,-0.142514372382528
2023-01-28 15:45:36.573141,-0.14320950210094444
2023-01-28 15:45:36.578141,-0.14270452533908243
2023-01-28 15:45:36.583141,-0.14068524539470662
2023-01-28 15:45:36.588141,-0.1370145707884384
2023-01-28 15:45:36.593141,-0.1317902505397796
2023-01-28 15:45:36.598141,-0.1252750761398337
2023-01-28 15:45:36.603141,-0.11779864877462372
2023-01-28 15:45:36.608141,-0.10980254146105413
2023-01-28 15:45:36.613141,-0.10197997093200674
2023-01-28 15:45:36.618141,-0.09530161442431792
2023-01-28 15:45:36.623141,-0.0908732414245605
2023-01-28 15:45:36.628141,-0.08973910297372115
2023-01-28 15:45:36.633141,-0.09265224635601034
2023-01-28 15:45:36.638141,-0.09974981374714059
2023-01-28 15:45:36.643141,-0.11027395725250239
2023-01-28 15:45:36.648141,-0.12264746084086393
2023-01-28 15:45:36.653141,-0.1349636018276213
2023-01-28 15:45:36.658141,-0.1455793120697118
2023-01-28 15:45:36.663141,-0.1535228937864302
2023-01-28 15:45:36.668141,-0.15868129718774796
2023-01-28 15:45:36.673141,-0.16172072291374195
2023-01-28 15:45:36.678141,-0.16355637641809406
2023-01-28 15:45:36.683141,-0.16443729400634755
2023-01-28 15:45:36.688141,-0.1631775497040283
2023-01-28 15:45:36.693141,-0.15708088874816883
2023-01-28 15:45:36.698141,-0.14270342396424787
2023-01-28 15:45:36.703141,-0.11738996207714078
2023-01-28 15:45:36.708141,-0.08141237775592727
2023-01-28 15:45:36.713141,-0.039907298982143354
2023-01-28 15:45:36.718141,-0.00307973534708456
2023-01-28 15:45:36.723141,0.016371607780456522
2023-01-28 15:45:36.728141,0.007903594967552607
2023-01-28 15:45:36.733141,-0.032214324921369455
2023-01-28 15:45:36.738141,-0.09829001738978295
2023-01-28 15:45:36.743141,-0.17597675323486323
2023-01-28 15:45:36.748141,-0.24673473321547673
2023-01-28 15:45:36.753141,-0.29449662566184986
2023-01-28 15:45:36.758141,-0.31123102910393907
2023-01-28 15:45:36.763141,-0.29853543639183033
2023-01-28 15:45:36.768141,-0.2652478542332098
2023-01-28 15:45:36.773141,-0.2232645004987715
2023-01-28 15:45:36.778141,-0.18340114519140696
2023-01-28 15:45:36.783141,-0.15222470462322224
2023-01-28 15:45:36.788141,-0.13103392312444517
2023-01-28 15:45:36.793141,-0.11770248413085938
2023-01-28 15:45:36.798141,-0.10965935153885494
2023-01-28 15:45:36.803141,-0.10510524362325664
2023-01-28 15:45:36.808141,-0.10223300209043919
2023-01-28 15:45:36.813141,-0.09902298450469965
2023-01-28 15:45:36.818141,-0.09456311648520792
2023-01-28 15:45:36.823141,-0.08959909528493881
2023-01-28 15:45:36.828141,-0.084984117143576
2023-01-28 15:45:36.833141,-0.08034348487853993
2023-01-28 15:45:36.838141,-0.07503319549460455
2023-01-28 15:45:36.843141,-0.06952524185180652
2023-01-28 15:45:36.848141,-0.06466473551432676
2023-01-28 15:45:36.853141,-0.060125391930341596
2023-01-28 15:45:36.858141,-0.05489597360016978
2023-01-28 15:45:36.863141,-0.048994623124599436
2023-01-28 15:45:36.868141,-0.04334858091507681
2023-01-28 15:45:36.873141,-0.03798405453562731
2023-01-28 15:45:36.878141,-0.031627464309620636
2023-01-28 15:45:36.883141,-0.023343365639448204
2023-01-28 15:45:36.888141,-0.013469953183908047
2023-01-28 15:45:36.893141,-0.0026684999465941433
2023-01-28 15:45:36.898141,0.00882978695641152
2023-01-28 15:45:36.903141,0.02055466175079337
2023-01-28 15:45:36.908141,0.031365114542167
2023-01-28 15:45:36.913141,0.04034002870321272
2023-01-28 15:45:36.918141,0.04744739972858584
2023-01-28 15:45:36.923141,0.052865147590637186
2023-01-28 15:45:36.928141,0.05631644348880711
2023-01-28 15:45:36.933141,0.057553052902221555
2023-01-28 15:45:36.938141,0.05681615954513163
2023-01-28 15:45:36.943141,0.05423545837402345
2023-01-28 15:45:36.948141,0.049286125315020586
2023-01-28 15:45:36.953141,0.04134973138570773
2023-01-28 15:45:36.958141,0.03035874494526009
2023-01-28 15:45:36.963141,0.016491811722516955
2023-01-28 15:45:36.968141,-0.00018391671928884534
2023-01-28 15:45:36.973141,-0.019208392128348274
2023-01-28 15:45:36.978141,-0.039296675195241125
2023-01-28 15:45:36.983141,-0.05892336368560774
2023-01-28 15:45:36.988141,-0.07702619037999088
2023-01-28 15:45:36.993141,-0.09284456819295873
2023-01-28 15:45:36.998141,-0.10565251947087521
2023-01-28 15:45:37.003141,-0.11522631347179402
2023-01-28 15:45:37.008141,-0.12220332661227241
2023-01-28 15:45:37.013141,-0.1274629533290862
2023-01-28 15:45:37.018141,-0.1314135755370069
2023-01-28 15:45:37.023141,-0.13419429957866658
2023-01-28 15:45:37.028141,-0.1360892829960013
2023-01-28 15:45:37.033141,-0.13724744319915766
2023-01-28 15:45:37.038141,-0.13738232922834254
2023-01-28 15:45:37.043141,-0.13626179099082936
2023-01-28 15:45:37.048141,-0.13420898547277282
2023-01-28 15:45:37.053141,-0.13171812891960133
2023-01-28 15:45:37.058141,-0.1289226762747792
2023-01-28 15:45:37.063141,-0.12585222721099845
2023-01-28 15:45:37.068141,-0.12283474082973558
2023-01-28 15:45:37.073141,-0.12017866224050522
2023-01-28 15:45:37.078141,-0.11778427364185495
2023-01-28 15:45:37.083141,-0.11551479995250694
2023-01-28 15:45:37.088141,-0.11363644447280198
2023-01-28 15:45:37.093141,-0.1124616488814352
2023-01-28 15:45:37.098141,-0.11187309571258224
2023-01-28 15:45:37.103141,-0.11162023246288291
2023-01-28 15:45:37.108141,-0.11176115020255883
2023-01-28 15:45:37.113141,-0.11238952726125703
2023-01-28 15:45:37.118141,-0.11326210575660801
2023-01-28 15:45:37.123141,-0.1141444891691207
2023-01-28 15:45:37.128141,-0.11521284665982959
2023-01-28 15:45:37.133141,-0.11666874587535839
2023-01-28 15:45:37.138141,-0.11825083986665282
2023-01-28 15:45:37.143141,-0.11955361068248734
2023-01-28 15:45:37.148141,-0.12053795989215743
2023-01-28 15:45:37.153141,-0.12133260816335667
2023-01-28 15:45:37.158141,-0.12187284671449675
2023-01-28 15:45:37.163141,-0.12217402458190904
2023-01-28 15:45:37.168141,-0.12262492705089069
2023-01-28 15:45:37.173141,-0.12352029979228962
2023-01-28 15:45:37.178141,-0.1245468867769867
2023-01-28 15:45:37.183141,-0.1251310110092162
2023-01-28 15:45:37.188141,-0.1250127137244771
2023-01-28 15:45:37.193141,-0.124121308326721
2023-01-28 15:45:37.198141,-0.12227847067943516
2023-01-28 15:45:37.203141,-0.11950552463531497
2023-01-28 15:45:37.208141,-0.11629804342385118
2023-01-28 15:45:37.213141,-0.11308670043945318
2023-01-28 15:45:37.218141,-0.10963933777732783
2023-01-28 15:45:37.223141,-0.1053696870803833
2023-01-28 15:45:37.228141,-0.09995258340969938
2023-01-28 15:45:37.233141,-0.09332537651062017
2023-01-28 15:45:37.238141,-0.08557797397912482
2023-01-28 15:45:37.243141,-0.07743458449840537
2023-01-28 15:45:37.248141,-0.07057216144096327
2023-01-28 15:45:37.253141,-0.0669048279523849
2023-01-28 15:45:37.258141,-0.06759897556053511
2023-01-28 15:45:37.263141,-0.07289092242717735
2023-01-28 15:45:37.268141,-0.0822724124898463
2023-01-28 15:45:37.273141,-0.09431104362010952
2023-01-28 15:45:37.278141,-0.10673185464512694
2023-01-28 15:45:37.283141,-0.11741399765014639
2023-01-28 15:45:37.288141,-0.12534487772846978
2023-01-28 15:45:37.293141,-0.13046801090240473
2023-01-28 15:45:37.298141,-0.13308730910369668
2023-01-28 15:45:37.303141,-0.13378560543060294
2023-01-28 15:45:37.308141,-0.1332512911685029
2023-01-28 15:45:37.313141,-0.13126134872436518
2023-01-28 15:45:37.318141,-0.12581567108497685
2023-01-28 15:45:37.323141,-0.11373579502105709
2023-01-28 15:45:37.328141,-0.09230639412971438
2023-01-28 15:45:37.333141,-0.060894690454006105
2023-01-28 15:45:37.338141,-0.022502034092845527
2023-01-28 15:45:37.343141,0.015025338158011417
2023-01-28 15:45:37.348141,0.03989695677576556
2023-01-28 15:45:37.353141,0.04046022891998293
2023-01-28 15:45:37.358141,0.010518924053769875
2023-01-28 15:45:37.363141,-0.047287743538618
2023-01-28 15:45:37.368141,-0.121444191378974
2023-01-28 15:45:37.373141,-0.19463221728801708
2023-01-28 15:45:37.378141,-0.24935848990194778
2023-01-28 15:45:37.383141,-0.2743506431579587
2023-01-28 15:45:37.388141,-0.268282344508966
2023-01-28 15:45:37.393141,-0.2386504411697387
2023-01-28 15:45:37.398141,-0.19732571510610136
2023-01-28 15:45:37.403141,-0.1559029072523116
2023-01-28 15:45:37.408141,-0.12240862064639156
2023-01-28 15:45:37.413141,-0.09969612210988985
2023-01-28 15:45:37.418141,-0.08607914567295617
2023-01-28 15:45:37.423141,-0.07791539281606663
2023-01-28 15:45:37.428141,-0.07207001800228403
2023-01-28 15:45:37.433141,-0.06664037704467768
2023-01-28 15:45:37.438141,-0.06067939437142699
2023-01-28 15:45:37.443141,-0.05413929745554924
2023-01-28 15:45:37.448141,-0.04769759729826785
2023-01-28 15:45:37.453141,-0.04199882596731183
2023-01-28 15:45:37.458141,-0.03720681966802912
2023-01-28 15:45:37.463141,-0.03339231014251688
2023-01-28 15:45:37.468141,-0.030664724717085912
2023-01-28 15:45:37.473141,-0.028536122292280083
2023-01-28 15:45:37.478141,-0.025856109004620254
2023-01-28 15:45:37.483141,-0.021876892074942523
2023-01-28 15:45:37.488141,-0.01677109302621419
2023-01-28 15:45:37.493141,-0.01072208117693657
2023-01-28 15:45:37.498141,-0.003343176722413612
2023-01-28 15:45:37.503141,0.005433162208646583
2023-01-28 15:45:37.508141,0.01474563307771161
2023-01-28 15:45:37.513141,0.023824175819754705
2023-01-28 15:45:37.518141,0.03291820786343165
2023-01-28 15:45:37.523141,0.04252771660685525
2023-01-28 15:45:37.528141,0.052433599919645905
2023-01-28 15:45:37.533141,0.06216883659362789
2023-01-28 15:45:37.538141,0.07163726659985105
2023-01-28 15:45:37.543141,0.08043964952230458
2023-01-28 15:45:37.548141,0.0873350371144124
2023-01-28 15:45:37.553141,0.09128193557262416
2023-01-28 15:45:37.558141,0.09244000283444821
2023-01-28 15:45:37.563141,0.09140213578939434
2023-01-28 15:45:37.568141,0.08812143032520259
2023-01-28 15:45:37.573141,0.08233885467052443
2023-01-28 15:45:37.578141,0.07426481365400671
2023-01-28 15:45:37.583141,0.06394784152507779
2023-01-28 15:45:37.588141,0.05073617440911632
2023-01-28 15:45:37.593141,0.03435393422842026
2023-01-28 15:45:37.598141,0.01590879296623768
2023-01-28 15:45:37.603141,-0.0030050675850361963
2023-01-28 15:45:37.608141,-0.021531631303209585
2023-01-28 15:45:37.613141,-0.039138000458478886
2023-01-28 15:45:37.618141,-0.05490720864029541
2023-01-28 15:45:37.623141,-0.06827513873577101
2023-01-28 15:45:37.628141,-0.07970340122962198
2023-01-28 15:45:37.633141,-0.08959909528493873
2023-01-28 15:45:37.638141,-0.09727560829655882
2023-01-28 15:45:37.643141,-0.10193189233541478
2023-01-28 15:45:37.648141,-0.10388924370334653
2023-01-28 15:45:37.653141,-0.1039272546768188
2023-01-28 15:45:37.658141,-0.10229239644840211
2023-01-28 15:45:37.663141,-0.0994076356291769
2023-01-28 15:45:37.668141,-0.09661975708567054
2023-01-28 15:45:37.673141,-0.09500821679830537
2023-01-28 15:45:37.678141,-0.09417543420492247
2023-01-28 15:45:37.683141,-0.0932532548904417
2023-01-28 15:45:37.688141,-0.09223377227075563
2023-01-28 15:45:37.693141,-0.09125789254903793
2023-01-28 15:45:37.698141,-0.08965423714615849
2023-01-28 15:45:37.703141,-0.0870027169585227
2023-01-28 15:45:37.708141,-0.08425540347358136
2023-01-28 15:45:37.713141,-0.08253117650747291
2023-01-28 15:45:37.718141,-0.08167670210014039
2023-01-28 15:45:37.723141,-0.0811849087476729
2023-01-28 15:45:37.728141,-0.08144002478555513
2023-01-28 15:45:37.733141,-0.08269946277141568
2023-01-28 15:45:37.738141,-0.0839457414721633
2023-01-28 15:45:37.743141,-0.08423805236816385
2023-01-28 15:45:37.748141,-0.08420646243860962
2023-01-28 15:45:37.753141,-0.08479098975658408
2023-01-28 15:45:37.758141,-0.08559919642856505
2023-01-28 15:45:37.763141,-0.08596897125244136
2023-01-28 15:45:37.768141,-0.08642601995504452
2023-01-28 15:45:37.773141,-0.08745948970317848
2023-01-28 15:45:37.778141,-0.08808099834800727
2023-01-28 15:45:37.783141,-0.08733928203582748
2023-01-28 15:45:37.788141,-0.08609171795025024
2023-01-28 15:45:37.793141,-0.08556028455495823
2023-01-28 15:45:37.798141,-0.08540734923746152
2023-01-28 15:45:37.803141,-0.0850073546171188
2023-01-28 15:45:37.808141,-0.085171081776438
2023-01-28 15:45:37.813141,-0.08659403026103973
2023-01-28 15:45:37.818141,-0.0880024647064572
2023-01-28 15:45:37.823141,-0.08794029802083958
2023-01-28 15:45:37.828141,-0.08698215403946706
2023-01-28 15:45:37.833141,-0.0860651358962059
2023-01-28 15:45:37.838141,-0.0842369105404719
2023-01-28 15:45:37.843141,-0.08039157092571254
2023-01-28 15:45:37.848141,-0.07556735801269948
2023-01-28 15:45:37.853141,-0.07101576030254365
2023-01-28 15:45:37.858141,-0.06575853706180897
2023-01-28 15:45:37.863141,-0.05880316346883762
2023-01-28 15:45:37.868141,-0.051996639806645935
2023-01-28 15:45:37.873141,-0.04779259487986568
2023-01-28 15:45:37.878141,-0.04608225926546631
2023-01-28 15:45:37.883141,-0.04625400155782688
2023-01-28 15:45:37.888141,-0.050103146241180715
2023-01-28 15:45:37.893141,-0.059019528329372406
2023-01-28 15:45:37.898141,-0.07039088690776943
2023-01-28 15:45:37.903141,-0.08068005740642528
2023-01-28 15:45:37.908141,-0.08990015851894016
2023-01-28 15:45:37.913141,-0.09902298450469965
2023-01-28 15:45:37.918141,-0.10574390862710406
2023-01-28 15:45:37.923141,-0.10784586519002903
2023-01-28 15:45:37.928141,-0.10805129103047287
2023-01-28 15:45:37.933141,-0.10969698429107662
2023-01-28 15:45:37.938141,-0.11003774973808379
2023-01-28 15:45:37.943141,-0.1040474623441695
2023-01-28 15:45:37.948141,-0.09189208662008337
2023-01-28 15:45:37.953141,-0.07522284984588615
2023-01-28 15:45:37.958141,-0.04983572678290253
2023-01-28 15:45:37.963141,-0.012813608162104941
2023-01-28 15:45:37.968141,0.024572968154959643
2023-01-28 15:45:37.973141,0.04346529766917213
2023-01-28 15:45:37.978141,0.03788720991772934
2023-01-28 15:45:37.983141,0.016131203621625918
2023-01-28 15:45:37.988141,-0.019704102167105806
2023-01-28 15:45:37.993141,-0.07885297387838347
2023-01-28 15:45:37.998141,-0.15822027702757283
2023-01-28 15:45:38.003141,-0.22852937877178175
2023-01-28 15:45:38.008141,-0.25866500675001025
2023-01-28 15:45:38.013141,-0.24646362662315346
2023-01-28 15:45:38.018141,-0.21335049761997113
2023-01-28 15:45:38.023141,-0.17583250999450664
2023-01-28 15:45:38.028141,-0.13659456686527047
2023-01-28 15:45:38.033141,-0.098806619644165
2023-01-28 15:45:38.038141,-0.0716304479346356
2023-01-28 15:45:38.043141,-0.058490633964538345
2023-01-28 15:45:38.048141,-0.05218433816737152
2023-01-28 15:45:38.053141,-0.04594147205352783
2023-01-28 15:45:38.058141,-0.04072261761501428
2023-01-28 15:45:38.063141,-0.03848890587687482
2023-01-28 15:45:38.068141,-0.036486500196517606
2023-01-28 15:45:38.073141,-0.03221432492136938
2023-01-28 15:45:38.078141,-0.027559039397613873
2023-01-28 15:45:38.083141,-0.02413670346140857
2023-01-28 15:45:38.088141,-0.019731923365348313
2023-01-28 15:45:38.093141,-0.01264532469213004
2023-01-28 15:45:38.098141,-0.004970442272317114
2023-01-28 15:45:38.103141,0.0014183919411152506
2023-01-28 15:45:38.108141,0.008008404208699593
2023-01-28 15:45:38.113141,0.01613120362162588
2023-01-28 15:45:38.118141,0.024178587632297875
2023-01-28 15:45:38.123141,0.030892094597220438
2023-01-28 15:45:38.128141,0.037911134887564146
2023-01-28 15:45:38.133141,0.04661460965871802
2023-01-28 15:45:38.138141,0.05563693418494106
2023-01-28 15:45:38.143141,0.06377955526113514
2023-01-28 15:45:38.148141,0.07236045223855478
2023-01-28 15:45:38.153141,0.08248309791088099
2023-01-28 15:45:38.158141,0.09275731740973046
2023-01-28 15:45:38.163141,0.10176360607147208
2023-01-28 15:45:38.168141,0.1101204640667187
2023-01-28 15:45:38.173141,0.11815925687551478
2023-01-28 15:45:38.178141,0.12410833702753218
2023-01-28 15:45:38.183141,0.12654940783977492
2023-01-28 15:45:38.188141,0.1263684589514586
2023-01-28 15:45:38.193141,0.12448191642761225
2023-01-28 15:45:38.198141,0.11986821623120374
2023-01-28 15:45:38.203141,0.11157214641571034
2023-01-28 15:45:38.208141,0.1005018648062734
2023-01-28 15:45:38.213141,0.08757968991994837
2023-01-28 15:45:38.218141,0.07221276317736898
2023-01-28 15:45:38.223141,0.05425950139760972
2023-01-28 15:45:38.228141,0.03554176372245881
2023-01-28 15:45:38.233141,0.017790000885724962
2023-01-28 15:45:38.238141,0.0009038223667634402
2023-01-28 15:45:38.243141,-0.01531382463872426
2023-01-28 15:45:38.248141,-0.029583698621987196
2023-01-28 15:45:38.253141,-0.04079679772257805
2023-01-28 15:45:38.258141,-0.04946603633332625
2023-01-28 15:45:38.263141,-0.05613466352224337
2023-01-28 15:45:38.268141,-0.060091537898227576
2023-01-28 15:45:38.273141,-0.061087012290954514
2023-01-28 15:45:38.278141,-0.06065291498619028
2023-01-28 15:45:38.283141,-0.06029367446899411
2023-01-28 15:45:38.288141,-0.05986222799361167
2023-01-28 15:45:38.293141,-0.058923363685607966
2023-01-28 15:45:38.298141,-0.05806245654851301
2023-01-28 15:45:38.303141,-0.05752901360392572
2023-01-28 15:45:38.308141,-0.05618537425555595
2023-01-28 15:45:38.313141,-0.05320171639323229
2023-01-28 15:45:38.318141,-0.04942944093426905
2023-01-28 15:45:38.323141,-0.045917432755231725
2023-01-28 15:45:38.328141,-0.0425111579521394
2023-01-28 15:45:38.333141,-0.03906587883830069
2023-01-28 15:45:38.338141,-0.03651457376237739
2023-01-28 15:45:38.343141,-0.03543575853109345
2023-01-28 15:45:38.348141,-0.034912675962633775
2023-01-28 15:45:38.353141,-0.034017365425825126
2023-01-28 15:45:38.358141,-0.03313234778257576
2023-01-28 15:45:38.363141,-0.032719176262617077
2023-01-28 15:45:38.368141,-0.03217264162585532
2023-01-28 15:45:38.373141,-0.031060378998518018
2023-01-28 15:45:38.378141,-0.030165038704820082
2023-01-28 15:45:38.383141,-0.030122797936200887
2023-01-28 15:45:38.388141,-0.03027372428609874
2023-01-28 15:45:38.393141,-0.02995451353490344
2023-01-28 15:45:38.398141,-0.02966960272197583
2023-01-28 15:45:38.403141,-0.029906433075666365
2023-01-28 15:45:38.408141,-0.030068569988577588
2023-01-28 15:45:38.413141,-0.029690068215131767
2023-01-28 15:45:38.418141,-0.02947390590723606
2023-01-28 15:45:38.423141,-0.030026635155081687
2023-01-28 15:45:38.428141,-0.0307471141967098
2023-01-28 15:45:38.433141,-0.03101229667663576
2023-01-28 15:45:38.438141,-0.03125440301372081
2023-01-28 15:45:38.443141,-0.031805634498596115
2023-01-28 15:45:38.448141,-0.03186964256841043
2023-01-28 15:45:38.453141,-0.03069977089762684
2023-01-28 15:45:38.458141,-0.028631990275488746
2023-01-28 15:45:38.463141,-0.02591570280492296
2023-01-28 15:45:38.468141,-0.02171017495392622
2023-01-28 15:45:38.473141,-0.015337864868342828
2023-01-28 15:45:38.478141,-0.007467174217606573
2023-01-28 15:45:38.483141,0.000889500021003073
2023-01-28 15:45:38.488141,0.009341947508945585
2023-01-28 15:45:38.493141,0.01706878468394269
2023-01-28 15:45:38.498141,0.02205522285916956
2023-01-28 15:45:38.503141,0.02262214943766594
2023-01-28 15:45:38.508141,0.018842754875083387
2023-01-28 15:45:38.513141,0.011635622009634767
2023-01-28 15:45:38.518141,0.0016865664597841908
2023-01-28 15:45:38.523141,-0.009760459885001098
2023-01-28 15:45:38.528141,-0.020406448064448062
2023-01-28 15:45:38.533141,-0.02856016159057615
2023-01-28 15:45:38.538141,-0.034467551709020106
2023-01-28 15:45:38.543141,-0.039089918136596555
2023-01-28 15:45:38.548141,-0.04264232424533832
2023-01-28 15:45:38.553141,-0.045172177255153614
2023-01-28 15:45:38.558141,-0.04707405090379441
2023-01-28 15:45:38.563141,-0.04752814769744863
2023-01-28 15:45:38.568141,-0.043333986089500245
2023-01-28 15:45:38.573141,-0.030627649277448706
2023-01-28 15:45:38.578141,-0.007405798788388836
2023-01-28 15:45:38.583141,0.02562721632421004
2023-01-28 15:45:38.588141,0.0644634638843904
2023-01-28 15:45:38.593141,0.10034521669149385
2023-01-28 15:45:38.598141,0.1206237167569271
2023-01-28 15:45:38.603141,0.11409640312194809
2023-01-28 15:45:38.608141,0.07698024899414997
2023-01-28 15:45:38.613141,0.014736851677298385
2023-01-28 15:45:38.618141,-0.05976982034463118
2023-01-28 15:45:38.623141,-0.1293621510267256
2023-01-28 15:45:38.628141,-0.17745656738848148
2023-01-28 15:45:38.633141,-0.1947283744812011
2023-01-28 15:45:38.638141,-0.18277950333048038
2023-01-28 15:45:38.643141,-0.1510707587003707
2023-01-28 15:45:38.648141,-0.11074798604669331
2023-01-28 15:45:38.653141,-0.07123212516307838
2023-01-28 15:45:38.658141,-0.03948215254794099
2023-01-28 15:45:38.663141,-0.018583338707685356
2023-01-28 15:45:38.668141,-0.006558638427427572
2023-01-28 15:45:38.673141,0.0013462703209369995
2023-01-28 15:45:38.678141,0.008421275870876295
2023-01-28 15:45:38.683141,0.015097459778189569
2023-01-28 15:45:38.688141,0.02096043829513614
2023-01-28 15:45:38.693141,0.02630035206675518
2023-01-28 15:45:38.698141,0.03153341038479241
2023-01-28 15:45:38.703141,0.03656566143035889
2023-01-28 15:45:38.708141,0.0412281190785913
2023-01-28 15:45:38.713141,0.0455568246543407
2023-01-28 15:45:38.718141,0.049504742638326125
2023-01-28 15:45:38.723141,0.05305747315287601
2023-01-28 15:45:38.728141,0.05663646892226694
2023-01-28 15:45:38.733141,0.06082256883382782
2023-01-28 15:45:38.738141,0.06582666559972176
2023-01-28 15:45:38.743141,0.07171293348073947
2023-01-28 15:45:38.748141,0.07878158959721153
2023-01-28 15:45:38.753141,0.0871469601988791
2023-01-28 15:45:38.758141,0.09631856314744695
2023-01-28 15:45:38.763141,0.10577838122844681
2023-01-28 15:45:38.768141,0.1155548105249748
2023-01-28 15:45:38.773141,0.12568394839763633
2023-01-28 15:45:38.778141,0.13562354830003562
2023-01-28 15:45:38.783141,0.14479617774486545
2023-01-28 15:45:38.788141,0.1531750921512153
2023-01-28 15:45:38.793141,0.16073505580425262
2023-01-28 15:45:38.798141,0.16690325155384536
2023-01-28 15:45:38.803141,0.17116865515708918
2023-01-28 15:45:38.808141,0.17361526867022417
2023-01-28 15:45:38.813141,0.17419776320457458
2023-01-28 15:45:38.818141,0.17211112084306723
2023-01-28 15:45:38.823141,0.16655287146568282
2023-01-28 15:45:38.828141,0.15752418584547798
2023-01-28 15:45:38.833141,0.14530102908611275
2023-01-28 15:45:38.838141,0.1298663755772197
2023-01-28 15:45:38.843141,0.11159618943929672
2023-01-28 15:45:38.848141,0.09181694356604998
2023-01-28 15:45:38.853141,0.07192929834127415
2023-01-28 15:45:38.858141,0.05258710341667993
2023-01-28 15:45:38.863141,0.034353934228420265
2023-01-28 15:45:38.868141,0.018367784421601103
2023-01-28 15:45:38.873141,0.005553364753723033
2023-01-28 15:45:38.878141,-0.004161433961305688
2023-01-28 15:45:38.883141,-0.011154810898005848
2023-01-28 15:45:38.888141,-0.01539620682581138
2023-01-28 15:45:38.893141,-0.017140906304121076
2023-01-28 15:45:38.898141,-0.01751508099769895
2023-01-28 15:45:38.903141,-0.017549594864249257
2023-01-28 15:45:38.908141,-0.017285499608714595
2023-01-28 15:45:38.913141,-0.016515851020812922
2023-01-28 15:45:38.918141,-0.01558594096083566
2023-01-28 15:45:38.923141,-0.014688770286738768
2023-01-28 15:45:38.928141,-0.01324217517262511
2023-01-28 15:45:38.933141,-0.010866324417293015
2023-01-28 15:45:38.938141,-0.00823241848212459
2023-01-28 15:45:38.943141,-0.006130337715148878
2023-01-28 15:45:38.948141,-0.00448304872456624
2023-01-28 15:45:38.953141,-0.003053148742765148
2023-01-28 15:45:38.958141,-0.0022045934292579464
2023-01-28 15:45:38.963141,-0.002067486522719232
2023-01-28 15:45:38.968141,-0.001847855153714421
2023-01-28 15:45:38.973141,-0.0009375810623168945
2023-01-28 15:45:38.978141,9.243451892238379e-05
2023-01-28 15:45:38.983141,0.0004808108205907331
2023-01-28 15:45:38.988141,0.00038064357466528753
2023-01-28 15:45:38.993141,0.0001202027051474482
2023-01-28 15:45:38.998141,-0.0006364827633812406
2023-01-28 15:45:39.003141,-0.0019953649025410223
2023-01-28 15:45:39.008141,-0.0030790899098639196
2023-01-28 15:45:39.013141,-0.0032454729080200573
2023-01-28 15:45:39.018141,-0.003179797165389213
2023-01-28 15:45:39.023141,-0.003774364944547339
2023-01-28 15:45:39.028141,-0.004853866335178793
2023-01-28 15:45:39.033141,-0.005986094474792376
2023-01-28 15:45:39.038141,-0.007479387111308914
2023-01-28 15:45:39.043141,-0.009447932243347083
2023-01-28 15:45:39.048141,-0.010943070852468746
2023-01-28 15:45:39.053141,-0.011226932518184032
2023-01-28 15:45:39.058141,-0.010937973404309199
2023-01-28 15:45:39.063141,-0.010842284187674493
2023-01-28 15:45:39.068141,-0.010465125998018123
2023-01-28 15:45:39.073141,-0.009111365303397187
2023-01-28 15:45:39.078141,-0.007083602724831505
2023-01-28 15:45:39.083141,-0.004615783691406148
2023-01-28 15:45:39.088141,-0.0007941516173165203
2023-01-28 15:45:39.093141,0.005048513412475411
2023-01-28 15:45:39.098141,0.011956307428393416
2023-01-28 15:45:39.103141,0.018679499626159543
2023-01-28 15:45:39.108141,0.025124822556687763
2023-01-28 15:45:39.113141,0.031060378998517827
2023-01-28 15:45:39.118141,0.03474675764323666
2023-01-28 15:45:39.123141,0.03454625606536865
2023-01-28 15:45:39.128141,0.03074927082688621
2023-01-28 15:45:39.133141,0.02432902716100199
2023-01-28 15:45:39.138141,0.015348977276785187
2023-01-28 15:45:39.143141,0.004327297210693255
2023-01-28 15:45:39.148141,-0.006395402798972564
2023-01-28 15:45:39.153141,-0.014736851677298612
2023-01-28 15:45:39.158141,-0.021050610105153585
2023-01-28 15:45:39.163141,-0.026396512985229444
2023-01-28 15:45:39.168141,-0.030250397978650548
2023-01-28 15:45:39.173141,-0.03194987773895269
2023-01-28 15:45:39.178141,-0.032417174135029
2023-01-28 15:45:39.183141,-0.03166139125823975
2023-01-28 15:45:39.188141,-0.02610072376583338
2023-01-28 15:45:39.193141,-0.011226932518184175
2023-01-28 15:45:39.198141,0.014149479935093306
2023-01-28 15:45:39.203141,0.04810512065887457
2023-01-28 15:45:39.208141,0.08696477255407785
2023-01-28 15:45:39.213141,0.12260675430297847
2023-01-28 15:45:39.218141,0.1411327244988498
2023-01-28 15:45:39.223141,0.13008336722850788
2023-01-28 15:45:39.228141,0.08759569856063024
2023-01-28 15:45:39.233141,0.022165378555655365
2023-01-28 15:45:39.238141,-0.053632021924578735
2023-01-28 15:45:39.243141,-0.12453000247478485
2023-01-28 15:45:39.248141,-0.17221948460838174
2023-01-28 15:45:39.253141,-0.184174582362175
2023-01-28 15:45:39.258141,-0.16510915077775232
2023-01-28 15:45:39.263141,-0.13255953788757316
2023-01-28 15:45:39.268141,-0.09885069634685585
2023-01-28 15:45:39.273141,-0.06389975547790519
2023-01-28 15:45:39.278141,-0.027215480391817207
2023-01-28 15:45:39.283141,0.0027406215667724137
2023-01-28 15:45:39.288141,0.017696553697064285
2023-01-28 15:45:39.293141,0.021347999572753948
2023-01-28 15:45:39.298141,0.02405646866620722
2023-01-28 15:45:39.303141,0.029521783813834076
2023-01-28 15:45:39.308141,0.03402586267574703
2023-01-28 15:45:39.313141,0.036156974732875775
2023-01-28 15:45:39.318141,0.03928035677999892
2023-01-28 15:45:39.323141,0.044715404510497866
2023-01-28 15:45:39.328141,0.049473541985298124
2023-01-28 15:45:39.333141,0.05195160955190639
2023-01-28 15:45:39.338141,0.05449832111020274
2023-01-28 15:45:39.343141,0.05892336368560789
2023-01-28 15:45:39.348141,0.06390594239373952
2023-01-28 15:45:39.353141,0.06837129592895497
2023-01-28 15:45:39.358141,0.07364607485993768
2023-01-28 15:45:39.363141,0.08063197135925287
2023-01-28 15:45:39.368141,0.08799566621518967
2023-01-28 15:45:39.373141,0.09476780891418438
2023-01-28 15:45:39.378141,0.10211932750337699
2023-01-28 15:45:39.383141,0.1111153811216352
2023-01-28 15:45:39.388141,0.12098746246509771
2023-01-28 15:45:39.393141,0.1309247910976408
2023-01-28 15:45:39.398141,0.14146752439275426
2023-01-28 15:45:39.403141,0.15280167758464802
2023-01-28 15:45:39.408141,0.16347530571389407
2023-01-28 15:45:39.413141,0.17203411459922774
2023-01-28 15:45:39.418141,0.178388132957437
2023-01-28 15:45:39.423141,0.18253982067108132
2023-01-28 15:45:39.428141,0.18349834404945128
2023-01-28 15:45:39.433141,0.18054446578025807
2023-01-28 15:45:39.438141,0.17427113075187206
2023-01-28 15:45:39.443141,0.16539892554283137
2023-01-28 15:45:39.448141,0.15374241830501112
2023-01-28 15:45:39.453141,0.13921877741813643
2023-01-28 15:45:39.458141,0.12274146900977796
2023-01-28 15:45:39.463141,0.10524948686361307
2023-01-28 15:45:39.468141,0.08686373271509425
2023-01-28 15:45:39.473141,0.06779432296752913
2023-01-28 15:45:39.478141,0.04913172130797519
2023-01-28 15:45:39.483141,0.03197392076253881
2023-01-28 15:45:39.488141,0.016607076959045328
2023-01-28 15:45:39.493141,0.0031973919831215247
2023-01-28 15:45:39.498141,-0.007577204349985592
2023-01-28 15:45:39.503141,-0.015289783477783193
2023-01-28 15:45:39.508141,-0.020426946587962968
2023-01-28 15:45:39.513141,-0.023679932579398166
2023-01-28 15:45:39.518141,-0.025258285807391898
2023-01-28 15:45:39.523141,-0.025434892624616526
2023-01-28 15:45:39.528141,-0.0250400372554735
2023-01-28 15:45:39.533141,-0.02478579804301259
2023-01-28 15:45:39.538141,-0.0246388890552048
2023-01-28 15:45:39.543141,-0.024329027161002176
2023-01-28 15:45:39.548141,-0.02390681562495521
2023-01-28 15:45:39.553141,-0.02336740493774418
2023-01-28 15:45:39.558141,-0.022330065097619107
2023-01-28 15:45:39.563141,-0.020602744072675653
2023-01-28 15:45:39.568141,-0.01860128239569642
2023-01-28 15:45:39.573141,-0.016804337501525896
2023-01-28 15:45:39.578141,-0.015246890066875431
2023-01-28 15:45:39.583141,-0.013895432464778468
2023-01-28 15:45:39.588141,-0.013026298405505453
2023-01-28 15:45:39.593141,-0.012837648391723622
2023-01-28 15:45:39.598141,-0.013102699126818171
2023-01-28 15:45:39.603141,-0.013558864593505774
2023-01-28 15:45:39.608141,-0.014263518130014783
2023-01-28 15:45:39.613141,-0.015265743248164673
2023-01-28 15:45:39.618141,-0.016311962337878887
2023-01-28 15:45:39.623141,-0.017188986763358078
2023-01-28 15:45:39.628141,-0.0180306818976566
2023-01-28 15:45:39.633141,-0.01901606842875478
2023-01-28 15:45:39.638141,-0.02007364852836153
2023-01-28 15:45:39.643141,-0.021131634712219172
2023-01-28 15:45:39.648141,-0.022371961543519527
2023-01-28 15:45:39.653141,-0.023992460221052104
2023-01-28 15:45:39.658141,-0.025940423291691425
2023-01-28 15:45:39.663141,-0.028055310249328592
2023-01-28 15:45:39.668141,-0.030242594366553646
2023-01-28 15:45:39.673141,-0.03233452886343
2023-01-28 15:45:39.678141,-0.03397301559218179
2023-01-28 15:45:39.683141,-0.03478666394948947
2023-01-28 15:45:39.688141,-0.03456164408598113
2023-01-28 15:45:39.693141,-0.03317594528198234
2023-01-28 15:45:39.698141,-0.03052348024615373
2023-01-28 15:45:39.703141,-0.026588838547468147
2023-01-28 15:45:39.708141,-0.021517500744665775
2023-01-28 15:45:39.713141,-0.015602311119437207
2023-01-28 15:45:39.718141,-0.009275404548876622
2023-01-28 15:45:39.723141,-0.0031012296676634792
2023-01-28 15:45:39.728141,0.002249290115087007
2023-01-28 15:45:39.733141,0.005962054245173808
2023-01-28 15:45:39.738141,0.007082150766551014
2023-01-28 15:45:39.743141,0.004808108322322274
2023-01-28 15:45:39.748141,-0.001076626062503749
2023-01-28 15:45:39.753141,-0.010097026824951076
2023-01-28 15:45:39.758141,-0.02127501764419775
2023-01-28 15:45:39.763141,-0.03322402760386457
2023-01-28 15:45:39.768141,-0.04432089620385819
2023-01-28 15:45:39.773141,-0.05334595963358872
2023-01-28 15:45:39.778141,-0.060050564746612925
2023-01-28 15:45:39.783141,-0.06481330096721642
2023-01-28 15:45:39.788141,-0.06785507398840578
2023-01-28 15:45:39.793141,-0.06904443353414534
2023-01-28 15:45:39.798141,-0.06789601213915201
2023-01-28 15:45:39.803141,-0.06286601722240441
2023-01-28 15:45:39.808141,-0.0509759494579578
2023-01-28 15:45:39.813141,-0.029449662193655947
2023-01-28 15:45:39.818141,0.0016078265922077623
2023-01-28 15:45:39.823141,0.03800809383392322
2023-01-28 15:45:39.828141,0.07192780371970897
2023-01-28 15:45:39.833141,0.09274840354919418
2023-01-28 15:45:39.838141,0.08945558295559763
2023-01-28 15:45:39.843141,0.05611062049865715
2023-01-28 15:45:39.848141,-0.0031244635747169694
2023-01-28 15:45:39.853141,-0.07498244941234591
2023-01-28 15:45:39.858141,-0.14312332201233513
2023-01-28 15:45:39.863141,-0.19292533397674574
2023-01-28 15:45:39.868141,-0.2137537338610529
2023-01-28 15:45:39.873141,-0.20285408198833457
2023-01-28 15:45:39.878141,-0.16922302721856275
2023-01-28 15:45:39.883141,-0.12933811545371998
2023-01-28 15:45:39.888141,-0.09520979123127571
2023-01-28 15:45:39.893141,-0.06801068782806403
2023-01-28 15:45:39.898141,-0.04463825317631794
2023-01-28 15:45:39.903141,-0.02630035206675518
2023-01-28 15:45:39.908141,-0.01653192125396993
2023-01-28 15:45:39.913141,-0.01387139223515983
2023-01-28 15:45:39.918141,-0.012318514609660502
2023-01-28 15:45:39.923141,-0.00860651396214951
2023-01-28 15:45:39.928141,-0.004312051111792233
2023-01-28 15:45:39.933141,-0.0007212162017823023
2023-01-28 15:45:39.938141,0.0037629198926010187
2023-01-28 15:45:39.943141,0.010121067985892192
2023-01-28 15:45:39.948141,0.016684466054602887
2023-01-28 15:45:39.953141,0.02223750017583374
2023-01-28 15:45:39.958141,0.028033804517885532
2023-01-28 15:45:39.963141,0.03514727205038068
2023-01-28 15:45:39.968141,0.04251229150074681
2023-01-28 15:45:39.973141,0.04916290566325176
2023-01-28 15:45:39.978141,0.05603270728223945
2023-01-28 15:45:39.983141,0.0639718770980834
2023-01-28 15:45:39.988141,0.07210004254265767
2023-01-28 15:45:39.993141,0.07964631170034395
2023-01-28 15:45:39.998141,0.08749966474542831
2023-01-28 15:45:40.003141,0.09645064920186987
2023-01-28 15:45:40.008141,0.10563879546877496
2023-01-28 15:45:40.013141,0.11414448916912068
2023-01-28 15:45:40.018141,0.12246029877322778
2023-01-28 15:45:40.023141,0.13099691271781916
2023-01-28 15:45:40.028141,0.13868633606069633
2023-01-28 15:45:40.033141,0.14443556964397425
2023-01-28 15:45:40.038141,0.14852685767753981
2023-01-28 15:45:40.043141,0.15128712356090537
2023-01-28 15:45:40.048141,0.15179182389662677
2023-01-28 15:45:40.053141,0.1491955965757369
2023-01-28 15:45:40.058141,0.14401048110426695
2023-01-28 15:45:40.063141,0.13679067790508273
2023-01-28 15:45:40.068141,0.1268435659977134
2023-01-28 15:45:40.073141,0.11351943016052238
2023-01-28 15:45:40.078141,0.09758153127998252
2023-01-28 15:45:40.083141,0.08012712001800533
2023-01-28 15:45:40.088141,0.06140381722129923
2023-01-28 15:45:40.093141,0.04190266132354737
2023-01-28 15:45:40.098141,0.02337478693818404
2023-01-28 15:45:40.103141,0.007452567573636595
2023-01-28 15:45:40.108141,-0.0057100544486581835
2023-01-28 15:45:40.113141,-0.016371607780456418
2023-01-28 15:45:40.118141,-0.024026321276969482
2023-01-28 15:45:40.123141,-0.028488039970397862
2023-01-28 15:45:40.128141,-0.030955020457771883
2023-01-28 15:45:40.133141,-0.03271917626261713
2023-01-28 15:45:40.138141,-0.033821302981252
2023-01-28 15:45:40.143141,-0.03404140472412101
2023-01-28 15:45:40.148141,-0.03400518312050061
2023-01-28 15:45:40.153141,-0.0340894870460033
2023-01-28 15:45:40.158141,-0.033389694276982435
2023-01-28 15:45:40.163141,-0.031060378998517924
2023-01-28 15:45:40.168141,-0.02766859712617119
2023-01-28 15:45:40.173141,-0.024088621139526263
2023-01-28 15:45:40.178141,-0.020195215811438922
2023-01-28 15:45:40.183141,-0.015842717140913117
2023-01-28 15:45:40.188141,-0.011952098910693244
2023-01-28 15:45:40.193141,-0.009303689002990782
2023-01-28 15:45:40.198141,-0.007304121317776668
2023-01-28 15:45:40.203141,-0.005192756652832031
2023-01-28 15:45:40.208141,-0.0033869460804059484
2023-01-28 15:45:40.213141,-0.0024040541611612077
2023-01-28 15:45:40.218141,-0.0016067364593754783
2023-01-28 15:45:40.223141,-0.00033656758023425937
2023-01-28 15:45:40.228141,0.0008218786939107
2023-01-28 15:45:40.233141,0.0012260675430296524
2023-01-28 15:45:40.238141,0.0015007467567695015
2023-01-28 15:45:40.243141,0.0023559730034321547
2023-01-28 15:45:40.248141,0.0032261600592099738
2023-01-28 15:45:40.253141,0.003437797306105305
2023-01-28 15:45:40.258141,0.0035648961178714037
2023-01-28 15:45:40.263141,0.004231135360896322
2023-01-28 15:45:40.268141,0.004758893751736697
2023-01-28 15:45:40.273141,0.004471540451049701
2023-01-28 15:45:40.278141,0.004173001433695381
2023-01-28 15:45:40.283141,0.0048802299425004395
2023-01-28 15:45:40.288141,0.006305277507523385
2023-01-28 15:45:40.293141,0.008077621459960825
2023-01-28 15:45:40.298141,0.011141932316114574
2023-01-28 15:45:40.303141,0.016275446861982228
2023-01-28 15:45:40.308141,0.02245387502793928
2023-01-28 15:45:40.313141,0.028343796730041407
2023-01-28 15:45:40.318141,0.03415223631067998
2023-01-28 15:45:40.323141,0.04036406800150867
2023-01-28 15:45:40.328141,0.04610455081581108
2023-01-28 15:45:40.333141,0.05060533806681629
2023-01-28 15:45:40.338141,0.054814894520495136
2023-01-28 15:45:40.343141,0.059500336647033455
2023-01-28 15:45:40.348141,0.06312235285060339
2023-01-28 15:45:40.353141,0.0636593550443649
2023-01-28 15:45:40.358141,0.06114556263013116
2023-01-28 15:45:40.363141,0.05639910697937007
2023-01-28 15:45:40.368141,0.049032245992348504
2023-01-28 15:45:40.373141,0.039234161376952924
2023-01-28 15:45:40.378141,0.029800461944680542
2023-01-28 15:45:40.383141,0.023511648178100482
2023-01-28 15:45:40.388141,0.019912734515685124
2023-01-28 15:45:40.393141,0.017405351623892566
2023-01-28 15:45:40.398141,0.01670702339916201
2023-01-28 15:45:40.403141,0.019064148887991916
2023-01-28 15:45:40.408141,0.023170421700984954
2023-01-28 15:45:40.413141,0.028079351410269612
2023-01-28 15:45:40.418141,0.03756123263123077
2023-01-28 15:45:40.423141,0.056615471839904584
2023-01-28 15:45:40.428141,0.08417240969675994
2023-01-28 15:45:40.433141,0.11366367340087881
2023-01-28 15:45:40.438141,0.1397549722053649
2023-01-28 15:45:40.443141,0.15888392925262435
2023-01-28 15:45:40.448141,0.16358727633240275
2023-01-28 15:45:40.453141,0.14378647506237033
2023-01-28 15:45:40.458141,0.09716161839934861
2023-01-28 15:45:40.463141,0.034305851906537954
2023-01-28 15:45:40.468141,-0.0282999353222357
2023-01-28 15:45:40.473141,-0.07673740386962898
2023-01-28 15:45:40.478141,-0.10126215651364419
2023-01-28 15:45:40.483141,-0.09741227328777308
2023-01-28 15:45:40.488141,-0.07059496038005961
2023-01-28 15:45:40.493141,-0.034954946488142034
2023-01-28 15:45:40.498141,-0.0022638830444825166
2023-01-28 15:45:40.503141,0.025987824425101138
2023-01-28 15:45:40.508141,0.05265938352183995
2023-01-28 15:45:40.513141,0.07570366561412811
2023-01-28 15:45:40.518141,0.09021564833263604
2023-01-28 15:45:40.523141,0.0966670140624045
2023-01-28 15:45:40.528141,0.10074748616237286
2023-01-28 15:45:40.533141,0.10575433820486053
2023-01-28 15:45:40.538141,0.11041371471068716
2023-01-28 15:45:40.543141,0.1140483245253561
2023-01-28 15:45:40.548141,0.11879811089817091
2023-01-28 15:45:40.553141,0.12578010559082026
2023-01-28 15:45:40.558141,0.13314306923324226
2023-01-28 15:45:40.563141,0.13926684856414784
2023-01-28 15:45:40.568141,0.14477611185162811
2023-01-28 15:45:40.573141,0.15027742087841023
2023-01-28 15:45:40.578141,0.15492578486105235
2023-01-28 15:45:40.583141,0.15849928557872778
2023-01-28 15:45:40.588141,0.1625769948856051
2023-01-28 15:45:40.593141,0.16842803359031672
2023-01-28 15:45:40.598141,0.17557371497372248
2023-01-28 15:45:40.603141,0.18338124454021457
2023-01-28 15:45:40.608141,0.1923145740251186
2023-01-28 15:45:40.613141,0.20266175270080566
2023-01-28 15:45:40.618141,0.2135955445408786
2023-01-28 15:45:40.623141,0.22441844642162323
2023-01-28 15:45:40.628141,0.23539045902591513
2023-01-28 15:45:40.633141,0.24651169776916504
2023-01-28 15:45:40.638141,0.2567178206298467
2023-01-28 15:45:40.643141,0.26504695415496815
2023-01-28 15:45:40.648141,0.2715192838158764
2023-01-28 15:45:40.653141,0.2762017846107482
2023-01-28 15:45:40.658141,0.2784264185769394
2023-01-28 15:45:40.663141,0.2775480449199675
2023-01-28 15:45:40.668141,0.273523083727198
2023-01-28 15:45:40.673141,0.2661768794059754
2023-01-28 15:45:40.678141,0.25483861097991467
2023-01-28 15:45:40.683141,0.23934762179851532
2023-01-28 15:45:40.688141,0.22072004903684925
2023-01-28 15:45:40.693141,0.20037791132926944
2023-01-28 15:45:40.698141,0.17944198034895312
2023-01-28 15:45:40.703141,0.15912434458732597
2023-01-28 15:45:40.708141,0.1409206164176563
2023-01-28 15:45:40.713141,0.12578010559082028
2023-01-28 15:45:40.718141,0.11360769675554941
2023-01-28 15:45:40.723141,0.10395129770040515
2023-01-28 15:45:40.728141,0.09661248755765825
2023-01-28 15:45:40.733141,0.09130597114562977
2023-01-28 15:45:40.738141,0.08742936905392751
2023-01-28 15:45:40.743141,0.08464674651622765
2023-01-28 15:45:40.748141,0.08322056470382058
2023-01-28 15:45:40.753141,0.08342067897319794
2023-01-28 15:45:40.758141,0.08504973223222036
2023-01-28 15:45:40.763141,0.08779605478048329
2023-01-28 15:45:40.768141,0.09153728022027112
2023-01-28 15:45:40.773141,0.09599387645721437
2023-01-28 15:45:40.778141,0.10054532420129036
2023-01-28 15:45:40.783141,0.10469655692577351
2023-01-28 15:45:40.788141,0.10835390407134175
2023-01-28 15:45:40.793141,0.11142790317535392
2023-01-28 15:45:40.798141,0.11357897597953047
2023-01-28 15:45:40.803141,0.11460125446319591
2023-01-28 15:45:40.808141,0.11470407138658441
2023-01-28 15:45:40.813141,0.11421661078929904
2023-01-28 15:45:40.818141,0.11336470459292695
2023-01-28 15:45:40.823141,0.11250972747802737
2023-01-28 15:45:40.828141,0.11221778189662944
2023-01-28 15:45:40.833141,0.11282225698232652
2023-01-28 15:45:40.838141,0.11414130097780376
2023-01-28 15:45:40.843141,0.11575520038604739
2023-01-28 15:45:40.848141,0.11730429516886164
2023-01-28 15:45:40.853141,0.11844774335622779
2023-01-28 15:45:40.858141,0.11890492761736432
2023-01-28 15:45:40.863141,0.118760272860527
2023-01-28 15:45:40.868141,0.11850248477678936
2023-01-28 15:45:40.873141,0.11859198659658429
2023-01-28 15:45:40.878141,0.11912192247800737
2023-01-28 15:45:40.883141,0.11991421878337856
2023-01-28 15:45:40.888141,0.12069290797195066
2023-01-28 15:45:40.893141,0.12111624330282206
2023-01-28 15:45:40.898141,0.12095226864110437
2023-01-28 15:45:40.903141,0.12041907012462606
2023-01-28 15:45:40.908141,0.12021990578412375
2023-01-28 15:45:40.913141,0.12114028632640836
2023-01-28 15:45:40.918141,0.1236743902306302
2023-01-28 15:45:40.923141,0.1279678046703338
2023-01-28 15:45:40.928141,0.13385850362609306
2023-01-28 15:45:40.933141,0.14087757468223575
2023-01-28 15:45:40.938141,0.1483584276517017
2023-01-28 15:45:40.943141,0.15561442077159876
2023-01-28 15:45:40.948141,0.1619282972605496
2023-01-28 15:45:40.953141,0.16640862822532643
2023-01-28 15:45:40.958141,0.1680618134082223
2023-01-28 15:45:40.963141,0.16614417731761916
2023-01-28 15:45:40.968141,0.16050647792792433
2023-01-28 15:45:40.973141,0.15174388885498036
2023-01-28 15:45:40.978141,0.14114119545141296
2023-01-28 15:45:40.983141,0.1303478181362152
2023-01-28 15:45:40.988141,0.12080763410127789
2023-01-28 15:45:40.993141,0.11327902972698214
2023-01-28 15:45:40.998141,0.10776418503629315
2023-01-28 15:45:41.003141,0.10378301143646229
2023-01-28 15:45:41.008141,0.10079897954490799
2023-01-28 15:45:41.013141,0.09878258407115932
2023-01-28 15:45:41.018141,0.09880018174945542
2023-01-28 15:45:41.023141,0.10318200290203079
2023-01-28 15:45:41.028141,0.11488087458151935
2023-01-28 15:45:41.033141,0.1360694617033004
2023-01-28 15:45:41.038141,0.16633671706964154
2023-01-28 15:45:41.043141,0.20112316310405737
2023-01-28 15:45:41.048141,0.23148426569164007
2023-01-28 15:45:41.053141,0.24617514014244063
2023-01-28 15:45:41.058141,0.2357740917982756
2023-01-28 15:45:41.063141,0.19703626632690419
2023-01-28 15:45:41.068141,0.13531672248741533
2023-01-28 15:45:41.073141,0.06375551223754879
2023-01-28 15:45:41.078141,-0.0008138782115999371
2023-01-28 15:45:41.083141,-0.04380186647176735
2023-01-28 15:45:41.088141,-0.05792477350097393
2023-01-28 15:45:41.093141,-0.044883690774440536
2023-01-28 15:45:41.098141,-0.013268628607804771
2023-01-28 15:45:41.103141,0.025579135864972992
2023-01-28 15:45:41.108141,0.06167307204388591
2023-01-28 15:45:41.113141,0.08914232254028316
2023-01-28 15:45:41.118141,0.10687108291991959
2023-01-28 15:45:41.123141,0.11695723235607142
2023-01-28 15:45:41.128141,0.12229891997245028
2023-01-28 15:45:41.133141,0.12515506148338312
2023-01-28 15:45:41.138141,0.12711408345273462
2023-01-28 15:45:41.143141,0.12933811545372
2023-01-28 15:45:41.148141,0.13234366966399466
2023-01-28 15:45:41.153141,0.13587713241577143
2023-01-28 15:45:41.158141,0.13938171388283388
2023-01-28 15:45:41.163141,0.14253637194633484
2023-01-28 15:45:41.168141,0.14531628125402368
2023-01-28 15:45:41.173141,0.14784932136535636
2023-01-28 15:45:41.178141,0.15043883055590485
2023-01-28 15:45:41.183141,0.15354692935943595
2023-01-28 15:45:41.188141,0.15754768309059855
2023-01-28 15:45:41.193141,0.16253809630870805
2023-01-28 15:45:41.198141,0.168406604891066
2023-01-28 15:45:41.203141,0.17494301497936232
2023-01-28 15:45:41.208141,0.18188364619636624
2023-01-28 15:45:41.213141,0.1890548169612884
2023-01-28 15:45:41.218141,0.19652732309543064
2023-01-28 15:45:41.223141,0.20448884367942793
2023-01-28 15:45:41.228141,0.2129633476101641
2023-01-28 15:45:41.233141,0.2217739820480346
2023-01-28 15:45:41.238141,0.23067540426809763
2023-01-28 15:45:41.243141,0.23929953575134266
2023-01-28 15:45:41.248141,0.24704332200123522
2023-01-28 15:45:41.253141,0.25324305891990656
2023-01-28 15:45:41.258141,0.2573999538846243
2023-01-28 15:45:41.263141,0.2590368390083311
2023-01-28 15:45:41.268141,0.2574768617017265
2023-01-28 15:45:41.273141,0.25206506252288796
2023-01-28 15:45:41.278141,0.2425609890176548
2023-01-28 15:45:41.283141,0.2291303873062132
2023-01-28 15:45:41.288141,0.21215563578347557
2023-01-28 15:45:41.293141,0.1923724114894866
2023-01-28 15:45:41.298141,0.17102263362849354
2023-01-28 15:45:41.303141,0.14948408305644992
2023-01-28 15:45:41.308141,0.12877517533591865
2023-01-28 15:45:41.313141,0.10960082709789272
2023-01-28 15:45:41.318141,0.0926010656444693
2023-01-28 15:45:41.323141,0.07815580070018761
2023-01-28 15:45:41.328141,0.06612169003762719
2023-01-28 15:45:41.333141,0.05615870282053949
2023-01-28 15:45:41.338141,0.048199554403683446
2023-01-28 15:45:41.343141,0.042311351746320724
2023-01-28 15:45:41.348141,0.038353795276041804
2023-01-28 15:45:41.353141,0.036156974732875824
2023-01-28 15:45:41.358141,0.03576914854185912
2023-01-28 15:45:41.363141,0.03707051277160637
2023-01-28 15:45:41.368141,0.03933660684874379
2023-01-28 15:45:41.373141,0.04159013554453842
2023-01-28 15:45:41.378141,0.04317693005370349
2023-01-28 15:45:41.383141,0.04368166252970688
2023-01-28 15:45:41.388141,0.042708921052722185
2023-01-28 15:45:41.393141,0.04031598567962635
2023-01-28 15:45:41.398141,0.03737625644937776
2023-01-28 15:45:41.403141,0.03495494648814197
2023-01-28 15:45:41.408141,0.033504085137131906
2023-01-28 15:45:41.413141,0.03300766274332999
2023-01-28 15:45:41.418141,0.03343428628795594
2023-01-28 15:45:41.423141,0.034474134445190374
2023-01-28 15:45:41.428141,0.03528586451374412
2023-01-28 15:45:41.433141,0.03521939367055881
2023-01-28 15:45:41.438141,0.034525552746411524
2023-01-28 15:45:41.443141,0.03382503986358631
2023-01-28 15:45:41.448141,0.0332958619270723
2023-01-28 15:45:41.453141,0.032935541123151606
2023-01-28 15:45:41.458141,0.03303876602560471
2023-01-28 15:45:41.463141,0.03363271802663796
2023-01-28 15:45:41.468141,0.03390588452474212
2023-01-28 15:45:41.473141,0.03298362344503401
2023-01-28 15:45:41.478141,0.030861634763198576
2023-01-28 15:45:41.483141,0.027911067008972064
2023-01-28 15:45:41.488141,0.024084696094619773
2023-01-28 15:45:41.493141,0.019448798149824066
2023-01-28 15:45:41.498141,0.01485909562734462
2023-01-28 15:45:41.503141,0.011130770668387299
2023-01-28 15:45:41.508141,0.008071695060335553
2023-01-28 15:45:41.513141,0.005240838043391742
2023-01-28 15:45:41.518141,0.0030140203200792826
2023-01-28 15:45:41.523141,0.0019232432823627808
2023-01-28 15:45:41.528141,0.0016840673654370069
2023-01-28 15:45:41.533141,0.0019953649025410223
2023-01-28 15:45:41.538141,0.0035543059057685867
2023-01-28 15:45:41.543141,0.007067918777465882
2023-01-28 15:45:41.548141,0.012001140416602586
2023-01-28 15:45:41.553141,0.017525553703308105
2023-01-28 15:45:41.558141,0.023818539760132453
2023-01-28 15:45:41.563141,0.031012296676635683
2023-01-28 15:45:41.568141,0.03776024766475685
2023-01-28 15:45:41.573141,0.04238347336649889
2023-01-28 15:45:41.578141,0.04453040968854331
2023-01-28 15:45:41.583141,0.0441624745726585
2023-01-28 15:45:41.588141,0.040120573882620636
2023-01-28 15:45:41.593141,0.03170947358012185
2023-01-28 15:45:41.598141,0.02065045769656164
2023-01-28 15:45:41.603141,0.009351770393550254
2023-01-28 15:45:41.608141,-0.001686042195902568
2023-01-28 15:45:41.613141,-0.01262128353118888
2023-01-28 15:45:41.618141,-0.02197882125209212
2023-01-28 15:45:41.623141,-0.028415918350219716
2023-01-28 15:45:41.628141,-0.033322906234630995
2023-01-28 15:45:41.633141,-0.03832062333822254
2023-01-28 15:45:41.638141,-0.04133205017062354
2023-01-28 15:45:41.643141,-0.03858506679534912
2023-01-28 15:45:41.648141,-0.02898687327439268
2023-01-28 15:45:41.653141,-0.012404918670654182
2023-01-28 15:45:41.658141,0.014085578662288356
2023-01-28 15:45:41.663141,0.05144675821065893
2023-01-28 15:45:41.668141,0.09030726312853234
2023-01-28 15:45:41.673141,0.11464934051036837
2023-01-28 15:45:41.678141,0.11576532870927499
2023-01-28 15:45:41.683141,0.09635448455810527
2023-01-28 15:45:41.688141,0.05962016083528793
2023-01-28 15:45:41.693141,0.003558000084012633
2023-01-28 15:45:41.698141,-0.06818548120709601
2023-01-28 15:45:41.703141,-0.13731956481933588
2023-01-28 15:45:41.708141,-0.1818413754748437
2023-01-28 15:45:41.713141,-0.19376675784587866
2023-01-28 15:45:41.718141,-0.18037171620854928
2023-01-28 15:45:41.723141,-0.15176793932914734
2023-01-28 15:45:41.728141,-0.11500085209168386
2023-01-28 15:45:41.733141,-0.07798751443624483
2023-01-28 15:45:41.738141,-0.04946486730601415
2023-01-28 15:45:41.743141,-0.03226240724325176
2023-01-28 15:45:41.748141,-0.02204911508354375
2023-01-28 15:45:41.753141,-0.01454452704638236
2023-01-28 15:45:41.758141,-0.009656755207734553
2023-01-28 15:45:41.763141,-0.007644891738891516
2023-01-28 15:45:41.768141,-0.006266269716516045
2023-01-28 15:45:41.773141,-0.003894567489624061
2023-01-28 15:45:41.778141,-0.0016429241777065897
2023-01-28 15:45:41.783141,-0.00031252703047338553
2023-01-28 15:45:41.788141,0.001657367081376312
2023-01-28 15:45:41.793141,0.005433162208646555
2023-01-28 15:45:41.798141,0.009837854513991875
2023-01-28 15:45:41.803141,0.013847351074218665
2023-01-28 15:45:41.808141,0.018471413523471123
2023-01-28 15:45:41.813141,0.02454539202153682
2023-01-28 15:45:41.818141,0.030997583295728035
2023-01-28 15:45:41.823141,0.03687819093465791
2023-01-28 15:45:41.828141,0.043002427632786916
2023-01-28 15:45:41.833141,0.05012452602386478
2023-01-28 15:45:41.838141,0.057453902279146415
2023-01-28 15:45:41.843141,0.064380571246147
2023-01-28 15:45:41.848141,0.07181744951589043
2023-01-28 15:45:41.853141,0.08043964952230442
2023-01-28 15:45:41.858141,0.08924676933824831
2023-01-28 15:45:41.863141,0.0971237868070602
2023-01-28 15:45:41.868141,0.10423031551191592
2023-01-28 15:45:41.873141,0.11065860837697984
2023-01-28 15:45:41.878141,0.11529551366212966
2023-01-28 15:45:41.883141,0.11724571883678428
2023-01-28 15:45:41.888141,0.1169579721709081
2023-01-28 15:45:41.893141,0.11479358375072465
2023-01-28 15:45:41.898141,0.10983924757929908
2023-01-28 15:45:41.903141,0.10123471915721885
2023-01-28 15:45:41.908141,0.08938589129982719
2023-01-28 15:45:41.913141,0.07486224174499519
2023-01-28 15:45:41.918141,0.05744120864086996
2023-01-28 15:45:41.923141,0.03733495995402321
2023-01-28 15:45:41.928141,0.016137565393312837
2023-01-28 15:45:41.933141,-0.0045196218416094875
2023-01-28 15:45:41.938141,-0.024180237708603794
2023-01-28 15:45:41.943141,-0.04257579892873751
2023-01-28 15:45:41.948141,-0.05867551229839766
2023-01-28 15:45:41.953141,-0.07173697650432576
2023-01-28 15:45:41.958141,-0.08221246208229428
2023-01-28 15:45:41.963141,-0.09065687656402584
2023-01-28 15:45:41.968141,-0.0967785085913498
2023-01-28 15:45:41.973141,-0.10046541690826406
2023-01-28 15:45:41.978141,-0.10268059013709883
2023-01-28 15:45:41.983141,-0.10438402742147443
2023-01-28 15:45:41.988141,-0.10550567132973268
2023-01-28 15:45:41.993141,-0.1058024168014524
2023-01-28 15:45:41.998141,-0.10571045529911138
2023-01-28 15:45:42.003141,-0.1054898947477341
2023-01-28 15:45:42.008141,-0.10453978295137449
2023-01-28 15:45:42.013141,-0.10248482227325431
2023-01-28 15:45:42.018141,-0.10005420172431839
2023-01-28 15:45:42.023141,-0.0980613678693771
2023-01-28 15:45:42.028141,-0.0964140513727244
2023-01-28 15:45:42.033141,-0.09491205215454103
2023-01-28 15:45:42.038141,-0.09406318702102283
2023-01-28 15:45:42.043141,-0.09426295757293701
2023-01-28 15:45:42.048141,-0.0950686365724714
2023-01-28 15:45:42.053141,-0.0961140841245651
2023-01-28 15:45:42.058141,-0.09785610274997994
2023-01-28 15:45:42.063141,-0.10058562457561493
2023-01-28 15:45:42.068141,-0.1035609397777524
2023-01-28 15:45:42.073141,-0.10594666004180903
2023-01-28 15:45:42.078141,-0.10780552723235254
2023-01-28 15:45:42.083141,-0.10943254083395004
2023-01-28 15:45:42.088141,-0.11062397904637329
2023-01-28 15:45:42.093141,-0.11142790317535407
2023-01-28 15:45:42.098141,-0.11273051643394588
2023-01-28 15:45:42.103141,-0.11520227044820776
2023-01-28 15:45:42.108141,-0.11839556328371585
2023-01-28 15:45:42.113141,-0.12162109464406964
2023-01-28 15:45:42.118141,-0.12488386545088104
2023-01-28 15:45:42.123141,-0.12820820510387423
2023-01-28 15:45:42.128141,-0.13095695710346145
2023-01-28 15:45:42.133141,-0.13270378112792958
2023-01-28 15:45:42.138141,-0.13398260801834194
2023-01-28 15:45:42.143141,-0.1353482455015182
2023-01-28 15:45:42.148141,-0.13648820682703344
2023-01-28 15:45:42.153141,-0.13703107833862294
2023-01-28 15:45:42.158141,-0.13733270952375828
2023-01-28 15:45:42.163141,-0.13758401572704315
2023-01-28 15:45:42.168141,-0.13699801944708848
2023-01-28 15:45:42.173141,-0.1347953081130981
2023-01-28 15:45:42.178141,-0.13121162378256024
2023-01-28 15:45:42.183141,-0.12671768665313715
2023-01-28 15:45:42.188141,-0.12117470910969706
2023-01-28 15:45:42.193141,-0.11472146213054647
2023-01-28 15:45:42.198141,-0.108609835551704
2023-01-28 15:45:42.203141,-0.10414361953735359
2023-01-28 15:45:42.208141,-0.10159264339833335
2023-01-28 15:45:42.213141,-0.10106643289327624
2023-01-28 15:45:42.218141,-0.1034573074872837
2023-01-28 15:45:42.223141,-0.10936041921377185
2023-01-28 15:45:42.228141,-0.11791428951711945
2023-01-28 15:45:42.233141,-0.12782356142997725
2023-01-28 15:45:42.238141,-0.13862264249387485
2023-01-28 15:45:42.243141,-0.14979660511016835
2023-01-28 15:45:42.248141,-0.15975911936531684
2023-01-28 15:45:42.253141,-0.16720196604728688
2023-01-28 15:45:42.258141,-0.172590399337057
2023-01-28 15:45:42.263141,-0.1768422126770018
2023-01-28 15:45:42.268141,-0.1793907790879024
2023-01-28 15:45:42.273141,-0.17898182570934287
2023-01-28 15:45:42.278141,-0.1750914929511211
2023-01-28 15:45:42.283141,-0.16648074984550473
2023-01-28 15:45:42.288141,-0.149674637760749
2023-01-28 15:45:42.293141,-0.1221740245819091
2023-01-28 15:45:42.298141,-0.08749296149366818
2023-01-28 15:45:42.303141,-0.05466818809509275
2023-01-28 15:45:42.308141,-0.03264931484976304
2023-01-28 15:45:42.313141,-0.027430256828665584
2023-01-28 15:45:42.318141,-0.04400238563462069
2023-01-28 15:45:42.323141,-0.08613725751638418
2023-01-28 15:45:42.328141,-0.15072788613106577
2023-01-28 15:45:42.333141,-0.22408187389373768
2023-01-28 15:45:42.338141,-0.28715288181206916
2023-01-28 15:45:42.343141,-0.3254127502441406
2023-01-28 15:45:42.348141,-0.3341619091191439
2023-01-28 15:45:42.353141,-0.31723898649215687
2023-01-28 15:45:42.358141,-0.2836725653157983
2023-01-28 15:45:42.363141,-0.2447086572647094
2023-01-28 15:45:42.368141,-0.21018731054799544
2023-01-28 15:45:42.373141,-0.1850881278514862
2023-01-28 15:45:42.378141,-0.16916083434061133
2023-01-28 15:45:42.383141,-0.1596772670745849
2023-01-28 15:45:42.388141,-0.15399434447742671
2023-01-28 15:45:42.393141,-0.1501091420650482
2023-01-28 15:45:42.398141,-0.14653460320458567
2023-01-28 15:45:42.403141,-0.1426084935665131
2023-01-28 15:45:42.408141,-0.13847399467523883
2023-01-28 15:45:42.413141,-0.13433854281902316
2023-01-28 15:45:42.418141,-0.1300533301946627
2023-01-28 15:45:42.423141,-0.12551566958427418
2023-01-28 15:45:42.428141,-0.12096981769050179
2023-01-28 15:45:42.433141,-0.11664470285177227
2023-01-28 15:45:42.438141,-0.11243893960061531
2023-01-28 15:45:42.443141,-0.10815839469432828
2023-01-28 15:45:42.448141,-0.10375099291570905
2023-01-28 15:45:42.453141,-0.09911914914846418
2023-01-28 15:45:42.458141,-0.09397215249321463
2023-01-28 15:45:42.463141,-0.08806049823760978
2023-01-28 15:45:42.468141,-0.08136827962396505
2023-01-28 15:45:42.473141,-0.07394870370626434
2023-01-28 15:45:42.478141,-0.06578385346753307
2023-01-28 15:45:42.483141,-0.05697607994079588
2023-01-28 15:45:42.488141,-0.04793808268045789
2023-01-28 15:45:42.493141,-0.03925820440053931
2023-01-28 15:45:42.498141,-0.03147560743635733
2023-01-28 15:45:42.503141,-0.025050243362784247
2023-01-28 15:45:42.508141,-0.02038042515921361
2023-01-28 15:45:42.513141,-0.017693838104605487
2023-01-28 15:45:42.518141,-0.017002674045662254
2023-01-28 15:45:42.523141,-0.0182948522269725
2023-01-28 15:45:42.528141,-0.021742613969350396
2023-01-28 15:45:42.533141,-0.02767066285014144
2023-01-28 15:45:42.538141,-0.03638302787542345
2023-01-28 15:45:42.543141,-0.048057042062282514
2023-01-28 15:45:42.548141,-0.06267537883091273
2023-01-28 15:45:42.553141,-0.07991075515747063
2023-01-28 15:45:42.558141,-0.09908376458492789
2023-01-28 15:45:42.563141,-0.11931320279836655
2023-01-28 15:45:42.568141,-0.139715563911101
2023-01-28 15:45:42.573141,-0.1594609022140503
2023-01-28 15:45:42.578141,-0.17774768287071807
2023-01-28 15:45:42.583141,-0.19386291503906242
2023-01-28 15:45:42.588141,-0.2072996929118222
2023-01-28 15:45:42.593141,-0.21780729293823226
2023-01-28 15:45:42.598141,-0.22540293229202416
2023-01-28 15:45:42.603141,-0.2304285764694213
2023-01-28 15:45:42.608141,-0.2335592385809086
2023-01-28 15:45:42.613141,-0.23562133312225333
2023-01-28 15:45:42.618141,-0.23730575447551577
2023-01-28 15:45:42.623141,-0.23898701369762415
2023-01-28 15:45:42.628141,-0.24069455282854815
2023-01-28 15:45:42.633141,-0.24216036498546592
