2023-01-27 16:40:50.006468,0.16426901519298548
2023-01-27 16:40:50.011468,0.1773080744643523
2023-01-27 16:40:50.016468,0.14931580424308766
2023-01-27 16:40:50.021468,0.1240530932775199
2023-01-27 16:40:50.026468,0.11318286508321757
2023-01-27 16:40:50.031468,0.09519172213167791
2023-01-27 16:40:50.036468,0.06240924447774875
2023-01-27 16:40:50.041468,0.03314925815602742
2023-01-27 16:40:50.046468,0.018727581948041933
2023-01-27 16:40:50.051468,0.009369728400053142
2023-01-27 16:40:50.056468,-0.0024280946236103205
2023-01-27 16:40:50.061468,-0.009466750948212465
2023-01-27 16:40:50.066468,-0.007717013359069843
2023-01-27 16:40:50.071468,-0.006308663435927504
2023-01-27 16:40:50.076468,-0.01163562200963489
2023-01-27 16:40:50.081468,-0.01758642862125413
2023-01-27 16:40:50.086468,-0.018943946808576497
2023-01-27 16:40:50.091468,-0.02061759297559753
2023-01-27 16:40:50.096468,-0.026492675766348794
2023-01-27 16:40:50.101468,-0.03128468942266479
2023-01-27 16:40:50.106468,-0.030435323715209912
2023-01-27 16:40:50.111468,-0.027690127009227183
2023-01-27 16:40:50.116468,-0.02656479738652707
2023-01-27 16:40:50.121468,-0.023756658792485882
2023-01-27 16:40:50.126468,-0.01702070236206047
2023-01-27 16:40:50.131468,-0.01095709692881502
2023-01-27 16:40:50.136468,-0.009087324142455997
2023-01-27 16:40:50.141468,-0.007750271737168864
2023-01-27 16:40:50.146468,-0.0032454729080200004
2023-01-27 16:40:50.151468,0.0018676507656433707
2023-01-27 16:40:50.156468,0.004423459526151423
2023-01-27 16:40:50.161468,0.005892250753386795
2023-01-27 16:40:50.166468,0.007236202713102078
2023-01-27 16:40:50.171468,0.0048734991075109375
2023-01-27 16:40:50.176468,-0.0033175945281982565
2023-01-27 16:40:50.181468,-0.013395476972773669
2023-01-27 16:40:50.186468,-0.02108355425298206
2023-01-27 16:40:50.191468,-0.027014029076221135
2023-01-27 16:40:50.196468,-0.03247877210378637
2023-01-27 16:40:50.201468,-0.035297406447650954
2023-01-27 16:40:50.206468,-0.03406544774770727
2023-01-27 16:40:50.211468,-0.031725156196298905
2023-01-27 16:40:50.216468,-0.030844014137983204
2023-01-27 16:40:50.221468,-0.029551240234254088
2023-01-27 16:40:50.226468,-0.02569933794438826
2023-01-27 16:40:50.231468,-0.020823134597654995
2023-01-27 16:40:50.236468,-0.016539892181754116
2023-01-27 16:40:50.241468,-0.011224043202244157
2023-01-27 16:40:50.246468,-0.0037984054069966173
2023-01-27 16:40:50.251468,0.00301725101732067
2023-01-27 16:40:50.256468,0.006611148826777864
2023-01-27 16:40:50.261468,0.00804550755911419
2023-01-27 16:40:50.266468,0.008678635582327695
2023-01-27 16:40:50.271468,0.006895773904559296
2023-01-27 16:40:50.276468,0.0013462703209369475
2023-01-27 16:40:50.281468,-0.005984295372782564
2023-01-27 16:40:50.286468,-0.012957851402461496
2023-01-27 16:40:50.291468,-0.020283268008529923
2023-01-27 16:40:50.296468,-0.028512081131339052
2023-01-27 16:40:50.301468,-0.035348453834514
2023-01-27 16:40:50.306468,-0.03892163559794423
2023-01-27 16:40:50.311468,-0.04076998367725165
2023-01-27 16:40:50.316468,-0.04286428540945051
2023-01-27 16:40:50.321468,-0.044632034236325106
2023-01-27 16:40:50.326468,-0.04550874233245845
2023-01-27 16:40:50.331468,-0.047260874664850586
2023-01-27 16:40:50.336468,-0.050749581307172775
2023-01-27 16:40:50.341468,-0.05292183676058845
2023-01-27 16:40:50.346468,-0.04961967468261712
2023-01-27 16:40:50.351468,-0.03901747780511594
2023-01-27 16:40:50.356468,-0.02043445967137819
2023-01-27 16:40:50.361468,0.006716283536553315
2023-01-27 16:40:50.366468,0.03959476947784424
2023-01-27 16:40:50.371468,0.0700700706945354
2023-01-27 16:40:50.376468,0.08933465182781204
2023-01-27 16:40:50.381468,0.09308953144779464
2023-01-27 16:40:50.386468,0.08108874410390844
2023-01-27 16:40:50.391468,0.055084703907867294
2023-01-27 16:40:50.396468,0.0200017299503087
2023-01-27 16:40:50.401468,-0.015844566304715205
2023-01-27 16:40:50.406468,-0.045340459793806055
2023-01-27 16:40:50.411468,-0.06630913285088016
2023-01-27 16:40:50.416468,-0.07918953895568841
2023-01-27 16:40:50.421468,-0.08379490303078561
2023-01-27 16:40:50.426468,-0.08080025762319569
2023-01-27 16:40:50.431468,-0.07362661966421012
2023-01-27 16:40:50.436468,-0.06553451716899869
2023-01-27 16:40:50.441468,-0.05652561055564744
2023-01-27 16:40:50.446468,-0.0457010678946971
2023-01-27 16:40:50.451468,-0.03468850914739671
2023-01-27 16:40:50.456468,-0.025819540023803753
2023-01-27 16:40:50.461468,-0.018560938271060548
2023-01-27 16:40:50.466468,-0.010746121406555094
2023-01-27 16:40:50.471468,-0.0022471992892499106
2023-01-27 16:40:50.476468,0.005144675727933617
2023-01-27 16:40:50.481468,0.0104423373094617
2023-01-27 16:40:50.486468,0.013655027374625137
2023-01-27 16:40:50.491468,0.014212560123608277
2023-01-27 16:40:50.496468,0.011563500389456622
2023-01-27 16:40:50.501468,0.006834373196394223
2023-01-27 16:40:50.506468,0.002139608142897347
2023-01-27 16:40:50.511468,-0.0011328365105364735
2023-01-27 16:40:50.516468,-0.0020915269851683954
2023-01-27 16:40:50.521468,0.00031774675106060595
2023-01-27 16:40:50.526468,0.006034175865352092
2023-01-27 16:40:50.531468,0.01296944565066191
2023-01-27 16:40:50.536468,0.0190160684287548
2023-01-27 16:40:50.541468,0.024204985671537674
2023-01-27 16:40:50.546468,0.029738148674368838
2023-01-27 16:40:50.551468,0.03608105882453499
2023-01-27 16:40:50.556468,0.0432489328086376
2023-01-27 16:40:50.561468,0.05157601077667337
2023-01-27 16:40:50.566468,0.0606542825698851
2023-01-27 16:40:50.571468,0.06869887034375668
2023-01-27 16:40:50.576468,0.07452567666769017
2023-01-27 16:40:50.581468,0.07922908007896419
2023-01-27 16:40:50.586468,0.0846707820892333
2023-01-27 16:40:50.591468,0.09138956256470167
2023-01-27 16:40:50.596468,0.09911914914846418
2023-01-27 16:40:50.601468,0.10800945357281035
2023-01-27 16:40:50.606468,0.11794289201498032
2023-01-27 16:40:50.611468,0.12785033284032754
2023-01-27 16:40:50.616468,0.1371031999588011
2023-01-27 16:40:50.621468,0.14648033438942865
2023-01-27 16:40:50.626468,0.15640775859355915
2023-01-27 16:40:50.631468,0.1652386438147243
2023-01-27 16:40:50.636468,0.17044743895530695
2023-01-27 16:40:50.641468,0.1704742985847633
2023-01-27 16:40:50.646468,0.1644132584333418
2023-01-27 16:40:50.651468,0.1513694739397716
2023-01-27 16:40:50.656468,0.13167004287242873
2023-01-27 16:40:50.661468,0.1077197036057527
2023-01-27 16:40:50.666468,0.08233885467052444
2023-01-27 16:40:50.671468,0.057100246143231094
2023-01-27 16:40:50.676468,0.03319998830556858
2023-01-27 16:40:50.681468,0.012585122591420753
2023-01-27 16:40:50.686468,-0.0031973919831216144
2023-01-27 16:40:50.691468,-0.01429821775756202
2023-01-27 16:40:50.696468,-0.021540325134992513
2023-01-27 16:40:50.701468,-0.025097945671270053
2023-01-27 16:40:50.706468,-0.025242567062377902
2023-01-27 16:40:50.711468,-0.023216905903947364
2023-01-27 16:40:50.716468,-0.02012193202972414
2023-01-27 16:40:50.721468,-0.015958325471660012
2023-01-27 16:40:50.726468,-0.010938446037471256
2023-01-27 16:40:50.731468,-0.0067096151398641736
2023-01-27 16:40:50.736468,-0.005048513412475557
2023-01-27 16:40:50.741468,-0.0061913989555052165
2023-01-27 16:40:50.746468,-0.009399851784110059
2023-01-27 16:40:50.751468,-0.014066320369334358
2023-01-27 16:40:50.756468,-0.01918435096740719
2023-01-27 16:40:50.761468,-0.022918715512655025
2023-01-27 16:40:50.766468,-0.024088621139526308
2023-01-27 16:40:50.771468,-0.023326908205082805
2023-01-27 16:40:50.776468,-0.021756689995527243
2023-01-27 16:40:50.781468,-0.019417484988813356
2023-01-27 16:40:50.786468,-0.015938878059387207
2023-01-27 16:40:50.791468,-0.011688859399328198
2023-01-27 16:40:50.796468,-0.007140040397643995
2023-01-27 16:40:50.801468,-0.002094098538597232
2023-01-27 16:40:50.806468,0.003317594528198147
2023-01-27 16:40:50.811468,0.007758365885156403
2023-01-27 16:40:50.816468,0.00990470312535759
2023-01-27 16:40:50.821468,0.00974076470073182
2023-01-27 16:40:50.826468,0.007765094749629488
2023-01-27 16:40:50.831468,0.003943971039156319
2023-01-27 16:40:50.836468,-0.0015145540237426378
2023-01-27 16:40:50.841468,-0.0073741304436238456
2023-01-27 16:40:50.846468,-0.012549161911010657
2023-01-27 16:40:50.851468,-0.01730428433090815
2023-01-27 16:40:50.856468,-0.022309621796011866
2023-01-27 16:40:50.861468,-0.027318502753394616
2023-01-27 16:40:50.866468,-0.0316133126616477
2023-01-27 16:40:50.871468,-0.03468697972879871
2023-01-27 16:40:50.876468,-0.03541171550750722
2023-01-27 16:40:50.881468,-0.031574140408151666
2023-01-27 16:40:50.886468,-0.021612446755170833
2023-01-27 16:40:50.891468,-0.006383201292916974
2023-01-27 16:40:50.896468,0.011491378769278488
2023-01-27 16:40:50.901468,0.029145610732323773
2023-01-27 16:40:50.906468,0.043633580207824686
2023-01-27 16:40:50.911468,0.051933584700884806
2023-01-27 16:40:50.916468,0.05233625695109362
2023-01-27 16:40:50.921468,0.045420858062990864
2023-01-27 16:40:50.926468,0.03286341950297345
2023-01-27 16:40:50.931468,0.01606153076972875
2023-01-27 16:40:50.936468,-0.003269513603299837
2023-01-27 16:40:50.941468,-0.02219951570409203
2023-01-27 16:40:50.946468,-0.037527285516262
2023-01-27 16:40:50.951468,-0.04714781603530338
2023-01-27 16:40:50.956468,-0.049932204186916254
2023-01-27 16:40:50.961468,-0.04545729068993042
2023-01-27 16:40:50.966468,-0.03505110740661621
2023-01-27 16:40:50.971468,-0.022231540831936437
2023-01-27 16:40:50.976468,-0.010698040947318058
2023-01-27 16:40:50.981468,-0.001933859899544321
2023-01-27 16:40:50.986468,0.0050244731828570175
2023-01-27 16:40:50.991468,0.012653718896278955
2023-01-27 16:40:50.996468,0.024497311562299708
2023-01-27 16:40:51.001468,0.04395024744129076
2023-01-27 16:40:51.006468,0.07130424678325654
2023-01-27 16:40:51.011468,0.10178237006084702
2023-01-27 16:40:51.016468,0.1271985024213789
2023-01-27 16:40:51.021468,0.13951065118345188
2023-01-27 16:40:51.026468,0.13332884013652796
2023-01-27 16:40:51.031468,0.10750915766079172
2023-01-27 16:40:51.036468,0.06656825542449947
2023-01-27 16:40:51.041468,0.020014942146807147
2023-01-27 16:40:51.046468,-0.021588405594229622
2023-01-27 16:40:51.051468,-0.050815922870058254
2023-01-27 16:40:51.056468,-0.06454885005950922
2023-01-27 16:40:51.061468,-0.06319672714798709
2023-01-27 16:40:51.066468,-0.05029281228780742
2023-01-27 16:40:51.071468,-0.03162219221682498
2023-01-27 16:40:51.076468,-0.01262128353118887
2023-01-27 16:40:51.081468,0.003735324194148101
2023-01-27 16:40:51.086468,0.016227364540100004
2023-01-27 16:40:51.091468,0.023836956620829595
2023-01-27 16:40:51.096468,0.026228230446576975
2023-01-27 16:40:51.101468,0.024878398462558057
2023-01-27 16:40:51.106468,0.022045176476240082
2023-01-27 16:40:51.111468,0.018783630857017564
2023-01-27 16:40:51.116468,0.01509745977818963
2023-01-27 16:40:51.121468,0.011603098974132744
2023-01-27 16:40:51.126468,0.009712378494441462
2023-01-27 16:40:51.131468,0.010300068890134184
2023-01-27 16:40:51.136468,0.013270378112792903
2023-01-27 16:40:51.141468,0.01829392375130416
2023-01-27 16:40:51.146468,0.024978121742606097
2023-01-27 16:40:51.151468,0.03243112431579587
2023-01-27 16:40:51.156468,0.0395947694778443
2023-01-27 16:40:51.161468,0.046035551490649446
2023-01-27 16:40:51.166468,0.051831405609846
2023-01-27 16:40:51.171468,0.05696823215885937
2023-01-27 16:40:51.176468,0.06151974201202383
2023-01-27 16:40:51.181468,0.06606777855992647
2023-01-27 16:40:51.186468,0.07116000354289999
2023-01-27 16:40:51.191468,0.07655669649563146
2023-01-27 16:40:51.196468,0.08161763846874227
2023-01-27 16:40:51.201468,0.08611826346110293
2023-01-27 16:40:51.206468,0.09012798964977255
2023-01-27 16:40:51.211468,0.0935675893123918
2023-01-27 16:40:51.216468,0.0966189354658126
2023-01-27 16:40:51.221468,0.10018244232219699
2023-01-27 16:40:51.226468,0.10517736524343485
2023-01-27 16:40:51.231468,0.11164465171034252
2023-01-27 16:40:51.236468,0.1190968379378318
2023-01-27 16:40:51.241468,0.1273416287395069
2023-01-27 16:40:51.246468,0.13635794818401334
2023-01-27 16:40:51.251468,0.14582431747292052
2023-01-27 16:40:51.256468,0.15544614195823653
2023-01-27 16:40:51.261468,0.16529810445545903
2023-01-27 16:40:51.266468,0.17508725821971877
2023-01-27 16:40:51.271468,0.18339326167405737
2023-01-27 16:40:51.276468,0.18830955028533927
2023-01-27 16:40:51.281468,0.1886019428290186
2023-01-27 16:40:51.286468,0.18383800983428947
2023-01-27 16:40:51.291468,0.17399582131495867
2023-01-27 16:40:51.296468,0.15970131754875175
2023-01-27 16:40:51.301468,0.14241881118651864
2023-01-27 16:40:51.306468,0.1235924214124679
2023-01-27 16:40:51.311468,0.10375719753281498
2023-01-27 16:40:51.316468,0.0829639062285423
2023-01-27 16:40:51.321468,0.061673430988745295
2023-01-27 16:40:51.326468,0.040700636804103775
2023-01-27 16:40:51.331468,0.020766808081233306
2023-01-27 16:40:51.336468,0.0027646622620522217
2023-01-27 16:40:51.341468,-0.011966230600436157
2023-01-27 16:40:51.346468,-0.022357702255248964
2023-01-27 16:40:51.351468,-0.02838464732480249
2023-01-27 16:40:51.356468,-0.030675729736685666
2023-01-27 16:40:51.361468,-0.029819257190679717
2023-01-27 16:40:51.366468,-0.026612877845764132
2023-01-27 16:40:51.371468,-0.022478823114396935
2023-01-27 16:40:51.376468,-0.018847784027457237
2023-01-27 16:40:51.381468,-0.01631551764746325
2023-01-27 16:40:51.386468,-0.014833013527095299
2023-01-27 16:40:51.391468,-0.01426731196959697
2023-01-27 16:40:51.396468,-0.014232000336050864
2023-01-27 16:40:51.401468,-0.01390659331552653
2023-01-27 16:40:51.406468,-0.01281360816210495
2023-01-27 16:40:51.411468,-0.011538218370557388
2023-01-27 16:40:51.416468,-0.011106729507446308
2023-01-27 16:40:51.421468,-0.011911482666231507
2023-01-27 16:40:51.426468,-0.0136550273746253
2023-01-27 16:40:51.431468,-0.01584503201086708
2023-01-27 16:40:51.436468,-0.01774191856384262
2023-01-27 16:40:51.441468,-0.018311720200514664
2023-01-27 16:40:51.446468,-0.017044743523001633
2023-01-27 16:40:51.451468,-0.014694753583851044
2023-01-27 16:40:51.456468,-0.012741486541926804
2023-01-27 16:40:51.461468,-0.012387784669488117
2023-01-27 16:40:51.466468,-0.0144002838060259
2023-01-27 16:40:51.471468,-0.01926828867124443
2023-01-27 16:40:51.476468,-0.02668499946594228
2023-01-27 16:40:51.481468,-0.035094113173864336
2023-01-27 16:40:51.486468,-0.042383473366498864
2023-01-27 16:40:51.491468,-0.046945494499818476
2023-01-27 16:40:51.496468,-0.04786471650004378
2023-01-27 16:40:51.501468,-0.04475693964705242
2023-01-27 16:40:51.506468,-0.038224458694457966
2023-01-27 16:40:51.511468,-0.030201690875257252
2023-01-27 16:40:51.516468,-0.023151040077209386
2023-01-27 16:40:51.521468,-0.018902541000890845
2023-01-27 16:40:51.526468,-0.0183910131454467
2023-01-27 16:40:51.531468,-0.021813477508438713
2023-01-27 16:40:51.536468,-0.028271675109863195
2023-01-27 16:40:51.541468,-0.03559456773742031
2023-01-27 16:40:51.546468,-0.04132568836212153
2023-01-27 16:40:51.551468,-0.044010171880863216
2023-01-27 16:40:51.556468,-0.043393176048993946
2023-01-27 16:40:51.561468,-0.03988855328476173
2023-01-27 16:40:51.566468,-0.03437797352671619
2023-01-27 16:40:51.571468,-0.028062079455030385
2023-01-27 16:40:51.576468,-0.02175668999552721
2023-01-27 16:40:51.581468,-0.015454455172849216
2023-01-27 16:40:51.586468,-0.009063283912837476
2023-01-27 16:40:51.591468,-0.003383774504247204
2023-01-27 16:40:51.596468,7.212162017820371e-05
2023-01-27 16:40:51.601468,3.255493476694937e-05
2023-01-27 16:40:51.606468,-0.0040147705003619385
2023-01-27 16:40:51.611468,-0.011712490154452174
2023-01-27 16:40:51.616468,-0.0216364860534667
2023-01-27 16:40:51.621468,-0.03157923756494737
2023-01-27 16:40:51.626468,-0.039811134338378906
2023-01-27 16:40:51.631468,-0.04620044661759975
2023-01-27 16:40:51.636468,-0.051903527230024206
2023-01-27 16:40:51.641468,-0.05814846968295952
2023-01-27 16:40:51.646468,-0.0653421878814697
2023-01-27 16:40:51.651468,-0.07252968701514666
2023-01-27 16:40:51.656468,-0.07688164710998535
2023-01-27 16:40:51.661468,-0.07400470465227404
2023-01-27 16:40:51.666468,-0.05976478382945064
2023-01-27 16:40:51.671468,-0.03256167320005242
2023-01-27 16:40:51.676468,0.005505283828824645
2023-01-27 16:40:51.681468,0.04873407994099229
2023-01-27 16:40:51.686468,0.08870959281921383
2023-01-27 16:40:51.691468,0.11628434582279892
2023-01-27 16:40:51.696468,0.12465020269155498
2023-01-27 16:40:51.701468,0.11190350517642614
2023-01-27 16:40:51.706468,0.0814253091812133
2023-01-27 16:40:51.711468,0.04030620083633376
2023-01-27 16:40:51.716468,-0.002884864807128887
2023-01-27 16:40:51.721468,-0.040363564477602705
2023-01-27 16:40:51.726468,-0.06709714978933329
2023-01-27 16:40:51.731468,-0.0815777869346245
2023-01-27 16:40:51.736468,-0.08498331159353253
2023-01-27 16:40:51.741468,-0.07977199940361798
2023-01-27 16:40:51.746468,-0.06890019029378887
2023-01-27 16:40:51.751468,-0.055557601901870694
2023-01-27 16:40:51.756468,-0.04281620308756821
2023-01-27 16:40:51.761468,-0.03319581112522102
2023-01-27 16:40:51.766468,-0.028247635811567324
2023-01-27 16:40:51.771468,-0.02800464213881157
2023-01-27 16:40:51.776468,-0.03074785135686395
2023-01-27 16:40:51.781468,-0.033885490199437956
2023-01-27 16:40:51.786468,-0.03541171550750732
2023-01-27 16:40:51.791468,-0.03439126546606582
2023-01-27 16:40:51.796468,-0.030411284416913882
2023-01-27 16:40:51.801468,-0.023563555990732312
2023-01-27 16:40:51.806468,-0.01516958139836781
2023-01-27 16:40:51.811468,-0.007517353901591225
2023-01-27 16:40:51.816468,-0.0022357702255249496
2023-01-27 16:40:51.821468,0.0005663418597733311
2023-01-27 16:40:51.826468,0.0012981891632079603
2023-01-27 16:40:51.831468,-9.778711712768502e-05
2023-01-27 16:40:51.836468,-0.0035339593887329006
2023-01-27 16:40:51.841468,-0.00789275035428263
2023-01-27 16:40:51.846468,-0.011467337608337477
2023-01-27 16:40:51.851468,-0.012861221524917364
2023-01-27 16:40:51.856468,-0.011058649048209133
2023-01-27 16:40:51.861468,-0.005410927608593065
2023-01-27 16:40:51.866468,0.0035820405464618735
2023-01-27 16:40:51.871468,0.013902023867870449
2023-01-27 16:40:51.876468,0.0232472028583288
2023-01-27 16:40:51.881468,0.030589998559647794
2023-01-27 16:40:51.886468,0.03630121797323215
2023-01-27 16:40:51.891468,0.041362460483191095
2023-01-27 16:40:51.896468,0.04699925705790504
2023-01-27 16:40:51.901468,0.05440725205016627
2023-01-27 16:40:51.906468,0.0638757199048994
2023-01-27 16:40:51.911468,0.07431010376213831
2023-01-27 16:40:51.916468,0.08421401679515828
2023-01-27 16:40:51.921468,0.09300729191415039
2023-01-27 16:40:51.926468,0.10106643289327617
2023-01-27 16:40:51.931468,0.10895214329201428
2023-01-27 16:40:51.936468,0.11710147559642789
2023-01-27 16:40:51.941468,0.12571184524283935
2023-01-27 16:40:51.946468,0.13409814238548268
2023-01-27 16:40:51.951468,0.14036094784079323
2023-01-27 16:40:51.956468,0.14234404265880585
2023-01-27 16:40:51.961468,0.13886872015919338
2023-01-27 16:40:51.966468,0.12977084517478932
2023-01-27 16:40:51.971468,0.1152588472903977
2023-01-27 16:40:51.976468,0.09589771926403028
2023-01-27 16:40:51.981468,0.07291105017842023
2023-01-27 16:40:51.986468,0.047840677201747776
2023-01-27 16:40:51.991468,0.022065584450854065
2023-01-27 16:40:51.996468,-0.0029089055024087143
2023-01-27 16:40:52.001468,-0.025089178219074425
2023-01-27 16:40:52.006468,-0.042647920548915794
2023-01-27 16:40:52.011468,-0.05490705889385108
2023-01-27 16:40:52.016468,-0.06233712285757055
2023-01-27 16:40:52.021468,-0.06591599685836853
2023-01-27 16:40:52.026468,-0.06692886352539054
2023-01-27 16:40:52.031468,-0.06691887022389353
2023-01-27 16:40:52.036468,-0.06700098514556879
2023-01-27 16:40:52.041468,-0.06719094259909744
2023-01-27 16:40:52.046468,-0.06680866330862036
2023-01-27 16:40:52.051468,-0.06539625260867576
2023-01-27 16:40:52.056468,-0.06296217441558827
2023-01-27 16:40:52.061468,-0.05979470839646072
2023-01-27 16:40:52.066468,-0.056663554161786964
2023-01-27 16:40:52.071468,-0.05492290694322748
2023-01-27 16:40:52.076468,-0.05570193380117402
2023-01-27 16:40:52.081468,-0.058937116242749575
2023-01-27 16:40:52.086468,-0.06349106878042222
2023-01-27 16:40:52.091468,-0.06799340877282788
2023-01-27 16:40:52.096468,-0.0712802037596702
2023-01-27 16:40:52.101468,-0.07254622536568121
2023-01-27 16:40:52.106468,-0.07183313369750971
2023-01-27 16:40:52.111468,-0.07026467081288879
2023-01-27 16:40:52.116468,-0.06921271979808798
2023-01-27 16:40:52.121468,-0.06917276250547508
2023-01-27 16:40:52.126468,-0.06964544951915744
2023-01-27 16:40:52.131468,-0.06977404631830104
2023-01-27 16:40:52.136468,-0.0687319040298461
2023-01-27 16:40:52.141468,-0.06598918295644826
2023-01-27 16:40:52.146468,-0.06197651475667957
2023-01-27 16:40:52.151468,-0.05840990153414949
2023-01-27 16:40:52.156468,-0.05736073106527321
2023-01-27 16:40:52.161468,-0.05985366611942758
2023-01-27 16:40:52.166468,-0.06541430950164787
2023-01-27 16:40:52.171468,-0.07250228377211174
2023-01-27 16:40:52.176468,-0.07894913852214806
2023-01-27 16:40:52.181468,-0.0825216239585097
2023-01-27 16:40:52.186468,-0.08202632516622536
2023-01-27 16:40:52.191468,-0.07810777708163355
2023-01-27 16:40:52.196468,-0.07272263616323463
2023-01-27 16:40:52.201468,-0.06794528997524708
2023-01-27 16:40:52.206468,-0.0653662309050559
2023-01-27 16:40:52.211468,-0.06591498510147561
2023-01-27 16:40:52.216468,-0.06933292001485819
2023-01-27 16:40:52.221468,-0.07380068178548799
2023-01-27 16:40:52.226468,-0.07664124667644497
2023-01-27 16:40:52.231468,-0.07555367474898265
2023-01-27 16:40:52.236468,-0.06923675537109368
2023-01-27 16:40:52.241468,-0.05757175745712879
2023-01-27 16:40:52.246468,-0.042046904563903836
2023-01-27 16:40:52.251468,-0.025852430984610236
2023-01-27 16:40:52.256468,-0.012789567932486572
2023-01-27 16:40:52.261468,-0.005729003295783608
2023-01-27 16:40:52.266468,-0.005938013549894
2023-01-27 16:40:52.271468,-0.013125449992515768
2023-01-27 16:40:52.276468,-0.025386810302734316
2023-01-27 16:40:52.281468,-0.039459693117605825
2023-01-27 16:40:52.286468,-0.05202373117208475
2023-01-27 16:40:52.291468,-0.061195821970350284
2023-01-27 16:40:52.296468,-0.06683270633220674
2023-01-27 16:40:52.301468,-0.06988955857734942
2023-01-27 16:40:52.306468,-0.07192929834127418
2023-01-27 16:40:52.311468,-0.07466080709607979
2023-01-27 16:40:52.316468,-0.07890105247497559
2023-01-27 16:40:52.321468,-0.08372336284457142
2023-01-27 16:40:52.326468,-0.08688251674175262
2023-01-27 16:40:52.331468,-0.08586665408657092
2023-01-27 16:40:52.336468,-0.0782760009169578
2023-01-27 16:40:52.341468,-0.061903485149936564
2023-01-27 16:40:52.346468,-0.03565212339162815
2023-01-27 16:40:52.351468,-0.0008015779639907521
2023-01-27 16:40:52.356468,0.038729310035705566
2023-01-27 16:40:52.361468,0.07704080565392402
2023-01-27 16:40:52.366468,0.10700444877147675
2023-01-27 16:40:52.371468,0.12158112674713593
2023-01-27 16:40:52.376468,0.11635621637105938
2023-01-27 16:40:52.381468,0.091824078349397
2023-01-27 16:40:52.386468,0.053297877311706446
2023-01-27 16:40:52.391468,0.008781166900429384
2023-01-27 16:40:52.396468,-0.03324806690216057
2023-01-27 16:40:52.401468,-0.06568248582015493
2023-01-27 16:40:52.406468,-0.08479098975658404
2023-01-27 16:40:52.411468,-0.09125150026570822
2023-01-27 16:40:52.416468,-0.08861343562602991
2023-01-27 16:40:52.421468,-0.0805208126583509
2023-01-27 16:40:52.426468,-0.069669485092163
2023-01-27 16:40:52.431468,-0.058542735283354116
2023-01-27 16:40:52.436468,-0.04928310960531222
2023-01-27 16:40:52.441468,-0.042288304460329065
2023-01-27 16:40:52.446468,-0.036156974732875824
2023-01-27 16:40:52.451468,-0.029781668810891188
2023-01-27 16:40:52.456468,-0.023752054199576305
2023-01-27 16:40:52.461468,-0.019190608014125133
2023-01-27 16:40:52.466468,-0.016083121299743576
2023-01-27 16:40:52.471468,-0.013510759763384053
2023-01-27 16:40:52.476468,-0.010866324417292938
2023-01-27 16:40:52.481468,-0.00800384302435855
2023-01-27 16:40:52.486468,-0.004615783691406174
2023-01-27 16:40:52.491468,-0.00033062650718084305
2023-01-27 16:40:52.496468,0.004639824386686087
2023-01-27 16:40:52.501468,0.009492620033872043
2023-01-27 16:40:52.506468,0.013390581123530816
2023-01-27 16:40:52.511468,0.01568501762007972
2023-01-27 16:40:52.516468,0.01589079760015007
2023-01-27 16:40:52.521468,0.014054854502037063
2023-01-27 16:40:52.526468,0.011202892288565663
2023-01-27 16:40:52.531468,0.00908299057448294
2023-01-27 16:40:52.536468,0.009375810623168888
2023-01-27 16:40:52.541468,0.013116329884972496
2023-01-27 16:40:52.546468,0.020434459671378153
2023-01-27 16:40:52.551468,0.03038001269150825
2023-01-27 16:40:52.556468,0.04113336652517314
2023-01-27 16:40:52.561468,0.05090083330122887
2023-01-27 16:40:52.566468,0.05889932438731191
2023-01-27 16:40:52.571468,0.06558897590609844
2023-01-27 16:40:52.576468,0.07216970622539522
2023-01-27 16:40:52.581468,0.07989208427538642
2023-01-27 16:40:52.586468,0.08940677344799042
2023-01-27 16:40:52.591468,0.1002683365123855
2023-01-27 16:40:52.596468,0.11104325950145713
2023-01-27 16:40:52.601468,0.1201827114826351
2023-01-27 16:40:52.606468,0.12695810198783866
2023-01-27 16:40:52.611468,0.13168664861630447
2023-01-27 16:40:52.616468,0.1353242099285124
2023-01-27 16:40:52.621468,0.13891309855218412
2023-01-27 16:40:52.626468,0.14301717281341542
2023-01-27 16:40:52.631468,0.1472126182074071
2023-01-27 16:40:52.636468,0.15006105601787548
2023-01-27 16:40:52.641468,0.14975676259180626
2023-01-27 16:40:52.646468,0.14489233493804923
2023-01-27 16:40:52.651468,0.13476298543099247
2023-01-27 16:40:52.656468,0.1193612813949584
2023-01-27 16:40:52.661468,0.09942479370541588
2023-01-27 16:40:52.666468,0.07640083879232396
2023-01-27 16:40:52.671468,0.052114121793583656
2023-01-27 16:40:52.676468,0.02841591835021969
2023-01-27 16:40:52.681468,0.007091083125803654
2023-01-27 16:40:52.686468,-0.010265311226248627
2023-01-27 16:40:52.691468,-0.022688821496307725
2023-01-27 16:40:52.696468,-0.03024300001561638
2023-01-27 16:40:52.701468,-0.03390763743649281
2023-01-27 16:40:52.706468,-0.03512322902679442
2023-01-27 16:40:52.711468,-0.035384636758010485
2023-01-27 16:40:52.716468,-0.03584444522857647
2023-01-27 16:40:52.721468,-0.036824004305632936
2023-01-27 16:40:52.726468,-0.03762344643473617
2023-01-27 16:40:52.731468,-0.03700401985044953
2023-01-27 16:40:52.736468,-0.033993326127529096
2023-01-27 16:40:52.741468,-0.02838358603440062
2023-01-27 16:40:52.746468,-0.020819108933210262
2023-01-27 16:40:52.751468,-0.012686716506504448
2023-01-27 16:40:52.756468,-0.005745689384639102
2023-01-27 16:40:52.761468,-0.001435747894252188
2023-01-27 16:40:52.766468,-0.00031252703047347075
2023-01-27 16:40:52.771468,-0.002091944765085221
2023-01-27 16:40:52.776468,-0.006082256790250511
2023-01-27 16:40:52.781468,-0.01144960708689724
2023-01-27 16:40:52.786468,-0.01726110838353631
2023-01-27 16:40:52.791468,-0.022598030065638795
2023-01-27 16:40:52.796468,-0.026709040626883507
2023-01-27 16:40:52.801468,-0.029003246026886226
2023-01-27 16:40:52.806468,-0.02906501293182371
2023-01-27 16:40:52.811468,-0.026945983395016675
2023-01-27 16:40:52.816468,-0.023415487259626257
2023-01-27 16:40:52.821468,-0.019655174262386197
2023-01-27 16:40:52.826468,-0.01656393334269512
2023-01-27 16:40:52.831468,-0.014333291535761248
2023-01-27 16:40:52.836468,-0.012525121681392078
2023-01-27 16:40:52.841468,-0.010379356275031644
2023-01-27 16:40:52.846468,-0.007236202713101989
2023-01-27 16:40:52.851468,-0.003097866991776167
2023-01-27 16:40:52.856468,0.001057783840224071
2023-01-27 16:40:52.861468,0.003727467217457596
2023-01-27 16:40:52.866468,0.0038705270271747923
2023-01-27 16:40:52.871468,0.0015952713488085804
2023-01-27 16:40:52.876468,-0.0018751621246336184
2023-01-27 16:40:52.881468,-0.004692636837694219
2023-01-27 16:40:52.886468,-0.005072554107755365
2023-01-27 16:40:52.891468,-0.002105903803790549
2023-01-27 16:40:52.896468,0.0037022433243691353
2023-01-27 16:40:52.901468,0.010700934065255144
2023-01-27 16:40:52.906468,0.01699666306376448
2023-01-27 16:40:52.911468,0.02120793814701835
2023-01-27 16:40:52.916468,0.022718310356140137
2023-01-27 16:40:52.921468,0.02171544350949019
2023-01-27 16:40:52.926468,0.019088190048933067
2023-01-27 16:40:52.931468,0.015895043345109
2023-01-27 16:40:52.936468,0.01262128353118885
2023-01-27 16:40:52.941468,0.008974813620685836
2023-01-27 16:40:52.946468,0.004375378601253071
2023-01-27 16:40:52.951468,-0.0015554512524572032
2023-01-27 16:40:52.956468,-0.008895000442862473
2023-01-27 16:40:52.961468,-0.017362960648765597
2023-01-27 16:40:52.966468,-0.026204189285635796
2023-01-27 16:40:52.971468,-0.03444997809883004
2023-01-27 16:40:52.976468,-0.041421853005885946
2023-01-27 16:40:52.981468,-0.04655772085052232
2023-01-27 16:40:52.986468,-0.04841765016317352
2023-01-27 16:40:52.991468,-0.04413650255826794
2023-01-27 16:40:52.996468,-0.03031512163579458
2023-01-27 16:40:53.001468,-0.004804279416899002
2023-01-27 16:40:53.006468,0.03161331266164772
2023-01-27 16:40:53.011468,0.07403045486818878
2023-01-27 16:40:53.016468,0.11335115134716034
2023-01-27 16:40:53.021468,0.13855832207496305
2023-01-27 16:40:53.026468,0.14109393954277033
2023-01-27 16:40:53.031468,0.11869180980416058
2023-01-27 16:40:53.036468,0.07616043090820312
2023-01-27 16:40:53.041468,0.02339219994644414
2023-01-27 16:40:53.046468,-0.027694702148437472
2023-01-27 16:40:53.051468,-0.06662222506563728
2023-01-27 16:40:53.056468,-0.08777201175689682
2023-01-27 16:40:53.061468,-0.09177546758968379
2023-01-27 16:40:53.066468,-0.08339663594961153
2023-01-27 16:40:53.071468,-0.06793791331223316
2023-01-27 16:40:53.076468,-0.049619674682616986
2023-01-27 16:40:53.081468,-0.03202472437710885
2023-01-27 16:40:53.086468,-0.017814040184020864
2023-01-27 16:40:53.091468,-0.00724603367897934
2023-01-27 16:40:53.096468,0.001658797264099159
2023-01-27 16:40:53.101468,0.010344498896682656
2023-01-27 16:40:53.106468,0.017669796943664568
2023-01-27 16:40:53.111468,0.021331778773450726
2023-01-27 16:40:53.116468,0.020674865692853945
2023-01-27 16:40:53.121468,0.017257495675295557
2023-01-27 16:40:53.126468,0.013246337883174458
2023-01-27 16:40:53.131468,0.010349584387063734
2023-01-27 16:40:53.136468,0.01000086497515438
2023-01-27 16:40:53.141468,0.013184023146416923
2023-01-27 16:40:53.146468,0.019520919770002365
2023-01-27 16:40:53.151468,0.02718298357682361
2023-01-27 16:40:53.156468,0.03418564796447751
2023-01-27 16:40:53.161468,0.03959528965590869
2023-01-27 16:40:53.166468,0.04356145858764652
2023-01-27 16:40:53.171468,0.04682751052525255
2023-01-27 16:40:53.176468,0.05046109482645983
2023-01-27 16:40:53.181468,0.05542976323002004
2023-01-27 16:40:53.186468,0.0617601498961448
2023-01-27 16:40:53.191468,0.06809894545431142
2023-01-27 16:40:53.196468,0.0723860710859299
2023-01-27 16:40:53.201468,0.07309964198468148
2023-01-27 16:40:53.206468,0.07010221481323246
2023-01-27 16:40:53.211468,0.06484514861083107
2023-01-27 16:40:53.216468,0.060101352632045725
2023-01-27 16:40:53.221468,0.0591251725415281
2023-01-27 16:40:53.226468,0.06428440660238256
2023-01-27 16:40:53.231468,0.07593352321571287
2023-01-27 16:40:53.236468,0.09238779544830318
2023-01-27 16:40:53.241468,0.1109352977133909
2023-01-27 16:40:53.246468,0.12904962897300717
2023-01-27 16:40:53.251468,0.14515278456705186
2023-01-27 16:40:53.256468,0.15881180763244618
2023-01-27 16:40:53.261468,0.17040443069604638
2023-01-27 16:40:53.266468,0.1803281009197234
2023-01-27 16:40:53.271468,0.18817617600691347
2023-01-27 16:40:53.276468,0.1925406903028487
2023-01-27 16:40:53.281468,0.19164624368895816
2023-01-27 16:40:53.286468,0.18427073955535878
2023-01-27 16:40:53.291468,0.17027386758592655
2023-01-27 16:40:53.296468,0.15058994293212885
2023-01-27 16:40:53.301468,0.12693004718341894
2023-01-27 16:40:53.306468,0.10133087635040279
2023-01-27 16:40:53.311468,0.07562674728018653
2023-01-27 16:40:53.316468,0.05115827172994608
2023-01-27 16:40:53.321468,0.028968054279405908
2023-01-27 16:40:53.326468,0.010145108215510864
2023-01-27 16:40:53.331468,-0.0042666766661283
2023-01-27 16:40:53.336468,-0.013751189224421902
2023-01-27 16:40:53.341468,-0.01857327124741825
2023-01-27 16:40:53.346468,-0.019569000229239405
2023-01-27 16:40:53.351468,-0.017867685460652392
2023-01-27 16:40:53.356468,-0.014760891906916887
2023-01-27 16:40:53.361468,-0.011476645764068033
2023-01-27 16:40:53.366468,-0.008870959281921253
2023-01-27 16:40:53.371468,-0.007448324134141425
2023-01-27 16:40:53.376468,-0.0076689324341713055
2023-01-27 16:40:53.381468,-0.009929875373826651
2023-01-27 16:40:53.386468,-0.014135837554931602
2023-01-27 16:40:53.391468,-0.019582963834755104
2023-01-27 16:40:53.396468,-0.025434892624616547
2023-01-27 16:40:53.401468,-0.03109200573103921
2023-01-27 16:40:53.406468,-0.0360127314925193
2023-01-27 16:40:53.411468,-0.03951690872885151
2023-01-27 16:40:53.416468,-0.04096508026123037
2023-01-27 16:40:53.421468,-0.03988207857236356
2023-01-27 16:40:53.426468,-0.035844445228576584
2023-01-27 16:40:53.431468,-0.028732301942655584
2023-01-27 16:40:53.436468,-0.019400715827941836
2023-01-27 16:40:53.441468,-0.009739193275666953
2023-01-27 16:40:53.446468,-0.001706878421828094
2023-01-27 16:40:53.451468,0.0035457185933199372
2023-01-27 16:40:53.456468,0.005625486373901367
2023-01-27 16:40:53.461468,0.004610637007349244
2023-01-27 16:40:53.466468,0.0011779865017160773
2023-01-27 16:40:53.471468,-0.0035201982021091944
2023-01-27 16:40:53.476468,-0.008630554191768131
2023-01-27 16:40:53.481468,-0.013990384894774175
2023-01-27 16:40:53.486468,-0.01952091977000225
2023-01-27 16:40:53.491468,-0.024759704789493034
2023-01-27 16:40:53.496468,-0.02935349941253662
2023-01-27 16:40:53.501468,-0.03340583086804433
2023-01-27 16:40:53.506468,-0.03680606931447983
2023-01-27 16:40:53.511468,-0.03874044909102912
2023-01-27 16:40:53.516468,-0.038416784256696625
2023-01-27 16:40:53.521468,-0.035791535194710185
2023-01-27 16:40:53.526468,-0.031132500618696136
2023-01-27 16:40:53.531468,-0.024550779483791984
2023-01-27 16:40:53.536468,-0.016587972640991152
2023-01-27 16:40:53.541468,-0.008555800529744981
2023-01-27 16:40:53.546468,-0.0015385946026070768
2023-01-27 16:40:53.551468,0.004275886683447993
2023-01-27 16:40:53.556468,0.008510351181030273
2023-01-27 16:40:53.561468,0.009616272163656106
2023-01-27 16:40:53.566468,0.005938013549894056
2023-01-27 16:40:53.571468,-0.002825567518185134
2023-01-27 16:40:53.576468,-0.01589079760015007
2023-01-27 16:40:53.581468,-0.03199795644168106
2023-01-27 16:40:53.586468,-0.04858593270182594
2023-01-27 16:40:53.591468,-0.06153009916845309
2023-01-27 16:40:53.596468,-0.06752987951040258
2023-01-27 16:40:53.601468,-0.06648703186260889
2023-01-27 16:40:53.606468,-0.06060620397329321
2023-01-27 16:40:53.611468,-0.052289123402319566
2023-01-27 16:40:53.616468,-0.044186513870954534
2023-01-27 16:40:53.621468,-0.039377535963109736
2023-01-27 16:40:53.626468,-0.038536988198757054
2023-01-27 16:40:53.631468,-0.037471178320487374
2023-01-27 16:40:53.636468,-0.029978554695844612
2023-01-27 16:40:53.641468,-0.012872004674550111
2023-01-27 16:40:53.646468,0.013414621353149395
2023-01-27 16:40:53.651468,0.04679004574533195
2023-01-27 16:40:53.656468,0.08173783868551251
2023-01-27 16:40:53.661468,0.10691276863933652
2023-01-27 16:40:53.666468,0.11085093021392817
2023-01-27 16:40:53.671468,0.09229822427441767
2023-01-27 16:40:53.676468,0.06082256883382792
2023-01-27 16:40:53.681468,0.025666464332732147
2023-01-27 16:40:53.686468,-0.011178851127624512
2023-01-27 16:40:53.691468,-0.04845835628874637
2023-01-27 16:40:53.696468,-0.07827600091695777
2023-01-27 16:40:53.701468,-0.09137781078345612
2023-01-27 16:40:53.706468,-0.0874114036560058
2023-01-27 16:40:53.711468,-0.07458453713218896
2023-01-27 16:40:53.716468,-0.06036579608917229
2023-01-27 16:40:53.721468,-0.047274814906724354
2023-01-27 16:40:53.726468,-0.036685865372419316
2023-01-27 16:40:53.731468,-0.03080104359927494
2023-01-27 16:40:53.736468,-0.02937754057347768
2023-01-27 16:40:53.741468,-0.028689831530725653
2023-01-27 16:40:53.746468,-0.025771459564566574
2023-01-27 16:40:53.751468,-0.021229272533846464
2023-01-27 16:40:53.756468,-0.016900500282645243
2023-01-27 16:40:53.761468,-0.013447314051827986
2023-01-27 16:40:53.766468,-0.011419257149100312
2023-01-27 16:40:53.771468,-0.01201479154144809
2023-01-27 16:40:53.776468,-0.015025338158011369
2023-01-27 16:40:53.781468,-0.01778650330574601
2023-01-27 16:40:53.786468,-0.017621716484427338
2023-01-27 16:40:53.791468,-0.014056982543296044
2023-01-27 16:40:53.796468,-0.007861256599426289
2023-01-27 16:40:53.801468,0.0003162500803999156
2023-01-27 16:40:53.806468,0.00920752715319396
2023-01-27 16:40:53.811468,0.01646492123615826
2023-01-27 16:40:53.816468,0.020458500832319232
2023-01-27 16:40:53.821468,0.021720212311607003
2023-01-27 16:40:53.826468,0.021804770454764345
2023-01-27 16:40:53.831468,0.021823738629252205
2023-01-27 16:40:53.836468,0.022862553596496544
2023-01-27 16:40:53.841468,0.026455358113528425
2023-01-27 16:40:53.846468,0.03332018852233881
2023-01-27 16:40:53.851468,0.042315946708058126
2023-01-27 16:40:53.856468,0.05154291912913321
2023-01-27 16:40:53.861468,0.05983997957433261
2023-01-27 16:40:53.866468,0.0667124986648559
2023-01-27 16:40:53.871468,0.07196260733646974
2023-01-27 16:40:53.876468,0.07642488181591028
2023-01-27 16:40:53.881468,0.08224275198221256
2023-01-27 16:40:53.886468,0.09128193557262416
2023-01-27 16:40:53.891468,0.10351668898438572
2023-01-27 16:40:53.896468,0.11738996207714077
2023-01-27 16:40:53.901468,0.130998442405399
2023-01-27 16:40:53.906468,0.14234404265880574
2023-01-27 16:40:53.911468,0.14938671719713634
2023-01-27 16:40:53.916468,0.15097460150718672
2023-01-27 16:40:53.921468,0.14744932396528998
2023-01-27 16:40:53.926468,0.1397236287593841
2023-01-27 16:40:53.931468,0.12817988433929456
2023-01-27 16:40:53.936468,0.11296650022268291
2023-01-27 16:40:53.941468,0.09476618583992666
2023-01-27 16:40:53.946468,0.07459779828786844
2023-01-27 16:40:53.951468,0.053332059472668086
2023-01-27 16:40:53.956468,0.03202199935913083
2023-01-27 16:40:53.961468,0.012232209829101507
2023-01-27 16:40:53.966468,-0.004687905311584378
2023-01-27 16:40:53.971468,-0.01846114321191589
2023-01-27 16:40:53.976468,-0.029617946594953523
2023-01-27 16:40:53.981468,-0.038761574079348306
2023-01-27 16:40:53.986468,-0.046470366418361546
2023-01-27 16:40:53.991468,-0.05333987412746458
2023-01-27 16:40:53.996468,-0.05940417572855936
2023-01-27 16:40:54.001468,-0.06375376390137785
2023-01-27 16:40:54.006468,-0.06529410928487764
2023-01-27 16:40:54.011468,-0.06380645485137594
2023-01-27 16:40:54.016468,-0.060053270310163345
2023-01-27 16:40:54.021468,-0.055250747125949184
2023-01-27 16:40:54.026468,-0.05079766362905504
2023-01-27 16:40:54.031468,-0.04800932487075037
2023-01-27 16:40:54.036468,-0.047407947480678427
2023-01-27 16:40:54.041468,-0.0483295558102346
2023-01-27 16:40:54.046468,-0.04961967468261699
2023-01-27 16:40:54.051468,-0.050646650536777825
2023-01-27 16:40:54.056468,-0.05147079750895496
2023-01-27 16:40:54.061468,-0.052374274050477
2023-01-27 16:40:54.066468,-0.053586363792419406
2023-01-27 16:40:54.071468,-0.055162634478931064
2023-01-27 16:40:54.076468,-0.05666355416178699
2023-01-27 16:40:54.081468,-0.05710084672570872
2023-01-27 16:40:54.086468,-0.05565385147929189
2023-01-27 16:40:54.091468,-0.05250010894706285
2023-01-27 16:40:54.096468,-0.04877825826406467
2023-01-27 16:40:54.101468,-0.04581974769679644
2023-01-27 16:40:54.106468,-0.044499039649963185
2023-01-27 16:40:54.111468,-0.04500265010547855
2023-01-27 16:40:54.116468,-0.046830974519252604
2023-01-27 16:40:54.121468,-0.049097462441845055
2023-01-27 16:40:54.126468,-0.0511823110282421
2023-01-27 16:40:54.131468,-0.05322263375675763
2023-01-27 16:40:54.136468,-0.05587021633982643
2023-01-27 16:40:54.141468,-0.05954842015177911
2023-01-27 16:40:54.146468,-0.06397187709808333
2023-01-27 16:40:54.151468,-0.06830612066274383
2023-01-27 16:40:54.156468,-0.07171293348073947
2023-01-27 16:40:54.161468,-0.07384124064049925
2023-01-27 16:40:54.166468,-0.07498244941234575
2023-01-27 16:40:54.171468,-0.07581353168052977
2023-01-27 16:40:54.176468,-0.07683356851339342
2023-01-27 16:40:54.181468,-0.07777222657385849
2023-01-27 16:40:54.186468,-0.07738649845123287
2023-01-27 16:40:54.191468,-0.07397812274168566
2023-01-27 16:40:54.196468,-0.06642401218414304
2023-01-27 16:40:54.201468,-0.05491614547008304
2023-01-27 16:40:54.206468,-0.04086891934275614
2023-01-27 16:40:54.211468,-0.026407398079424875
2023-01-27 16:40:54.216468,-0.01403967570513483
2023-01-27 16:40:54.221468,-0.0062755540831870085
2023-01-27 16:40:54.226468,-0.004808108322322236
2023-01-27 16:40:54.231468,-0.009904011930845438
2023-01-27 16:40:54.236468,-0.02074698731303215
2023-01-27 16:40:54.241468,-0.03601573512923855
2023-01-27 16:40:54.246468,-0.053682528436183936
2023-01-27 16:40:54.251468,-0.07084244760573927
2023-01-27 16:40:54.256468,-0.084839068353176
2023-01-27 16:40:54.261468,-0.09456907717981933
2023-01-27 16:40:54.266468,-0.10000865161418897
2023-01-27 16:40:54.271468,-0.10100749068987003
2023-01-27 16:40:54.276468,-0.09786903858184809
2023-01-27 16:40:54.281468,-0.09262581369778904
2023-01-27 16:40:54.286468,-0.08762776851654047
2023-01-27 16:40:54.291468,-0.08252315061362314
2023-01-27 16:40:54.296468,-0.07462184131145466
2023-01-27 16:40:54.301468,-0.06268814658765037
2023-01-27 16:40:54.306468,-0.04784067720174777
2023-01-27 16:40:54.311468,-0.029567054806469702
2023-01-27 16:40:54.316468,-0.0040147705003619
2023-01-27 16:40:54.321468,0.030502707111871606
2023-01-27 16:40:54.326468,0.0675298795104026
2023-01-27 16:40:54.331468,0.09495164220233941
2023-01-27 16:40:54.336468,0.10327816009521476
2023-01-27 16:40:54.341468,0.08999323932638353
2023-01-27 16:40:54.346468,0.05779346078634258
2023-01-27 16:40:54.351468,0.012714694882282282
2023-01-27 16:40:54.356468,-0.03574828431010243
2023-01-27 16:40:54.361468,-0.07679706368286378
2023-01-27 16:40:54.366468,-0.10349452495574946
2023-01-27 16:40:54.371468,-0.11533681227990841
2023-01-27 16:40:54.376468,-0.11561095714569088
2023-01-27 16:40:54.381468,-0.10800108191055585
2023-01-27 16:40:54.386468,-0.09606599807739247
2023-01-27 16:40:54.391468,-0.08338967087823931
2023-01-27 16:40:54.396468,-0.07224182784557334
2023-01-27 16:40:54.401468,-0.0629266555872364
2023-01-27 16:40:54.406468,-0.055365364998578935
2023-01-27 16:40:54.411468,-0.05024460393139752
2023-01-27 16:40:54.416468,-0.0478166341781616
2023-01-27 16:40:54.421468,-0.04683124983531441
2023-01-27 16:40:54.426468,-0.045749150216579396
2023-01-27 16:40:54.431468,-0.04417469159794189
2023-01-27 16:40:54.436468,-0.04235943406820293
2023-01-27 16:40:54.441468,-0.040353535439734495
2023-01-27 16:40:54.446468,-0.038536988198757074
2023-01-27 16:40:54.451468,-0.037964381611028476
2023-01-27 16:40:54.456468,-0.03906587883830071
2023-01-27 16:40:54.461468,-0.040612406853919696
2023-01-27 16:40:54.466468,-0.040796797722578
2023-01-27 16:40:54.471468,-0.03879274626323072
2023-01-27 16:40:54.476468,-0.034738581627607346
2023-01-27 16:40:54.481468,-0.029120304111209454
2023-01-27 16:40:54.486468,-0.022982757538556976
2023-01-27 16:40:54.491468,-0.017864036203953673
2023-01-27 16:40:54.496468,-0.014400283806025914
2023-01-27 16:40:54.501468,-0.011345130689302303
2023-01-27 16:40:54.506468,-0.006683270446956091
2023-01-27 16:40:54.511468,0.0006373851482612688
2023-01-27 16:40:54.516468,0.010409554466605018
2023-01-27 16:40:54.521468,0.02169933209167759
2023-01-27 16:40:54.526468,0.03291150182485578
2023-01-27 16:40:54.531468,0.042120117047572674
2023-01-27 16:40:54.536468,0.04844168946146953
2023-01-27 16:40:54.541468,0.05292674436518667
2023-01-27 16:40:54.546468,0.05755305290222143
2023-01-27 16:40:54.551468,0.06367662984665255
2023-01-27 16:40:54.556468,0.07176101207733138
2023-01-27 16:40:54.561468,0.08175232649065718
2023-01-27 16:40:54.566468,0.09284456819295878
2023-01-27 16:40:54.571468,0.10337038453665853
2023-01-27 16:40:54.576468,0.11178851127624503
2023-01-27 16:40:54.581468,0.11760807467679979
2023-01-27 16:40:54.586468,0.12089987844228739
2023-01-27 16:40:54.591468,0.12136161949679646
2023-01-27 16:40:54.596468,0.11839966475963581
2023-01-27 16:40:54.601468,0.11163334969076628
2023-01-27 16:40:54.606468,0.10072986781597128
2023-01-27 16:40:54.611468,0.08527262294280696
2023-01-27 16:40:54.616468,0.06555855274200434
2023-01-27 16:40:54.621468,0.04325313614600773
2023-01-27 16:40:54.626468,0.02065082453191273
2023-01-27 16:40:54.631468,-0.0005311243350900412
2023-01-27 16:40:54.636468,-0.019352635368704678
2023-01-27 16:40:54.641468,-0.03526714356053388
2023-01-27 16:40:54.646468,-0.04817724227905268
2023-01-27 16:40:54.651468,-0.05844891054703898
2023-01-27 16:40:54.656468,-0.06623169034719466
2023-01-27 16:40:54.661468,-0.07108887865754633
2023-01-27 16:40:54.666468,-0.07289092242717737
2023-01-27 16:40:54.671468,-0.07280263736993113
2023-01-27 16:40:54.676468,-0.07284283638000484
2023-01-27 16:40:54.681468,-0.07461420413475207
2023-01-27 16:40:54.686468,-0.07863660901784891
2023-01-27 16:40:54.691468,-0.08424342651830037
2023-01-27 16:40:54.696468,-0.08947889506816856
2023-01-27 16:40:54.701468,-0.09165092488514312
2023-01-27 16:40:54.706468,-0.08904616534709936
2023-01-27 16:40:54.711468,-0.08239472953976482
2023-01-27 16:40:54.716468,-0.07447759807109837
2023-01-27 16:40:54.721468,-0.06846600501484734
2023-01-27 16:40:54.726468,-0.06659229844808574
2023-01-27 16:40:54.731468,-0.06942940237068106
2023-01-27 16:40:54.736468,-0.07541517913341513
2023-01-27 16:40:54.741468,-0.08124975857190136
2023-01-27 16:40:54.746468,-0.08366107940673818
2023-01-27 16:40:54.751468,-0.0812530420389945
2023-01-27 16:40:54.756468,-0.07483820617198948
2023-01-27 16:40:54.761468,-0.06655007935950276
2023-01-27 16:40:54.766468,-0.05897144600749013
2023-01-27 16:40:54.771468,-0.05439853167629642
2023-01-27 16:40:54.776468,-0.05387485027313228
2023-01-27 16:40:54.781468,-0.05669343013799761
2023-01-27 16:40:54.786468,-0.06115913391113282
2023-01-27 16:40:54.791468,-0.06585446339836475
2023-01-27 16:40:54.796468,-0.07015030086040488
2023-01-27 16:40:54.801468,-0.07406056244221039
2023-01-27 16:40:54.806468,-0.0781798362731933
2023-01-27 16:40:54.811468,-0.08347384764277575
2023-01-27 16:40:54.816468,-0.09044051170349117
2023-01-27 16:40:54.821468,-0.09833729198205185
2023-01-27 16:40:54.826468,-0.10544180870056144
2023-01-27 16:40:54.831468,-0.10997362808526527
2023-01-27 16:40:54.836468,-0.11068265140056616
2023-01-27 16:40:54.841468,-0.10704899530796327
2023-01-27 16:40:54.846468,-0.09950380027294148
2023-01-27 16:40:54.851468,-0.08935716673197214
2023-01-27 16:40:54.856468,-0.07805963605642306
2023-01-27 16:40:54.861468,-0.06646535634249974
2023-01-27 16:40:54.866468,-0.05493263527750957
2023-01-27 16:40:54.871468,-0.043932129955549695
2023-01-27 16:40:54.876468,-0.03432989120483398
2023-01-27 16:40:54.881468,-0.027305598450030725
2023-01-27 16:40:54.886468,-0.02425690554082387
2023-01-27 16:40:54.891468,-0.02648868628809299
2023-01-27 16:40:54.896468,-0.03445009514689441
2023-01-27 16:40:54.901468,-0.0470630672012483
2023-01-27 16:40:54.906468,-0.06183227151632296
2023-01-27 16:40:54.911468,-0.07564907305879592
2023-01-27 16:40:54.916468,-0.08577664941549297
2023-01-27 16:40:54.921468,-0.09072103435006831
2023-01-27 16:40:54.926468,-0.09072899818420416
2023-01-27 16:40:54.931468,-0.08760554503546207
2023-01-27 16:40:54.936468,-0.0839736089110374
2023-01-27 16:40:54.941468,-0.08240244197617873
2023-01-27 16:40:54.946468,-0.0845025032758712
2023-01-27 16:40:54.951468,-0.0901068795869312
2023-01-27 16:40:54.956468,-0.09729206562042238
2023-01-27 16:40:54.961468,-0.10353041579701584
2023-01-27 16:40:54.966468,-0.10659575462341293
2023-01-27 16:40:54.971468,-0.10393634504520154
2023-01-27 16:40:54.976468,-0.09188294410705551
2023-01-27 16:40:54.981468,-0.06712203121382192
2023-01-27 16:40:54.986468,-0.02988239191472531
2023-01-27 16:40:54.991468,0.01444382174100568
2023-01-27 16:40:54.996468,0.05671163648366918
2023-01-27 16:40:55.001468,0.08669760563383709
2023-01-27 16:40:55.006468,0.09558518975973114
2023-01-27 16:40:55.011468,0.07880720132305921
2023-01-27 16:40:55.016468,0.03884951397776605
2023-01-27 16:40:55.021468,-0.014586092395403398
2023-01-27 16:40:55.026468,-0.0682510957121849
2023-01-27 16:40:55.031468,-0.11034222466214016
2023-01-27 16:40:55.036468,-0.13378560543060292
2023-01-27 16:40:55.041468,-0.13741868146464886
2023-01-27 16:40:55.046468,-0.12570798397064192
2023-01-27 16:40:55.051468,-0.10660068566628521
2023-01-27 16:40:55.056468,-0.08777201175689688
2023-01-27 16:40:55.061468,-0.07366633438233713
2023-01-27 16:40:55.066468,-0.06522198766469946
2023-01-27 16:40:55.071468,-0.06121813507572691
2023-01-27 16:40:55.076468,-0.059356093406677204
2023-01-27 16:40:55.081468,-0.05710333199199902
2023-01-27 16:40:55.086468,-0.052937269210815374
2023-01-27 16:40:55.091468,-0.047126812631213766
2023-01-27 16:40:55.096468,-0.04110932350158687
2023-01-27 16:40:55.101468,-0.03637825630480784
2023-01-27 16:40:55.106468,-0.0340894870460033
2023-01-27 16:40:55.111468,-0.03486527140645965
2023-01-27 16:40:55.116468,-0.038032136857509564
2023-01-27 16:40:55.121468,-0.04124006694385427
2023-01-27 16:40:55.126468,-0.04154205322265618
2023-01-27 16:40:55.131468,-0.03701267224801976
2023-01-27 16:40:55.136468,-0.027406215667724634
2023-01-27 16:40:55.141468,-0.014004959685457782
2023-01-27 16:40:55.146468,0.0005769729614257101
2023-01-27 16:40:55.151468,0.013063477379738401
2023-01-27 16:40:55.156468,0.021083554252982074
2023-01-27 16:40:55.161468,0.02440523555963946
2023-01-27 16:40:55.166468,0.024545392021536754
2023-01-27 16:40:55.171468,0.023499105438925052
2023-01-27 16:40:55.176468,0.023030837997794092
2023-01-27 16:40:55.181468,0.02445146976651848
2023-01-27 16:40:55.186468,0.028199553489684944
2023-01-27 16:40:55.191468,0.033742053583108896
2023-01-27 16:40:55.196468,0.0404361896216869
2023-01-27 16:40:55.201468,0.048420141688161625
2023-01-27 16:40:55.206468,0.0583463907241821
2023-01-27 16:40:55.211468,0.07051624892050405
2023-01-27 16:40:55.216468,0.08462270349264137
2023-01-27 16:40:55.221468,0.09994823842587164
2023-01-27 16:40:55.226468,0.11532247066497799
2023-01-27 16:40:55.231468,0.1292538381733317
2023-01-27 16:40:55.236468,0.1407573670148849
2023-01-27 16:40:55.241468,0.14996195549429486
2023-01-27 16:40:55.246468,0.15746554732322685
2023-01-27 16:40:55.251468,0.16319365419272305
2023-01-27 16:40:55.256468,0.1661441773176193
2023-01-27 16:40:55.261468,0.16494341454874073
2023-01-27 16:40:55.266468,0.15837907791137676
2023-01-27 16:40:55.271468,0.14597521554346057
2023-01-27 16:40:55.276468,0.12880921363830558
2023-01-27 16:40:55.281468,0.10962748843924665
2023-01-27 16:40:55.286468,0.0915223360061645
2023-01-27 16:40:55.291468,0.07631029616536719
2023-01-27 16:40:55.296468,0.0641882419586181
2023-01-27 16:40:55.301468,0.054464247685158014
2023-01-27 16:40:55.306468,0.04620591923594472
2023-01-27 16:40:55.311468,0.038664022728855454
2023-01-27 16:40:55.316468,0.03180563449859602
2023-01-27 16:40:55.321468,0.026376089022293096
2023-01-27 16:40:55.326468,0.02298275753855695
2023-01-27 16:40:55.331468,0.021196986551214037
2023-01-27 16:40:55.336468,0.019833445549011196
2023-01-27 16:40:55.341468,0.017838513231173712
2023-01-27 16:40:55.346468,0.014592608436942121
2023-01-27 16:40:55.351468,0.00981092422128508
2023-01-27 16:40:55.356468,0.0038224458694458194
2023-01-27 16:40:55.361468,-0.0021615391273406173
2023-01-27 16:40:55.366468,-0.006539027206599736
2023-01-27 16:40:55.371468,-0.008043823370305014
2023-01-27 16:40:55.376468,-0.005841851234436016
2023-01-27 16:40:55.381468,0.0005484667970288844
2023-01-27 16:40:55.386468,0.010746121406555047
2023-01-27 16:40:55.391468,0.02305871127633975
2023-01-27 16:40:55.396468,0.03509918972849837
2023-01-27 16:40:55.401468,0.04491653564143629
2023-01-27 16:40:55.406468,0.05144675821065893
2023-01-27 16:40:55.411468,0.05440576205525019
2023-01-27 16:40:55.416468,0.05437970161437978
2023-01-27 16:40:55.421468,0.05278797850443436
2023-01-27 16:40:55.426468,0.05108615010976793
2023-01-27 16:40:55.431468,0.04989232001516662
2023-01-27 16:40:55.436468,0.049066744744777575
2023-01-27 16:40:55.441468,0.048308869629754496
2023-01-27 16:40:55.446468,0.0472637042403221
2023-01-27 16:40:55.451468,0.045419322062570745
2023-01-27 16:40:55.456468,0.042575798928737585
2023-01-27 16:40:55.461468,0.03937946631510739
2023-01-27 16:40:55.466468,0.036974351853132255
2023-01-27 16:40:55.471468,0.036223495612017036
2023-01-27 16:40:55.476468,0.03755132481455796
2023-01-27 16:40:55.481468,0.04119053970510509
2023-01-27 16:40:55.486468,0.047047339379787424
2023-01-27 16:40:55.491468,0.054544337091470954
2023-01-27 16:40:55.496468,0.06313046067953096
2023-01-27 16:40:55.501468,0.07279096731525575
2023-01-27 16:40:55.506468,0.08356492221355433
2023-01-27 16:40:55.511468,0.0946891068812957
2023-01-27 16:40:55.516468,0.10462443530559529
2023-01-27 16:40:55.521468,0.11173025543362969
2023-01-27 16:40:55.526468,0.11457721889019015
2023-01-27 16:40:55.531468,0.11209210400529188
2023-01-27 16:40:55.536468,0.10421574115753171
2023-01-27 16:40:55.541468,0.0924253823650631
2023-01-27 16:40:55.546468,0.07914146035909654
2023-01-27 16:40:55.551468,0.06671558635449933
2023-01-27 16:40:55.556468,0.057240527123212696
2023-01-27 16:40:55.561468,0.05265095296089366
2023-01-27 16:40:55.566468,0.05389889329671848
2023-01-27 16:40:55.571468,0.05989766044962562
2023-01-27 16:40:55.576468,0.06789048761129374
2023-01-27 16:40:55.581468,0.07499660311642153
2023-01-27 16:40:55.586468,0.07938186824321737
2023-01-27 16:40:55.591468,0.08095265938410764
2023-01-27 16:40:55.596468,0.08229076862335194
2023-01-27 16:40:55.601468,0.08863172367754767
2023-01-27 16:40:55.606468,0.10503312200307843
2023-01-27 16:40:55.611468,0.13221831803171952
2023-01-27 16:40:55.616468,0.16518256068229667
2023-01-27 16:40:55.621468,0.19580697792179905
2023-01-27 16:40:55.626468,0.21631678938865653
2023-01-27 16:40:55.631468,0.2208696527658047
2023-01-27 16:40:55.636468,0.20631591975688923
2023-01-27 16:40:55.641468,0.1737981179643187
2023-01-27 16:40:55.646468,0.129891037940979
2023-01-27 16:40:55.651468,0.08495190929395303
2023-01-27 16:40:55.656468,0.04911482334136956
2023-01-27 16:40:55.661468,0.028715267232476225
2023-01-27 16:40:55.666468,0.025002162903547186
2023-01-27 16:40:55.671468,0.03493007385610902
2023-01-27 16:40:55.676468,0.05310555547475812
2023-01-27 16:40:55.681468,0.07405816183100186
2023-01-27 16:40:55.686468,0.09392639249563209
2023-01-27 16:40:55.691468,0.11091987783675168
2023-01-27 16:40:55.696468,0.12477040290832511
2023-01-27 16:40:55.701468,0.13585821570144993
2023-01-27 16:40:55.706468,0.14445960521697981
2023-01-27 16:40:55.711468,0.15035623516630747
2023-01-27 16:40:55.716468,0.15304207801818837
2023-01-27 16:40:55.721468,0.15240165779544876
2023-01-27 16:40:55.726468,0.14924368262290938
2023-01-27 16:40:55.731468,0.14524261080884313
2023-01-27 16:40:55.736468,0.1424401998519897
2023-01-27 16:40:55.741468,0.14262746134750223
2023-01-27 16:40:55.746468,0.14674346148967735
2023-01-27 16:40:55.751468,0.1545130331818753
2023-01-27 16:40:55.756468,0.1646536588668822
2023-01-27 16:40:55.761468,0.1755625737175804
2023-01-27 16:40:55.766468,0.185929536819458
2023-01-27 16:40:55.771468,0.19494854896483604
2023-01-27 16:40:55.776468,0.20230114459991455
2023-01-27 16:40:55.781468,0.20807066899940704
2023-01-27 16:40:55.786468,0.21251837909221644
2023-01-27 16:40:55.791468,0.21583048306714714
2023-01-27 16:40:55.796468,0.2181438654661177
2023-01-27 16:40:55.801468,0.2198120835479944
2023-01-27 16:40:55.806468,0.2215095460414886
2023-01-27 16:40:55.811468,0.2240549891737794
2023-01-27 16:40:55.816468,0.22824089229106903
2023-01-27 16:40:55.821468,0.23476176467692123
2023-01-27 16:40:55.826468,0.24401149153709403
2023-01-27 16:40:55.831468,0.25577058780072387
2023-01-27 16:40:55.836468,0.26915788650512684
2023-01-27 16:40:55.841468,0.28295914556291984
2023-01-27 16:40:55.846468,0.2960111796855925
2023-01-27 16:40:55.851468,0.3074454360271644
2023-01-27 16:40:55.856468,0.3169023990631102
2023-01-27 16:40:55.861468,0.32465911440091955
2023-01-27 16:40:55.866468,0.33137482404708857
2023-01-27 16:40:55.871468,0.3375000282674652
2023-01-27 16:40:55.876468,0.342842161655426
2023-01-27 16:40:55.881468,0.34657460095895953
2023-01-27 16:40:55.886468,0.3474819660186766
2023-01-27 16:40:55.891468,0.3442363815159191
2023-01-27 16:40:55.896468,0.3357742428779602
2023-01-27 16:40:55.901468,0.3217378532932774
2023-01-27 16:40:55.906468,0.30269443988800027
2023-01-27 16:40:55.911468,0.28003277982865166
2023-01-27 16:40:55.916468,0.2557673156261443
2023-01-27 16:40:55.921468,0.23232979285699873
2023-01-27 16:40:55.926468,0.21210968494415275
2023-01-27 16:40:55.931468,0.19671488146492952
2023-01-27 16:40:55.936468,0.1864103525876998
2023-01-27 16:40:55.941468,0.1801648815874697
2023-01-27 16:40:55.946468,0.1762412041425704
2023-01-27 16:40:55.951468,0.1729951074546605
2023-01-27 16:40:55.956468,0.16960601508617384
2023-01-27 16:40:55.961468,0.1664331060843344
2023-01-27 16:40:55.966468,0.1646777093410491
2023-01-27 16:40:55.971468,0.16545733361411732
2023-01-27 16:40:55.976468,0.16895692050457
2023-01-27 16:40:55.981468,0.17425505930929147
2023-01-27 16:40:55.986468,0.17977516353130335
2023-01-27 16:40:55.991468,0.1839180145804443
2023-01-27 16:40:55.996468,0.18559297919273368
2023-01-27 16:40:56.001468,0.1845541905438049
2023-01-27 16:40:56.006468,0.18140992522239677
2023-01-27 16:40:56.011468,0.17728211781799472
2023-01-27 16:40:56.016468,0.17340442538261414
2023-01-27 16:40:56.021468,0.17092849489656714
2023-01-27 16:40:56.026468,0.17078399658203114
2023-01-27 16:40:56.031468,0.1733228315174252
2023-01-27 16:40:56.036468,0.1779480874538421
2023-01-27 16:40:56.041468,0.18321380029385953
2023-01-27 16:40:56.046468,0.18744409084320046
2023-01-27 16:40:56.051468,0.18941631117719954
2023-01-27 16:40:56.056468,0.18879036605358124
2023-01-27 16:40:56.061468,0.18629665257686065
2023-01-27 16:40:56.066468,0.18357357382774345
2023-01-27 16:40:56.071468,0.18242930386507017
2023-01-27 16:40:56.076468,0.1838139742612838
2023-01-27 16:40:56.081468,0.18727695601078356
2023-01-27 16:40:56.086468,0.1912425011396409
2023-01-27 16:40:56.091468,0.19367583511525413
2023-01-27 16:40:56.096468,0.19278109073638916
2023-01-27 16:40:56.101468,0.18783281146601633
2023-01-27 16:40:56.106468,0.17991940677165977
2023-01-27 16:40:56.111468,0.17179097472768895
2023-01-27 16:40:56.116468,0.16657690703868858
2023-01-27 16:40:56.121468,0.16634097020820793
2023-01-27 16:40:56.126468,0.17143309116363517
2023-01-27 16:40:56.131468,0.18054531173159952
2023-01-27 16:40:56.136468,0.1911463439464569
2023-01-27 16:40:56.141468,0.20052689932430784
2023-01-27 16:40:56.146468,0.20725350081920615
2023-01-27 16:40:56.151468,0.21174066490378315
2023-01-27 16:40:56.156468,0.21521091461181635
2023-01-27 16:40:56.161468,0.21822577220077102
2023-01-27 16:40:56.166468,0.22025942802429183
2023-01-27 16:40:56.171468,0.2201138844942472
2023-01-27 16:40:56.176468,0.2163648605346679
2023-01-27 16:40:56.181468,0.20812318667288687
2023-01-27 16:40:56.186468,0.19629101455211623
2023-01-27 16:40:56.191468,0.18385951773689918
2023-01-27 16:40:56.196468,0.17417371273040763
2023-01-27 16:40:56.201468,0.16883814763197236
2023-01-27 16:40:56.206468,0.1675144881010055
2023-01-27 16:40:56.211468,0.16907806158057986
2023-01-27 16:40:56.216468,0.17234663665294647
2023-01-27 16:40:56.221468,0.17671345051808757
2023-01-27 16:40:56.226468,0.18354952335357655
2023-01-27 16:40:56.231468,0.1964269730517685
2023-01-27 16:40:56.236468,0.21807174384593953
2023-01-27 16:40:56.241468,0.24667441026028158
2023-01-27 16:40:56.246468,0.2760094404220581
2023-01-27 16:40:56.251468,0.2986337840040243
2023-01-27 16:40:56.256468,0.307863175868988
2023-01-27 16:40:56.261468,0.2985642006084679
2023-01-27 16:40:56.266468,0.27026376128196705
2023-01-27 16:40:56.271468,0.23053866843196774
2023-01-27 16:40:56.276468,0.19186756014823908
2023-01-27 16:40:56.281468,0.1626609635264953
2023-01-27 16:40:56.286468,0.14294505119323733
2023-01-27 16:40:56.291468,0.1298198531101004
2023-01-27 16:40:56.296468,0.12388090789318082
2023-01-27 16:40:56.301468,0.12739949835522554
2023-01-27 16:40:56.306468,0.13878604769706723
2023-01-27 16:40:56.311468,0.15307642248547634
2023-01-27 16:40:56.316468,0.16722600162029266
2023-01-27 16:40:56.321468,0.18134119282734643
2023-01-27 16:40:56.326468,0.19484858214855186
2023-01-27 16:40:56.331468,0.20505513055282343
2023-01-27 16:40:56.336468,0.2103547304868698
2023-01-27 16:40:56.341468,0.212086556095518
2023-01-27 16:40:56.346468,0.21218180656433097
2023-01-27 16:40:56.351468,0.21117685180901805
2023-01-27 16:40:56.356468,0.20941714942455292
2023-01-27 16:40:56.361468,0.20797086529133274
2023-01-27 16:40:56.366468,0.2070371359586714
2023-01-27 16:40:56.371468,0.20514808946569932
2023-01-27 16:40:56.376468,0.201243370771408
2023-01-27 16:40:56.381468,0.19634383072239855
2023-01-27 16:40:56.386468,0.19234836101531974
2023-01-27 16:40:56.391468,0.19051793220008872
2023-01-27 16:40:56.396468,0.19189159572124476
2023-01-27 16:40:56.401468,0.197541125136606
2023-01-27 16:40:56.406468,0.20706117153167714
2023-01-27 16:40:56.411468,0.21783754906018482
2023-01-27 16:40:56.416468,0.2269907891750334
2023-01-27 16:40:56.421468,0.23344695694689127
2023-01-27 16:40:56.426468,0.23764073848724357
2023-01-27 16:40:56.431468,0.2404414554643864
2023-01-27 16:40:56.436468,0.24321815371513356
2023-01-27 16:40:56.441468,0.24767228463098503
2023-01-27 16:40:56.446468,0.2542768120765686
2023-01-27 16:40:56.451468,0.26149357546642005
2023-01-27 16:40:56.456468,0.2674269676208496
2023-01-27 16:40:56.461468,0.27167577027802536
2023-01-27 16:40:56.466468,0.27502378821372975
2023-01-27 16:40:56.471468,0.2782785107320562
2023-01-27 16:40:56.476468,0.2821638286113739
2023-01-27 16:40:56.481468,0.2873187356207186
2023-01-27 16:40:56.486468,0.2933426797389983
2023-01-27 16:40:56.491468,0.29854873080961286
2023-01-27 16:40:56.496468,0.30163666605949385
2023-01-27 16:40:56.501468,0.30314108444451465
2023-01-27 16:40:56.506468,0.304593652486801
2023-01-27 16:40:56.511468,0.3068757605584301
2023-01-27 16:40:56.516468,0.3098344802856444
2023-01-27 16:40:56.521468,0.31241592550484776
2023-01-27 16:40:56.526468,0.3122144937515257
2023-01-27 16:40:56.531468,0.305788891813498
2023-01-27 16:40:56.536468,0.29074630141258223
2023-01-27 16:40:56.541468,0.2674967609036812
2023-01-27 16:40:56.546468,0.23867449164390553
2023-01-27 16:40:56.551468,0.20760702680065546
2023-01-27 16:40:56.556468,0.17777979373931876
2023-01-27 16:40:56.561468,0.15248955320842836
2023-01-27 16:40:56.566468,0.13356924057006833
2023-01-27 16:40:56.571468,0.1206529671617194
2023-01-27 16:40:56.576468,0.11234144866466524
2023-01-27 16:40:56.581468,0.10759938251339883
2023-01-27 16:40:56.586468,0.1055620163679122
2023-01-27 16:40:56.591468,0.104977213489931
2023-01-27 16:40:56.596468,0.10488887876272197
2023-01-27 16:40:56.601468,0.10535372039501711
2023-01-27 16:40:56.606468,0.1067159622907638
2023-01-27 16:40:56.611468,0.10876457602106707
2023-01-27 16:40:56.616468,0.11128365993499756
2023-01-27 16:40:56.621468,0.11464042350530212
2023-01-27 16:40:56.626468,0.11890451610088339
2023-01-27 16:40:56.631468,0.12298513152100815
2023-01-27 16:40:56.636468,0.1254916191101074
2023-01-27 16:40:56.641468,0.12592277598630536
2023-01-27 16:40:56.646468,0.12436171621084204
2023-01-27 16:40:56.651468,0.12081132088995396
2023-01-27 16:40:56.656468,0.11573116481304169
2023-01-27 16:40:56.661468,0.1105036642680919
2023-01-27 16:40:56.666468,0.10635535418987271
2023-01-27 16:40:56.671468,0.10330709813379399
2023-01-27 16:40:56.676468,0.100946232676506
2023-01-27 16:40:56.681468,0.09954210056797123
2023-01-27 16:40:56.686468,0.09955187886953354
2023-01-27 16:40:56.691468,0.10075676214946523
2023-01-27 16:40:56.696468,0.10282139480113986
2023-01-27 16:40:56.701468,0.10600202484837645
2023-01-27 16:40:56.706468,0.11032204329967495
2023-01-27 16:40:56.711468,0.11470847635797564
2023-01-27 16:40:56.716468,0.11791884899139407
2023-01-27 16:40:56.721468,0.11969403836289355
2023-01-27 16:40:56.726468,0.12013058364391319
2023-01-27 16:40:56.731468,0.11877002488859953
2023-01-27 16:40:56.736468,0.11544267833232874
2023-01-27 16:40:56.741468,0.11132995692272088
2023-01-27 16:40:56.746468,0.1081103086471557
2023-01-27 16:40:56.751468,0.10670241419477902
2023-01-27 16:40:56.756468,0.10774970054626447
2023-01-27 16:40:56.761468,0.11226585011227283
2023-01-27 16:40:56.766468,0.12032290548086162
2023-01-27 16:40:56.771468,0.12971278793561855
2023-01-27 16:40:56.776468,0.13717532157897944
2023-01-27 16:40:56.781468,0.14041686905495424
2023-01-27 16:40:56.786468,0.13811290264129633
2023-01-27 16:40:56.791468,0.12936406131205913
2023-01-27 16:40:56.796468,0.11500994861125943
2023-01-27 16:40:56.801468,0.09869527316525678
2023-01-27 16:40:56.806468,0.08481502532958979
2023-01-27 16:40:56.811468,0.07575049790238723
2023-01-27 16:40:56.816468,0.0721216201782226
2023-01-27 16:40:56.821468,0.07419449145614145
2023-01-27 16:40:56.826468,0.08084833621978756
2023-01-27 16:40:56.831468,0.0882787168263541
2023-01-27 16:40:56.836468,0.0923877954483032
2023-01-27 16:40:56.841468,0.0921699031742323
2023-01-27 16:40:56.846468,0.08897404372692098
2023-01-27 16:40:56.851468,0.08398236266901514
2023-01-27 16:40:56.856468,0.07959823310375205
2023-01-27 16:40:56.861468,0.082021682878887
2023-01-27 16:40:56.866468,0.09758055210113514
2023-01-27 16:40:56.871468,0.12538812975940045
2023-01-27 16:40:56.876468,0.15715301036834706
2023-01-27 16:40:56.881468,0.18517895187681493
2023-01-27 16:40:56.886468,0.2067486494779587
2023-01-27 16:40:56.891468,0.21938287003285228
2023-01-27 16:40:56.896468,0.21691779792308796
2023-01-27 16:40:56.901468,0.19482050403319628
2023-01-27 16:40:56.906468,0.15732130408287043
2023-01-27 16:40:56.911468,0.11542731563279707
2023-01-27 16:40:56.916468,0.07875680923461903
2023-01-27 16:40:56.921468,0.051956233218362416
2023-01-27 16:40:56.926468,0.03723879903554924
2023-01-27 16:40:56.931468,0.035822527785378554
2023-01-27 16:40:56.936468,0.046013593673706034
2023-01-27 16:40:56.941468,0.06280388619386883
2023-01-27 16:40:56.946468,0.0807040929794311
2023-01-27 16:40:56.951468,0.09579019468561703
2023-01-27 16:40:56.956468,0.10522544384002676
2023-01-27 16:40:56.961468,0.10724419725582875
2023-01-27 16:40:56.966468,0.1026771515607833
2023-01-27 16:40:56.971468,0.09503411094944575
2023-01-27 16:40:56.976468,0.08801241964101791
2023-01-27 16:40:56.981468,0.083422965366287
2023-01-27 16:40:56.986468,0.08144935220479958
2023-01-27 16:40:56.991468,0.08148993444162225
2023-01-27 16:40:56.996468,0.08219461143016815
2023-01-27 16:40:57.001468,0.08190979163416985
2023-01-27 16:40:57.006468,0.08007904142141341
2023-01-27 16:40:57.011468,0.07783598861984119
2023-01-27 16:40:57.016468,0.07690569013357165
2023-01-27 16:40:57.021468,0.07843604607074625
2023-01-27 16:40:57.026468,0.08296390622854237
2023-01-27 16:40:57.031468,0.09058195944986266
2023-01-27 16:40:57.036468,0.1005856245756149
2023-01-27 16:40:57.041468,0.11150778076712398
2023-01-27 16:40:57.046468,0.1219817027449607
2023-01-27 16:40:57.051468,0.13127382875057947
2023-01-27 16:40:57.056468,0.13883411884307856
2023-01-27 16:40:57.061468,0.14389267805945147
2023-01-27 16:40:57.066468,0.1458780020475388
2023-01-27 16:40:57.071468,0.1449268964526556
2023-01-27 16:40:57.076468,0.14181515574455256
2023-01-27 16:40:57.081468,0.13778585136604873
2023-01-27 16:40:57.086468,0.1346029937267303
2023-01-27 16:40:57.091468,0.13423084749493325
2023-01-27 16:40:57.096468,0.13794462382793418
2023-01-27 16:40:57.101468,0.14577089884310968
2023-01-27 16:40:57.106468,0.1568404883146286
2023-01-27 16:40:57.111468,0.17005063987511482
2023-01-27 16:40:57.116468,0.18439094722270954
2023-01-27 16:40:57.121468,0.19909188742736159
2023-01-27 16:40:57.126468,0.21374444663524605
2023-01-27 16:40:57.131468,0.22802806356652233
2023-01-27 16:40:57.136468,0.2410545051097869
2023-01-27 16:40:57.141468,0.2510726222469545
2023-01-27 16:40:57.146468,0.25595963001251204
2023-01-27 16:40:57.151468,0.25401404381931814
2023-01-27 16:40:57.156468,0.24449229240417464
2023-01-27 16:40:57.161468,0.22786923329194075
2023-01-27 16:40:57.166468,0.20583510398864738
2023-01-27 16:40:57.171468,0.18081803854485617
2023-01-27 16:40:57.176468,0.1551816910505294
2023-01-27 16:40:57.181468,0.1306877239609537
2023-01-27 16:40:57.186468,0.10844688117504116
2023-01-27 16:40:57.191468,0.08898564358448982
2023-01-27 16:40:57.196468,0.0722177848219871
2023-01-27 16:40:57.201468,0.05758129968370723
2023-01-27 16:40:57.206468,0.04445096105337141
2023-01-27 16:40:57.211468,0.032519627746444846
2023-01-27 16:40:57.216468,0.021949013695120867
2023-01-27 16:40:57.221468,0.013385464247114395
2023-01-27 16:40:57.226468,0.007789134979248018
2023-01-27 16:40:57.231468,0.005882147539495349
2023-01-27 16:40:57.236468,0.007452567573636694
2023-01-27 16:40:57.241468,0.011139684799095438
2023-01-27 16:40:57.246468,0.014929175376891994
2023-01-27 16:40:57.251468,0.016948564190636166
2023-01-27 16:40:57.256468,0.016131203621625945
2023-01-27 16:40:57.261468,0.012625691427619662
2023-01-27 16:40:57.266468,0.00781317614018917
2023-01-27 16:40:57.271468,0.003736337442322129
2023-01-27 16:40:57.276468,0.0021396081428974203
2023-01-27 16:40:57.281468,0.0037250526448284137
2023-01-27 16:40:57.286468,0.008005499839782715
2023-01-27 16:40:57.291468,0.013631463754713063
2023-01-27 16:40:57.296468,0.018943946808576584
2023-01-27 16:40:57.301468,0.022611437235870037
2023-01-27 16:40:57.306468,0.024112662300467443
2023-01-27 16:40:57.311468,0.0237628090898126
2023-01-27 16:40:57.316468,0.022309621796011887
2023-01-27 16:40:57.321468,0.020477918251647145
2023-01-27 16:40:57.326468,0.018727581948041912
2023-01-27 16:40:57.331468,0.017183031729179992
2023-01-27 16:40:57.336468,0.01567443273961542
2023-01-27 16:40:57.341468,0.013935785776229826
2023-01-27 16:40:57.346468,0.011876027099788175
2023-01-27 16:40:57.351468,0.009688051044009086
2023-01-27 16:40:57.356468,0.007717013359069805
2023-01-27 16:40:57.361468,0.006236211222000937
2023-01-27 16:40:57.366468,0.005240838043391742
2023-01-27 16:40:57.371468,0.004282239395263133
2023-01-27 16:40:57.376468,0.002500216243788581
2023-01-27 16:40:57.381468,-0.0009368050325271137
2023-01-27 16:40:57.386468,-0.0061303377151487835
2023-01-27 16:40:57.391468,-0.012019530080314506
2023-01-27 16:40:57.396468,-0.01661201380193227
2023-01-27 16:40:57.401468,-0.017781469745255653
2023-01-27 16:40:57.406468,-0.014232000336050826
2023-01-27 16:40:57.411468,-0.006189891895658159
2023-01-27 16:40:57.416468,0.004591743461787739
2023-01-27 16:40:57.421468,0.01568450132124006
2023-01-27 16:40:57.426468,0.025242567062378006
2023-01-27 16:40:57.431468,0.032763875013062244
2023-01-27 16:40:57.436468,0.038825474679470014
2023-01-27 16:40:57.441468,0.04413440831118668
2023-01-27 16:40:57.446468,0.048634015023708274
2023-01-27 16:40:57.451468,0.051129600822442035
2023-01-27 16:40:57.456468,0.0495956353843212
2023-01-27 16:40:57.461468,0.04219938119454669
2023-01-27 16:40:57.466468,0.028656324371695536
2023-01-27 16:40:57.471468,0.010976397565433813
2023-01-27 16:40:57.476468,-0.0070919594727456
2023-01-27 16:40:57.481468,-0.021525736120268306
2023-01-27 16:40:57.486468,-0.029425621032714747
2023-01-27 16:40:57.491468,-0.029931762653648507
2023-01-27 16:40:57.496468,-0.024713676422834282
2023-01-27 16:40:57.501468,-0.01762700920179831
2023-01-27 16:40:57.506468,-0.013005932793021126
2023-01-27 16:40:57.511468,-0.013363181007776897
2023-01-27 16:40:57.516468,-0.018318891525268496
2023-01-27 16:40:57.521468,-0.02532859966224989
2023-01-27 16:40:57.526468,-0.030723810195922737
2023-01-27 16:40:57.531468,-0.029909009493790713
2023-01-27 16:40:57.536468,-0.017814040184020843
2023-01-27 16:40:57.541468,0.008920775645148808
2023-01-27 16:40:57.546468,0.049018662422895466
2023-01-27 16:40:57.551468,0.09554818838689008
2023-01-27 16:40:57.556468,0.13784846663475017
2023-01-27 16:40:57.561468,0.16501949667734853
2023-01-27 16:40:57.566468,0.16936561465263353
2023-01-27 16:40:57.571468,0.14907836932934493
2023-01-27 16:40:57.576468,0.10928829759359349
2023-01-27 16:40:57.581468,0.06037004911577971
2023-01-27 16:40:57.586468,0.013919472694396934
2023-01-27 16:40:57.591468,-0.02125470083525901
2023-01-27 16:40:57.596468,-0.04110932350158688
2023-01-27 16:40:57.601468,-0.04625799456095755
2023-01-27 16:40:57.606468,-0.04065255448222164
2023-01-27 16:40:57.611468,-0.02959125441332676
2023-01-27 16:40:57.616468,-0.017669796943664478
2023-01-27 16:40:57.621468,-0.007697177573737089
2023-01-27 16:40:57.626468,-0.000889500021003073
2023-01-27 16:40:57.631468,0.0025657309507179445
2023-01-27 16:40:57.636468,0.003317594528198171
2023-01-27 16:40:57.641468,0.002640764070287342
2023-01-27 16:40:57.646468,0.001779000042006326
2023-01-27 16:40:57.651468,0.0013830841515051825
2023-01-27 16:40:57.656468,0.0016107162227854558
2023-01-27 16:40:57.661468,0.002506055759472048
2023-01-27 16:40:57.666468,0.0041349730454386035
2023-01-27 16:40:57.671468,0.006680617545476859
2023-01-27 16:40:57.676468,0.010673999786376943
2023-01-27 16:40:57.681468,0.0168319534012869
2023-01-27 16:40:57.686468,0.025266608223319015
2023-01-27 16:40:57.691468,0.03489891614372869
2023-01-27 16:40:57.696468,0.0438259057700634
2023-01-27 16:40:57.701468,0.05018382714731847
2023-01-27 16:40:57.706468,0.052720904350280685
2023-01-27 16:40:57.711468,0.05110664190146478
2023-01-27 16:40:57.716468,0.04620591923594465
2023-01-27 16:40:57.721468,0.03991446146858856
2023-01-27 16:40:57.726468,0.03430585190653798
2023-01-27 16:40:57.731468,0.030800352675223724
2023-01-27 16:40:57.736468,0.030050676316022783
2023-01-27 16:40:57.741468,0.03218682736325812
2023-01-27 16:40:57.746468,0.03685414791107171
2023-01-27 16:40:57.751468,0.043323615853206376
2023-01-27 16:40:57.756468,0.05103806778788561
2023-01-27 16:40:57.761468,0.06006624814037869
2023-01-27 16:40:57.766468,0.07087151706218701
2023-01-27 16:40:57.771468,0.08378919569742065
2023-01-27 16:40:57.776468,0.09883066266775123
2023-01-27 16:40:57.781468,0.11561537571713457
2023-01-27 16:40:57.786468,0.13311247527599324
2023-01-27 16:40:57.791468,0.14965330142719344
2023-01-27 16:40:57.796468,0.16359588503837566
2023-01-27 16:40:57.801468,0.17398019688076136
2023-01-27 16:40:57.806468,0.180448293685913
2023-01-27 16:40:57.811468,0.1828222705875599
2023-01-27 16:40:57.816468,0.18102526664733878
2023-01-27 16:40:57.821468,0.17512903975952399
2023-01-27 16:40:57.826468,0.16511043906211836
2023-01-27 16:40:57.831468,0.15073974120052325
2023-01-27 16:40:57.836468,0.13205468654632554
2023-01-27 16:40:57.841468,0.10985632958792726
2023-01-27 16:40:57.846468,0.08556028455495826
2023-01-27 16:40:57.851468,0.06080974221325494
2023-01-27 16:40:57.856468,0.03745516389608382
2023-01-27 16:40:57.861468,0.01749546467524624
2023-01-27 16:40:57.866468,0.0024280946236103253
2023-01-27 16:40:57.871468,-0.0074474381856531125
2023-01-27 16:40:57.876468,-0.012981891632079988
2023-01-27 16:40:57.881468,-0.01565993109495869
2023-01-27 16:40:57.886468,-0.017237067222595156
2023-01-27 16:40:57.891468,-0.019325317525126444
2023-01-27 16:40:57.896468,-0.02267022989690295
2023-01-27 16:40:57.901468,-0.02684303597168912
2023-01-27 16:40:57.906468,-0.030964216217398515
2023-01-27 16:40:57.911468,-0.03466580686747722
2023-01-27 16:40:57.916468,-0.03820041939616194
2023-01-27 16:40:57.921468,-0.04191872502491057
2023-01-27 16:40:57.926468,-0.04591743275523183
2023-01-27 16:40:57.931468,-0.049826769965471945
2023-01-27 16:40:57.936468,-0.05250453948974599
2023-01-27 16:40:57.941468,-0.052236068909970866
2023-01-27 16:40:57.946468,-0.0478166341781616
2023-01-27 16:40:57.951468,-0.03951270963077428
2023-01-27 16:40:57.956468,-0.028872689232230152
2023-01-27 16:40:57.961468,-0.017932492239572682
2023-01-27 16:40:57.966468,-0.008798837661743088
2023-01-27 16:40:57.971468,-0.0033577854018024002
2023-01-27 16:40:57.976468,-0.002572337863966824
2023-01-27 16:40:57.981468,-0.0060298949452555865
2023-01-27 16:40:57.986468,-0.01247704029083245
2023-01-27 16:40:57.991468,-0.020624147232748843
2023-01-27 16:40:57.996468,-0.02928137779235822
2023-01-27 16:40:58.001468,-0.03732134623707437
2023-01-27 16:40:58.006468,-0.04416247457265848
2023-01-27 16:40:58.011468,-0.050024181966145914
2023-01-27 16:40:58.016468,-0.05517303943634018
2023-01-27 16:40:58.021468,-0.05914107709723561
2023-01-27 16:40:58.026468,-0.061111055314540697
2023-01-27 16:40:58.031468,-0.06076742387438835
2023-01-27 16:40:58.036468,-0.058394473046064245
2023-01-27 16:40:58.041468,-0.05463128033839653
2023-01-27 16:40:58.046468,-0.050653420388698425
2023-01-27 16:40:58.051468,-0.04799383031318848
2023-01-27 16:40:58.056468,-0.047287743538617914
2023-01-27 16:40:58.061468,-0.04735436441559186
2023-01-27 16:40:58.066468,-0.046109758317470446
2023-01-27 16:40:58.071468,-0.04220467360408498
2023-01-27 16:40:58.076468,-0.03553191944956767
2023-01-27 16:40:58.081468,-0.026982824608480605
2023-01-27 16:40:58.086468,-0.018583338707685377
2023-01-27 16:40:58.091468,-0.01319980696109107
2023-01-27 16:40:58.096468,-0.012861689552664719
2023-01-27 16:40:58.101468,-0.017345118651827588
2023-01-27 16:40:58.106468,-0.024906000122427836
2023-01-27 16:40:58.111468,-0.03386090288758554
2023-01-27 16:40:58.116468,-0.04281620308756824
2023-01-27 16:40:58.121468,-0.050327868321281756
2023-01-27 16:40:58.126468,-0.05567789077758774
2023-01-27 16:40:58.131468,-0.059499348961522806
2023-01-27 16:40:58.136468,-0.062481366097927024
2023-01-27 16:40:58.141468,-0.06405787904588929
2023-01-27 16:40:58.146468,-0.0635872334241866
2023-01-27 16:40:58.151468,-0.06203257529322932
2023-01-27 16:40:58.156468,-0.06099085137248027
2023-01-27 16:40:58.161468,-0.06091229481369773
2023-01-27 16:40:58.166468,-0.06190439313650127
2023-01-27 16:40:58.171468,-0.06483832605824522
2023-01-27 16:40:58.176468,-0.06873190402984605
2023-01-27 16:40:58.181468,-0.06789581179000424
2023-01-27 16:40:58.186468,-0.055653851479291826
2023-01-27 16:40:58.191468,-0.031758353712507945
2023-01-27 16:40:58.196468,-0.0030291080474852757
2023-01-27 16:40:58.201468,0.02398045297516156
2023-01-27 16:40:58.206468,0.04707137867808338
2023-01-27 16:40:58.211468,0.06364697328141922
2023-01-27 16:40:58.216468,0.0666403770446777
2023-01-27 16:40:58.221468,0.04988479113915993
2023-01-27 16:40:58.226468,0.016035040840506557
2023-01-27 16:40:58.231468,-0.02446789191346762
2023-01-27 16:40:58.236468,-0.061495702713727875
2023-01-27 16:40:58.241468,-0.0895777472765501
2023-01-27 16:40:58.246468,-0.10604282468557347
2023-01-27 16:40:58.251468,-0.10978799058297727
2023-01-27 16:40:58.256468,-0.10306179523468006
2023-01-27 16:40:58.261468,-0.09129000457829964
2023-01-27 16:40:58.266468,-0.07933378219604487
2023-01-27 16:40:58.271468,-0.0691421979186877
2023-01-27 16:40:58.276468,-0.06120721623301489
2023-01-27 16:40:58.281468,-0.05601832350617002
2023-01-27 16:40:58.286468,-0.05312959477305403
2023-01-27 16:40:58.291468,-0.05067187414718288
2023-01-27 16:40:58.296468,-0.04709541797637925
2023-01-27 16:40:58.301468,-0.04239274998751019
2023-01-27 16:40:58.306468,-0.03699839115142821
2023-01-27 16:40:58.311468,-0.03079295444881778
2023-01-27 16:40:58.316468,-0.023968419060110935
2023-01-27 16:40:58.321468,-0.017668467849455798
2023-01-27 16:40:58.326468,-0.01283764839172358
2023-01-27 16:40:58.331468,-0.009258079674968129
2023-01-27 16:40:58.336468,-0.0063707432709633974
2023-01-27 16:40:58.341468,-0.004191543452190251
2023-01-27 16:40:58.346468,-0.002836783882230426
2023-01-27 16:40:58.351468,-0.002062812858351683
2023-01-27 16:40:58.356468,-0.0019472837448120176
2023-01-27 16:40:58.361468,-0.003184303253646398
2023-01-27 16:40:58.366468,-0.005938013549893979
2023-01-27 16:40:58.371468,-0.00897573598678535
2023-01-27 16:40:58.376468,-0.01048167608678341
2023-01-27 16:40:58.381468,-0.009171274182119195
2023-01-27 16:40:58.386468,-0.004303256981074743
2023-01-27 16:40:58.391468,0.004451255131373661
2023-01-27 16:40:58.396468,0.016395648941397653
2023-01-27 16:40:58.401468,0.029691403459428372
2023-01-27 16:40:58.406468,0.0425998382270336
2023-01-27 16:40:58.411468,0.05455874030007201
2023-01-27 16:40:58.416468,0.06577491760253895
2023-01-27 16:40:58.421468,0.07644512554365453
2023-01-27 16:40:58.426468,0.08683443069457994
2023-01-27 16:40:58.431468,0.09736230974850807
2023-01-27 16:40:58.436468,0.10784586519002905
2023-01-27 16:40:58.441468,0.11703828637785327
2023-01-27 16:40:58.446468,0.12347221374511709
2023-01-27 16:40:58.451468,0.1264640848384538
2023-01-27 16:40:58.456468,0.12602052092552177
2023-01-27 16:40:58.461468,0.12237284425276554
2023-01-27 16:40:58.466468,0.11609177291393277
2023-01-27 16:40:58.471468,0.10808580294147153
2023-01-27 16:40:58.476468,0.09885470569133749
2023-01-27 16:40:58.481468,0.08808178452361566
2023-01-27 16:40:58.486468,0.07541517913341508
2023-01-27 16:40:58.491468,0.06128137095925571
2023-01-27 16:40:58.496468,0.046542488038539796
2023-01-27 16:40:58.501468,0.03177722626592394
2023-01-27 16:40:58.506468,0.017261108383536325
2023-01-27 16:40:58.511468,0.0031445000999499205
2023-01-27 16:40:58.516468,-0.01077016256749612
2023-01-27 16:40:58.521468,-0.024857622170562192
2023-01-27 16:40:58.526468,-0.03868123143911358
2023-01-27 16:40:58.531468,-0.050562070715964566
2023-01-27 16:40:58.536468,-0.05870699882507314
2023-01-27 16:40:58.541468,-0.06261745110385762
2023-01-27 16:40:58.546468,-0.06325066089630109
2023-01-27 16:40:58.551468,-0.06239033298536465
2023-01-27 16:40:58.556468,-0.06219287961721413
2023-01-27 16:40:58.561468,-0.06452140735590835
2023-01-27 16:40:58.566468,-0.06976564973592747
2023-01-27 16:40:58.571468,-0.07639363275287349
2023-01-27 16:40:58.576468,-0.08207440376281733
2023-01-27 16:40:58.581468,-0.08505544659296727
2023-01-27 16:40:58.586468,-0.08440633863210667
2023-01-27 16:40:58.591468,-0.0798117719302494
2023-01-27 16:40:58.596468,-0.07190525531768784
2023-01-27 16:40:58.601468,-0.06238508972076624
2023-01-27 16:40:58.606468,-0.05310555547475807
2023-01-27 16:40:58.611468,-0.04522370921885038
2023-01-27 16:40:58.616468,-0.03949860855936996
2023-01-27 16:40:58.621468,-0.036783452301816295
2023-01-27 16:40:58.626468,-0.037575364112853914
2023-01-27 16:40:58.631468,-0.041486248123333666
2023-01-27 16:40:58.636468,-0.04767239093780502
2023-01-27 16:40:58.641468,-0.05529689828163131
2023-01-27 16:40:58.646468,-0.06305833905935278
2023-01-27 16:40:58.651468,-0.0689388456013986
2023-01-27 16:40:58.656468,-0.0713042467832565
2023-01-27 16:40:58.661468,-0.07004911159457522
2023-01-27 16:40:58.666468,-0.06623169034719456
2023-01-27 16:40:58.671468,-0.06112480098646255
2023-01-27 16:40:58.676468,-0.056110620498657206
2023-01-27 16:40:58.681468,-0.05264254649384159
2023-01-27 16:40:58.686468,-0.05125443264842026
2023-01-27 16:40:58.691468,-0.05093706470493543
2023-01-27 16:40:58.696468,-0.050220690667629186
2023-01-27 16:40:58.701468,-0.048466681606479406
2023-01-27 16:40:58.706468,-0.04558086395263665
2023-01-27 16:40:58.711468,-0.041363482022060104
2023-01-27 16:40:58.716468,-0.03620505332946776
2023-01-27 16:40:58.721468,-0.03178127200251829
2023-01-27 16:40:58.726468,-0.0299064330756664
2023-01-27 16:40:58.731468,-0.03105285697576754
2023-01-27 16:40:58.736468,-0.034738581627607304
2023-01-27 16:40:58.741468,-0.040475692242965634
2023-01-27 16:40:58.746468,-0.047167539596557596
2023-01-27 16:40:58.751468,-0.05253202132387721
2023-01-27 16:40:58.756468,-0.05481243133544927
2023-01-27 16:40:58.761468,-0.054661013097777905
2023-01-27 16:40:58.766468,-0.05406717583537092
2023-01-27 16:40:58.771468,-0.05425921912895063
2023-01-27 16:40:58.776468,-0.05620678514242167
2023-01-27 16:40:58.781468,-0.06195805612579233
2023-01-27 16:40:58.786468,-0.07291495800018308
2023-01-27 16:40:58.791468,-0.08720137791031063
2023-01-27 16:40:58.796468,-0.10101835429668417
2023-01-27 16:40:58.801468,-0.1117875878810329
2023-01-27 16:40:58.806468,-0.11698126792907704
2023-01-27 16:40:58.811468,-0.1109462887074544
2023-01-27 16:40:58.816468,-0.08803646266460403
2023-01-27 16:40:58.821468,-0.05038588901202468
2023-01-27 16:40:58.826468,-0.00824590586125846
2023-01-27 16:40:58.831468,0.029562024555177504
2023-01-27 16:40:58.836468,0.061135094612836824
2023-01-27 16:40:58.841468,0.08432605318933444
2023-01-27 16:40:58.846468,0.08938273042440406
2023-01-27 16:40:58.851468,0.06609038854483122
2023-01-27 16:40:58.856468,0.01764575764536851
2023-01-27 16:40:58.861468,-0.03871487926545407
2023-01-27 16:40:58.866468,-0.08632957935333248
2023-01-27 16:40:58.871468,-0.12020060496941166
2023-01-27 16:40:58.876468,-0.14282485842704756
2023-01-27 16:40:58.881468,-0.15470541680548924
2023-01-27 16:40:58.886468,-0.15330652892589552
2023-01-27 16:40:58.891468,-0.13883755956277452
2023-01-27 16:40:58.896468,-0.11654853820800777
2023-01-27 16:40:58.901468,-0.09309910824527075
2023-01-27 16:40:58.906468,-0.0729870796203612
2023-01-27 16:40:58.911468,-0.058393710882665685
2023-01-27 16:40:58.916468,-0.05007644742727262
2023-01-27 16:40:58.921468,-0.04731575786703182
2023-01-27 16:40:58.926468,-0.04796087741851789
2023-01-27 16:40:58.931468,-0.04942217340468276
2023-01-27 16:40:58.936468,-0.04976391792297361
2023-01-27 16:40:58.941468,-0.04825241752800625
2023-01-27 16:40:58.946468,-0.045508742332458316
2023-01-27 16:40:58.951468,-0.043097734096730254
2023-01-27 16:40:58.956468,-0.042383473366498864
2023-01-27 16:40:58.961468,-0.043460882173241476
2023-01-27 16:40:58.966468,-0.04507601261138909
2023-01-27 16:40:58.971468,-0.04529902949900006
2023-01-27 16:40:58.976468,-0.0422873124480247
2023-01-27 16:40:58.981468,-0.035080430190809794
2023-01-27 16:40:58.986468,-0.02430498600006093
2023-01-27 16:40:58.991468,-0.012058205529282986
2023-01-27 16:40:58.996468,-0.0007933378219604113
2023-01-27 16:40:59.001468,0.007778870775738625
2023-01-27 16:40:59.006468,0.012981891632080021
2023-01-27 16:40:59.011468,0.015056641512086534
2023-01-27 16:40:59.016468,0.015073418617248506
2023-01-27 16:40:59.021468,0.014513888537651
2023-01-27 16:40:59.026468,0.014448365196585598
2023-01-27 16:40:59.031468,0.015126595053557982
2023-01-27 16:40:59.036468,0.01639564894139761
2023-01-27 16:40:59.041468,0.018240824792257113
2023-01-27 16:40:59.046468,0.020915269851684456
2023-01-27 16:40:59.051468,0.025052244855684254
2023-01-27 16:40:59.056468,0.03190179914236059
2023-01-27 16:40:59.061468,0.04299087161429089
2023-01-27 16:40:59.066468,0.05901952832937236
2023-01-27 16:40:59.071468,0.07900442186300562
2023-01-27 16:40:59.076468,0.10044138133525833
2023-01-27 16:40:59.081468,0.120054639912357
2023-01-27 16:40:59.086468,0.13457894325256337
2023-01-27 16:40:59.091468,0.14167220538040778
2023-01-27 16:40:59.096468,0.14075736701488478
2023-01-27 16:40:59.101468,0.13292441702895974
2023-01-27 16:40:59.106468,0.11974593251943574
2023-01-27 16:40:59.111468,0.10216376353653421
2023-01-27 16:40:59.116468,0.0803675279021263
2023-01-27 16:40:59.121468,0.05432266109341507
2023-01-27 16:40:59.126468,0.024401148781180257
2023-01-27 16:40:59.131468,-0.007848831924950825
2023-01-27 16:40:59.136468,-0.03908991813659656
2023-01-27 16:40:59.141468,-0.0647014753230223
2023-01-27 16:40:59.146468,-0.08058389276266094
2023-01-27 16:40:59.151468,-0.08499199149104683
2023-01-27 16:40:59.156468,-0.07921358197927461
2023-01-27 16:40:59.161468,-0.06715167101058758
2023-01-27 16:40:59.166468,-0.05421141907572734
2023-01-27 16:40:59.171468,-0.04550056270612604
2023-01-27 16:40:59.176468,-0.04384994506835933
2023-01-27 16:40:59.181468,-0.04896758525130923
2023-01-27 16:40:59.186468,-0.05832235142588601
2023-01-27 16:40:59.191468,-0.06879428514809408
2023-01-27 16:40:59.196468,-0.07793943583965289
2023-01-27 16:40:59.201468,-0.08468239372359947
2023-01-27 16:40:59.206468,-0.08945485204458231
2023-01-27 16:40:59.211468,-0.09342580496699668
2023-01-27 16:40:59.216468,-0.09709974378347386
2023-01-27 16:40:59.221468,-0.09955588793491355
2023-01-27 16:40:59.226468,-0.09904702752828592
2023-01-27 16:40:59.231468,-0.09418595917538129
2023-01-27 16:40:59.236468,-0.08474290370941154
2023-01-27 16:40:59.241468,-0.07198308996649164
2023-01-27 16:40:59.246468,-0.05858679860830297
2023-01-27 16:40:59.251468,-0.04773693969688531
2023-01-27 16:40:59.256468,-0.04159013554453835
2023-01-27 16:40:59.261468,-0.04040879835901516
2023-01-27 16:40:59.266468,-0.04308065026998499
2023-01-27 16:40:59.271468,-0.04819279430007684
2023-01-27 16:40:59.276468,-0.05464414879679657
2023-01-27 16:40:59.281468,-0.061845775130227244
2023-01-27 16:40:59.286468,-0.06976564973592755
2023-01-27 16:40:59.291468,-0.07849236075319099
2023-01-27 16:40:59.296468,-0.08741140365600567
2023-01-27 16:40:59.301468,-0.09502864191628918
2023-01-27 16:40:59.306468,-0.09988844394683818
2023-01-27 16:40:59.311468,-0.1015187335936507
2023-01-27 16:40:59.316468,-0.10039329528808578
2023-01-27 16:40:59.321468,-0.09733735049931402
2023-01-27 16:40:59.326468,-0.09313305467367153
2023-01-27 16:40:59.331468,-0.08818467141279099
2023-01-27 16:40:59.336468,-0.08209844678640359
2023-01-27 16:40:59.341468,-0.07385025260320686
2023-01-27 16:40:59.346468,-0.06279389560222606
2023-01-27 16:40:59.351468,-0.04947026647285331
2023-01-27 16:40:59.356468,-0.03541171550750727
2023-01-27 16:40:59.361468,-0.022604976228105964
2023-01-27 16:40:59.366468,-0.013342499732971077
2023-01-27 16:40:59.371468,-0.009920388075588496
2023-01-27 16:40:59.376468,-0.013679067604243679
2023-01-27 16:40:59.381468,-0.02424652908894484
2023-01-27 16:40:59.386468,-0.039835177361965075
2023-01-27 16:40:59.391468,-0.05798269293085349
2023-01-27 16:40:59.396468,-0.07596810907125463
2023-01-27 16:40:59.401468,-0.0913847724570068
2023-01-27 16:40:59.406468,-0.10320603847503644
2023-01-27 16:40:59.411468,-0.11216899131628401
2023-01-27 16:40:59.416468,-0.11960168927907953
2023-01-27 16:40:59.421468,-0.12596634798846956
2023-01-27 16:40:59.426468,-0.1306843757629393
2023-01-27 16:40:59.431468,-0.13270281802092362
2023-01-27 16:40:59.436468,-0.1305882185697554
2023-01-27 16:40:59.441468,-0.12265095065072043
2023-01-27 16:40:59.446468,-0.10794202983379353
2023-01-27 16:40:59.451468,-0.08696865208076458
2023-01-27 16:40:59.456468,-0.06082256883382782
2023-01-27 16:40:59.461468,-0.03021599479766473
2023-01-27 16:40:59.466468,0.0034137568436562776
2023-01-27 16:40:59.471468,0.03609536544521408
2023-01-27 16:40:59.476468,0.06204863637685785
2023-01-27 16:40:59.481468,0.07656053340254497
2023-01-27 16:40:59.486468,0.07726629823446271
2023-01-27 16:40:59.491468,0.06290469448905292
2023-01-27 16:40:59.496468,0.033007662743329946
2023-01-27 16:40:59.501468,-0.00971261606717076
2023-01-27 16:40:59.506468,-0.05772133916616422
2023-01-27 16:40:59.511468,-0.1011719036976521
2023-01-27 16:40:59.516468,-0.13248741626739485
2023-01-27 16:40:59.521468,-0.14851052800660208
2023-01-27 16:40:59.526468,-0.14953216910362221
2023-01-27 16:40:59.531468,-0.13801397802769472
2023-01-27 16:40:59.536468,-0.11827945709228511
2023-01-27 16:40:59.541468,-0.09579920105408628
2023-01-27 16:40:59.546468,-0.0754873007535933
2023-01-27 16:40:59.551468,-0.0604328158531941
2023-01-27 16:40:59.556468,-0.051903527230024234
2023-01-27 16:40:59.561468,-0.04968508690358711
2023-01-27 16:40:59.566468,-0.05209585279226291
2023-01-27 16:40:59.571468,-0.056415741535885744
2023-01-27 16:40:59.576468,-0.060149431228637654
2023-01-27 16:40:59.581468,-0.06211883366126318
2023-01-27 16:40:59.586468,-0.062457323074340744
2023-01-27 16:40:59.591468,-0.0619497536057073
2023-01-27 16:40:59.596468,-0.0615197420120238
2023-01-27 16:40:59.601468,-0.06183980564454386
2023-01-27 16:40:59.606468,-0.06284197419881822
2023-01-27 16:40:59.611468,-0.0635444439352396
2023-01-27 16:40:59.616468,-0.06257753074169163
2023-01-27 16:40:59.621468,-0.05894594029644309
2023-01-27 16:40:59.626468,-0.052360296249389655
2023-01-27 16:40:59.631468,-0.04319363496666158
2023-01-27 16:40:59.636468,-0.03245472908020005
2023-01-27 16:40:59.641468,-0.02169116686062301
2023-01-27 16:40:59.646468,-0.012525121681392089
2023-01-27 16:40:59.651468,-0.006026857589779676
2023-01-27 16:40:59.656468,-0.0024040541611611652
2023-01-27 16:40:59.661468,-0.0010611939013670337
2023-01-27 16:40:59.666468,-0.0007692973013035384
2023-01-27 16:40:59.671468,5.1190134830865944e-05
2023-01-27 16:40:59.676468,0.002788702724501462
2023-01-27 16:40:59.681468,0.008089410922778
2023-01-27 16:40:59.686468,0.015770595520734683
2023-01-27 16:40:59.691468,0.025224052531971748
2023-01-27 16:40:59.696468,0.03586848825216283
2023-01-27 16:40:59.701468,0.04736417955943004
2023-01-27 16:40:59.706468,0.05964457988739006
2023-01-27 16:40:59.711468,0.07277970102900223
2023-01-27 16:40:59.716468,0.08659403026103975
2023-01-27 16:40:59.721468,0.10025087248643812
2023-01-27 16:40:59.726468,0.11224528402090068
2023-01-27 16:40:59.731468,0.12088654052184729
2023-01-27 16:40:59.736468,0.12484252452850331
2023-01-27 16:40:59.741468,0.12338299216898045
2023-01-27 16:40:59.746468,0.11638025939464558
2023-01-27 16:40:59.751468,0.1042228775666955
2023-01-27 16:40:59.756468,0.08762776851654057
2023-01-27 16:40:59.761468,0.06741163339709079
2023-01-27 16:40:59.766468,0.04447500035166733
2023-01-27 16:40:59.771468,0.020048430260389778
2023-01-27 16:40:59.776468,-0.0041590137407183266
2023-01-27 16:40:59.781468,-0.02622172308224328
2023-01-27 16:40:59.786468,-0.04452308267354966
2023-01-27 16:40:59.791468,-0.05819765920950476
2023-01-27 16:40:59.796468,-0.06733755767345412
2023-01-27 16:40:59.801468,-0.07292084766553238
2023-01-27 16:40:59.806468,-0.07637679576873768
2023-01-27 16:40:59.811468,-0.07890361847581889
2023-01-27 16:40:59.816468,-0.08099257946014407
2023-01-27 16:40:59.821468,-0.08250285775107917
2023-01-27 16:40:59.826468,-0.0831081494688987
2023-01-27 16:40:59.831468,-0.08269923922649927
2023-01-27 16:40:59.836468,-0.08156955242156971
2023-01-27 16:40:59.841468,-0.08039509746616448
2023-01-27 16:40:59.846468,-0.07995884120464321
2023-01-27 16:40:59.851468,-0.08068069004596641
2023-01-27 16:40:59.856468,-0.08231481164693837
2023-01-27 16:40:59.861468,-0.08410427226944021
2023-01-27 16:40:59.866468,-0.08519967645406717
2023-01-27 16:40:59.871468,-0.0849542663637832
2023-01-27 16:40:59.876468,-0.08303602784872041
2023-01-27 16:40:59.881468,-0.07952382853154787
2023-01-27 16:40:59.886468,-0.07495840638875965
2023-01-27 16:40:59.891468,-0.07019307519300982
2023-01-27 16:40:59.896468,-0.06611149013042449
2023-01-27 16:40:59.901468,-0.06340957747830316
2023-01-27 16:40:59.906468,-0.0624573230743408
2023-01-27 16:40:59.911468,-0.06319579966870138
2023-01-27 16:40:59.916468,-0.06522198766469944
2023-01-27 16:40:59.921468,-0.0681571622302872
2023-01-27 16:40:59.926468,-0.07197737693786618
2023-01-27 16:40:59.931468,-0.07688223098791819
2023-01-27 16:40:59.936468,-0.08277158439159384
2023-01-27 16:40:59.941468,-0.08882023971427551
2023-01-27 16:40:59.946468,-0.09349366277456278
2023-01-27 16:40:59.951468,-0.09501564651960774
2023-01-27 16:40:59.956468,-0.09214739501476264
2023-01-27 16:40:59.961468,-0.08494960615633286
2023-01-27 16:40:59.966468,-0.07498244941234583
2023-01-27 16:40:59.971468,-0.06467526289246375
2023-01-27 16:40:59.976468,-0.05632698535919176
2023-01-27 16:40:59.981468,-0.05147770380758379
2023-01-27 16:40:59.986468,-0.05084574222564695
2023-01-27 16:40:59.991468,-0.054458881632839115
2023-01-27 16:40:59.996468,-0.06168802827596654
2023-01-27 16:41:00.001468,-0.07121300305691275
2023-01-27 16:41:00.006468,-0.08101662248373029
2023-01-27 16:41:00.011468,-0.08853617429159523
2023-01-27 16:41:00.016468,-0.09123384952545166
2023-01-27 16:41:00.021468,-0.08762124140039279
2023-01-27 16:41:00.026468,-0.07815580070018764
2023-01-27 16:41:00.031468,-0.06526200774958439
2023-01-27 16:41:00.036468,-0.05240837857127179
2023-01-27 16:41:00.041468,-0.04286778277532943
2023-01-27 16:41:00.046468,-0.03875335305929182
2023-01-27 16:41:00.051468,-0.040543352330197506
2023-01-27 16:41:00.056468,-0.047167539596557666
2023-01-27 16:41:00.061468,-0.056624477817081714
2023-01-27 16:41:00.066468,-0.0667846202850341
2023-01-27 16:41:00.071468,-0.07592811260637719
2023-01-27 16:41:00.076468,-0.08293986320495593
2023-01-27 16:41:00.081468,-0.08740819535521122
2023-01-27 16:41:00.086468,-0.08971929550170887
2023-01-27 16:41:00.091468,-0.09099448169732507
2023-01-27 16:41:00.096468,-0.09277244657278068
2023-01-27 16:41:00.101468,-0.09644456138145342
2023-01-27 16:41:00.106468,-0.10243674367666246
2023-01-27 16:41:00.111468,-0.10932720116345122
2023-01-27 16:41:00.116468,-0.11349539458751659
2023-01-27 16:41:00.121468,-0.10988951915399568
2023-01-27 16:41:00.126468,-0.09387831389904018
2023-01-27 16:41:00.131468,-0.06353210693552803
2023-01-27 16:41:00.136468,-0.021444162353873242
2023-01-27 16:41:00.141468,0.024857310061194772
2023-01-27 16:41:00.146468,0.06462097167968754
2023-01-27 16:41:00.151468,0.08742020659323278
2023-01-27 16:41:00.156468,0.08695463836193086
2023-01-27 16:41:00.161468,0.06325923385380129
2023-01-27 16:41:00.166468,0.022525986656546558
2023-01-27 16:41:00.171468,-0.02508084952919678
2023-01-27 16:41:00.176468,-0.06873190402984605
2023-01-27 16:41:00.181468,-0.10023876700543288
2023-01-27 16:41:00.186468,-0.11609177291393274
2023-01-27 16:41:00.191468,-0.11752954459860182
2023-01-27 16:41:00.196468,-0.10909597575664512
2023-01-27 16:41:00.201468,-0.0966832547193139
2023-01-27 16:41:00.206468,-0.08563240617513652
2023-01-27 16:41:00.211468,-0.07914692203281798
2023-01-27 16:41:00.216468,-0.07755478471517566
2023-01-27 16:41:00.221468,-0.07886820482652478
2023-01-27 16:41:00.226468,-0.08022328466176978
2023-01-27 16:41:00.231468,-0.07924702939445494
2023-01-27 16:41:00.236468,-0.07486224174499503
2023-01-27 16:41:00.241468,-0.06756824984293314
2023-01-27 16:41:00.246468,-0.05913972854614248
2023-01-27 16:41:00.251468,-0.05170814261705712
2023-01-27 16:41:00.256468,-0.04675885289907453
2023-01-27 16:41:00.261468,-0.04473378698215381
2023-01-27 16:41:00.266468,-0.0451962165534496
2023-01-27 16:41:00.271468,-0.0470195365462738
2023-01-27 16:41:00.276468,-0.04853785037994382
2023-01-27 16:41:00.281468,-0.048018346286150725
2023-01-27 16:41:00.286468,-0.04435479640960688
2023-01-27 16:41:00.291468,-0.03743913509427752
2023-01-27 16:41:00.296468,-0.028079351410269755
2023-01-27 16:41:00.301468,-0.01778651675181032
2023-01-27 16:41:00.306468,-0.00846227072179309
2023-01-27 16:41:00.311468,-0.001753747397166857
2023-01-27 16:41:00.316468,0.0016828378429637068
2023-01-27 16:41:00.321468,0.002412331780444873
2023-01-27 16:41:00.326468,0.0018751621246337084
2023-01-27 16:41:00.331468,0.0019323651379566133
2023-01-27 16:41:00.336468,0.00444750022143117
2023-01-27 16:41:00.341468,0.010668557724399222
2023-01-27 16:41:00.346468,0.0205787029117345
2023-01-27 16:41:00.351468,0.032807168251240255
2023-01-27 16:41:00.356468,0.04524429887533184
2023-01-27 16:41:00.361468,0.05589093939628719
2023-01-27 16:41:00.366468,0.06358723342418666
2023-01-27 16:41:00.371468,0.06855636033073426
2023-01-27 16:41:00.376468,0.07248222827911362
2023-01-27 16:41:00.381468,0.07778048331993735
2023-01-27 16:41:00.386468,0.08640170097351059
2023-01-27 16:41:00.391468,0.09899841160703757
2023-01-27 16:41:00.396468,0.11476954072713844
2023-01-27 16:41:00.401468,0.13163901555492732
2023-01-27 16:41:00.406468,0.14659921824932082
2023-01-27 16:41:00.411468,0.15639064026428245
2023-01-27 16:41:00.416468,0.15835504233837117
2023-01-27 16:41:00.421468,0.15096118725093371
2023-01-27 16:41:00.426468,0.1339298486709593
2023-01-27 16:41:00.431468,0.10832278344636707
2023-01-27 16:41:00.436468,0.0765931606292725
2023-01-27 16:41:00.441468,0.04219460096301269
2023-01-27 16:41:00.446468,0.008774797432124577
2023-01-27 16:41:00.451468,-0.020520579580350518
2023-01-27 16:41:00.456468,-0.043441258370876375
2023-01-27 16:41:00.461468,-0.05898951889185285
2023-01-27 16:41:00.466468,-0.06769816577434523
2023-01-27 16:41:00.471468,-0.07139515336529735
2023-01-27 16:41:00.476468,-0.0724341496825217
2023-01-27 16:41:00.481468,-0.07291225287276097
2023-01-27 16:41:00.486468,-0.07416506856679901
2023-01-27 16:41:00.491468,-0.07643016293995131
2023-01-27 16:41:00.496468,-0.0788048952817916
2023-01-27 16:41:00.501468,-0.07983406931244519
2023-01-27 16:41:00.506468,-0.07849236577749243
2023-01-27 16:41:00.511468,-0.07478773549325436
2023-01-27 16:41:00.516468,-0.06964544951915738
2023-01-27 16:41:00.521468,-0.06443423416053785
2023-01-27 16:41:00.526468,-0.06046196073293681
2023-01-27 16:41:00.531468,-0.05847548972876704
2023-01-27 16:41:00.536468,-0.05839447304606438
2023-01-27 16:41:00.541468,-0.05961374205531056
2023-01-27 16:41:00.546468,-0.06161590665578838
2023-01-27 16:41:00.551468,-0.06420436692310397
2023-01-27 16:41:00.556468,-0.06721735000610342
2023-01-27 16:41:00.561468,-0.07025453712141819
2023-01-27 16:41:00.566468,-0.07272263616323468
2023-01-27 16:41:00.571468,-0.07400341387420793
2023-01-27 16:41:00.576468,-0.07366021722555155
2023-01-27 16:41:00.581468,-0.07178942035593341
2023-01-27 16:41:00.586468,-0.0692367553710936
2023-01-27 16:41:00.591468,-0.06720036902425167
2023-01-27 16:41:00.596468,-0.06642401218414297
2023-01-27 16:41:00.601468,-0.06677692283740938
2023-01-27 16:41:00.606468,-0.06752987951040254
2023-01-27 16:41:00.611468,-0.06787332781145104
2023-01-27 16:41:00.616468,-0.06728947162628175
2023-01-27 16:41:00.621468,-0.06579750372360747
2023-01-27 16:41:00.626468,-0.06399592012166966
2023-01-27 16:41:00.631468,-0.06270755210049933
2023-01-27 16:41:00.636468,-0.06248136609792693
2023-01-27 16:41:00.641468,-0.06348183307814044
2023-01-27 16:41:00.646468,-0.06575088202953325
2023-01-27 16:41:00.651468,-0.06932383743245607
2023-01-27 16:41:00.656468,-0.07404486835002888
2023-01-27 16:41:00.661468,-0.07941243301203668
2023-01-27 16:41:00.666468,-0.08457462489604939
2023-01-27 16:41:00.671468,-0.08831133415037018
2023-01-27 16:41:00.676468,-0.08911828696727737
2023-01-27 16:41:00.681468,-0.08566052818142922
2023-01-27 16:41:00.686468,-0.0773864984512329
2023-01-27 16:41:00.691468,-0.0648337445248484
2023-01-27 16:41:00.696468,-0.049619674682617146
2023-01-27 16:41:00.701468,-0.03436802288058276
2023-01-27 16:41:00.706468,-0.02238174341618999
2023-01-27 16:41:00.711468,-0.016746161561924575
2023-01-27 16:41:00.716468,-0.019208392128348226
2023-01-27 16:41:00.721468,-0.02951865659076256
2023-01-27 16:41:00.726468,-0.045412581413984174
2023-01-27 16:41:00.731468,-0.06312237997256119
2023-01-27 16:41:00.736468,-0.0785644873976707
2023-01-27 16:41:00.741468,-0.08899376754683301
2023-01-27 16:41:00.746468,-0.09397447109222407
2023-01-27 16:41:00.751468,-0.09482332361557629
2023-01-27 16:41:00.756468,-0.0933494195342061
2023-01-27 16:41:00.761468,-0.09124283518697092
2023-01-27 16:41:00.766468,-0.08998374640941602
2023-01-27 16:41:00.771468,-0.09023600406890407
2023-01-27 16:41:00.776468,-0.09089728444814678
2023-01-27 16:41:00.781468,-0.08904747380807579
2023-01-27 16:41:00.786468,-0.08106470108032221
2023-01-27 16:41:00.791468,-0.06398675525974266
2023-01-27 16:41:00.796468,-0.036709904670715235
2023-01-27 16:41:00.801468,-0.0012965452502731692
2023-01-27 16:41:00.806468,0.03622909635305401
2023-01-27 16:41:00.811468,0.06698344512338456
2023-01-27 16:41:00.816468,0.08226673305034626
2023-01-27 16:41:00.821468,0.07678560403133644
2023-01-27 16:41:00.826468,0.05048513412475584
2023-01-27 16:41:00.831468,0.008713481900047004
2023-01-27 16:41:00.836468,-0.039210122078657095
2023-01-27 16:41:00.841468,-0.08293589724329457
2023-01-27 16:41:00.846468,-0.11443297564983357
2023-01-27 16:41:00.851468,-0.12994319100889345
2023-01-27 16:41:00.856468,-0.12993912398815152
2023-01-27 16:41:00.861468,-0.11806782416680045
2023-01-27 16:41:00.866468,-0.09986440837383262
2023-01-27 16:41:00.871468,-0.08109525355223118
2023-01-27 16:41:00.876468,-0.06596724689006793
2023-01-27 16:41:00.881468,-0.0562267720901958
2023-01-27 16:41:00.886468,-0.05151887983083725
2023-01-27 16:41:00.891468,-0.05022817202130089
2023-01-27 16:41:00.896468,-0.05024472996592528
2023-01-27 16:41:00.901468,-0.049847432512712495
2023-01-27 16:41:00.906468,-0.04848977178335185
2023-01-27 16:41:00.911468,-0.04669017557026041
2023-01-27 16:41:00.916468,-0.04510005563497541
2023-01-27 16:41:00.921468,-0.04389936711278663
2023-01-27 16:41:00.926468,-0.0430085286498069
2023-01-27 16:41:00.931468,-0.04235323608981515
2023-01-27 16:41:00.936468,-0.04171033948659897
2023-01-27 16:41:00.941468,-0.040657914805311855
2023-01-27 16:41:00.946468,-0.03887355327606196
2023-01-27 16:41:00.951468,-0.036226691127033445
2023-01-27 16:41:00.956468,-0.032550893723964504
2023-01-27 16:41:00.961468,-0.027744404729523334
2023-01-27 16:41:00.966468,-0.02221345901489245
2023-01-27 16:41:00.971468,-0.01677482163417594
2023-01-27 16:41:00.976468,-0.011876027099788111
2023-01-27 16:41:00.981468,-0.007182699386036574
2023-01-27 16:41:00.986468,-0.0020434460602700238
2023-01-27 16:41:00.991468,0.003949808796513792
2023-01-27 16:41:00.996468,0.010890364646911687
2023-01-27 16:41:01.001468,0.018565127522794645
2023-01-27 16:41:01.006468,0.026348432525992192
2023-01-27 16:41:01.011468,0.03350707809434143
2023-01-27 16:41:01.016468,0.03988325595855705
2023-01-27 16:41:01.021468,0.04605191666328821
2023-01-27 16:41:01.026468,0.052744947373867014
2023-01-27 16:41:01.031468,0.06047107976035446
2023-01-27 16:41:01.036468,0.06971757113933566
2023-01-27 16:41:01.041468,0.08093716349654577
2023-01-27 16:41:01.046468,0.0939504355192184
2023-01-27 16:41:01.051468,0.1075624356360753
2023-01-27 16:41:01.056468,0.11989017575979222
2023-01-27 16:41:01.061468,0.12886237238767517
2023-01-27 16:41:01.066468,0.13260762393474568
2023-01-27 16:41:01.071468,0.130165162762483
2023-01-27 16:41:01.076468,0.12227018922567359
2023-01-27 16:41:01.081468,0.1110772472805236
2023-01-27 16:41:01.086468,0.0987104624509811
2023-01-27 16:41:01.091468,0.08610372609352893
2023-01-27 16:41:01.096468,0.07308324426412573
2023-01-27 16:41:01.101468,0.0590167291172674
2023-01-27 16:41:01.106468,0.043297015130519846
2023-01-27 16:41:01.111468,0.025884311143206
2023-01-27 16:41:01.116468,0.007837216369807767
2023-01-27 16:41:01.121468,-0.009029307325248216
2023-01-27 16:41:01.126468,-0.02336740493774405
2023-01-27 16:41:01.131468,-0.03503695970146841
2023-01-27 16:41:01.136468,-0.044643282890319824
2023-01-27 16:41:01.141468,-0.052801410728081914
2023-01-27 16:41:01.146468,-0.05993306636810304
2023-01-27 16:41:01.151468,-0.06614834515708388
2023-01-27 16:41:01.156468,-0.07094363868236539
2023-01-27 16:41:01.161468,-0.07343884902190108
2023-01-27 16:41:01.166468,-0.07329960912466035
2023-01-27 16:41:01.171468,-0.07120485436584796
2023-01-27 16:41:01.176468,-0.06827513873577108
2023-01-27 16:41:01.181468,-0.06539538713028972
2023-01-27 16:41:01.186468,-0.06313046067953093
2023-01-27 16:41:01.191468,-0.06165135863311507
2023-01-27 16:41:01.196468,-0.06038983911275854
2023-01-27 16:41:01.201468,-0.05826817110502879
2023-01-27 16:41:01.206468,-0.05471627041697508
2023-01-27 16:41:01.211468,-0.0502311879849265
2023-01-27 16:41:01.216468,-0.04579722881317132
2023-01-27 16:41:01.221468,-0.0421893690146847
2023-01-27 16:41:01.226468,-0.03997942060232164
2023-01-27 16:41:01.231468,-0.03957938581609003
2023-01-27 16:41:01.236468,-0.0408448800444601
2023-01-27 16:41:01.241468,-0.043048545373977044
2023-01-27 16:41:01.246468,-0.04558086395263672
2023-01-27 16:41:01.251468,-0.04828882289361443
2023-01-27 16:41:01.256468,-0.050893824547529255
2023-01-27 16:41:01.261468,-0.05262030540046813
2023-01-27 16:41:01.266468,-0.05279302597045888
2023-01-27 16:41:01.271468,-0.05139963207679423
2023-01-27 16:41:01.276468,-0.04880229756236071
2023-01-27 16:41:01.281468,-0.04542623989949323
2023-01-27 16:41:01.286468,-0.042070947587489985
2023-01-27 16:41:01.291468,-0.039942118435052694
2023-01-27 16:41:01.296468,-0.03983517736196509
2023-01-27 16:41:01.301468,-0.04156511197619153
2023-01-27 16:41:01.306468,-0.04437883943319323
2023-01-27 16:41:01.311468,-0.0473119756211665
2023-01-27 16:41:01.316468,-0.04880229756236074
2023-01-27 16:41:01.321468,-0.04674525118966573
2023-01-27 16:41:01.326468,-0.03978709504008294
2023-01-27 16:41:01.331468,-0.028487810407454947
2023-01-27 16:41:01.336468,-0.0150734186172486
2023-01-27 16:41:01.341468,-0.002613141270874917
2023-01-27 16:41:01.346468,0.005433162208646517
2023-01-27 16:41:01.351468,0.0061146695698540655
2023-01-27 16:41:01.356468,-0.0012501081218941508
2023-01-27 16:41:01.361468,-0.014280132147032115
2023-01-27 16:41:01.366468,-0.029065012931823758
2023-01-27 16:41:01.371468,-0.04235075012106475
2023-01-27 16:41:01.376468,-0.05226413533091543
2023-01-27 16:41:01.381468,-0.05820490210839044
2023-01-27 16:41:01.386468,-0.06125529855489729
2023-01-27 16:41:01.391468,-0.06406571252199349
2023-01-27 16:41:01.396468,-0.06887614727020255
2023-01-27 16:41:01.401468,-0.07548030427941947
2023-01-27 16:41:01.406468,-0.08180996030569068
2023-01-27 16:41:01.411468,-0.08609027334741633
2023-01-27 16:41:01.416468,-0.08719503879547115
2023-01-27 16:41:01.421468,-0.08297083755941881
2023-01-27 16:41:01.426468,-0.06978969275951373
2023-01-27 16:41:01.431468,-0.044862606045009454
2023-01-27 16:41:01.436468,-0.00896712206304061
2023-01-27 16:41:01.441468,0.03293141201736983
2023-01-27 16:41:01.446468,0.0729390010237693
2023-01-27 16:41:01.451468,0.10211921178267735
2023-01-27 16:41:01.456468,0.11282225698232635
2023-01-27 16:41:01.461468,0.10137467160968075
2023-01-27 16:41:01.466468,0.069861814379692
2023-01-27 16:41:01.471468,0.025645917806422308
2023-01-27 16:41:01.476468,-0.02125183865427963
2023-01-27 16:41:01.481468,-0.06151146895800176
2023-01-27 16:41:01.486468,-0.08911828696727753
2023-01-27 16:41:01.491468,-0.10231289881066577
2023-01-27 16:41:01.496468,-0.102893516421318
2023-01-27 16:41:01.501468,-0.09467444583292105
2023-01-27 16:41:01.506468,-0.08193016052246095
2023-01-27 16:41:01.511468,-0.06812086053744594
2023-01-27 16:41:01.516468,-0.055076878517866086
2023-01-27 16:41:01.521468,-0.04302221741911461
2023-01-27 16:41:01.526468,-0.03139694780111318
2023-01-27 16:41:01.531468,-0.01974708537387949
2023-01-27 16:41:01.536468,-0.008173784241080187
2023-01-27 16:41:01.541468,0.0024739828464932488
2023-01-27 16:41:01.546468,0.010649959556758308
2023-01-27 16:41:01.551468,0.014849638158547828
2023-01-27 16:41:01.556468,0.01478493213653556
2023-01-27 16:41:01.561468,0.01178348372213046
2023-01-27 16:41:01.566468,0.007909337989985858
2023-01-27 16:41:01.571468,0.004815740919739404
2023-01-27 16:41:01.576468,0.0032935540657489616
2023-01-27 16:41:01.581468,0.0032992681854701945
2023-01-27 16:41:01.586468,0.004159013740718259
2023-01-27 16:41:01.591468,0.005288991315100143
2023-01-27 16:41:01.596468,0.007188121788203808
2023-01-27 16:41:01.601468,0.011465055672366643
2023-01-27 16:41:01.606468,0.019544959068298298
2023-01-27 16:41:01.611468,0.03144067283912597
2023-01-27 16:41:01.616468,0.04570106789469706
2023-01-27 16:41:01.621468,0.05999000734862558
2023-01-27 16:41:01.626468,0.07161676883697489
2023-01-27 16:41:01.631468,0.07839245017101168
2023-01-27 16:41:01.636468,0.0798145979642869
2023-01-27 16:41:01.641468,0.07739394878205716
2023-01-27 16:41:01.646468,0.07363617420196533
2023-01-27 16:41:01.651468,0.07092273321740612
2023-01-27 16:41:01.656468,0.07120808213949194
2023-01-27 16:41:01.661468,0.07578445659629189
2023-01-27 16:41:01.666468,0.08459866046905504
2023-01-27 16:41:01.671468,0.09613566243799251
2023-01-27 16:41:01.676468,0.10844688117504114
2023-01-27 16:41:01.681468,0.12012464316608898
2023-01-27 16:41:01.686468,0.1302997320890425
2023-01-27 16:41:01.691468,0.13848730079309246
2023-01-27 16:41:01.696468,0.14489233493804926
2023-01-27 16:41:01.701468,0.1502143743991233
2023-01-27 16:41:01.706468,0.15453259646892525
2023-01-27 16:41:01.711468,0.15672251011752747
2023-01-27 16:41:01.716468,0.15530189871788017
2023-01-27 16:41:01.721468,0.149400731250756
2023-01-27 16:41:01.726468,0.1387379616498946
2023-01-27 16:41:01.731468,0.12350841528726016
2023-01-27 16:41:01.736468,0.10488887876272188
2023-01-27 16:41:01.741468,0.08500366670583848
2023-01-27 16:41:01.746468,0.06570279598236069
2023-01-27 16:41:01.751468,0.04769638372292905
2023-01-27 16:41:01.756468,0.03113250061869622
2023-01-27 16:41:01.761468,0.016291000203516367
2023-01-27 16:41:01.766468,0.0032695136032997235
2023-01-27 16:41:01.771468,-0.008187320534834744
2023-01-27 16:41:01.776468,-0.01786212250590321
2023-01-27 16:41:01.781468,-0.02469319564542372
2023-01-27 16:41:01.786468,-0.02783894538879392
2023-01-27 16:41:01.791468,-0.02756549658031032
2023-01-27 16:41:01.796468,-0.024689635261893206
2023-01-27 16:41:01.801468,-0.020006486929573672
2023-01-27 16:41:01.806468,-0.014881094917654962
2023-01-27 16:41:01.811468,-0.011484904182423686
2023-01-27 16:41:01.816468,-0.011491378769278532
2023-01-27 16:41:01.821468,-0.014947933772795617
2023-01-27 16:41:01.826468,-0.02081910893321033
2023-01-27 16:41:01.831468,-0.02774197137264038
2023-01-27 16:41:01.836468,-0.03370483964681616
2023-01-27 16:41:01.841468,-0.03623308273961809
2023-01-27 16:41:01.846468,-0.03416160866618155
2023-01-27 16:41:01.851468,-0.028746117058062126
2023-01-27 16:41:01.856468,-0.022309621796011887
2023-01-27 16:41:01.861468,-0.01645172468806257
2023-01-27 16:41:01.866468,-0.012020270340144681
2023-01-27 16:41:01.871468,-0.009518799664176635
2023-01-27 16:41:01.876468,-0.008438229560851954
2023-01-27 16:41:01.881468,-0.007227958305105264
2023-01-27 16:41:01.886468,-0.005168716423213411
2023-01-27 16:41:01.891468,-0.0035601066920136473
2023-01-27 16:41:01.896468,-0.004134973045438495
2023-01-27 16:41:01.901468,-0.007198503750632038
2023-01-27 16:41:01.906468,-0.012140473350882629
2023-01-27 16:41:01.911468,-0.018445786576508555
2023-01-27 16:41:01.916468,-0.024954080581664925
2023-01-27 16:41:01.921468,-0.029416218703567087
2023-01-27 16:41:01.926468,-0.03036320209503168
2023-01-27 16:41:01.931468,-0.02853999667419482
2023-01-27 16:41:01.936468,-0.025290649384260133
2023-01-27 16:41:01.941468,-0.020738907654941068
2023-01-27 16:41:01.946468,-0.014881094917654939
2023-01-27 16:41:01.951468,-0.008978923486795519
2023-01-27 16:41:01.956468,-0.004134973045438523
2023-01-27 16:41:01.961468,0.00014186984645030756
2023-01-27 16:41:01.966468,0.004134973045438461
2023-01-27 16:41:01.971468,0.006141150105373213
2023-01-27 16:41:01.976468,0.00451962184160934
2023-01-27 16:41:01.981468,9.669885945237411e-05
2023-01-27 16:41:01.986468,-0.005529324524104609
2023-01-27 16:41:01.991468,-0.01235028531480048
2023-01-27 16:41:01.996468,-0.020145973190665193
2023-01-27 16:41:02.001468,-0.026212036427982657
2023-01-27 16:41:02.006468,-0.028007229790091504
2023-01-27 16:41:02.011468,-0.026540116175704773
2023-01-27 16:41:02.016468,-0.024016499519348092
2023-01-27 16:41:02.021468,-0.02011192614815456
2023-01-27 16:41:02.026468,-0.014496445655822697
2023-01-27 16:41:02.031468,-0.010860703200717603
2023-01-27 16:41:02.036468,-0.012981891632079983
2023-01-27 16:41:02.041468,-0.017853180978575203
2023-01-27 16:41:02.046468,-0.018559297546744295
2023-01-27 16:41:02.051468,-0.013363686866042706
2023-01-27 16:41:02.056468,-0.005144675727933655
2023-01-27 16:41:02.061468,0.008295960493172203
2023-01-27 16:41:02.066468,0.03447413444519039
2023-01-27 16:41:02.071468,0.07292993404822269
2023-01-27 16:41:02.076468,0.10902385413646694
2023-01-27 16:41:02.081468,0.12678322330627673
2023-01-27 16:41:02.086468,0.12306352704763408
2023-01-27 16:41:02.091468,0.10396441166817175
2023-01-27 16:41:02.096468,0.07305920124053945
2023-01-27 16:41:02.101468,0.031246622780796325
2023-01-27 16:41:02.106468,-0.014712810516357469
2023-01-27 16:41:02.111468,-0.05247384642631902
2023-01-27 16:41:02.116468,-0.07402082532644264
2023-01-27 16:41:02.121468,-0.0799079190711346
2023-01-27 16:41:02.126468,-0.0736361742019653
2023-01-27 16:41:02.131468,-0.05767211081346485
2023-01-27 16:41:02.136468,-0.03613293170928952
2023-01-27 16:41:02.141468,-0.015836911342219272
2023-01-27 16:41:02.146468,-0.0017068784218281317
2023-01-27 16:41:02.151468,0.006089046314414974
2023-01-27 16:41:02.156468,0.009111365303397111
2023-01-27 16:41:02.161468,0.007907573650273534
2023-01-27 16:41:02.166468,0.003678202629089237
2023-01-27 16:41:02.171468,-0.0005005758197223618
2023-01-27 16:41:02.176468,-0.0022838513832539034
2023-01-27 16:41:02.181468,-0.001976821709627861
2023-01-27 16:41:02.186468,-0.00048081082059075206
2023-01-27 16:41:02.191468,0.002696797418225742
2023-01-27 16:41:02.196468,0.008077621459960887
2023-01-27 16:41:02.201468,0.014772783508788339
2023-01-27 16:41:02.206468,0.021804770454764262
2023-01-27 16:41:02.211468,0.02924065552469565
2023-01-27 16:41:02.216468,0.03670990467071525
2023-01-27 16:41:02.221468,0.04230102316875679
2023-01-27 16:41:02.226468,0.044330757111310765
2023-01-27 16:41:02.231468,0.04317839605505978
2023-01-27 16:41:02.236468,0.04046022891998291
2023-01-27 16:41:02.241468,0.037638880300622644
2023-01-27 16:41:02.246468,0.03634929656982415
2023-01-27 16:41:02.251468,0.03862263046503115
2023-01-27 16:41:02.256468,0.04531642049551012
2023-01-27 16:41:02.261468,0.05502814457952595
2023-01-27 16:41:02.266468,0.06553451716899863
2023-01-27 16:41:02.271468,0.07566930082704398
2023-01-27 16:41:02.276468,0.08527179807424536
2023-01-27 16:41:02.281468,0.0944767324013865
2023-01-27 16:41:02.286468,0.10404746234416953
2023-01-27 16:41:02.291468,0.11544908788360461
2023-01-27 16:41:02.296468,0.12938618659973133
2023-01-27 16:41:02.301468,0.14464359931463555
2023-01-27 16:41:02.306468,0.15902817249298087
2023-01-27 16:41:02.311468,0.1709058087471067
2023-01-27 16:41:02.316468,0.17934243381023396
2023-01-27 16:41:02.321468,0.18366386736105955
2023-01-27 16:41:02.326468,0.18381397426128376
2023-01-27 16:41:02.331468,0.18062962445017963
2023-01-27 16:41:02.336468,0.17499110102653495
2023-01-27 16:41:02.341468,0.1670802287915824
2023-01-27 16:41:02.346468,0.15698473155498494
2023-01-27 16:41:02.351468,0.14543671896903818
2023-01-27 16:41:02.356468,0.13325671851634974
2023-01-27 16:41:02.361468,0.1204657589373671
2023-01-27 16:41:02.366468,0.10652363300323475
2023-01-27 16:41:02.371468,0.09109985711328715
2023-01-27 16:41:02.376468,0.07421314716339107
2023-01-27 16:41:02.381468,0.056171639895748304
2023-01-27 16:41:02.386468,0.03798405453562725
2023-01-27 16:41:02.391468,0.021385984893692797
2023-01-27 16:41:02.396468,0.007717013359069843
2023-01-27 16:41:02.401468,-0.003186774682790542
2023-01-27 16:41:02.406468,-0.0126693649217486
2023-01-27 16:41:02.411468,-0.02202069940911019
2023-01-27 16:41:02.416468,-0.031661391258239704
2023-01-27 16:41:02.421468,-0.040896063558991
2023-01-27 16:41:02.426468,-0.04786471650004377
2023-01-27 16:41:02.431468,-0.050112340014975776
2023-01-27 16:41:02.436468,-0.04603763669729227
2023-01-27 16:41:02.441468,-0.03613688046182688
2023-01-27 16:41:02.446468,-0.022862553596496554
2023-01-27 16:41:02.451468,-0.009448343769953937
2023-01-27 16:41:02.456468,0.001177986501716049
2023-01-27 16:41:02.461468,0.007050900592616604
2023-01-27 16:41:02.466468,0.007596810813993158
2023-01-27 16:41:02.471468,0.003657796576135941
2023-01-27 16:41:02.476468,-0.003101229667663451
2023-01-27 16:41:02.481468,-0.010952585415667196
2023-01-27 16:41:02.486468,-0.018439095467329022
2023-01-27 16:41:02.491468,-0.02433415128766622
2023-01-27 16:41:02.496468,-0.027646621689200377
2023-01-27 16:41:02.501468,-0.027783090169827777
2023-01-27 16:41:02.506468,-0.024689635261893206
2023-01-27 16:41:02.511468,-0.01885557519088565
2023-01-27 16:41:02.516468,-0.011202892288565596
2023-01-27 16:41:02.521468,-0.0029529563268178667
2023-01-27 16:41:02.526468,0.004495581146329584
2023-01-27 16:41:02.531468,0.009820044551371185
2023-01-27 16:41:02.536468,0.012212594971060775
2023-01-27 16:41:02.541468,0.011611974538705152
2023-01-27 16:41:02.546468,0.008366107940673771
2023-01-27 16:41:02.551468,0.0027659877769824325
2023-01-27 16:41:02.556468,-0.004880229942500435
2023-01-27 16:41:02.561468,-0.013938498490327305
