2023-01-27 16:33:10.013999,0.19143483042716963
2023-01-27 16:33:10.018999,0.21881335467428614
2023-01-27 16:33:10.023999,0.20025770366191858
2023-01-27 16:33:10.028999,0.2000638776774492
2023-01-27 16:33:10.033999,0.23160657286643982
2023-01-27 16:33:10.038999,0.25655579192749717
2023-01-27 16:33:10.043999,0.257281869649887
2023-01-27 16:33:10.048999,0.2562961465476424
2023-01-27 16:33:10.053999,0.2673308253288269
2023-01-27 16:33:10.058999,0.27481562988198344
2023-01-27 16:33:10.063999,0.26923000812530506
2023-01-27 16:33:10.068999,0.2648844686245405
2023-01-27 16:33:10.073999,0.27139365673065186
2023-01-27 16:33:10.078999,0.2774029933221082
2023-01-27 16:33:10.083999,0.27420639991760254
2023-01-27 16:33:10.088999,0.27087048198432395
2023-01-27 16:33:10.093999,0.2747833728790283
2023-01-27 16:33:10.098999,0.2783279687035855
2023-01-27 16:33:10.103999,0.27569693326950073
2023-01-27 16:33:10.108999,0.2747036127942892
2023-01-27 16:33:10.113999,0.2815387845039367
2023-01-27 16:33:10.118999,0.2895876570780723
2023-01-27 16:33:10.123999,0.29290995001792897
2023-01-27 16:33:10.128999,0.29668827158249744
2023-01-27 16:33:10.133999,0.3054110407829284
2023-01-27 16:33:10.138999,0.3136061574599117
2023-01-27 16:33:10.143999,0.3169023990631103
2023-01-27 16:33:10.148999,0.3207064021623433
2023-01-27 16:33:10.153999,0.32981216907501226
2023-01-27 16:33:10.158999,0.3398731893541707
2023-01-27 16:33:10.163999,0.346616506576538
2023-01-27 16:33:10.168999,0.35367809028189046
2023-01-27 16:33:10.173999,0.36419016122817993
2023-01-27 16:33:10.178999,0.37380855076155967
2023-01-27 16:33:10.183999,0.3790231645107268
2023-01-27 16:33:10.188999,0.38398049802484313
2023-01-27 16:33:10.193999,0.39253395795822127
2023-01-27 16:33:10.198999,0.40130808502073834
2023-01-27 16:33:10.203999,0.4066697955131529
2023-01-27 16:33:10.208999,0.4110576236652475
2023-01-27 16:33:10.213999,0.4165504574775694
2023-01-27 16:33:10.218999,0.4193502438433572
2023-01-27 16:33:10.223999,0.4165023565292357
2023-01-27 16:33:10.228999,0.4115946358161733
2023-01-27 16:33:10.233999,0.4083766639232634
2023-01-27 16:33:10.238999,0.40486381334248234
2023-01-27 16:33:10.243999,0.39871236681938155
2023-01-27 16:33:10.248999,0.3922181213891271
2023-01-27 16:33:10.253999,0.38688442111015303
2023-01-27 16:33:10.258999,0.3788378136170178
2023-01-27 16:33:10.263999,0.3647190332412718
2023-01-27 16:33:10.268999,0.3470132240948461
2023-01-27 16:33:10.273999,0.3291630744934082
2023-01-27 16:33:10.278999,0.3106913194832152
2023-01-27 16:33:10.283999,0.29151558876037587
2023-01-27 16:33:10.288999,0.2757973525734392
2023-01-27 16:33:10.293999,0.2668019235134123
2023-01-27 16:33:10.298999,0.26241070609419553
2023-01-27 16:33:10.303999,0.2597580552101134
2023-01-27 16:33:10.308999,0.2597529435599889
2023-01-27 16:33:10.313999,0.2631477713584899
2023-01-27 16:33:10.318999,0.2668289967565315
2023-01-27 16:33:10.323999,0.26819628477096547
2023-01-27 16:33:10.328999,0.2691295205160519
2023-01-27 16:33:10.333999,0.2718504369258879
2023-01-27 16:33:10.338999,0.27487469583286783
2023-01-27 16:33:10.343999,0.2765864133834838
2023-01-27 16:33:10.348999,0.27868108203220937
2023-01-27 16:33:10.353999,0.28238019347190857
2023-01-27 16:33:10.358999,0.2850772672525348
2023-01-27 16:33:10.363999,0.28432747721672047
2023-01-27 16:33:10.368999,0.2816259962747709
2023-01-27 16:33:10.373999,0.27901452779769886
2023-01-27 16:33:10.378999,0.27559990606889995
2023-01-27 16:33:10.383999,0.27064841985702504
2023-01-27 16:33:10.388999,0.266483325268518
2023-01-27 16:33:10.393999,0.2649508118629455
2023-01-27 16:33:10.398999,0.26428464860404727
2023-01-27 16:33:10.403999,0.26257079839706415
2023-01-27 16:33:10.408999,0.2611279908185334
2023-01-27 16:33:10.413999,0.261561095714569
2023-01-27 16:33:10.418999,0.2627296728292496
2023-01-27 16:33:10.423999,0.26355645060539235
2023-01-27 16:33:10.428999,0.2656406204548476
2023-01-27 16:33:10.433999,0.2700954675674439
2023-01-27 16:33:10.438999,0.2747088287677011
2023-01-27 16:33:10.443999,0.2770191431045531
2023-01-27 16:33:10.448999,0.27739958718823315
2023-01-27 16:33:10.453999,0.2765864133834837
2023-01-27 16:33:10.458999,0.2731907411813915
2023-01-27 16:33:10.463999,0.2664172649383543
2023-01-27 16:33:10.468999,0.25850917169934
2023-01-27 16:33:10.473999,0.2518486976623537
2023-01-27 16:33:10.478999,0.246118077762532
2023-01-27 16:33:10.483999,0.24057368934154502
2023-01-27 16:33:10.488999,0.23634387165684012
2023-01-27 16:33:10.493999,0.233986586332321
2023-01-27 16:33:10.498999,0.231303887887126
2023-01-27 16:33:10.503999,0.2260291576385498
2023-01-27 16:33:10.508999,0.21856227693249616
2023-01-27 16:33:10.513999,0.21028260886669153
2023-01-27 16:33:10.518999,0.20189921779162012
2023-01-27 16:33:10.523999,0.19569000601768483
2023-01-27 16:33:10.528999,0.19684286763120626
2023-01-27 16:33:10.533999,0.20994603633880607
2023-01-27 16:33:10.538999,0.23529578256622335
2023-01-27 16:33:10.543999,0.26935023069381697
2023-01-27 16:33:10.548999,0.30616843376100383
2023-01-27 16:33:10.553999,0.3373609185218811
2023-01-27 16:33:10.558999,0.35402493256631246
2023-01-27 16:33:10.563999,0.3512803912162779
2023-01-27 16:33:10.568999,0.3296563137967423
2023-01-27 16:33:10.573999,0.2920685410499571
2023-01-27 16:33:10.578999,0.24290401090765185
2023-01-27 16:33:10.583999,0.19071361422538752
2023-01-27 16:33:10.588999,0.14705140022624338
2023-01-27 16:33:10.593999,0.1195055246353149
2023-01-27 16:33:10.598999,0.10800834286712847
2023-01-27 16:33:10.603999,0.10904788970947255
2023-01-27 16:33:10.608999,0.11984420087592347
2023-01-27 16:33:10.613999,0.1366464346647261
2023-01-27 16:33:10.618999,0.15320118889570067
2023-01-27 16:33:10.623999,0.1644853800535202
2023-01-27 16:33:10.628999,0.1698597800523413
2023-01-27 16:33:10.633999,0.170543596148491
2023-01-27 16:33:10.638999,0.1668339823310077
2023-01-27 16:33:10.643999,0.16003787517547602
2023-01-27 16:33:10.648999,0.15405537295784047
2023-01-27 16:33:10.653999,0.15203237533569325
2023-01-27 16:33:10.658999,0.15338468864169003
2023-01-27 16:33:10.663999,0.15616735816001887
2023-01-27 16:33:10.668999,0.15995170629148978
2023-01-27 16:33:10.673999,0.16424497961997975
2023-01-27 16:33:10.678999,0.16674558306079332
2023-01-27 16:33:10.683999,0.16585569083690638
2023-01-27 16:33:10.688999,0.16298767089037455
2023-01-27 16:33:10.693999,0.1602302044630049
2023-01-27 16:33:10.698999,0.1577795218435793
2023-01-27 16:33:10.703999,0.1556384563446043
2023-01-27 16:33:10.708999,0.1554658392736349
2023-01-27 16:33:10.713999,0.1583310067653656
2023-01-27 16:33:10.718999,0.16256853382363012
2023-01-27 16:33:10.723999,0.16604802012443534
2023-01-27 16:33:10.728999,0.16877382671667257
2023-01-27 16:33:10.733999,0.1713850200176238
2023-01-27 16:33:10.738999,0.17322180764295164
2023-01-27 16:33:10.743999,0.1740294694900512
2023-01-27 16:33:10.748999,0.1756383844386242
2023-01-27 16:33:10.753999,0.17977516353130335
2023-01-27 16:33:10.758999,0.1858643849433628
2023-01-27 16:33:10.763999,0.19282917678356165
2023-01-27 16:33:10.768999,0.20117895615838544
2023-01-27 16:33:10.773999,0.21136443316936485
2023-01-27 16:33:10.778999,0.22191777766119988
2023-01-27 16:33:10.783999,0.23127000033855422
2023-01-27 16:33:10.788999,0.23980122737103465
2023-01-27 16:33:10.793999,0.24829070270061485
2023-01-27 16:33:10.798999,0.2560611762463545
2023-01-27 16:33:10.803999,0.26245057582855214
2023-01-27 16:33:10.808999,0.26830630174770304
2023-01-27 16:33:10.813999,0.27403813600540144
2023-01-27 16:33:10.818999,0.27775565165648336
2023-01-27 16:33:10.823999,0.27718743681907637
2023-01-27 16:33:10.828999,0.2720062166641365
2023-01-27 16:33:10.833999,0.26271504163742054
2023-01-27 16:33:10.838999,0.24901601305129845
2023-01-27 16:33:10.843999,0.23110172152519218
2023-01-27 16:33:10.848999,0.21092510015560356
2023-01-27 16:33:10.853999,0.19030492007732383
2023-01-27 16:33:10.858999,0.16915677506417304
2023-01-27 16:33:10.863999,0.1472242772579193
2023-01-27 16:33:10.868999,0.12605781075870198
2023-01-27 16:33:10.873999,0.10762950032949443
2023-01-27 16:33:10.878999,0.09244059926661138
2023-01-27 16:33:10.883999,0.08053581416606903
2023-01-27 16:33:10.888999,0.07278755504469471
2023-01-27 16:33:10.893999,0.06945312023162843
2023-01-27 16:33:10.898999,0.06888884978346607
2023-01-27 16:33:10.903999,0.0693809986114501
2023-01-27 16:33:10.908999,0.07099424288805724
2023-01-27 16:33:10.913999,0.07418911159038538
2023-01-27 16:33:10.918999,0.07806785952874433
2023-01-27 16:33:10.923999,0.08149743080139156
2023-01-27 16:33:10.928999,0.0845285912734048
2023-01-27 16:33:10.933999,0.08717100322246538
2023-01-27 16:33:10.938999,0.08818159282368686
2023-01-27 16:33:10.943999,0.08666615188121791
2023-01-27 16:33:10.948999,0.08364245010895759
2023-01-27 16:33:10.953999,0.08058389276266095
2023-01-27 16:33:10.958999,0.07766331524758126
2023-01-27 16:33:10.963999,0.0747179985046386
2023-01-27 16:33:10.968999,0.0724746723038911
2023-01-27 16:33:10.973999,0.07130424678325648
2023-01-27 16:33:10.978999,0.07007458870692547
2023-01-27 16:33:10.983999,0.06774624437093726
2023-01-27 16:33:10.988999,0.06496147286027192
2023-01-27 16:33:10.993999,0.06274580955505378
2023-01-27 16:33:10.998999,0.060876757356101645
2023-01-27 16:33:11.003999,0.05885124206542964
2023-01-27 16:33:11.008999,0.05722092674219648
2023-01-27 16:33:11.013999,0.05663951486349104
2023-01-27 16:33:11.018999,0.05677664435576019
2023-01-27 16:33:11.023999,0.05743285268545145
2023-01-27 16:33:11.028999,0.059469061194559296
2023-01-27 16:33:11.033999,0.06322662532329554
2023-01-27 16:33:11.038999,0.06704240742190933
2023-01-27 16:33:11.043999,0.06856362521648394
2023-01-27 16:33:11.048999,0.06663348789418838
2023-01-27 16:33:11.053999,0.06103893369436257
2023-01-27 16:33:11.058999,0.051798240829342604
2023-01-27 16:33:11.063999,0.04000345990061752
2023-01-27 16:33:11.068999,0.028273699191946205
2023-01-27 16:33:11.073999,0.019040107727050743
2023-01-27 16:33:11.078999,0.01300812027747069
2023-01-27 16:33:11.083999,0.009952783584594688
2023-01-27 16:33:11.088999,0.00983128041032046
2023-01-27 16:33:11.093999,0.01214047335088255
2023-01-27 16:33:11.098999,0.01521792889167538
2023-01-27 16:33:11.103999,0.01721302792429928
2023-01-27 16:33:11.108999,0.017165822528819718
2023-01-27 16:33:11.113999,0.014857053756713923
2023-01-27 16:33:11.118999,0.010900574429349793
2023-01-27 16:33:11.123999,0.00776509474962944
2023-01-27 16:33:11.128999,0.009734171146497033
2023-01-27 16:33:11.133999,0.020987391471862717
2023-01-27 16:33:11.138999,0.04363021217802711
2023-01-27 16:33:11.143999,0.07649700343608845
2023-01-27 16:33:11.148999,0.11414193166051667
2023-01-27 16:33:11.153999,0.1475367993116377
2023-01-27 16:33:11.158999,0.168174297322251
2023-01-27 16:33:11.163999,0.17215430736541731
2023-01-27 16:33:11.168999,0.15939310308867696
2023-01-27 16:33:11.173999,0.13041993975639332
2023-01-27 16:33:11.178999,0.08730791587449262
2023-01-27 16:33:11.183999,0.03743112087249748
2023-01-27 16:33:11.188999,-0.007897218583357709
2023-01-27 16:33:11.193999,-0.04036406800150872
2023-01-27 16:33:11.198999,-0.05825668570089831
2023-01-27 16:33:11.203999,-0.06315450370311732
2023-01-27 16:33:11.208999,-0.056774769360485366
2023-01-27 16:33:11.213999,-0.042431555688381105
2023-01-27 16:33:11.218999,-0.025838539906845
2023-01-27 16:33:11.223999,-0.011539459228515563
2023-01-27 16:33:11.228999,-0.00026852611513259226
2023-01-27 16:33:11.233999,0.008630554191768036
2023-01-27 16:33:11.238999,0.014497586335623945
2023-01-27 16:33:11.243999,0.016756257042288666
2023-01-27 16:33:11.248999,0.01657081641104988
2023-01-27 16:33:11.253999,0.014977256767451725
2023-01-27 16:33:11.258999,0.011305342682148079
2023-01-27 16:33:11.263999,0.005409121513366605
2023-01-27 16:33:11.268999,-0.00036982147490537424
2023-01-27 16:33:11.273999,-0.003389716148376266
2023-01-27 16:33:11.278999,-0.003271492778134842
2023-01-27 16:33:11.283999,-0.0007692973013034816
2023-01-27 16:33:11.288999,0.003915804346498163
2023-01-27 16:33:11.293999,0.009856621734797993
2023-01-27 16:33:11.298999,0.014360767511106492
2023-01-27 16:33:11.303999,0.01538594625890254
2023-01-27 16:33:11.308999,0.013740574809956418
2023-01-27 16:33:11.313999,0.011371175758540688
2023-01-27 16:33:11.318999,0.00910664915573858
2023-01-27 16:33:11.323999,0.0076689324341714
2023-01-27 16:33:11.328999,0.009017819407722148
2023-01-27 16:33:11.333999,0.014616648666560554
2023-01-27 16:33:11.338999,0.023676393735100644
2023-01-27 16:33:11.343999,0.03473858162760729
2023-01-27 16:33:11.348999,0.04747378675630026
2023-01-27 16:33:11.353999,0.061303377151489154
2023-01-27 16:33:11.358999,0.0739719671316313
2023-01-27 16:33:11.363999,0.08349280059337606
2023-01-27 16:33:11.368999,0.09028982363537041
2023-01-27 16:33:11.373999,0.09587367624044407
2023-01-27 16:33:11.378999,0.10088586258474913
2023-01-27 16:33:11.383999,0.10599474608898163
2023-01-27 16:33:11.388999,0.11295398811346853
2023-01-27 16:33:11.393999,0.12272696197032913
2023-01-27 16:33:11.398999,0.13378835733842764
2023-01-27 16:33:11.403999,0.14395475387573242
2023-01-27 16:33:11.408999,0.15258435335706869
2023-01-27 16:33:11.413999,0.1594609022140503
2023-01-27 16:33:11.418999,0.1631329974819233
2023-01-27 16:33:11.423999,0.1622255742549896
2023-01-27 16:33:11.428999,0.15707640720299543
2023-01-27 16:33:11.433999,0.14842629432678223
2023-01-27 16:33:11.438999,0.13594745534074595
2023-01-27 16:33:11.443999,0.11979401111602783
2023-01-27 16:33:11.448999,0.10213263751686172
2023-01-27 16:33:11.453999,0.08524775505065907
2023-01-27 16:33:11.458999,0.06930374265735656
2023-01-27 16:33:11.463999,0.053514242172241155
2023-01-27 16:33:11.468999,0.038067344562261435
2023-01-27 16:33:11.473999,0.023271244019269943
2023-01-27 16:33:11.478999,0.008412816402816645
2023-01-27 16:33:11.483999,-0.006587108131497985
2023-01-27 16:33:11.488999,-0.019690163224622702
2023-01-27 16:33:11.493999,-0.02870440483093258
2023-01-27 16:33:11.498999,-0.03351776734735241
2023-01-27 16:33:11.503999,-0.034906864166259766
2023-01-27 16:33:11.508999,-0.03278317073530852
2023-01-27 16:33:11.513999,-0.02747833728790281
2023-01-27 16:33:11.518999,-0.02124838722885039
2023-01-27 16:33:11.523999,-0.016491811722517107
2023-01-27 16:33:11.528999,-0.013650487926867072
2023-01-27 16:33:11.533999,-0.012453000061213894
2023-01-27 16:33:11.538999,-0.013620262562816832
2023-01-27 16:33:11.543999,-0.01742939278483385
2023-01-27 16:33:11.548999,-0.022099187524055385
2023-01-27 16:33:11.553999,-0.025627216324210052
2023-01-27 16:33:11.558999,-0.02796486525845379
2023-01-27 16:33:11.563999,-0.029666027054190636
2023-01-27 16:33:11.568999,-0.03000559682551695
2023-01-27 16:33:11.573999,-0.02843995951116079
2023-01-27 16:33:11.578999,-0.026416936940060396
2023-01-27 16:33:11.583999,-0.025675296783447245
2023-01-27 16:33:11.588999,-0.02613633298946083
2023-01-27 16:33:11.593999,-0.027358135208487434
2023-01-27 16:33:11.598999,-0.030418547885738348
2023-01-27 16:33:11.603999,-0.036205053329467655
2023-01-27 16:33:11.608999,-0.04336408238448181
2023-01-27 16:33:11.613999,-0.05007644742727262
2023-01-27 16:33:11.618999,-0.056323174902279484
2023-01-27 16:33:11.623999,-0.06228904053568837
2023-01-27 16:33:11.628999,-0.06624355172466437
2023-01-27 16:33:11.633999,-0.06635189056396472
2023-01-27 16:33:11.638999,-0.0630044279525493
2023-01-27 16:33:11.643999,-0.05712032318115229
2023-01-27 16:33:11.648999,-0.04800780043184107
2023-01-27 16:33:11.653999,-0.03548383712768557
2023-01-27 16:33:11.658999,-0.02236649765116137
2023-01-27 16:33:11.663999,-0.012164513580501088
2023-01-27 16:33:11.668999,-0.005871048919314195
2023-01-27 16:33:11.673999,-0.003437797306105362
2023-01-27 16:33:11.678999,-0.006188686289611458
2023-01-27 16:33:11.683999,-0.014640688896179218
2023-01-27 16:33:11.688999,-0.02592224136337027
2023-01-27 16:33:11.693999,-0.03673394769430149
2023-01-27 16:33:11.698999,-0.04711562098054393
2023-01-27 16:33:11.703999,-0.05805790424346925
2023-01-27 16:33:11.708999,-0.06763735423487502
2023-01-27 16:33:11.713999,-0.07341980934143058
2023-01-27 16:33:11.718999,-0.0765373774875366
2023-01-27 16:33:11.723999,-0.0790693387389183
2023-01-27 16:33:11.728999,-0.07962825785858857
2023-01-27 16:33:11.733999,-0.07652103900909416
2023-01-27 16:33:11.738999,-0.07288237412172341
2023-01-27 16:33:11.743999,-0.0722418278455734
2023-01-27 16:33:11.748999,-0.07043111129700567
2023-01-27 16:33:11.753999,-0.05918781086802465
2023-01-27 16:33:11.758999,-0.03753126260935081
2023-01-27 16:33:11.763999,-0.011803905479609928
2023-01-27 16:33:11.768999,0.016024262695025906
2023-01-27 16:33:11.773999,0.05041301250457769
2023-01-27 16:33:11.778999,0.08859418278175195
2023-01-27 16:33:11.783999,0.11361559480428696
2023-01-27 16:33:11.788999,0.1086259104704326
2023-01-27 16:33:11.793999,0.07385253906250001
2023-01-27 16:33:11.798999,0.023567726544718347
2023-01-27 16:33:11.803999,-0.02935349941253662
2023-01-27 16:33:11.808999,-0.07886342329810117
2023-01-27 16:33:11.813999,-0.11945744603872295
2023-01-27 16:33:11.818999,-0.14431297882913663
2023-01-27 16:33:11.823999,-0.15184006094932542
2023-01-27 16:33:11.828999,-0.14824156233872565
2023-01-27 16:33:11.833999,-0.14087757468223563
2023-01-27 16:33:11.838999,-0.13231249903746958
2023-01-27 16:33:11.843999,-0.1221740245819091
2023-01-27 16:33:11.848999,-0.11124235261780582
2023-01-27 16:33:11.853999,-0.10130684077739704
2023-01-27 16:33:11.858999,-0.09307332485758284
2023-01-27 16:33:11.863999,-0.08632957935333246
2023-01-27 16:33:11.868999,-0.08118435234116948
2023-01-27 16:33:11.873999,-0.07786731421947465
2023-01-27 16:33:11.878999,-0.07608204222168193
2023-01-27 16:33:11.883999,-0.07541517913341518
2023-01-27 16:33:11.888999,-0.07576084889996844
2023-01-27 16:33:11.893999,-0.07683356851339335
2023-01-27 16:33:11.898999,-0.07790608782072199
2023-01-27 16:33:11.903999,-0.07842024415731426
2023-01-27 16:33:11.908999,-0.0783278332461003
2023-01-27 16:33:11.913999,-0.07767498493194575
2023-01-27 16:33:11.918999,-0.07648698320098082
2023-01-27 16:33:11.923999,-0.07522284984588613
2023-01-27 16:33:11.928999,-0.07469504146206539
2023-01-27 16:33:11.933999,-0.0752468928694725
2023-01-27 16:33:11.938999,-0.07635831984493911
2023-01-27 16:33:11.943999,-0.07709801197052006
2023-01-27 16:33:11.948999,-0.07658694436385699
2023-01-27 16:33:11.953999,-0.07414102554321281
2023-01-27 16:33:11.958999,-0.06958172972872896
2023-01-27 16:33:11.963999,-0.0635872334241867
2023-01-27 16:33:11.968999,-0.057376144851647624
2023-01-27 16:33:11.973999,-0.05187948793172831
2023-01-27 16:33:11.978999,-0.047292402734842046
2023-01-27 16:33:11.983999,-0.04320085048675533
2023-01-27 16:33:11.988999,-0.03878571048283798
2023-01-27 16:33:11.993999,-0.0330317020416259
2023-01-27 16:33:11.998999,-0.02519206414928965
2023-01-27 16:33:12.003999,-0.015241703018546104
2023-01-27 16:33:12.008999,-0.0038824920374143706
2023-01-27 16:33:12.013999,0.007717013359069767
2023-01-27 16:33:12.018999,0.01809343028381706
2023-01-27 16:33:12.023999,0.02574741840362545
2023-01-27 16:33:12.028999,0.029671543053910076
2023-01-27 16:33:12.033999,0.029738148674368782
2023-01-27 16:33:12.038999,0.02657807993082459
2023-01-27 16:33:12.043999,0.021203756332397402
2023-01-27 16:33:12.048999,0.01465776061224964
2023-01-27 16:33:12.053999,0.007572770118713303
2023-01-27 16:33:12.058999,-0.0002392551203693832
2023-01-27 16:33:12.063999,-0.009640256874263172
2023-01-27 16:33:12.068999,-0.021430693461423837
2023-01-27 16:33:12.073999,-0.03572424501180641
2023-01-27 16:33:12.078999,-0.05183394806444976
2023-01-27 16:33:12.083999,-0.06839533895254137
2023-01-27 16:33:12.088999,-0.08362244726839978
2023-01-27 16:33:12.093999,-0.09594579786062236
2023-01-27 16:33:12.098999,-0.10476313641660044
2023-01-27 16:33:12.103999,-0.11056244373321525
2023-01-27 16:33:12.108999,-0.11436959154341166
2023-01-27 16:33:12.113999,-0.11724571883678439
2023-01-27 16:33:12.118999,-0.12011799502359993
2023-01-27 16:33:12.123999,-0.12356837838888159
2023-01-27 16:33:12.128999,-0.12758038501815763
2023-01-27 16:33:12.133999,-0.13169407844543451
2023-01-27 16:33:12.138999,-0.1354533335971307
2023-01-27 16:33:12.143999,-0.13854563236236572
2023-01-27 16:33:12.148999,-0.14067156136324702
2023-01-27 16:33:12.153999,-0.14169494807720184
2023-01-27 16:33:12.158999,-0.14195730420305808
2023-01-27 16:33:12.163999,-0.14212767779827107
2023-01-27 16:33:12.168999,-0.14268784584536287
2023-01-27 16:33:12.173999,-0.14373838901519775
2023-01-27 16:33:12.178999,-0.14515176989575543
2023-01-27 16:33:12.183999,-0.14657518267631525
2023-01-27 16:33:12.188999,-0.14741803343515184
2023-01-27 16:33:12.193999,-0.14729639887809753
2023-01-27 16:33:12.198999,-0.14654137848095536
2023-01-27 16:33:12.203999,-0.14597415924072257
2023-01-27 16:33:12.208999,-0.14618281890679444
2023-01-27 16:33:12.213999,-0.14720022678375239
2023-01-27 16:33:12.218999,-0.14863511335002016
2023-01-27 16:33:12.223999,-0.14967641234397877
2023-01-27 16:33:12.228999,-0.14910478728458373
2023-01-27 16:33:12.233999,-0.1458299160003661
2023-01-27 16:33:12.238999,-0.13955052096030635
2023-01-27 16:33:12.243999,-0.13073246181011192
2023-01-27 16:33:12.248999,-0.12017309866265741
2023-01-27 16:33:12.253999,-0.10897576808929443
2023-01-27 16:33:12.258999,-0.09874013119159157
2023-01-27 16:33:12.263999,-0.09120981395244589
2023-01-27 16:33:12.268999,-0.0876178383813207
2023-01-27 16:33:12.273999,-0.08851727098226539
2023-01-27 16:33:12.278999,-0.09390500544234369
2023-01-27 16:33:12.283999,-0.10298967361450187
2023-01-27 16:33:12.288999,-0.11400845608765818
2023-01-27 16:33:12.293999,-0.12486656755208969
2023-01-27 16:33:12.298999,-0.13408775579363644
2023-01-27 16:33:12.303999,-0.1410218179225921
2023-01-27 16:33:12.308999,-0.14554665077441606
2023-01-27 16:33:12.313999,-0.14813780784606928
2023-01-27 16:33:12.318999,-0.14996099915542474
2023-01-27 16:33:12.323999,-0.15210449695587153
2023-01-27 16:33:12.328999,-0.15445712140300807
2023-01-27 16:33:12.333999,-0.15544614195823658
2023-01-27 16:33:12.338999,-0.15255195110809938
2023-01-27 16:33:12.343999,-0.14282485842704767
2023-01-27 16:33:12.348999,-0.12379017937137869
2023-01-27 16:33:12.353999,-0.09534478187561027
2023-01-27 16:33:12.358999,-0.06136573236820184
2023-01-27 16:33:12.363999,-0.02911309525370589
2023-01-27 16:33:12.368999,-0.006746488036903183
2023-01-27 16:33:12.373999,-0.0008654594421385865
2023-01-27 16:33:12.378999,-0.014701016467780381
2023-01-27 16:33:12.383999,-0.04659056663513174
2023-01-27 16:33:12.388999,-0.08976703155300579
2023-01-27 16:33:12.393999,-0.1348674297332763
2023-01-27 16:33:12.398999,-0.17374411115997151
2023-01-27 16:33:12.403999,-0.20138761401176442
2023-01-27 16:33:12.408999,-0.21545486929074342
2023-01-27 16:33:12.413999,-0.21588405966758722
2023-01-27 16:33:12.418999,-0.20555108315357484
2023-01-27 16:33:12.423999,-0.18992027640342712
2023-01-27 16:33:12.428999,-0.17462006960221277
2023-01-27 16:33:12.433999,-0.1630910336971282
2023-01-27 16:33:12.438999,-0.1563642579028685
2023-01-27 16:33:12.443999,-0.1540517807006835
2023-01-27 16:33:12.448999,-0.15481212875004433
2023-01-27 16:33:12.453999,-0.15652796626091
2023-01-27 16:33:12.458999,-0.15716507318988143
2023-01-27 16:33:12.463999,-0.15578269958496085
2023-01-27 16:33:12.468999,-0.15259859153230618
2023-01-27 16:33:12.473999,-0.14835417270660395
2023-01-27 16:33:12.478999,-0.14390507940676478
2023-01-27 16:33:12.483999,-0.14006018638610826
2023-01-27 16:33:12.488999,-0.13724324572981544
2023-01-27 16:33:12.493999,-0.13525208830833432
2023-01-27 16:33:12.498999,-0.13355247281535815
2023-01-27 16:33:12.503999,-0.13174216449260706
2023-01-27 16:33:12.508999,-0.12962867144924783
2023-01-27 16:33:12.513999,-0.12710234522819508
2023-01-27 16:33:12.518999,-0.12420768086884038
2023-01-27 16:33:12.523999,-0.12123644351959219
2023-01-27 16:33:12.528999,-0.1185411530857688
2023-01-27 16:33:12.533999,-0.11628409475088101
2023-01-27 16:33:12.538999,-0.11440832509491232
2023-01-27 16:33:12.543999,-0.11267801374196991
2023-01-27 16:33:12.548999,-0.11063984023238617
2023-01-27 16:33:12.553999,-0.10772566497325888
2023-01-27 16:33:12.558999,-0.1035749144034753
2023-01-27 16:33:12.563999,-0.09822964668273916
2023-01-27 16:33:12.568999,-0.0920201715651132
2023-01-27 16:33:12.573999,-0.08541604131460175
2023-01-27 16:33:12.578999,-0.07899283427101238
2023-01-27 16:33:12.583999,-0.07327556610107419
2023-01-27 16:33:12.588999,-0.06839539299157367
2023-01-27 16:33:12.593999,-0.06389975547790529
2023-01-27 16:33:12.598999,-0.05890488880285382
2023-01-27 16:33:12.603999,-0.05240837857127185
2023-01-27 16:33:12.608999,-0.043662875181293526
2023-01-27 16:33:12.613999,-0.03267109394073486
2023-01-27 16:33:12.618999,-0.020563467320396465
2023-01-27 16:33:12.623999,-0.009423892013728567
2023-01-27 16:33:12.628999,-0.0015959835766736746
2023-01-27 16:33:12.633999,0.0010337432613595136
2023-01-27 16:33:12.638999,-0.002510248063131286
2023-01-27 16:33:12.643999,-0.012068351730704346
2023-01-27 16:33:12.648999,-0.026459172636249802
2023-01-27 16:33:12.653999,-0.04406630992889404
2023-01-27 16:33:12.658999,-0.06354404365514764
2023-01-27 16:33:12.663999,-0.08406977355480184
2023-01-27 16:33:12.668999,-0.10511903657540562
2023-01-27 16:33:12.673999,-0.12618879973888394
2023-01-27 16:33:12.678999,-0.1466237576457951
2023-01-27 16:33:12.683999,-0.1654469966888427
2023-01-27 16:33:12.688999,-0.1813788334488734
2023-01-27 16:33:12.693999,-0.19328594207763664
2023-01-27 16:33:12.698999,-0.2007374045502604
2023-01-27 16:33:12.703999,-0.20410418510437003
2023-01-27 16:33:12.708999,-0.20423230193005115
2023-01-27 16:33:12.713999,-0.20215690135955805
2023-01-27 16:33:12.718999,-0.19896049201898428
2023-01-27 16:33:12.723999,-0.1955697983503341
2023-01-27 16:33:12.728999,-0.19260965225368484
2023-01-27 16:33:12.733999,-0.19056937098503104
2023-01-27 16:33:12.738999,-0.19003120092698167
2023-01-27 16:33:12.743999,-0.19150695204734797
2023-01-27 16:33:12.748999,-0.1950249209753892
2023-01-27 16:33:12.753999,-0.19999325275421126
2023-01-27 16:33:12.758999,-0.2054163657559107
2023-01-27 16:33:12.763999,-0.2101624011993407
2023-01-27 16:33:12.768999,-0.21327185803872759
2023-01-27 16:33:12.773999,-0.21444162726402277
2023-01-27 16:33:12.778999,-0.21435414832458743
2023-01-27 16:33:12.783999,-0.21436950564384444
2023-01-27 16:33:12.788999,-0.21573508272010797
2023-01-27 16:33:12.793999,-0.21891316771507252
2023-01-27 16:33:12.798999,-0.22329010395425286
2023-01-27 16:33:12.803999,-0.22723118960857386
2023-01-27 16:33:12.808999,-0.22863948409902698
2023-01-27 16:33:12.813999,-0.2260532081127165
2023-01-27 16:33:12.818999,-0.21962494770876828
2023-01-27 16:33:12.823999,-0.21117210388183577
2023-01-27 16:33:12.828999,-0.20331510981024173
2023-01-27 16:33:12.833999,-0.1983825415372848
2023-01-27 16:33:12.838999,-0.19755403910452302
2023-01-27 16:33:12.843999,-0.20042598247528065
2023-01-27 16:33:12.848999,-0.20529001962754406
2023-01-27 16:33:12.853999,-0.21016240119934074
2023-01-27 16:33:12.858999,-0.2138486286621182
2023-01-27 16:33:12.863999,-0.21622061729431136
2023-01-27 16:33:12.868999,-0.21776936775110406
2023-01-27 16:33:12.873999,-0.21910548210144043
2023-01-27 16:33:12.878999,-0.22071610325254512
2023-01-27 16:33:12.883999,-0.22287985682487477
2023-01-27 16:33:12.888999,-0.22577578731619571
2023-01-27 16:33:12.893999,-0.2297554463148117
2023-01-27 16:33:12.898999,-0.23526197715007977
2023-01-27 16:33:12.903999,-0.24201612174510945
2023-01-27 16:33:12.908999,-0.2480645617182143
2023-01-27 16:33:12.913999,-0.24973313510417922
2023-01-27 16:33:12.918999,-0.24278105053849616
2023-01-27 16:33:12.923999,-0.22422611713409424
2023-01-27 16:33:12.928999,-0.19420122413552893
2023-01-27 16:33:12.933999,-0.15715301036834714
2023-01-27 16:33:12.938999,-0.12143935496908553
2023-01-27 16:33:12.943999,-0.09688337892293933
2023-01-27 16:33:12.948999,-0.09124554997500321
2023-01-27 16:33:12.953999,-0.10738909244537342
2023-01-27 16:33:12.958999,-0.142293370317555
2023-01-27 16:33:12.963999,-0.18804511427879333
2023-01-27 16:33:12.968999,-0.23442056466004452
2023-01-27 16:33:12.973999,-0.272211045026779
2023-01-27 16:33:12.978999,-0.29587618375452607
2023-01-27 16:33:12.983999,-0.30437728762626626
2023-01-27 16:33:12.988999,-0.30030414103642483
2023-01-27 16:33:12.993999,-0.28827011585235585
2023-01-27 16:33:12.998999,-0.27327075179831267
2023-01-27 16:33:13.003999,-0.2592772245407103
2023-01-27 16:33:13.008999,-0.24846090816486543
2023-01-27 16:33:13.013999,-0.2413429915904997
2023-01-27 16:33:13.018999,-0.237457416507535
2023-01-27 16:33:13.023999,-0.23583769798278792
2023-01-27 16:33:13.028999,-0.23526069729774327
2023-01-27 16:33:13.033999,-0.23458759486675254
2023-01-27 16:33:13.038999,-0.23310119606513208
2023-01-27 16:33:13.043999,-0.23047666251659388
2023-01-27 16:33:13.048999,-0.22657243358476678
2023-01-27 16:33:13.053999,-0.22153358161449432
2023-01-27 16:33:13.058999,-0.216062368401526
2023-01-27 16:33:13.063999,-0.21124422550201408
2023-01-27 16:33:13.068999,-0.20793178165457443
2023-01-27 16:33:13.073999,-0.2063640058040618
2023-01-27 16:33:13.078999,-0.2063005644845291
2023-01-27 16:33:13.083999,-0.2072294652462005
2023-01-27 16:33:13.088999,-0.2083561109208608
2023-01-27 16:33:13.093999,-0.20867189764976496
2023-01-27 16:33:13.098999,-0.2073285739296522
2023-01-27 16:33:13.103999,-0.20400802791118613
2023-01-27 16:33:13.108999,-0.19893281248312347
2023-01-27 16:33:13.113999,-0.19261281192302698
2023-01-27 16:33:13.118999,-0.18562025250206488
2023-01-27 16:33:13.123999,-0.17847697436809531
2023-01-27 16:33:13.128999,-0.1715748650727362
2023-01-27 16:33:13.133999,-0.16508638858795166
2023-01-27 16:33:13.138999,-0.15888107407606475
2023-01-27 16:33:13.143999,-0.15251319110393513
2023-01-27 16:33:13.148999,-0.14538514718729686
2023-01-27 16:33:13.153999,-0.13707916438579554
2023-01-27 16:33:13.158999,-0.12764706268550832
2023-01-27 16:33:13.163999,-0.11765440553426744
2023-01-27 16:33:13.168999,-0.10798987233858592
2023-01-27 16:33:13.173999,-0.09955187886953346
2023-01-27 16:33:13.178999,-0.09288786872573958
2023-01-27 16:33:13.183999,-0.08794029802083966
2023-01-27 16:33:13.188999,-0.08413885509373033
2023-01-27 16:33:13.193999,-0.08084833621978743
2023-01-27 16:33:13.198999,-0.0778416243847245
2023-01-27 16:33:13.203999,-0.0755113363265991
2023-01-27 16:33:13.208999,-0.0748396581097851
2023-01-27 16:33:13.213999,-0.07719417661428447
2023-01-27 16:33:13.218999,-0.08388066355607171
2023-01-27 16:33:13.223999,-0.09553711116313926
2023-01-27 16:33:13.228999,-0.11175169343369525
2023-01-27 16:33:13.233999,-0.13116519153118122
2023-01-27 16:33:13.238999,-0.15188433583892605
2023-01-27 16:33:13.243999,-0.17191390693187705
2023-01-27 16:33:13.248999,-0.18953418933969873
2023-01-27 16:33:13.253999,-0.20359933376312245
2023-01-27 16:33:13.258999,-0.21361954990328066
2023-01-27 16:33:13.263999,-0.2196343839168547
2023-01-27 16:33:13.268999,-0.22213163351984302
2023-01-27 16:33:13.273999,-0.22211055457592013
2023-01-27 16:33:13.278999,-0.22102223508228377
2023-01-27 16:33:13.283999,-0.2203796356916426
2023-01-27 16:33:13.288999,-0.22123500976673724
2023-01-27 16:33:13.293999,-0.22384147346019728
2023-01-27 16:33:13.298999,-0.22760170335175728
2023-01-27 16:33:13.303999,-0.23131808638572685
2023-01-27 16:33:13.308999,-0.233764515235118
2023-01-27 16:33:13.313999,-0.23434719443321217
2023-01-27 16:33:13.318999,-0.23336516738820076
2023-01-27 16:33:13.323999,-0.23165464401245098
2023-01-27 16:33:13.328999,-0.2299573037553161
2023-01-27 16:33:13.333999,-0.22848129272460918
2023-01-27 16:33:13.338999,-0.2268173710628984
2023-01-27 16:33:13.343999,-0.2241780459880827
2023-01-27 16:33:13.348999,-0.2199036175252786
2023-01-27 16:33:13.353999,-0.21400889754295332
2023-01-27 16:33:13.358999,-0.2073886031219534
2023-01-27 16:33:13.363999,-0.20153185725212086
2023-01-27 16:33:13.368999,-0.1979720692202206
2023-01-27 16:33:13.373999,-0.19773344695568076
2023-01-27 16:33:13.378999,-0.2008841240092433
2023-01-27 16:33:13.383999,-0.2063640058040618
2023-01-27 16:33:13.388999,-0.21230813282666094
2023-01-27 16:33:13.393999,-0.21677355468273163
2023-01-27 16:33:13.398999,-0.21844102843907615
2023-01-27 16:33:13.403999,-0.21698991954326619
2023-01-27 16:33:13.408999,-0.21315490415126268
2023-01-27 16:33:13.413999,-0.20847956836223597
2023-01-27 16:33:13.418999,-0.20472280570848014
2023-01-27 16:33:13.423999,-0.20314256846904738
2023-01-27 16:33:13.428999,-0.20411411573407917
2023-01-27 16:33:13.433999,-0.20725350081920624
2023-01-27 16:33:13.438999,-0.21178434308336658
2023-01-27 16:33:13.443999,-0.2168937623500822
2023-01-27 16:33:13.448999,-0.2220393756602798
2023-01-27 16:33:13.453999,-0.22711098194122303
2023-01-27 16:33:13.458999,-0.23226764221905924
2023-01-27 16:33:13.463999,-0.23756861686706535
2023-01-27 16:33:13.468999,-0.24280873590006732
2023-01-27 16:33:13.473999,-0.24771372973918915
2023-01-27 16:33:13.478999,-0.25217971882159596
2023-01-27 16:33:13.483999,-0.2562000453472136
2023-01-27 16:33:13.488999,-0.2594332719788329
2023-01-27 16:33:13.493999,-0.2605994641780853
2023-01-27 16:33:13.498999,-0.2570749783070038
2023-01-27 16:33:13.503999,-0.24526159465312947
2023-01-27 16:33:13.508999,-0.22209382113720902
2023-01-27 16:33:13.513999,-0.18720369040966026
2023-01-27 16:33:13.518999,-0.144503732856968
2023-01-27 16:33:13.523999,-0.10207613557577129
2023-01-27 16:33:13.528999,-0.07011565061706167
2023-01-27 16:33:13.533999,-0.05760113522410391
2023-01-27 16:33:13.538999,-0.0690177371777968
2023-01-27 16:33:13.543999,-0.10260502994060505
2023-01-27 16:33:13.548999,-0.15096433663418876
2023-01-27 16:33:13.553999,-0.20364741981029502
2023-01-27 16:33:13.558999,-0.2504647203360855
2023-01-27 16:33:13.563999,-0.2842313051223754
2023-01-27 16:33:13.568999,-0.3021604581327557
2023-01-27 16:33:13.573999,-0.30567547678947427
2023-01-27 16:33:13.578999,-0.2989983788947198
2023-01-27 16:33:13.583999,-0.2873085141181944
2023-01-27 16:33:13.588999,-0.27517342291075664
2023-01-27 16:33:13.593999,-0.2655277848243712
2023-01-27 16:33:13.598999,-0.25929369564228094
2023-01-27 16:33:13.603999,-0.25574326515197743
2023-01-27 16:33:13.608999,-0.2534153322632455
2023-01-27 16:33:13.613999,-0.2510313391685484
2023-01-27 16:33:13.618999,-0.24802051510375486
2023-01-27 16:33:13.623999,-0.2446846216917037
2023-01-27 16:33:13.628999,-0.24201744010695247
2023-01-27 16:33:13.633999,-0.2410785406827926
2023-01-27 16:33:13.638999,-0.24227211009275454
2023-01-27 16:33:13.643999,-0.2452375590801239
2023-01-27 16:33:13.648999,-0.24936397516079645
2023-01-27 16:33:13.653999,-0.2541085183620452
2023-01-27 16:33:13.658999,-0.258822425985804
2023-01-27 16:33:13.663999,-0.26281118392944314
2023-01-27 16:33:13.668999,-0.26590649873280736
2023-01-27 16:33:13.673999,-0.26858091354370106
2023-01-27 16:33:13.678999,-0.27103838246223433
2023-01-27 16:33:13.683999,-0.27242740988731373
2023-01-27 16:33:13.688999,-0.2713970193469796
2023-01-27 16:33:13.693999,-0.267282724380493
2023-01-27 16:33:13.698999,-0.2603887062092281
2023-01-27 16:33:13.703999,-0.2513678967952727
2023-01-27 16:33:13.708999,-0.24087265880514616
2023-01-27 16:33:13.713999,-0.22968332469463337
2023-01-27 16:33:13.718999,-0.218526410703505
2023-01-27 16:33:13.723999,-0.20759007334709162
2023-01-27 16:33:13.728999,-0.19660239075124533
2023-01-27 16:33:13.733999,-0.18549680709838862
2023-01-27 16:33:13.738999,-0.1746974520609453
2023-01-27 16:33:13.743999,-0.16472578048706044
2023-01-27 16:33:13.748999,-0.15586245862856427
2023-01-27 16:33:13.753999,-0.14820992946624756
2023-01-27 16:33:13.758999,-0.14170999267560902
2023-01-27 16:33:13.763999,-0.1360454261302947
2023-01-27 16:33:13.768999,-0.13093711152579104
2023-01-27 16:33:13.773999,-0.12674173712730397
2023-01-27 16:33:13.778999,-0.12452686637219998
2023-01-27 16:33:13.783999,-0.12541949748992906
2023-01-27 16:33:13.788999,-0.12997084854695137
2023-01-27 16:33:13.793999,-0.1379927098751069
2023-01-27 16:33:13.798999,-0.1485850707274377
2023-01-27 16:33:13.803999,-0.16027829051017767
2023-01-27 16:33:13.808999,-0.17162168337127406
2023-01-27 16:33:13.813999,-0.18198689818382252
2023-01-27 16:33:13.818999,-0.1917548463956939
2023-01-27 16:33:13.823999,-0.201700136065483
2023-01-27 16:33:13.828999,-0.21231576175297287
2023-01-27 16:33:13.833999,-0.22357702255249023
2023-01-27 16:33:13.838999,-0.23493215299249962
2023-01-27 16:33:13.843999,-0.24542987346649153
2023-01-27 16:33:13.848999,-0.2542280221707285
2023-01-27 16:33:13.853999,-0.26122450828552235
2023-01-27 16:33:13.858999,-0.2670712646290326
2023-01-27 16:33:13.863999,-0.27249953150749195
2023-01-27 16:33:13.868999,-0.2777344355214543
2023-01-27 16:33:13.873999,-0.2824523150920867
2023-01-27 16:33:13.878999,-0.28597817811476883
2023-01-27 16:33:13.883999,-0.28752487897872914
2023-01-27 16:33:13.888999,-0.28665073002486413
2023-01-27 16:33:13.893999,-0.2837264537811279
2023-01-27 16:33:13.898999,-0.27981934716324014
2023-01-27 16:33:13.903999,-0.2760334908962249
2023-01-27 16:33:13.908999,-0.2730501689677108
2023-01-27 16:33:13.913999,-0.271177291870117
2023-01-27 16:33:13.918999,-0.27047286846716995
2023-01-27 16:33:13.923999,-0.27072054147720315
2023-01-27 16:33:13.928999,-0.2715428972487504
2023-01-27 16:33:13.933999,-0.27264377474784846
2023-01-27 16:33:13.938999,-0.2737762813514222
2023-01-27 16:33:13.943999,-0.27451893687248213
2023-01-27 16:33:13.948999,-0.2744288454375305
2023-01-27 16:33:13.953999,-0.27355730533599837
2023-01-27 16:33:13.958999,-0.27261753137509387
2023-01-27 16:33:13.963999,-0.27254760265350336
2023-01-27 16:33:13.968999,-0.27400007619750505
2023-01-27 16:33:13.973999,-0.2771153151988983
2023-01-27 16:33:13.978999,-0.2814120009746415
2023-01-27 16:33:13.983999,-0.2858420312404631
2023-01-27 16:33:13.988999,-0.28933591044312695
2023-01-27 16:33:13.993999,-0.2915636897087097
2023-01-27 16:33:13.998999,-0.29308066927205106
2023-01-27 16:33:14.003999,-0.2946649193763732
2023-01-27 16:33:14.008999,-0.2965700455534787
2023-01-27 16:33:14.013999,-0.2982469499111174
2023-01-27 16:33:14.018999,-0.29843434378093797
2023-01-27 16:33:14.023999,-0.29555439949035633
2023-01-27 16:33:14.028999,-0.28855149980822686
2023-01-27 16:33:14.033999,-0.277788460254669
2023-01-27 16:33:14.038999,-0.2651850641242563
2023-01-27 16:33:14.043999,-0.2534594237804411
2023-01-27 16:33:14.048999,-0.2451913454734958
2023-01-27 16:33:14.053999,-0.24220845103263847
2023-01-27 16:33:14.058999,-0.24517642762068767
2023-01-27 16:33:14.063999,-0.2534113526344298
2023-01-27 16:33:14.068999,-0.2652366410525326
2023-01-27 16:33:14.073999,-0.2787260413169859
2023-01-27 16:33:14.078999,-0.29217479272605423
2023-01-27 16:33:14.083999,-0.3041368722915648
2023-01-27 16:33:14.088999,-0.31352164694286266
2023-01-27 16:33:14.093999,-0.3199074864387511
2023-01-27 16:33:14.098999,-0.32362115776404377
2023-01-27 16:33:14.103999,-0.32538872957229603
2023-01-27 16:33:14.108999,-0.32588118270244654
2023-01-27 16:33:14.113999,-0.32526850700378407
2023-01-27 16:33:14.118999,-0.3226165892790433
2023-01-27 16:33:14.123999,-0.3154840171337126
2023-01-27 16:33:14.128999,-0.30052082725419826
2023-01-27 16:33:14.133999,-0.2751680314540863
2023-01-27 16:33:14.138999,-0.23954744223310265
2023-01-27 16:33:14.143999,-0.19758920371532432
2023-01-27 16:33:14.148999,-0.15693572382849985
2023-01-27 16:33:14.153999,-0.1273187100887298
2023-01-27 16:33:14.158999,-0.11747462613390032
2023-01-27 16:33:14.163999,-0.13176620006561265
2023-01-27 16:33:14.168999,-0.16832130707037068
2023-01-27 16:33:14.173999,-0.21958629786968234
2023-01-27 16:33:14.178999,-0.27475245225637795
2023-01-27 16:33:14.183999,-0.3230087161064147
2023-01-27 16:33:14.188999,-0.3566539862996817
2023-01-27 16:33:14.193999,-0.3729649484157561
2023-01-27 16:33:14.198999,-0.37398352327728895
2023-01-27 16:33:14.203999,-0.3646228909492491
2023-01-27 16:33:14.208999,-0.35047061688391357
2023-01-27 16:33:14.213999,-0.33623099327087397
2023-01-27 16:33:14.218999,-0.32484362382201665
2023-01-27 16:33:14.223999,-0.3172389864921568
2023-01-27 16:33:14.228999,-0.3128771087456043
2023-01-27 16:33:14.233999,-0.31072399020195
2023-01-27 16:33:14.238999,-0.3098905985689676
2023-01-27 16:33:14.243999,-0.30971428751945485
2023-01-27 16:33:14.248999,-0.30974523694579065
2023-01-27 16:33:14.253999,-0.3098344802856445
2023-01-27 16:33:14.258999,-0.31002490510672465
2023-01-27 16:33:14.263999,-0.3102431893348692
2023-01-27 16:33:14.268999,-0.3102181492365083
2023-01-27 16:33:14.273999,-0.3096902370452879
2023-01-27 16:33:14.278999,-0.3085191581297613
2023-01-27 16:33:14.283999,-0.30661305785179127
2023-01-27 16:33:14.288999,-0.3039853586153672
2023-01-27 16:33:14.293999,-0.3008913993835448
2023-01-27 16:33:14.298999,-0.29767534292184594
2023-01-27 16:33:14.303999,-0.2944245040416716
2023-01-27 16:33:14.308999,-0.2909125678204414
2023-01-27 16:33:14.313999,-0.28682768344879156
2023-01-27 16:33:14.318999,-0.28185074104178326
2023-01-27 16:33:14.323999,-0.2756007611751555
2023-01-27 16:33:14.328999,-0.2678530344940192
2023-01-27 16:33:14.333999,-0.2589166164398192
2023-01-27 16:33:14.338999,-0.24961635338584565
2023-01-27 16:33:14.343999,-0.24086217582225788
2023-01-27 16:33:14.348999,-0.23332730303722496
2023-01-27 16:33:14.353999,-0.2273513972759246
2023-01-27 16:33:14.358999,-0.22275106455737578
2023-01-27 16:33:14.363999,-0.21864871680736533
2023-01-27 16:33:14.368999,-0.21377589168387173
2023-01-27 16:33:14.373999,-0.20710925757884963
2023-01-27 16:33:14.378999,-0.19819490540420193
2023-01-27 16:33:14.383999,-0.18705944716930378
2023-01-27 16:33:14.388999,-0.17417593190822783
2023-01-27 16:33:14.393999,-0.16054272651672363
2023-01-27 16:33:14.398999,-0.1474858471380427
2023-01-27 16:33:14.403999,-0.1362617909908294
2023-01-27 16:33:14.408999,-0.12796100452765866
2023-01-27 16:33:14.413999,-0.12366454303264608
2023-01-27 16:33:14.418999,-0.1243060736548047
2023-01-27 16:33:14.423999,-0.13022761046886444
2023-01-27 16:33:14.428999,-0.14098751518442348
2023-01-27 16:33:14.433999,-0.15554229915142054
2023-01-27 16:33:14.438999,-0.17240031265762074
2023-01-27 16:33:14.443999,-0.18972794711589805
2023-01-27 16:33:14.448999,-0.20577836665759408
2023-01-27 16:33:14.453999,-0.21949014067649836
2023-01-27 16:33:14.458999,-0.23064285955722516
2023-01-27 16:33:14.463999,-0.23951590061187736
2023-01-27 16:33:14.468999,-0.2465904051923908
2023-01-27 16:33:14.473999,-0.2524497210979461
2023-01-27 16:33:14.478999,-0.2575654404320081
2023-01-27 16:33:14.483999,-0.26204189658164967
2023-01-27 16:33:14.488999,-0.2657363862799709
2023-01-27 16:33:14.493999,-0.2686290144920349
2023-01-27 16:33:14.498999,-0.27088818532123715
2023-01-27 16:33:14.503999,-0.2726437747478484
2023-01-27 16:33:14.508999,-0.2739800224950167
2023-01-27 16:33:14.513999,-0.2751439809799193
2023-01-27 16:33:14.518999,-0.2764728590783837
2023-01-27 16:33:14.523999,-0.2780528962612152
2023-01-27 16:33:14.528999,-0.2796243704943475
2023-01-27 16:33:14.533999,-0.28076946735382086
2023-01-27 16:33:14.538999,-0.2809529386129766
2023-01-27 16:33:14.543999,-0.2794712781906126
2023-01-27 16:33:14.548999,-0.27578335338227866
2023-01-27 16:33:14.553999,-0.2700954675674437
2023-01-27 16:33:14.558999,-0.26351863921569757
2023-01-27 16:33:14.563999,-0.2576424777507781
2023-01-27 16:33:14.568999,-0.25400480379755774
2023-01-27 16:33:14.573999,-0.25365173816680897
2023-01-27 16:33:14.578999,-0.25664021382128627
2023-01-27 16:33:14.583999,-0.26177746057510365
2023-01-27 16:33:14.588999,-0.26713053054417535
2023-01-27 16:33:14.593999,-0.27105709910392756
2023-01-27 16:33:14.598999,-0.2728742235523595
2023-01-27 16:33:14.603999,-0.27283608913421636
2023-01-27 16:33:14.608999,-0.27180711597152163
2023-01-27 16:33:14.613999,-0.27081668376922596
2023-01-27 16:33:14.618999,-0.2703948341506401
2023-01-27 16:33:14.623999,-0.2700473964214324
2023-01-27 16:33:14.628999,-0.2684731353636076
2023-01-27 16:33:14.633999,-0.26437383890151966
2023-01-27 16:33:14.638999,-0.25709976739944795
2023-01-27 16:33:14.643999,-0.24687230587005607
2023-01-27 16:33:14.648999,-0.23489174743139088
2023-01-27 16:33:14.653999,-0.22328853607177723
2023-01-27 16:33:14.658999,-0.21454975277277694
2023-01-27 16:33:14.663999,-0.21061918139457692
2023-01-27 16:33:14.668999,-0.2123337129697329
2023-01-27 16:33:14.673999,-0.2193458974361419
2023-01-27 16:33:14.678999,-0.23018320177956
2023-01-27 16:33:14.683999,-0.2424728870391845
2023-01-27 16:33:14.688999,-0.2536521284014723
2023-01-27 16:33:14.693999,-0.2618976533412932
2023-01-27 16:33:14.698999,-0.266589410999581
2023-01-27 16:33:14.703999,-0.26819628477096547
2023-01-27 16:33:14.708999,-0.26800414567909103
2023-01-27 16:33:14.713999,-0.2677395045757293
2023-01-27 16:33:14.718999,-0.2688258679055282
2023-01-27 16:33:14.723999,-0.2715138792991637
2023-01-27 16:33:14.728999,-0.27449395006971405
2023-01-27 16:33:14.733999,-0.27511996030807484
2023-01-27 16:33:14.738999,-0.26999578998947005
2023-01-27 16:33:14.743999,-0.25600773096084584
2023-01-27 16:33:14.748999,-0.23190481999395657
2023-01-27 16:33:14.753999,-0.19972881674766543
2023-01-27 16:33:14.758999,-0.16502263329513148
2023-01-27 16:33:14.763999,-0.13554057478904719
2023-01-27 16:33:14.768999,-0.11903940699537999
2023-01-27 16:33:14.773999,-0.12082775682210914
2023-01-27 16:33:14.778999,-0.14179850661776455
2023-01-27 16:33:14.783999,-0.17792403697967518
2023-01-27 16:33:14.788999,-0.22167309078686329
2023-01-27 16:33:14.793999,-0.2645180821418761
2023-01-27 16:33:14.798999,-0.29920524419306405
2023-01-27 16:33:14.803999,-0.32120567560195906
2023-01-27 16:33:14.808999,-0.3293463362931866
2023-01-27 16:33:14.813999,-0.3254848718643187
2023-01-27 16:33:14.818999,-0.31330993101110566
2023-01-27 16:33:14.823999,-0.29702088236808766
2023-01-27 16:33:14.828999,-0.2804900983146407
2023-01-27 16:33:14.833999,-0.26665768027305586
2023-01-27 16:33:14.838999,-0.2569331392828916
2023-01-27 16:33:14.843999,-0.2511274814605711
2023-01-27 16:33:14.848999,-0.24815388206708935
2023-01-27 16:33:14.853999,-0.24670402705669392
2023-01-27 16:33:14.858999,-0.24538533873036736
2023-01-27 16:33:14.863999,-0.24300178885459878
2023-01-27 16:33:14.868999,-0.2393221818230838
2023-01-27 16:33:14.873999,-0.23523668944835652
2023-01-27 16:33:14.878999,-0.23166362829580164
2023-01-27 16:33:14.883999,-0.22862553596496574
2023-01-27 16:33:14.888999,-0.22582715056568176
2023-01-27 16:33:14.893999,-0.22357702255249015
2023-01-27 16:33:14.898999,-0.22230271616333064
2023-01-27 16:33:14.903999,-0.22143742442131037
2023-01-27 16:33:14.908999,-0.2197088842648296
2023-01-27 16:33:14.913999,-0.21658122539520255
2023-01-27 16:33:14.918999,-0.21274881230071732
2023-01-27 16:33:14.923999,-0.20922482013702387
2023-01-27 16:33:14.928999,-0.20659482175847824
2023-01-27 16:33:14.933999,-0.20508985221385947
2023-01-27 16:33:14.938999,-0.2045265563819121
2023-01-27 16:33:14.943999,-0.20391187071800224
2023-01-27 16:33:14.948999,-0.20176538306355754
2023-01-27 16:33:14.953999,-0.19722859561443323
2023-01-27 16:33:14.958999,-0.19059053588070113
2023-01-27 16:33:14.963999,-0.18270811438560478
2023-01-27 16:33:14.968999,-0.1743692286466489
2023-01-27 16:33:14.973999,-0.16621629893779746
2023-01-27 16:33:14.978999,-0.15864044169889435
2023-01-27 16:33:14.983999,-0.15147945284843434
2023-01-27 16:33:14.988999,-0.14425190369559718
2023-01-27 16:33:14.993999,-0.13691088557243336
2023-01-27 16:33:14.998999,-0.13004343637983587
2023-01-27 16:33:15.003999,-0.12424151599407197
2023-01-27 16:33:15.008999,-0.11966020837502822
2023-01-27 16:33:15.013999,-0.11626005172729488
2023-01-27 16:33:15.018999,-0.11405151563344941
2023-01-27 16:33:15.023999,-0.1130145788192749
2023-01-27 16:33:15.028999,-0.1132510759466218
2023-01-27 16:33:15.033999,-0.11539459228515626
2023-01-27 16:33:15.038999,-0.1204703370789757
2023-01-27 16:33:15.043999,-0.129145786166191
2023-01-27 16:33:15.048999,-0.14137322245469805
2023-01-27 16:33:15.053999,-0.1567683666944503
2023-01-27 16:33:15.058999,-0.17489150304028575
2023-01-27 16:33:15.063999,-0.19501686096191398
2023-01-27 16:33:15.068999,-0.2160086393351719
2023-01-27 16:33:15.073999,-0.23658296465873702
2023-01-27 16:33:15.078999,-0.2554141904665654
2023-01-27 16:33:15.083999,-0.27100902795791615
2023-01-27 16:33:15.088999,-0.2820156727988287
2023-01-27 16:33:15.093999,-0.2879576086997984
2023-01-27 16:33:15.098999,-0.2894559756065995
2023-01-27 16:33:15.103999,-0.28766912221908547
2023-01-27 16:33:15.108999,-0.28378722675672147
2023-01-27 16:33:15.113999,-0.27901452779769886
2023-01-27 16:33:15.118999,-0.27450122585331027
2023-01-27 16:33:15.123999,-0.27100902795791604
2023-01-27 16:33:15.128999,-0.2688556667917945
2023-01-27 16:33:15.133999,-0.2682203054428099
2023-01-27 16:33:15.138999,-0.26915384196649306
2023-01-27 16:33:15.143999,-0.2712253928184507
2023-01-27 16:33:15.148999,-0.2735658261430191
2023-01-27 16:33:15.153999,-0.275456517934799
2023-01-27 16:33:15.158999,-0.2766526009740266
2023-01-27 16:33:15.163999,-0.2771153151988983
2023-01-27 16:33:15.168999,-0.2767904476632036
2023-01-27 16:33:15.173999,-0.2757450044155119
2023-01-27 16:33:15.178999,-0.2741925487927068
2023-01-27 16:33:15.183999,-0.2722831666469572
2023-01-27 16:33:15.188999,-0.2701498495262029
2023-01-27 16:33:15.193999,-0.2681722342967986
2023-01-27 16:33:15.198999,-0.26678739808125357
2023-01-27 16:33:15.203999,-0.2658883929252623
2023-01-27 16:33:15.208999,-0.2647056009889583
2023-01-27 16:33:15.213999,-0.26242655515670765
2023-01-27 16:33:15.218999,-0.25878883366674404
2023-01-27 16:33:15.223999,-0.2542046904563902
2023-01-27 16:33:15.228999,-0.24974978830067743
2023-01-27 16:33:15.233999,-0.24704059958457936
2023-01-27 16:33:15.238999,-0.2475535329632438
2023-01-27 16:33:15.243999,-0.25165638327598566
2023-01-27 16:33:15.248999,-0.2583548534714077
2023-01-27 16:33:15.253999,-0.265984535217285
2023-01-27 16:33:15.258999,-0.27299942523300236
2023-01-27 16:33:15.263999,-0.2783413827419281
2023-01-27 16:33:15.268999,-0.2816855715156658
2023-01-27 16:33:15.273999,-0.2835822105407714
2023-01-27 16:33:15.278999,-0.285036475135055
2023-01-27 16:33:15.283999,-0.28673154115676863
2023-01-27 16:33:15.288999,-0.28879282811794327
2023-01-27 16:33:15.293999,-0.29125115275382973
2023-01-27 16:33:15.298999,-0.2943466448848789
2023-01-27 16:33:15.303999,-0.29819887876510615
2023-01-27 16:33:15.308999,-0.30228305670787364
2023-01-27 16:33:15.313999,-0.30507445335388184
2023-01-27 16:33:15.318999,-0.30384829038513345
2023-01-27 16:33:15.323999,-0.2950495481491087
2023-01-27 16:33:15.328999,-0.27583959179253836
2023-01-27 16:33:15.333999,-0.24629533290863032
2023-01-27 16:33:15.338999,-0.21068197983351547
2023-01-27 16:33:15.343999,-0.17684221267700176
2023-01-27 16:33:15.348999,-0.15404610527289214
2023-01-27 16:33:15.353999,-0.15006105601787562
2023-01-27 16:33:15.358999,-0.16824999130789414
2023-01-27 16:33:15.363999,-0.20597934722900393
2023-01-27 16:33:15.368999,-0.2554434760569853
2023-01-27 16:33:15.373999,-0.30646881461143477
2023-01-27 16:33:15.378999,-0.34962285249988684
2023-01-27 16:33:15.383999,-0.37844619154930104
2023-01-27 16:33:15.388999,-0.39061579956445075
2023-01-27 16:33:15.393999,-0.38791817426681496
2023-01-27 16:33:15.398999,-0.3749109380270257
2023-01-27 16:33:15.403999,-0.35695394873619063
2023-01-27 16:33:15.408999,-0.33871163514803015
2023-01-27 16:33:15.413999,-0.3234173953533171
2023-01-27 16:33:15.418999,-0.3125162006086696
2023-01-27 16:33:15.423999,-0.3057235479354858
2023-01-27 16:33:15.428999,-0.3017752330108789
2023-01-27 16:33:15.433999,-0.2994008958339691
2023-01-27 16:33:15.438999,-0.29774177745068625
2023-01-27 16:33:15.443999,-0.2962756156921386
2023-01-27 16:33:15.448999,-0.2947896389864978
2023-01-27 16:33:15.453999,-0.29334267973899836
2023-01-27 16:33:15.458999,-0.2919661022920353
2023-01-27 16:33:15.463999,-0.29052993655204756
2023-01-27 16:33:15.468999,-0.28909876641661925
2023-01-27 16:33:15.473999,-0.288077801465988
2023-01-27 16:33:15.478999,-0.2876077788662535
2023-01-27 16:33:15.483999,-0.2870680987834929
2023-01-27 16:33:15.488999,-0.2855540506395411
2023-01-27 16:33:15.493999,-0.28257250785827626
2023-01-27 16:33:15.498999,-0.27797574525112556
2023-01-27 16:33:15.503999,-0.27177831530570973
2023-01-27 16:33:15.508999,-0.2646674032959051
2023-01-27 16:33:15.513999,-0.2581713795661926
2023-01-27 16:33:15.518999,-0.2533931028501479
2023-01-27 16:33:15.523999,-0.24973313510417922
2023-01-27 16:33:15.528999,-0.24559968542483862
2023-01-27 16:33:15.533999,-0.2401409596204756
2023-01-27 16:33:15.538999,-0.2334915901738499
2023-01-27 16:33:15.543999,-0.22566854953765864
2023-01-27 16:33:15.548999,-0.21640062044004071
2023-01-27 16:33:15.553999,-0.20609955489635462
2023-01-27 16:33:15.558999,-0.19588608995285403
2023-01-27 16:33:15.563999,-0.186314195394516
2023-01-27 16:33:15.568999,-0.17687888190969958
2023-01-27 16:33:15.573999,-0.16703367233276362
2023-01-27 16:33:15.578999,-0.15691174130019794
2023-01-27 16:33:15.583999,-0.14681558310985549
2023-01-27 16:33:15.588999,-0.1368552641656417
2023-01-27 16:33:15.593999,-0.12751102447509757
2023-01-27 16:33:15.598999,-0.11987357445835967
2023-01-27 16:33:15.603999,-0.11491378396749488
2023-01-27 16:33:15.608999,-0.11304723850476893
2023-01-27 16:33:15.613999,-0.11467337608337394
2023-01-27 16:33:15.618999,-0.12048271569813936
2023-01-27 16:33:15.623999,-0.13082861900329573
2023-01-27 16:33:15.628999,-0.14527961645569398
2023-01-27 16:33:15.633999,-0.1630429476499557
2023-01-27 16:33:15.638999,-0.1832426265106294
2023-01-27 16:33:15.643999,-0.20446479320526123
2023-01-27 16:33:15.648999,-0.22463563940206321
2023-01-27 16:33:15.653999,-0.24184784293174733
2023-01-27 16:33:15.658999,-0.2550625410655981
2023-01-27 16:33:15.663999,-0.2639411091804503
2023-01-27 16:33:15.668999,-0.2686329364906394
2023-01-27 16:33:15.673999,-0.2700473964214323
2023-01-27 16:33:15.678999,-0.26973523679454015
2023-01-27 16:33:15.683999,-0.26898962259292586
2023-01-27 16:33:15.688999,-0.26829660066291644
2023-01-27 16:33:15.693999,-0.2677875757217407
2023-01-27 16:33:15.698999,-0.26769869058614737
2023-01-27 16:33:15.703999,-0.26810011267662026
2023-01-27 16:33:15.708999,-0.2686530854431888
2023-01-27 16:33:15.713999,-0.2689415216445921
2023-01-27 16:33:15.718999,-0.26863058914672844
2023-01-27 16:33:15.723999,-0.2670904099941252
2023-01-27 16:33:15.728999,-0.26343061325058487
2023-01-27 16:33:15.733999,-0.25735399127006514
2023-01-27 16:33:15.738999,-0.24970735636176258
2023-01-27 16:33:15.743999,-0.24199208617210372
2023-01-27 16:33:15.748999,-0.23566751174644657
2023-01-27 16:33:15.753999,-0.23194313049316398
2023-01-27 16:33:15.758999,-0.23149885659472375
2023-01-27 16:33:15.763999,-0.23389041423797585
2023-01-27 16:33:15.768999,-0.2375883608618655
2023-01-27 16:33:15.773999,-0.24100641906261436
2023-01-27 16:33:15.778999,-0.24334700114032703
2023-01-27 16:33:15.783999,-0.24446825683116913
2023-01-27 16:33:15.788999,-0.24453109481832483
2023-01-27 16:33:15.793999,-0.2440595626831054
2023-01-27 16:33:15.798999,-0.24381234336301455
2023-01-27 16:33:15.803999,-0.24417977035045615
2023-01-27 16:33:15.808999,-0.2450163318679587
2023-01-27 16:33:15.813999,-0.2462712973356246
2023-01-27 16:33:15.818999,-0.24832327041729635
2023-01-27 16:33:15.823999,-0.25136789679527266
2023-01-27 16:33:15.828999,-0.25480585138753503
2023-01-27 16:33:15.833999,-0.2574261128902434
2023-01-27 16:33:15.838999,-0.25780266541532926
2023-01-27 16:33:15.843999,-0.2544450759887694
2023-01-27 16:33:15.848999,-0.24633054697010387
2023-01-27 16:33:15.853999,-0.23393850028514857
2023-01-27 16:33:15.858999,-0.2195818848736382
2023-01-27 16:33:15.863999,-0.20641207695007324
2023-01-27 16:33:15.868999,-0.1971772972768444
2023-01-27 16:33:15.873999,-0.1936946362257002
2023-01-27 16:33:15.878999,-0.19657261849120458
2023-01-27 16:33:15.883999,-0.2048013657331466
2023-01-27 16:33:15.888999,-0.21595736772089957
2023-01-27 16:33:15.893999,-0.22732734680175776
2023-01-27 16:33:15.898999,-0.23686794425550026
2023-01-27 16:33:15.903999,-0.24329027533531178
2023-01-27 16:33:15.908999,-0.24603452154316968
2023-01-27 16:33:15.913999,-0.24567028880119338
2023-01-27 16:33:15.918999,-0.24388880266939977
2023-01-27 16:33:15.923999,-0.2425450086593627
2023-01-27 16:33:15.928999,-0.2426514667692908
2023-01-27 16:33:15.933999,-0.24405956268310527
2023-01-27 16:33:15.938999,-0.2452761285879162
2023-01-27 16:33:15.943999,-0.24314603209495536
2023-01-27 16:33:15.948999,-0.23339918419732772
2023-01-27 16:33:15.953999,-0.21254241466522217
2023-01-27 16:33:15.958999,-0.17985997342077842
2023-01-27 16:33:15.963999,-0.1382811963558197
2023-01-27 16:33:15.968999,-0.09424086804930573
2023-01-27 16:33:15.973999,-0.05673567578196516
2023-01-27 16:33:15.978999,-0.03501333964615059
2023-01-27 16:33:15.983999,-0.035219393670558895
2023-01-27 16:33:15.988999,-0.05799667085452201
2023-01-27 16:33:15.993999,-0.09849409759044643
2023-01-27 16:33:15.998999,-0.14813009572400157
2023-01-27 16:33:16.003999,-0.19694010913372023
2023-01-27 16:33:16.008999,-0.23626312043888226
2023-01-27 16:33:16.013999,-0.26124855875968916
2023-01-27 16:33:16.018999,-0.2716917645167242
2023-01-27 16:33:16.023999,-0.2706724405288695
2023-01-27 16:33:16.028999,-0.2625010303971091
2023-01-27 16:33:16.033999,-0.2513919472694395
2023-01-27 16:33:16.038999,-0.24059802009830059
2023-01-27 16:33:16.043999,-0.23163060843944527
2023-01-27 16:33:16.048999,-0.22434336341082997
2023-01-27 16:33:16.053999,-0.21814386546611775
2023-01-27 16:33:16.058999,-0.2129719267432881
2023-01-27 16:33:16.063999,-0.20908057689666726
2023-01-27 16:33:16.068999,-0.20653028779770777
2023-01-27 16:33:16.073999,-0.20530621707439417
2023-01-27 16:33:16.078999,-0.20539916849310869
2023-01-27 16:33:16.083999,-0.20631591975688923
2023-01-27 16:33:16.088999,-0.20698150560651923
2023-01-27 16:33:16.093999,-0.20660440623760215
2023-01-27 16:33:16.098999,-0.20526588520239317
2023-01-27 16:33:16.103999,-0.2033108472824095
2023-01-27 16:33:16.108999,-0.20067023165091935
2023-01-27 16:33:16.113999,-0.19720456004142756
2023-01-27 16:33:16.118999,-0.1931396453450198
2023-01-27 16:33:16.123999,-0.18859803676605216
2023-01-27 16:33:16.128999,-0.18321091417987845
2023-01-27 16:33:16.133999,-0.1768181771039961
2023-01-27 16:33:16.138999,-0.17009424304281948
2023-01-27 16:33:16.143999,-0.1638122498989103
2023-01-27 16:33:16.148999,-0.15790674502804328
2023-01-27 16:33:16.153999,-0.15198430418968192
2023-01-27 16:33:16.158999,-0.14635154493165692
2023-01-27 16:33:16.163999,-0.14162282645702354
2023-01-27 16:33:16.168999,-0.13745638473047675
2023-01-27 16:33:16.173999,-0.13255953788757327
2023-01-27 16:33:16.178999,-0.12603129425031617
2023-01-27 16:33:16.183999,-0.11803905665874473
2023-01-27 16:33:16.188999,-0.10911121847755467
2023-01-27 16:33:16.193999,-0.09940763562917695
2023-01-27 16:33:16.198999,-0.08884684765400946
2023-01-27 16:33:16.203999,-0.0774105414748191
2023-01-27 16:33:16.208999,-0.06510137190044397
2023-01-27 16:33:16.213999,-0.052023731172084836
2023-01-27 16:33:16.218999,-0.03881153141235418
2023-01-27 16:33:16.223999,-0.026853283867239796
2023-01-27 16:33:16.228999,-0.018019178369590504
2023-01-27 16:33:16.233999,-0.014207959175109806
2023-01-27 16:33:16.238999,-0.016871999167882644
2023-01-27 16:33:16.243999,-0.02644459530711165
2023-01-27 16:33:16.248999,-0.04199750667345941
2023-01-27 16:33:16.253999,-0.06156782433390599
2023-01-27 16:33:16.258999,-0.08288574828877762
2023-01-27 16:33:16.263999,-0.10387917608022672
2023-01-27 16:33:16.268999,-0.12290037131893033
2023-01-27 16:33:16.273999,-0.13895432651042933
2023-01-27 16:33:16.278999,-0.15178885290696434
2023-01-27 16:33:16.283999,-0.16162455081939686
2023-01-27 16:33:16.288999,-0.16886592516502896
2023-01-27 16:33:16.293999,-0.17414967715740196
2023-01-27 16:33:16.298999,-0.1783805559249476
2023-01-27 16:33:16.303999,-0.18234750628471355
2023-01-27 16:33:16.308999,-0.18629090198300302
2023-01-27 16:33:16.313999,-0.18994431197643263
2023-01-27 16:33:16.318999,-0.19283987151059773
2023-01-27 16:33:16.323999,-0.19446393847465496
2023-01-27 16:33:16.328999,-0.19442720779821476
2023-01-27 16:33:16.333999,-0.19282917678356162
2023-01-27 16:33:16.338999,-0.1903590801999235
2023-01-27 16:33:16.343999,-0.1878046989440916
2023-01-27 16:33:16.348999,-0.1855250908087253
2023-01-27 16:33:16.353999,-0.18347740173339835
2023-01-27 16:33:16.358999,-0.18148779967310405
2023-01-27 16:33:16.363999,-0.17927031219005568
2023-01-27 16:33:16.368999,-0.17642091156355202
2023-01-27 16:33:16.373999,-0.17270724475383747
2023-01-27 16:33:16.378999,-0.16828638853657246
2023-01-27 16:33:16.383999,-0.1634997129440306
2023-01-27 16:33:16.388999,-0.15865474390718726
2023-01-27 16:33:16.393999,-0.1541719883680343
2023-01-27 16:33:16.398999,-0.15067142547134776
2023-01-27 16:33:16.403999,-0.14861862361431105
2023-01-27 16:33:16.408999,-0.1480188800145838
2023-01-27 16:33:16.413999,-0.14864265918731664
2023-01-27 16:33:16.418999,-0.15035944022229175
2023-01-27 16:33:16.423999,-0.15306612849235515
2023-01-27 16:33:16.428999,-0.15651225837131216
2023-01-27 16:33:16.433999,-0.16039848327636708
2023-01-27 16:33:16.438999,-0.1643999517119761
2023-01-27 16:33:16.443999,-0.1678510606288907
2023-01-27 16:33:16.448999,-0.1696629184611061
2023-01-27 16:33:16.453999,-0.16890883445739735
2023-01-27 16:33:16.458999,-0.1654696443078886
2023-01-27 16:33:16.463999,-0.16003787517547588
2023-01-27 16:33:16.468999,-0.15374350452504007
2023-01-27 16:33:16.473999,-0.14789740741252885
2023-01-27 16:33:16.478999,-0.1436659682198971
2023-01-27 16:33:16.483999,-0.14150261878967263
2023-01-27 16:33:16.488999,-0.14090240526343417
2023-01-27 16:33:16.493999,-0.14087757468223566
2023-01-27 16:33:16.498999,-0.14055277608722833
2023-01-27 16:33:16.503999,-0.1392428129911421
2023-01-27 16:33:16.508999,-0.1363295708438077
2023-01-27 16:33:16.513999,-0.1314055919647215
2023-01-27 16:33:16.518999,-0.1243928533960881
2023-01-27 16:33:16.523999,-0.11534651368856422
2023-01-27 16:33:16.528999,-0.10442190085268108
2023-01-27 16:33:16.533999,-0.09233971685171118
2023-01-27 16:33:16.538999,-0.08071818614113394
2023-01-27 16:33:16.543999,-0.07166485488414753
2023-01-27 16:33:16.548999,-0.067030970611822
2023-01-27 16:33:16.553999,-0.06791453063488004
2023-01-27 16:33:16.558999,-0.07427694154250752
2023-01-27 16:33:16.563999,-0.08457462489604937
2023-01-27 16:33:16.568999,-0.09601210617614993
2023-01-27 16:33:16.573999,-0.10568221658468235
2023-01-27 16:33:16.578999,-0.11171207350630379
2023-01-27 16:33:16.583999,-0.11356751620769492
2023-01-27 16:33:16.588999,-0.11182458749661262
2023-01-27 16:33:16.593999,-0.10796606540679927
2023-01-27 16:33:16.598999,-0.10396219449939155
2023-01-27 16:33:16.603999,-0.10137896239757523
2023-01-27 16:33:16.608999,-0.10059384977796326
2023-01-27 16:33:16.613999,-0.1006337031722067
2023-01-27 16:33:16.618999,-0.09926436959707774
2023-01-27 16:33:16.623999,-0.09308497607707962
2023-01-27 16:33:16.628999,-0.07831392874181278
2023-01-27 16:33:16.633999,-0.05264878273010242
2023-01-27 16:33:16.638999,-0.017151795194938823
2023-01-27 16:33:16.643999,0.023175081238150538
2023-01-27 16:33:16.648999,0.0603101523769414
2023-01-27 16:33:16.653999,0.08517563343048096
2023-01-27 16:33:16.658999,0.0904058402885876
2023-01-27 16:33:16.663999,0.0732034444808959
2023-01-27 16:33:16.668999,0.03667331189460907
2023-01-27 16:33:16.673999,-0.011323094367980919
2023-01-27 16:33:16.678999,-0.060874300564572846
2023-01-27 16:33:16.683999,-0.1027492731809615
2023-01-27 16:33:16.688999,-0.13055613750688694
2023-01-27 16:33:16.693999,-0.142127677798271
2023-01-27 16:33:16.698999,-0.13946879598238152
2023-01-27 16:33:16.703999,-0.12710234522819497
2023-01-27 16:33:16.708999,-0.11001226869810257
2023-01-27 16:33:16.713999,-0.0924118384718893
2023-01-27 16:33:16.718999,-0.0772140670010616
2023-01-27 16:33:16.723999,-0.06567876040935504
2023-01-27 16:33:16.728999,-0.05755858379502911
2023-01-27 16:33:16.733999,-0.05202373117208477
2023-01-27 16:33:16.738999,-0.048514107203856
2023-01-27 16:33:16.743999,-0.04668673127889618
2023-01-27 16:33:16.748999,-0.0460104547376233
2023-01-27 16:33:16.753999,-0.04589339345693573
2023-01-27 16:33:16.758999,-0.046024613047728036
2023-01-27 16:33:16.763999,-0.04620591923594465
2023-01-27 16:33:16.768999,-0.04600339925260425
2023-01-27 16:33:16.773999,-0.044907730072736636
2023-01-27 16:33:16.778999,-0.04267905528400561
2023-01-27 16:33:16.783999,-0.03921012207865696
2023-01-27 16:33:16.788999,-0.034234744860401914
2023-01-27 16:33:16.793999,-0.027550458908080937
2023-01-27 16:33:16.798999,-0.019438538518520558
2023-01-27 16:33:16.803999,-0.010577837936580091
2023-01-27 16:33:16.808999,-0.0016614870952140184
2023-01-27 16:33:16.813999,0.006683270446956167
2023-01-27 16:33:16.818999,0.013867861403763384
2023-01-27 16:33:16.823999,0.01966516301035881
2023-01-27 16:33:16.828999,0.024512388026045977
2023-01-27 16:33:16.833999,0.029233297333121164
2023-01-27 16:33:16.838999,0.03454359685157852
2023-01-27 16:33:16.843999,0.04096508026123041
2023-01-27 16:33:16.848999,0.04889494705121463
2023-01-27 16:33:16.853999,0.05834639072418213
2023-01-27 16:33:16.858999,0.06875475957262074
2023-01-27 16:33:16.863999,0.07940590381622308
2023-01-27 16:33:16.868999,0.09002730428294463
2023-01-27 16:33:16.873999,0.10077794641256328
2023-01-27 16:33:16.878999,0.11184808845614659
2023-01-27 16:33:16.883999,0.12330393493175498
2023-01-27 16:33:16.888999,0.1350580806611684
2023-01-27 16:33:16.893999,0.14659921824932087
2023-01-27 16:33:16.898999,0.15687524640458206
2023-01-27 16:33:16.903999,0.16479790210723866
2023-01-27 16:33:16.908999,0.16983777540255246
2023-01-27 16:33:16.913999,0.17196199297904957
2023-01-27 16:33:16.918999,0.1712130166314508
2023-01-27 16:33:16.923999,0.16763469576835624
2023-01-27 16:33:16.928999,0.16139487943349679
2023-01-27 16:33:16.933999,0.15260934829711909
2023-01-27 16:33:16.938999,0.1411554102672535
2023-01-27 16:33:16.943999,0.12698213756084442
2023-01-27 16:33:16.948999,0.11054856814536707
2023-01-27 16:33:16.953999,0.09277244657278061
2023-01-27 16:33:16.958999,0.07475798146544377
2023-01-27 16:33:16.963999,0.05784153938293445
2023-01-27 16:33:16.968999,0.04363612286097282
2023-01-27 16:33:16.973999,0.03353655338287357
2023-01-27 16:33:16.978999,0.028090524982734233
2023-01-27 16:33:16.983999,0.026949446648359236
2023-01-27 16:33:16.988999,0.029204030316806063
2023-01-27 16:33:16.993999,0.033536553382873556
2023-01-27 16:33:16.998999,0.03838264224496117
2023-01-27 16:33:17.003999,0.04250367730855945
2023-01-27 16:33:17.008999,0.0455087763865758
2023-01-27 16:33:17.013999,0.04767239093780516
2023-01-27 16:33:17.018999,0.049386474576760375
2023-01-27 16:33:17.023999,0.050965946167707346
2023-01-27 16:33:17.028999,0.05268614460937927
2023-01-27 16:33:17.033999,0.05459606647491455
2023-01-27 16:33:17.038999,0.056404440709159946
2023-01-27 16:33:17.043999,0.057889621704816804
2023-01-27 16:33:17.048999,0.059346433390857566
2023-01-27 16:33:17.053999,0.061351459473371485
2023-01-27 16:33:17.058999,0.06416014006890353
2023-01-27 16:33:17.063999,0.06750583648681642
2023-01-27 16:33:17.068999,0.07075665541822534
2023-01-27 16:33:17.073999,0.07298707962036137
2023-01-27 16:33:17.078999,0.0731756713046496
2023-01-27 16:33:17.083999,0.07084747403860088
2023-01-27 16:33:17.088999,0.06659144018011923
2023-01-27 16:33:17.093999,0.06176014989614482
2023-01-27 16:33:17.098999,0.057757523439558374
2023-01-27 16:33:17.103999,0.055725973099470034
2023-01-27 16:33:17.108999,0.056517334009432395
2023-01-27 16:33:17.113999,0.06041387841105467
2023-01-27 16:33:17.118999,0.06685993278919483
2023-01-27 16:33:17.123999,0.07474204152822492
2023-01-27 16:33:17.128999,0.08288592048244016
2023-01-27 16:33:17.133999,0.09015202522277836
2023-01-27 16:33:17.138999,0.09539129672936371
2023-01-27 16:33:17.143999,0.09779691696166988
2023-01-27 16:33:17.148999,0.0972858837693882
2023-01-27 16:33:17.153999,0.09428700059652324
2023-01-27 16:33:17.158999,0.08928855733762177
2023-01-27 16:33:17.163999,0.08284370601177216
2023-01-27 16:33:17.168999,0.07579384302198965
2023-01-27 16:33:17.173999,0.06909251213073728
2023-01-27 16:33:17.178999,0.06346449380343107
2023-01-27 16:33:17.183999,0.0594282150268554
2023-01-27 16:33:17.188999,0.05735490485595208
2023-01-27 16:33:17.193999,0.05707224458456022
2023-01-27 16:33:17.198999,0.057562881922781
2023-01-27 16:33:17.203999,0.057553052902221576
2023-01-27 16:33:17.208999,0.05659638841890283
2023-01-27 16:33:17.213999,0.05567789077758774
2023-01-27 16:33:17.218999,0.057187713111430866
2023-01-27 16:33:17.223999,0.06450077146291726
2023-01-27 16:33:17.228999,0.08075677258853386
2023-01-27 16:33:17.233999,0.10669191926717747
2023-01-27 16:33:17.238999,0.13888255891192414
2023-01-27 16:33:17.243999,0.17006278038024894
2023-01-27 16:33:17.248999,0.19145377860439836
2023-01-27 16:33:17.253999,0.19573807716369612
2023-01-27 16:33:17.258999,0.1797064949956871
2023-01-27 16:33:17.263999,0.1459260880947112
2023-01-27 16:33:17.268999,0.10231376167439638
2023-01-27 16:33:17.273999,0.059187810868024826
2023-01-27 16:33:17.278999,0.025447304608122133
2023-01-27 16:33:17.283999,0.006154378410428677
2023-01-27 16:33:17.288999,0.002029328623456801
2023-01-27 16:33:17.293999,0.010048946365713959
2023-01-27 16:33:17.298999,0.024912095223613335
2023-01-27 16:33:17.303999,0.04132568836212148
2023-01-27 16:33:17.308999,0.05585445337233238
2023-01-27 16:33:17.313999,0.06702502816915504
2023-01-27 16:33:17.318999,0.0743750933922179
2023-01-27 16:33:17.323999,0.07803559303283683
2023-01-27 16:33:17.328999,0.07878694740847009
2023-01-27 16:33:17.333999,0.07755478471517557
2023-01-27 16:33:17.338999,0.07480691299101645
2023-01-27 16:33:17.343999,0.07106383889913544
2023-01-27 16:33:17.348999,0.06777160529169113
2023-01-27 16:33:17.353999,0.06668846309185017
2023-01-27 16:33:17.358999,0.06828380948994782
2023-01-27 16:33:17.363999,0.0715927332639694
2023-01-27 16:33:17.368999,0.07581616738298322
2023-01-27 16:33:17.373999,0.08116086572408673
2023-01-27 16:33:17.378999,0.08777560076782216
2023-01-27 16:33:17.383999,0.09479185193777073
2023-01-27 16:33:17.388999,0.10106467572764127
2023-01-27 16:33:17.393999,0.10623514652252189
2023-01-27 16:33:17.398999,0.11042126304037647
2023-01-27 16:33:17.403999,0.11337518692016597
2023-01-27 16:33:17.408999,0.11470270158205181
2023-01-27 16:33:17.413999,0.11472146213054642
2023-01-27 16:33:17.418999,0.11453150951223802
2023-01-27 16:33:17.423999,0.11532247066497785
2023-01-27 16:33:17.428999,0.11794781399058057
2023-01-27 16:33:17.433999,0.12289524078369142
2023-01-27 16:33:17.438999,0.13011022540194342
2023-01-27 16:33:17.443999,0.13883411884307856
2023-01-27 16:33:17.448999,0.14796373502367274
2023-01-27 16:33:17.453999,0.15662412345409388
2023-01-27 16:33:17.458999,0.16430572537867955
2023-01-27 16:33:17.463999,0.17071187496185292
2023-01-27 16:33:17.468999,0.17584015439309378
2023-01-27 16:33:17.473999,0.18015980720519997
2023-01-27 16:33:17.478999,0.18444219572749673
2023-01-27 16:33:17.483999,0.18939137458801253
2023-01-27 16:33:17.488999,0.19546388082116853
2023-01-27 16:33:17.493999,0.20275792479515065
2023-01-27 16:33:17.498999,0.21074633668779044
2023-01-27 16:33:17.503999,0.21816790103912337
2023-01-27 16:33:17.508999,0.22340656171057313
2023-01-27 16:33:17.513999,0.22501945495605452
2023-01-27 16:33:17.518999,0.22195303527084775
2023-01-27 16:33:17.523999,0.21360020339488975
2023-01-27 16:33:17.528999,0.20000259973380502
2023-01-27 16:33:17.533999,0.18198689818382252
2023-01-27 16:33:17.538999,0.16095740483098347
2023-01-27 16:33:17.543999,0.13859371840953813
2023-01-27 16:33:17.548999,0.11673505585499432
2023-01-27 16:33:17.553999,0.09719590842723831
2023-01-27 16:33:17.558999,0.081270763795755
2023-01-27 16:33:17.563999,0.06930887699127183
2023-01-27 16:33:17.568999,0.06079903954581346
2023-01-27 16:33:17.573999,0.05476435273885722
2023-01-27 16:33:17.578999,0.050070507231927686
2023-01-27 16:33:17.583999,0.04570106789469703
2023-01-27 16:33:17.588999,0.04113267206027626
2023-01-27 16:33:17.593999,0.03651758283376692
2023-01-27 16:33:17.598999,0.03243207613234611
2023-01-27 16:33:17.603999,0.029521783813834013
2023-01-27 16:33:17.608999,0.02841087763406627
2023-01-27 16:33:17.613999,0.029666027054190636
2023-01-27 16:33:17.618999,0.03351288718694769
2023-01-27 16:33:17.623999,0.039546690881252164
2023-01-27 16:33:17.628999,0.0468068179791809
2023-01-27 16:33:17.633999,0.054091215133666944
2023-01-27 16:33:17.638999,0.0602284446807299
2023-01-27 16:33:17.643999,0.06438057124614704
2023-01-27 16:33:17.648999,0.06643456883847457
2023-01-27 16:33:17.653999,0.0670971497893333
2023-01-27 16:33:17.658999,0.06740700443363593
2023-01-27 16:33:17.663999,0.06805877387523636
2023-01-27 16:33:17.668999,0.06909674103086748
2023-01-27 16:33:17.673999,0.06998201459646222
2023-01-27 16:33:17.678999,0.06978890739774898
2023-01-27 16:33:17.683999,0.06760200113058085
2023-01-27 16:33:17.688999,0.06316284925126678
2023-01-27 16:33:17.693999,0.05731264874339101
2023-01-27 16:33:17.698999,0.0517827915973442
2023-01-27 16:33:17.703999,0.048561893403530045
2023-01-27 16:33:17.708999,0.049339308665939594
2023-01-27 16:33:17.713999,0.05507687851786615
2023-01-27 16:33:17.718999,0.06557809133956882
2023-01-27 16:33:17.723999,0.07933378219604484
2023-01-27 16:33:17.728999,0.09397788808066145
2023-01-27 16:33:17.733999,0.10707657039165493
2023-01-27 16:33:17.738999,0.11670145461670359
2023-01-27 16:33:17.743999,0.12171725928783397
2023-01-27 16:33:17.748999,0.12200547396945748
2023-01-27 16:33:17.753999,0.11849582195281971
2023-01-27 16:33:17.758999,0.11275343158631271
2023-01-27 16:33:17.763999,0.10637938976287832
2023-01-27 16:33:17.768999,0.10071045113381115
2023-01-27 16:33:17.773999,0.09678721427917478
2023-01-27 16:33:17.778999,0.0952245740813436
2023-01-27 16:33:17.783999,0.09601791948080048
2023-01-27 16:33:17.788999,0.0986025556394015
2023-01-27 16:33:17.793999,0.1021001785993576
2023-01-27 16:33:17.798999,0.10546498531032243
2023-01-27 16:33:17.803999,0.10770162194967255
2023-01-27 16:33:17.808999,0.10853487724205917
2023-01-27 16:33:17.813999,0.10924021899700165
2023-01-27 16:33:17.818999,0.11280067713057682
2023-01-27 16:33:17.823999,0.1230394840240477
2023-01-27 16:33:17.828999,0.14311678531726055
2023-01-27 16:33:17.833999,0.17386119067668904
2023-01-27 16:33:17.838999,0.21237813850099635
2023-01-27 16:33:17.843999,0.25180062651634194
2023-01-27 16:33:17.848999,0.28299280012832534
2023-01-27 16:33:17.853999,0.2977420985698698
2023-01-27 16:33:17.858999,0.29175334287655663
2023-01-27 16:33:17.863999,0.2660807073116301
2023-01-27 16:33:17.868999,0.2267998759682921
2023-01-27 16:33:17.873999,0.1832129657268523
2023-01-27 16:33:17.878999,0.14494413208820464
2023-01-27 16:33:17.883999,0.11892855167388912
2023-01-27 16:33:17.888999,0.10780133025215947
2023-01-27 16:33:17.893999,0.11024992167949658
2023-01-27 16:33:17.898999,0.12240475030378604
2023-01-27 16:33:17.903999,0.1392668485641477
2023-01-27 16:33:17.908999,0.15613329513502583
2023-01-27 16:33:17.913999,0.16999065876007072
2023-01-27 16:33:17.918999,0.18004433802281852
2023-01-27 16:33:17.923999,0.18693923950195296
2023-01-27 16:33:17.928999,0.19165763818678067
2023-01-27 16:33:17.933999,0.19516110420227056
2023-01-27 16:33:17.938999,0.19837709725306024
2023-01-27 16:33:17.943999,0.20177225768566123
2023-01-27 16:33:17.948999,0.20512219614985353
2023-01-27 16:33:17.953999,0.2083353251218795
2023-01-27 16:33:17.958999,0.21232746515646403
2023-01-27 16:33:17.963999,0.2182881087064741
2023-01-27 16:33:17.968999,0.2260632149219507
2023-01-27 16:33:17.973999,0.2341308295726776
2023-01-27 16:33:17.978999,0.24143391903882383
2023-01-27 16:33:17.983999,0.24838685989379866
2023-01-27 16:33:17.988999,0.25559541590994506
2023-01-27 16:33:17.993999,0.26242655515670754
2023-01-27 16:33:17.998999,0.26770908233190227
2023-01-27 16:33:18.003999,0.2713696360588072
2023-01-27 16:33:18.008999,0.2744493251078591
2023-01-27 16:33:18.013999,0.27771633863449074
2023-01-27 16:33:18.018999,0.2811857991477865
2023-01-27 16:33:18.023999,0.2850246429443357
2023-01-27 16:33:18.028999,0.2900222991444563
2023-01-27 16:33:18.033999,0.29682856798171975
2023-01-27 16:33:18.038999,0.3053374501694044
2023-01-27 16:33:18.043999,0.3151714801788329
2023-01-27 16:33:18.048999,0.3263085046482438
2023-01-27 16:33:18.053999,0.33889949321746815
2023-01-27 16:33:18.058999,0.3528591415452324
2023-01-27 16:33:18.063999,0.36796450614929166
2023-01-27 16:33:18.068999,0.3840008111905693
2023-01-27 16:33:18.073999,0.400419235229492
2023-01-27 16:33:18.078999,0.4161013322824824
2023-01-27 16:33:18.083999,0.42989295721054044
2023-01-27 16:33:18.088999,0.441354728834941
2023-01-27 16:33:18.093999,0.45083224773406966
2023-01-27 16:33:18.098999,0.4589786072797348
2023-01-27 16:33:18.103999,0.46638649702072105
2023-01-27 16:33:18.108999,0.4733393297877931
2023-01-27 16:33:18.113999,0.4793924093246458
2023-01-27 16:33:18.118999,0.4831362547932711
2023-01-27 16:33:18.123999,0.4826859831809994
2023-01-27 16:33:18.128999,0.47661725995732035
2023-01-27 16:33:18.133999,0.4645834565162657
2023-01-27 16:33:18.138999,0.4474109672634444
2023-01-27 16:33:18.143999,0.42695999145507796
2023-01-27 16:33:18.148999,0.40576441342848335
2023-01-27 16:33:18.153999,0.38633149862289395
2023-01-27 16:33:18.158999,0.3704746197358807
2023-01-27 16:33:18.163999,0.35918971896171537
2023-01-27 16:33:18.168999,0.35290362814762266
2023-01-27 16:33:18.173999,0.3515207767486571
2023-01-27 16:33:18.178999,0.3542462272118651
2023-01-27 16:33:18.183999,0.35967051982879605
2023-01-27 16:33:18.188999,0.3662376738286307
2023-01-27 16:33:18.193999,0.3727245330810545
2023-01-27 16:33:18.198999,0.378517026857742
2023-01-27 16:33:18.203999,0.3837351202964781
2023-01-27 16:33:18.208999,0.38907485783643203
2023-01-27 16:33:18.213999,0.39520245790481556
2023-01-27 16:33:18.218999,0.40208967095597276
2023-01-27 16:33:18.223999,0.40897768735885603
2023-01-27 16:33:18.228999,0.41502215393895286
2023-01-27 16:33:18.233999,0.4199401736259459
2023-01-27 16:33:18.238999,0.42414346179718476
2023-01-27 16:33:18.243999,0.4284505248069762
2023-01-27 16:33:18.248999,0.4336245326720788
2023-01-27 16:33:18.253999,0.4398697614669798
2023-01-27 16:33:18.258999,0.4465847233795405
2023-01-27 16:33:18.263999,0.45273146033287015
2023-01-27 16:33:18.268999,0.45762779257375924
2023-01-27 16:33:18.273999,0.4614341259002684
2023-01-27 16:33:18.278999,0.464940581028798
2023-01-27 16:33:18.283999,0.4690068960189818
2023-01-27 16:33:18.288999,0.47413828712449485
2023-01-27 16:33:18.293999,0.48028191924095154
2023-01-27 16:33:18.298999,0.48681331395975985
2023-01-27 16:33:18.303999,0.49283108115196206
2023-01-27 16:33:18.308999,0.49767543514218654
2023-01-27 16:33:18.313999,0.5012212395668028
2023-01-27 16:33:18.318999,0.5036992120519176
2023-01-27 16:33:18.323999,0.5053802728652952
2023-01-27 16:33:18.328999,0.5065197354287295
2023-01-27 16:33:18.333999,0.5074717998504634
2023-01-27 16:33:18.338999,0.5087058273005897
2023-01-27 16:33:18.343999,0.5107653141021725
2023-01-27 16:33:18.348999,0.5143009197976643
2023-01-27 16:33:18.353999,0.5200209617614746
2023-01-27 16:33:18.358999,0.5284043540591933
2023-01-27 16:33:18.363999,0.5394216775894163
2023-01-27 16:33:18.368999,0.5525609592708659
2023-01-27 16:33:18.373999,0.5669961571693418
2023-01-27 16:33:18.378999,0.5815986482910839
2023-01-27 16:33:18.383999,0.5949553251266477
2023-01-27 16:33:18.388999,0.6057499453028249
2023-01-27 16:33:18.393999,0.6133463382720945
2023-01-27 16:33:18.398999,0.6180356006203953
2023-01-27 16:33:18.403999,0.6207988858222959
2023-01-27 16:33:18.408999,0.6228873166267604
2023-01-27 16:33:18.413999,0.6253665685653684
2023-01-27 16:33:18.418999,0.628598790552976
2023-01-27 16:33:18.423999,0.6319777369499203
2023-01-27 16:33:18.428999,0.6343500984794337
2023-01-27 16:33:18.433999,0.6348385810852047
2023-01-27 16:33:18.438999,0.6332258545092855
2023-01-27 16:33:18.443999,0.6296938657760618
2023-01-27 16:33:18.448999,0.6246293878911169
2023-01-27 16:33:18.453999,0.6189718246459958
2023-01-27 16:33:18.458999,0.6146964624789644
2023-01-27 16:33:18.463999,0.6149330139160154
2023-01-27 16:33:18.468999,0.6236837049623148
2023-01-27 16:33:18.473999,0.6449596285820005
2023-01-27 16:33:18.478999,0.6809081339788466
2023-01-27 16:33:18.483999,0.7294861674308774
2023-01-27 16:33:18.488999,0.7835346931234323
2023-01-27 16:33:18.493999,0.8324758410453793
2023-01-27 16:33:18.498999,0.8656796040939927
2023-01-27 16:33:18.503999,0.8756526708602902
2023-01-27 16:33:18.508999,0.8602296045336062
2023-01-27 16:33:18.513999,0.8235327601432798
2023-01-27 16:33:18.518999,0.7748673959904626
2023-01-27 16:33:18.523999,0.7252550125122068
2023-01-27 16:33:18.528999,0.6835479704001086
2023-01-27 16:33:18.533999,0.6547441482543943
2023-01-27 16:33:18.538999,0.6405719152195191
2023-01-27 16:33:18.543999,0.6401755809783932
2023-01-27 16:33:18.548999,0.6500615354265836
2023-01-27 16:33:18.553999,0.6647930741310117
2023-01-27 16:33:18.558999,0.6791552170610259
2023-01-27 16:33:18.563999,0.6900356411933896
2023-01-27 16:33:18.568999,0.6964267069215829
2023-01-27 16:33:18.573999,0.6984738707542417
2023-01-27 16:33:18.578999,0.6971659132299416
2023-01-27 16:33:18.583999,0.6943629384040829
2023-01-27 16:33:18.588999,0.6920650866323743
2023-01-27 16:33:18.593999,0.6914059519767759
2023-01-27 16:33:18.598999,0.6926450632050736
2023-01-27 16:33:18.603999,0.6958774924278256
2023-01-27 16:33:18.608999,0.7011156712919574
2023-01-27 16:33:18.613999,0.7077294588088989
2023-01-27 16:33:18.618999,0.7144908378913548
2023-01-27 16:33:18.623999,0.7204228639602658
2023-01-27 16:33:18.628999,0.7252623046322594
2023-01-27 16:33:18.633999,0.7290534377098083
2023-01-27 16:33:18.638999,0.7317994936393971
2023-01-27 16:33:18.643999,0.7337413430213926
2023-01-27 16:33:18.648999,0.7355618411739048
2023-01-27 16:33:18.653999,0.7379484176635739
2023-01-27 16:33:18.658999,0.7410780513634078
2023-01-27 16:33:18.663999,0.7446557283401486
2023-01-27 16:33:18.668999,0.748228789131885
2023-01-27 16:33:18.673999,0.7513390183448788
2023-01-27 16:33:18.678999,0.7537019507423832
2023-01-27 16:33:18.683999,0.7555941939353941
2023-01-27 16:33:18.688999,0.7579927070007577
2023-01-27 16:33:18.693999,0.762085139751434
2023-01-27 16:33:18.698999,0.7685797118486221
2023-01-27 16:33:18.703999,0.7774470448493954
2023-01-27 16:33:18.708999,0.7880867443480419
2023-01-27 16:33:18.713999,0.7995643615722653
2023-01-27 16:33:18.718999,0.8108625439934376
2023-01-27 16:33:18.723999,0.8212008476257321
2023-01-27 16:33:18.728999,0.8301878644845538
2023-01-27 16:33:18.733999,0.8376204967498776
2023-01-27 16:33:18.738999,0.8432203361363101
2023-01-27 16:33:18.743999,0.8466597795486447
2023-01-27 16:33:18.748999,0.847727446328748
2023-01-27 16:33:18.753999,0.8462750911712643
2023-01-27 16:33:18.758999,0.841993932308801
2023-01-27 16:33:18.763999,0.8343510031700132
2023-01-27 16:33:18.768999,0.8227642954155534
2023-01-27 16:33:18.773999,0.8068486452102658
2023-01-27 16:33:18.778999,0.7866817302163942
2023-01-27 16:33:18.783999,0.7630948424339291
2023-01-27 16:33:18.788999,0.7377503342169603
2023-01-27 16:33:18.793999,0.7127299308776855
2023-01-27 16:33:18.798999,0.6898070590676925
2023-01-27 16:33:18.803999,0.66993772983551
2023-01-27 16:33:18.808999,0.6532610963002214
2023-01-27 16:33:18.813999,0.6394302845001217
2023-01-27 16:33:18.818999,0.6279957159667927
2023-01-27 16:33:18.823999,0.6187313795089717
2023-01-27 16:33:18.828999,0.6117992998790317
2023-01-27 16:33:18.833999,0.6075766086578369
2023-01-27 16:33:18.838999,0.6061869110307051
2023-01-27 16:33:18.843999,0.607119798660278
2023-01-27 16:33:18.848999,0.6092703450029621
2023-01-27 16:33:18.853999,0.611302852630615
2023-01-27 16:33:18.858999,0.6120218756455016
2023-01-27 16:33:18.863999,0.6106297373771664
2023-01-27 16:33:18.868999,0.606916530932904
2023-01-27 16:33:18.873999,0.6013020277023313
2023-01-27 16:33:18.878999,0.5945970345649968
2023-01-27 16:33:18.883999,0.5876229405403134
2023-01-27 16:33:18.888999,0.581007516578388
2023-01-27 16:33:18.893999,0.5752180218696592
2023-01-27 16:33:18.898999,0.5706044526015103
2023-01-27 16:33:18.903999,0.5673567652702329
2023-01-27 16:33:18.908999,0.5655046932842923
2023-01-27 16:33:18.913999,0.5649527311325073
2023-01-27 16:33:18.918999,0.5653727269835183
2023-01-27 16:33:18.923999,0.5660345554351802
2023-01-27 16:33:18.928999,0.5659242234212665
2023-01-27 16:33:18.933999,0.5641834139823911
2023-01-27 16:33:18.938999,0.5604469752801509
2023-01-27 16:33:18.943999,0.5548316240310666
2023-01-27 16:33:18.948999,0.5478040536272254
2023-01-27 16:33:18.953999,0.5400947928428648
2023-01-27 16:33:18.958999,0.5324870502422429
2023-01-27 16:33:18.963999,0.5255022048950194
2023-01-27 16:33:18.968999,0.5193780126612241
2023-01-27 16:33:18.973999,0.5143954753875731
2023-01-27 16:33:18.978999,0.5110068549624818
2023-01-27 16:33:18.983999,0.5094912052154539
2023-01-27 16:33:18.988999,0.5096270435977227
2023-01-27 16:33:18.993999,0.5107893943786621
2023-01-27 16:33:18.998999,0.5121763498943261
2023-01-27 16:33:19.003999,0.5129049420356748
2023-01-27 16:33:19.008999,0.5122920946154693
2023-01-27 16:33:19.013999,0.5103806853294369
2023-01-27 16:33:19.018999,0.5080118346714936
2023-01-27 16:33:19.023999,0.5061014890670773
2023-01-27 16:33:19.028999,0.5049141501497436
2023-01-27 16:33:19.033999,0.5040820837020874
2023-01-27 16:33:19.038999,0.5029896625601117
2023-01-27 16:33:19.043999,0.5009808540344236
2023-01-27 16:33:19.048999,0.4977124272737428
2023-01-27 16:33:19.053999,0.4938407838344572
2023-01-27 16:33:19.058999,0.4911614470599138
2023-01-27 16:33:19.063999,0.4916050136089323
2023-01-27 16:33:19.068999,0.4960537275701588
2023-01-27 16:33:19.073999,0.5040820837020874
2023-01-27 16:33:19.078999,0.5142298213384104
2023-01-27 16:33:19.083999,0.5241078138351438
2023-01-27 16:33:19.088999,0.5308795718501941
2023-01-27 16:33:19.093999,0.5325701236724851
2023-01-27 16:33:19.098999,0.5289980561388506
2023-01-27 16:33:19.103999,0.521222949028015
2023-01-27 16:33:19.108999,0.5105514533674527
2023-01-27 16:33:19.113999,0.49848061800003035
2023-01-27 16:33:19.118999,0.48681815959455227
2023-01-27 16:33:19.123999,0.47682008147239663
2023-01-27 16:33:19.128999,0.4684482565037862
2023-01-27 16:33:19.133999,0.4611696898937222
2023-01-27 16:33:19.138999,0.4549847892823564
2023-01-27 16:33:19.143999,0.4498465955257414
2023-01-27 16:33:19.148999,0.4448338342618109
2023-01-27 16:33:19.153999,0.4393168389797209
2023-01-27 16:33:19.158999,0.43467876537827743
2023-01-27 16:33:19.163999,0.43373942375183094
2023-01-27 16:33:19.168999,0.43903572609597896
2023-01-27 16:33:19.173999,0.4529718756675719
2023-01-27 16:33:19.178999,0.47833273023668793
2023-01-27 16:33:19.183999,0.5154291987419126
2023-01-27 16:33:19.188999,0.5582059426059813
2023-01-27 16:33:19.193999,0.5959169268608091
2023-01-27 16:33:19.198999,0.619958613002807
2023-01-27 16:33:19.203999,0.6273138523101802
2023-01-27 16:33:19.208999,0.6171389760980242
2023-01-27 16:33:19.213999,0.5879354476928709
2023-01-27 16:33:19.218999,0.5411989825668293
2023-01-27 16:33:19.223999,0.4856669902801512
2023-01-27 16:33:19.228999,0.434077945595641
2023-01-27 16:33:19.233999,0.39549094438552845
2023-01-27 16:33:19.238999,0.372318613608028
2023-01-27 16:33:19.243999,0.3632766008377074
2023-01-27 16:33:19.248999,0.3657536724354173
2023-01-27 16:33:19.253999,0.3752728402614592
2023-01-27 16:33:19.258999,0.38611709655018367
2023-01-27 16:33:19.263999,0.39443314075469954
2023-01-27 16:33:19.268999,0.39971525207632314
2023-01-27 16:33:19.273999,0.4028713703155516
2023-01-27 16:33:19.278999,0.40435788376893167
2023-01-27 16:33:19.283999,0.40460228919982894
2023-01-27 16:33:19.288999,0.40442093938734575
2023-01-27 16:33:19.293999,0.40392917394638045
2023-01-27 16:33:19.298999,0.4021306032341407
2023-01-27 16:33:19.303999,0.3983998298645018
2023-01-27 16:33:19.308999,0.3934975190785608
2023-01-27 16:33:19.313999,0.3885912895202635
2023-01-27 16:33:19.318999,0.3842682702567309
2023-01-27 16:33:19.323999,0.38106662034988387
2023-01-27 16:33:19.328999,0.3799165359289435
2023-01-27 16:33:19.333999,0.38123488426208496
2023-01-27 16:33:19.338999,0.38426489552976173
2023-01-27 16:33:19.343999,0.3878941237926482
2023-01-27 16:33:19.348999,0.39147068207106517
2023-01-27 16:33:19.353999,0.39440912008285506
2023-01-27 16:33:19.358999,0.3958865088880152
2023-01-27 16:33:19.363999,0.3956351876258849
2023-01-27 16:33:19.368999,0.3944368151197478
2023-01-27 16:33:19.373999,0.3932551741600035
2023-01-27 16:33:19.378999,0.39238623281875823
2023-01-27 16:33:19.383999,0.39183676242828347
2023-01-27 16:33:19.388999,0.39182753238851803
2023-01-27 16:33:19.393999,0.392365664243698
2023-01-27 16:33:19.398999,0.3929197629463835
2023-01-27 16:33:19.403999,0.3931109309196473
2023-01-27 16:33:19.408999,0.3933072509916831
2023-01-27 16:33:19.413999,0.3941446542739867
2023-01-27 16:33:19.418999,0.39598712367638034
2023-01-27 16:33:19.423999,0.399241268634796
2023-01-27 16:33:19.428999,0.4045432504137873
2023-01-27 16:33:19.433999,0.4119827449321745
2023-01-27 16:33:19.438999,0.42045757058301786
2023-01-27 16:33:19.443999,0.4281860589981077
2023-01-27 16:33:19.448999,0.43350558535787775
2023-01-27 16:33:19.453999,0.4349895417690276
2023-01-27 16:33:19.458999,0.4315307882196856
2023-01-27 16:33:19.463999,0.4229692816734312
2023-01-27 16:33:19.468999,0.41029876928810644
2023-01-27 16:33:19.473999,0.3947937488555908
2023-01-27 16:33:19.478999,0.37719775264470007
2023-01-27 16:33:19.483999,0.3579636514186858
2023-01-27 16:33:19.488999,0.3377034688157007
2023-01-27 16:33:19.493999,0.3169505000114439
2023-01-27 16:33:19.498999,0.2959498219510714
2023-01-27 16:33:19.503999,0.2751680314540861
2023-01-27 16:33:19.508999,0.25566022055239557
2023-01-27 16:33:19.513999,0.23855428397655482
2023-01-27 16:33:19.518999,0.22453296835364195
2023-01-27 16:33:19.523999,0.2141050547361372
2023-01-27 16:33:19.528999,0.20783683284928803
2023-01-27 16:33:19.533999,0.20578703284263614
2023-01-27 16:33:19.538999,0.20701942035536755
2023-01-27 16:33:19.543999,0.21004220843315116
2023-01-27 16:33:19.548999,0.21340861340290568
2023-01-27 16:33:19.553999,0.21566769480705267
2023-01-27 16:33:19.558999,0.21535211072962965
2023-01-27 16:33:19.563999,0.21165291965007782
2023-01-27 16:33:19.568999,0.2049217375032104
2023-01-27 16:33:19.573999,0.1962188929319381
2023-01-27 16:33:19.578999,0.18671154777187057
2023-01-27 16:33:19.583999,0.17773172259330733
2023-01-27 16:33:19.588999,0.17078259328133386
2023-01-27 16:33:19.593999,0.166817307472229
2023-01-27 16:33:19.598999,0.16567434342087484
2023-01-27 16:33:19.603999,0.166528820991516
2023-01-27 16:33:19.608999,0.16858256578684122
2023-01-27 16:33:19.613999,0.17107248306274406
2023-01-27 16:33:19.618999,0.17315356948167604
2023-01-27 16:33:19.623999,0.17431795597076405
2023-01-27 16:33:19.628999,0.17464346066372385
2023-01-27 16:33:19.633999,0.17424583435058588
2023-01-27 16:33:19.638999,0.17282790393819705
2023-01-27 16:33:19.643999,0.170158952474594
2023-01-27 16:33:19.648999,0.16666925736464341
2023-01-27 16:33:19.653999,0.16321122646331782
2023-01-27 16:33:19.658999,0.16056740023602573
2023-01-27 16:33:19.663999,0.15946090221405013
2023-01-27 16:33:19.668999,0.1604848040183962
2023-01-27 16:33:19.673999,0.16342759132385257
2023-01-27 16:33:19.678999,0.16694517108854068
2023-01-27 16:33:19.683999,0.1693896502256392
2023-01-27 16:33:19.688999,0.1698652196150939
2023-01-27 16:33:19.693999,0.16842803359031666
2023-01-27 16:33:19.698999,0.1659209578571799
2023-01-27 16:33:19.703999,0.16410073637962336
2023-01-27 16:33:19.708999,0.16532650061185952
2023-01-27 16:33:19.713999,0.17124077677726748
2023-01-27 16:33:19.718999,0.18161707491660592
2023-01-27 16:33:19.723999,0.194560095667839
2023-01-27 16:33:19.728999,0.20737697294675436
2023-01-27 16:33:19.733999,0.2170860767364501
2023-01-27 16:33:19.738999,0.22101547584393863
2023-01-27 16:33:19.743999,0.2179996222257614
2023-01-27 16:33:19.748999,0.20909650128493482
2023-01-27 16:33:19.753999,0.19686798751354212
2023-01-27 16:33:19.758999,0.18422183033120945
2023-01-27 16:33:19.763999,0.17400543391704543
2023-01-27 16:33:19.768999,0.16870024576008483
2023-01-27 16:33:19.773999,0.16938965022563934
2023-01-27 16:33:19.778999,0.17502768482691863
2023-01-27 16:33:19.783999,0.1831408441066741
2023-01-27 16:33:19.788999,0.1910415768193311
2023-01-27 16:33:19.793999,0.19633910059928897
2023-01-27 16:33:19.798999,0.19746858324480254
2023-01-27 16:33:19.803999,0.195040911436081
2023-01-27 16:33:19.808999,0.19256961346854742
2023-01-27 16:33:19.813999,0.19501686096191412
2023-01-27 16:33:19.818999,0.2063405425618328
2023-01-27 16:33:19.823999,0.22804856300354007
2023-01-27 16:33:19.828999,0.25851565752189776
2023-01-27 16:33:19.833999,0.29223680496215826
2023-01-27 16:33:19.838999,0.32044567730463597
2023-01-27 16:33:19.843999,0.3344760537147521
2023-01-27 16:33:19.848999,0.32963259618786833
2023-01-27 16:33:19.853999,0.306276500225067
2023-01-27 16:33:19.858999,0.26863389526547016
2023-01-27 16:33:19.863999,0.2239857167005538
2023-01-27 16:33:19.868999,0.18181484691814193
2023-01-27 16:33:19.873999,0.150589942932129
2023-01-27 16:33:19.878999,0.13375594923460615
2023-01-27 16:33:19.883999,0.1295304298400879
2023-01-27 16:33:19.888999,0.1347873916059315
2023-01-27 16:33:19.893999,0.14777719974517825
2023-01-27 16:33:19.898999,0.16673154735438292
2023-01-27 16:33:19.903999,0.1879008710384368
2023-01-27 16:33:19.908999,0.20690018448844974
2023-01-27 16:33:19.913999,0.22153358161449438
2023-01-27 16:33:19.918999,0.23213687909666766
2023-01-27 16:33:19.923999,0.23963610827922813
2023-01-27 16:33:19.928999,0.2444774142934438
2023-01-27 16:33:19.933999,0.24718484282493597
2023-01-27 16:33:19.938999,0.2486215636140812
2023-01-27 16:33:19.943999,0.24932444095611572
2023-01-27 16:33:19.948999,0.249313842350758
2023-01-27 16:33:19.953999,0.24884364008903503
2023-01-27 16:33:19.958999,0.248812963218704
2023-01-27 16:33:19.963999,0.25018990039825423
2023-01-27 16:33:19.968999,0.25337015484311864
2023-01-27 16:33:19.973999,0.2581954002380371
2023-01-27 16:33:19.978999,0.2642014668391549
2023-01-27 16:33:19.983999,0.2706964910030363
2023-01-27 16:33:19.988999,0.2769953048051053
2023-01-27 16:33:19.993999,0.28293311595916737
2023-01-27 16:33:19.998999,0.2890769275669668
2023-01-27 16:33:20.003999,0.296251595020294
2023-01-27 16:33:20.008999,0.30482400344356225
2023-01-27 16:33:20.013999,0.3143781423568724
2023-01-27 16:33:20.018999,0.3239044677021259
2023-01-27 16:33:20.023999,0.3322883546352385
2023-01-27 16:33:20.028999,0.33890562981565875
2023-01-27 16:33:20.033999,0.3440922498703001
2023-01-27 16:33:20.038999,0.34916119890585406
2023-01-27 16:33:20.043999,0.3558480739593504
2023-01-27 16:33:20.048999,0.3654975353471931
2023-01-27 16:33:20.053999,0.3784942626953125
2023-01-27 16:33:20.058999,0.3942027296606337
2023-01-27 16:33:20.063999,0.4112855792045593
2023-01-27 16:33:20.068999,0.4281037571748661
2023-01-27 16:33:20.073999,0.4430431127548218
2023-01-27 16:33:20.078999,0.45478063153586223
2023-01-27 16:33:20.083999,0.46246787905693043
2023-01-27 16:33:20.088999,0.46574473612123346
2023-01-27 16:33:20.093999,0.4646315276622772
2023-01-27 16:33:20.098999,0.45946366979214354
2023-01-27 16:33:20.103999,0.45085629820823653
2023-01-27 16:33:20.108999,0.4395244042583161
2023-01-27 16:33:20.113999,0.42602241039276106
2023-01-27 16:33:20.118999,0.41072503405166405
2023-01-27 16:33:20.123999,0.3940965831279753
2023-01-27 16:33:20.128999,0.3768754499631892
2023-01-27 16:33:20.133999,0.3599590063095093
2023-01-27 16:33:20.138999,0.3442177732964049
2023-01-27 16:33:20.143999,0.3304131925106047
2023-01-27 16:33:20.148999,0.31906327839684184
2023-01-27 16:33:20.153999,0.3102431893348693
2023-01-27 16:33:20.158999,0.30363551469220723
2023-01-27 16:33:20.163999,0.2988719940185545
2023-01-27 16:33:20.168999,0.29572681447960397
2023-01-27 16:33:20.173999,0.29396772384643544
2023-01-27 16:33:20.178999,0.2932463397062445
2023-01-27 16:33:20.183999,0.2932465076446533
2023-01-27 16:33:20.188999,0.29375819957775007
2023-01-27 16:33:20.193999,0.29452067613601685
2023-01-27 16:33:20.198999,0.29522825102005784
2023-01-27 16:33:20.203999,0.29584288597106934
2023-01-27 16:33:20.208999,0.29671034384506223
2023-01-27 16:33:20.213999,0.29822289943695046
2023-01-27 16:33:20.218999,0.30051699621958333
2023-01-27 16:33:20.223999,0.30353587865829446
2023-01-27 16:33:20.228999,0.307074946935951
2023-01-27 16:33:20.233999,0.3106037974357604
2023-01-27 16:33:20.238999,0.3133482117684961
2023-01-27 16:33:20.243999,0.31481087207794173
2023-01-27 16:33:20.248999,0.3150651236242246
2023-01-27 16:33:20.253999,0.3144502639770507
2023-01-27 16:33:20.258999,0.3132805681091744
2023-01-27 16:33:20.263999,0.3119981288909912
2023-01-27 16:33:20.268999,0.31121714424173097
2023-01-27 16:33:20.273999,0.3112769126892089
2023-01-27 16:33:20.278999,0.31193515596079746
2023-01-27 16:33:20.283999,0.3126712739467619
2023-01-27 16:33:20.288999,0.3130192273455097
2023-01-27 16:33:20.293999,0.3125029802322388
2023-01-27 16:33:20.298999,0.3107824751069692
2023-01-27 16:33:20.303999,0.30831992626190174
2023-01-27 16:33:20.308999,0.3066291277403521
2023-01-27 16:33:20.313999,0.3074544668197631
2023-01-27 16:33:20.318999,0.311756081966736
2023-01-27 16:33:20.323999,0.319450706243515
2023-01-27 16:33:20.328999,0.3295153743279999
2023-01-27 16:33:20.333999,0.339957296848297
2023-01-27 16:33:20.338999,0.3482552313381376
2023-01-27 16:33:20.343999,0.35255452990531905
2023-01-27 16:33:20.348999,0.35242187802110225
2023-01-27 16:33:20.353999,0.34832340478897095
2023-01-27 16:33:20.358999,0.34090131980118726
2023-01-27 16:33:20.363999,0.33115845918655384
2023-01-27 16:33:20.368999,0.320785983019996
2023-01-27 16:33:20.373999,0.31166157126426686
2023-01-27 16:33:20.378999,0.3052548926591076
2023-01-27 16:33:20.383999,0.3027425408363341
2023-01-27 16:33:20.388999,0.30489189090730434
2023-01-27 16:33:20.393999,0.31101247668266285
2023-01-27 16:33:20.398999,0.3185159322389334
2023-01-27 16:33:20.403999,0.3244751691818235
2023-01-27 16:33:20.408999,0.3277374115056568
2023-01-27 16:33:20.413999,0.3295236825942992
2023-01-27 16:33:20.418999,0.3329070633011851
2023-01-27 16:33:20.423999,0.3422411382198334
2023-01-27 16:33:20.428999,0.36159343640282576
2023-01-27 16:33:20.433999,0.39157232642173767
2023-01-27 16:33:20.438999,0.42720656999277334
2023-01-27 16:33:20.443999,0.4595830142498015
2023-01-27 16:33:20.448999,0.4796088172613672
2023-01-27 16:33:20.453999,0.48061847686767567
2023-01-27 16:33:20.458999,0.45990878585875045
2023-01-27 16:33:20.463999,0.42056521773338285
2023-01-27 16:33:20.468999,0.37153791279285403
2023-01-27 16:33:20.473999,0.3235856890678406
2023-01-27 16:33:20.478999,0.2842825870850506
2023-01-27 16:33:20.483999,0.25720974802970875
2023-01-27 16:33:20.488999,0.2440290259544558
2023-01-27 16:33:20.493999,0.24417977035045624
2023-01-27 16:33:20.498999,0.25298719592878544
2023-01-27 16:33:20.503999,0.263965129852295
2023-01-27 16:33:20.508999,0.27449067248942693
2023-01-27 16:33:20.513999,0.2866353690624237
2023-01-27 16:33:20.518999,0.3012403978666295
2023-01-27 16:33:20.523999,0.3143060207366942
2023-01-27 16:33:20.528999,0.32155192955827405
2023-01-27 16:33:20.533999,0.3239943683147428
2023-01-27 16:33:20.538999,0.3259907595962068
2023-01-27 16:33:20.543999,0.3294275403022766
2023-01-27 16:33:20.548999,0.33299369076212487
2023-01-27 16:33:20.553999,0.3360627293586729
2023-01-27 16:33:20.558999,0.33967257523733785
2023-01-27 16:33:20.563999,0.34356337785720803
2023-01-27 16:33:20.568999,0.34540100549506664
2023-01-27 16:33:20.573999,0.34387588500976546
2023-01-27 16:33:20.578999,0.3404207204903607
2023-01-27 16:33:20.583999,0.3370964527130127
2023-01-27 16:33:20.588999,0.33465546077019387
2023-01-27 16:33:20.593999,0.33341825008392323
2023-01-27 16:33:20.598999,0.3341895532506797
2023-01-27 16:33:20.603999,0.33716857433319086
2023-01-27 16:33:20.608999,0.34125520322244646
2023-01-27 16:33:20.613999,0.34543853998184204
2023-01-27 16:33:20.618999,0.3498751084237738
2023-01-27 16:33:20.623999,0.3548624217510222
2023-01-27 16:33:20.628999,0.35982856418251996
2023-01-27 16:33:20.633999,0.36419016122817977
2023-01-27 16:33:20.638999,0.36832651840785136
2023-01-27 16:33:20.643999,0.37291687726974476
2023-01-27 16:33:20.648999,0.37809297022046984
2023-01-27 16:33:20.653999,0.3839514851570128
2023-01-27 16:33:20.658999,0.3911029933618558
2023-01-27 16:33:20.663999,0.3998903632164
2023-01-27 16:33:20.668999,0.40963358582113396
2023-01-27 16:33:20.673999,0.41931509971618636
2023-01-27 16:33:20.678999,0.4284553227774178
2023-01-27 16:33:20.683999,0.4367204606533049
2023-01-27 16:33:20.688999,0.4432940474826711
2023-01-27 16:33:20.693999,0.44734638929367065
2023-01-27 16:33:20.698999,0.44865460007560387
2023-01-27 16:33:20.703999,0.4471300244331358
2023-01-27 16:33:20.708999,0.44217810515982925
2023-01-27 16:33:20.713999,0.4331384301185607
2023-01-27 16:33:20.718999,0.41998743263472954
2023-01-27 16:33:20.723999,0.4031117856502531
2023-01-27 16:33:20.728999,0.38286886665636793
2023-01-27 16:33:20.733999,0.35998305678367604
2023-01-27 16:33:20.738999,0.3359923536763058
2023-01-27 16:33:20.743999,0.312671273946762
2023-01-27 16:33:20.748999,0.2912177125807119
2023-01-27 16:33:20.753999,0.27237933874130227
2023-01-27 16:33:20.758999,0.2569116060809461
2023-01-27 16:33:20.763999,0.24528563022613525
2023-01-27 16:33:20.768999,0.23718797546292789
2023-01-27 16:33:20.773999,0.23179888725280753
2023-01-27 16:33:20.778999,0.22831519518196963
2023-01-27 16:33:20.783999,0.22581279277801514
2023-01-27 16:33:20.788999,0.22304234305314224
2023-01-27 16:33:20.793999,0.21905741095542897
2023-01-27 16:33:20.798999,0.21397569811103614
2023-01-27 16:33:20.803999,0.20874401926994313
2023-01-27 16:33:20.808999,0.20435207907841402
2023-01-27 16:33:20.813999,0.20155589282512648
2023-01-27 16:33:20.818999,0.20088287461231774
2023-01-27 16:33:20.823999,0.20222902297973616
2023-01-27 16:33:20.828999,0.20458069944829824
2023-01-27 16:33:20.833999,0.2066524922847746
2023-01-27 16:33:20.838999,0.20777551930765015
2023-01-27 16:33:20.843999,0.2079266309738158
2023-01-27 16:33:20.848999,0.20722226838402355
2023-01-27 16:33:20.853999,0.2058351039886473
2023-01-27 16:33:20.858999,0.20413738624818223
2023-01-27 16:33:20.863999,0.20239731669425948
2023-01-27 16:33:20.868999,0.20045932003488226
2023-01-27 16:33:20.873999,0.19814214110374442
2023-01-27 16:33:20.878999,0.19580466984406117
2023-01-27 16:33:20.883999,0.19412736594676963
2023-01-27 16:33:20.888999,0.1934798628278285
2023-01-27 16:33:20.893999,0.1938148438930511
2023-01-27 16:33:20.898999,0.19489032275513965
2023-01-27 16:33:20.903999,0.19612273573875427
2023-01-27 16:33:20.908999,0.19643403902357875
2023-01-27 16:33:20.913999,0.19480049610137928
2023-01-27 16:33:20.918999,0.1909996867737516
2023-01-27 16:33:20.923999,0.18561701476573939
2023-01-27 16:33:20.928999,0.17958482686630114
2023-01-27 16:33:20.933999,0.17405351996421806
2023-01-27 16:33:20.938999,0.17032670063986474
2023-01-27 16:33:20.943999,0.16922137141227714
2023-01-27 16:33:20.948999,0.17040498657404035
2023-01-27 16:33:20.953999,0.17265915870666487
2023-01-27 16:33:20.958999,0.17470297930730846
2023-01-27 16:33:20.963999,0.17556807398796073
2023-01-27 16:33:20.968999,0.1746068212681563
2023-01-27 16:33:20.973999,0.1717696636915205
2023-01-27 16:33:20.978999,0.1677909360445165
2023-01-27 16:33:20.983999,0.16359588503837577
2023-01-27 16:33:20.988999,0.1594975133879531
2023-01-27 16:33:20.993999,0.15522977709770197
2023-01-27 16:33:20.998999,0.15055161977378015
2023-01-27 16:33:21.003999,0.1454452723264694
2023-01-27 16:33:21.008999,0.13997727254115716
2023-01-27 16:33:21.013999,0.13445875048637385
2023-01-27 16:33:21.018999,0.12957555659812214
2023-01-27 16:33:21.023999,0.12587627768516535
2023-01-27 16:33:21.028999,0.12328564187412788
2023-01-27 16:33:21.033999,0.12166917324066154
2023-01-27 16:33:21.038999,0.12191649616599858
2023-01-27 16:33:21.043999,0.12618879973888386
2023-01-27 16:33:21.048999,0.1371976054223429
2023-01-27 16:33:21.053999,0.1572251319885253
2023-01-27 16:33:21.058999,0.1868419733373703
2023-01-27 16:33:21.063999,0.2232404649257658
2023-01-27 16:33:21.068999,0.2595715224881619
2023-01-27 16:33:21.073999,0.2867315411567687
2023-01-27 16:33:21.078999,0.2966960574077364
2023-01-27 16:33:21.083999,0.2851688861846924
2023-01-27 16:33:21.088999,0.25278405810278154
2023-01-27 16:33:21.093999,0.20530621707439417
2023-01-27 16:33:21.098999,0.152391481239715
2023-01-27 16:33:21.103999,0.10438402742147437
2023-01-27 16:33:21.108999,0.06878932037850782
2023-01-27 16:33:21.113999,0.04885037988424301
2023-01-27 16:33:21.118999,0.04409860568346848
2023-01-27 16:33:21.123999,0.05096594616770742
2023-01-27 16:33:21.128999,0.06343410109877642
2023-01-27 16:33:21.133999,0.0752709358930588
2023-01-27 16:33:21.138999,0.08307574292400252
2023-01-27 16:33:21.143999,0.08707483857870102
2023-01-27 16:33:21.148999,0.08901322769028312
2023-01-27 16:33:21.153999,0.09012798964977249
2023-01-27 16:33:21.158999,0.09121333084030459
2023-01-27 16:33:21.163999,0.09315709769725788
2023-01-27 16:33:21.168999,0.09620089493540256
2023-01-27 16:33:21.173999,0.09916722774505606
2023-01-27 16:33:21.178999,0.10037434490398775
2023-01-27 16:33:21.183999,0.09923934936523433
2023-01-27 16:33:21.188999,0.09654607095829722
2023-01-27 16:33:21.193999,0.09349366277456275
2023-01-27 16:33:21.198999,0.09103740755587936
2023-01-27 16:33:21.203999,0.08983950316905973
2023-01-27 16:33:21.208999,0.09014073272770506
2023-01-27 16:33:21.213999,0.0916185006499289
2023-01-27 16:33:21.218999,0.09376077708138958
2023-01-27 16:33:21.223999,0.09640257060527804
2023-01-27 16:33:21.228999,0.09969631910274093
2023-01-27 16:33:21.233999,0.10371088981628414
2023-01-27 16:33:21.238999,0.10831450360725964
2023-01-27 16:33:21.243999,0.11327902972698208
2023-01-27 16:33:21.248999,0.1182006042257838
2023-01-27 16:33:21.253999,0.12243847548961624
2023-01-27 16:33:21.258999,0.12544743299872718
2023-01-27 16:33:21.263999,0.1272225379943847
2023-01-27 16:33:21.268999,0.1283885785169618
2023-01-27 16:33:21.273999,0.13003528118133525
2023-01-27 16:33:21.278999,0.13353539869104877
2023-01-27 16:33:21.283999,0.14015635848045332
2023-01-27 16:33:21.288999,0.1504014559548914
2023-01-27 16:33:21.293999,0.1636199206113815
2023-01-27 16:33:21.298999,0.17830069996423586
2023-01-27 16:33:21.303999,0.19270896911621085
2023-01-27 16:33:21.308999,0.20537505414927165
2023-01-27 16:33:21.313999,0.21540324389934518
2023-01-27 16:33:21.318999,0.22260714299844073
2023-01-27 16:33:21.323999,0.22723118960857386
2023-01-27 16:33:21.328999,0.22936087303353853
2023-01-27 16:33:21.333999,0.22862553596496565
2023-01-27 16:33:21.338999,0.22444051279534652
2023-01-27 16:33:21.343999,0.21634082496166207
2023-01-27 16:33:21.348999,0.20409212361251308
2023-01-27 16:33:21.353999,0.18780469894409163
2023-01-27 16:33:21.358999,0.16812750456445852
2023-01-27 16:33:21.363999,0.14619052410125716
2023-01-27 16:33:21.368999,0.12327615935282553
2023-01-27 16:33:21.373999,0.10065774619579307
2023-01-27 16:33:21.378999,0.0796593413909962
2023-01-27 16:33:21.383999,0.0614716634154319
2023-01-27 16:33:21.388999,0.046679924107443635
2023-01-27 16:33:21.393999,0.035075150430202366
2023-01-27 16:33:21.398999,0.025968039847903943
2023-01-27 16:33:21.403999,0.01858333870768538
2023-01-27 16:33:21.408999,0.01231339568941891
2023-01-27 16:33:21.413999,0.007019837852567367
2023-01-27 16:33:21.418999,0.0032287400836615086
2023-01-27 16:33:21.423999,0.001754959463141775
2023-01-27 16:33:21.428999,0.002933476447896704
2023-01-27 16:33:21.433999,0.006226500030606869
2023-01-27 16:33:21.438999,0.010434873426221514
2023-01-27 16:33:21.443999,0.014063715934753413
2023-01-27 16:33:21.448999,0.015701527410654254
2023-01-27 16:33:21.453999,0.01464068889617898
2023-01-27 16:33:21.458999,0.011418733095650347
2023-01-27 16:33:21.463999,0.007596810813993168
2023-01-27 16:33:21.468999,0.004897849214098689
2023-01-27 16:33:21.473999,0.0045196218416093835
2023-01-27 16:33:21.478999,0.006871741538380765
2023-01-27 16:33:21.483999,0.011395215988159114
2023-01-27 16:33:21.488999,0.01661443546220473
2023-01-27 16:33:21.493999,0.02086718939244737
2023-01-27 16:33:21.498999,0.023269632640947
2023-01-27 16:33:21.503999,0.02394437789916978
2023-01-27 16:33:21.508999,0.02350718150116998
2023-01-27 16:33:21.513999,0.022622149437665835
2023-01-27 16:33:21.518999,0.021788600279215798
2023-01-27 16:33:21.523999,0.0209633521735668
2023-01-27 16:33:21.528999,0.01934277473363838
2023-01-27 16:33:21.533999,0.015962919220328303
2023-01-27 16:33:21.538999,0.010635059412073931
2023-01-27 16:33:21.543999,0.004110932350158612
2023-01-27 16:33:21.548999,-0.002455793344771496
2023-01-27 16:33:21.553999,-0.007837216369807701
2023-01-27 16:33:21.558999,-0.01086266669735348
2023-01-27 16:33:21.563999,-0.01098652742803086
2023-01-27 16:33:21.568999,-0.008845848840252399
2023-01-27 16:33:21.573999,-0.005841851234435971
2023-01-27 16:33:21.578999,-0.003176686617241028
2023-01-27 16:33:21.583999,-0.001538594602607039
2023-01-27 16:33:21.588999,-0.0012583591870133687
2023-01-27 16:33:21.593999,-0.001995364902541003
2023-01-27 16:33:21.598999,-0.0024217067321698946
2023-01-27 16:33:21.603999,-0.0009856622200458862
2023-01-27 16:33:21.608999,0.0029503565681093372
2023-01-27 16:33:21.613999,0.009111365303397102
2023-01-27 16:33:21.618999,0.01698738153594984
2023-01-27 16:33:21.623999,0.025699337944388275
2023-01-27 16:33:21.628999,0.03356561846866762
2023-01-27 16:33:21.633999,0.03884951397776598
2023-01-27 16:33:21.638999,0.040864534034332524
2023-01-27 16:33:21.643999,0.03959476947784416
2023-01-27 16:33:21.648999,0.03473419544232339
2023-01-27 16:33:21.653999,0.02630035206675513
2023-01-27 16:33:21.658999,0.015776523008093974
2023-01-27 16:33:21.663999,0.005168716423213318
2023-01-27 16:33:21.668999,-0.004862756327768613
2023-01-27 16:33:21.673999,-0.014520486816763795
2023-01-27 16:33:21.678999,-0.0230908990339944
2023-01-27 16:33:21.683999,-0.029714107513427672
2023-01-27 16:33:21.688999,-0.035500875858596806
2023-01-27 16:33:21.693999,-0.04207094758749
2023-01-27 16:33:21.698999,-0.0477950658703296
2023-01-27 16:33:21.703999,-0.048754215240478495
2023-01-27 16:33:21.708999,-0.044204035611205394
2023-01-27 16:33:21.713999,-0.03697435185313213
2023-01-27 16:33:21.718999,-0.026099353716739812
2023-01-27 16:33:21.723999,-0.0034858784638345077
2023-01-27 16:33:21.728999,0.03682502811044967
2023-01-27 16:33:21.733999,0.08772393316030494
2023-01-27 16:33:21.738999,0.13254784585257134
2023-01-27 16:33:21.743999,0.15958110988140098
2023-01-27 16:33:21.748999,0.16868099527946973
2023-01-27 16:33:21.753999,0.16333143413066853
2023-01-27 16:33:21.758999,0.1420587128336791
2023-01-27 16:33:21.763999,0.10166744887828816
2023-01-27 16:33:21.768999,0.046057663284416975
2023-01-27 16:33:21.773999,-0.012549161911010713
2023-01-27 16:33:21.778999,-0.06102736461439626
2023-01-27 16:33:21.783999,-0.09195506572723378
2023-01-27 16:33:21.788999,-0.1041883155021529
2023-01-27 16:33:21.793999,-0.10058562457561485
2023-01-27 16:33:21.798999,-0.08646010665042526
2023-01-27 16:33:21.803999,-0.06827513873577101
2023-01-27 16:33:21.808999,-0.05165188641341839
2023-01-27 16:33:21.813999,-0.039859216660261154
2023-01-27 16:33:21.818999,-0.03381874123436799
2023-01-27 16:33:21.823999,-0.03293554112315176
2023-01-27 16:33:21.828999,-0.0358174939953177
2023-01-27 16:33:21.833999,-0.040772758424282005
2023-01-27 16:33:21.838999,-0.04612977868996161
2023-01-27 16:33:21.843999,-0.05031685158610339
2023-01-27 16:33:21.848999,-0.05197749466759553
2023-01-27 16:33:21.853999,-0.05038897320628162
2023-01-27 16:33:21.858999,-0.04584603774448003
2023-01-27 16:33:21.863999,-0.039570730179548166
2023-01-27 16:33:21.868999,-0.03327288492452472
2023-01-27 16:33:21.873999,-0.028632283210754297
2023-01-27 16:33:21.878999,-0.02667768514835809
2023-01-27 16:33:21.883999,-0.027237933129072057
2023-01-27 16:33:21.888999,-0.029016324090607316
2023-01-27 16:33:21.893999,-0.0303632020950317
2023-01-27 16:33:21.898999,-0.030047273419811393
2023-01-27 16:33:21.903999,-0.02752641960978507
2023-01-27 16:33:21.908999,-0.022937032624380797
2023-01-27 16:33:21.913999,-0.016996663063764562
2023-01-27 16:33:21.918999,-0.010625710332841909
2023-01-27 16:33:21.923999,-0.004399418830871511
2023-01-27 16:33:21.928999,0.0016152323034238497
2023-01-27 16:33:21.933999,0.007548729889094746
2023-01-27 16:33:21.938999,0.013515233425772327
2023-01-27 16:33:21.943999,0.019737284630536953
2023-01-27 16:33:21.948999,0.02659653646045007
2023-01-27 16:33:21.953999,0.0344260558485984
2023-01-27 16:33:21.958999,0.04339355691490444
2023-01-27 16:33:21.963999,0.0535623244941234
2023-01-27 16:33:21.968999,0.06475657072209644
2023-01-27 16:33:21.973999,0.07623255252838124
2023-01-27 16:33:21.978999,0.0866937978347257
2023-01-27 16:33:21.983999,0.09481589496135698
2023-01-27 16:33:21.988999,0.099794247444692
2023-01-27 16:33:21.993999,0.10157128423452359
2023-01-27 16:33:21.998999,0.10084259075132919
2023-01-27 16:33:22.003999,0.09880661964416489
2023-01-27 16:33:22.008999,0.09645636576485765
2023-01-27 16:33:22.013999,0.0937340706586837
2023-01-27 16:33:22.018999,0.08931538535695119
2023-01-27 16:33:22.023999,0.08128106594085685
2023-01-27 16:33:22.028999,0.06817094766612375
2023-01-27 16:33:22.033999,0.04986008256673807
2023-01-27 16:33:22.038999,0.027964092794275263
2023-01-27 16:33:22.043999,0.005481243133544893
2023-01-27 16:33:22.048999,-0.014404546916392152
2023-01-27 16:33:22.053999,-0.029714107513427637
2023-01-27 16:33:22.058999,-0.04031134178927788
2023-01-27 16:33:22.063999,-0.04752814769744871
2023-01-27 16:33:22.068999,-0.053259454116456065
2023-01-27 16:33:22.073999,-0.05901952832937242
2023-01-27 16:33:22.078999,-0.06525317674248504
2023-01-27 16:33:22.083999,-0.07125616073608396
2023-01-27 16:33:22.088999,-0.07583201465870788
2023-01-27 16:33:22.093999,-0.07815580070018766
2023-01-27 16:33:22.098999,-0.07814898756999046
2023-01-27 16:33:22.103999,-0.07630467414855949
2023-01-27 16:33:22.108999,-0.07336454165001108
2023-01-27 16:33:22.113999,-0.07003009319305409
2023-01-27 16:33:22.118999,-0.0667039540648084
2023-01-27 16:33:22.123999,-0.06344299018383023
2023-01-27 16:33:22.128999,-0.060235015720975005
2023-01-27 16:33:22.133999,-0.057288609445095076
2023-01-27 16:33:22.138999,-0.05501430626496549
2023-01-27 16:33:22.143999,-0.0538267716765403
2023-01-27 16:33:22.148999,-0.05400161150406922
2023-01-27 16:33:22.153999,-0.05553364753723142
2023-01-27 16:33:22.158999,-0.05799394876679793
2023-01-27 16:33:22.163999,-0.06065428256988523
2023-01-27 16:33:22.168999,-0.06290590886322696
2023-01-27 16:33:22.173999,-0.06454885005950922
2023-01-27 16:33:22.178999,-0.06572534741590248
2023-01-27 16:33:22.183999,-0.06676058471202843
2023-01-27 16:33:22.188999,-0.06805942823422464
2023-01-27 16:33:22.193999,-0.06988584995269764
2023-01-27 16:33:22.198999,-0.07213109785025767
2023-01-27 16:33:22.203999,-0.07445355504751197
2023-01-27 16:33:22.208999,-0.07664258525687291
2023-01-27 16:33:22.213999,-0.07861256599426251
2023-01-27 16:33:22.218999,-0.08004593729663215
2023-01-27 16:33:22.223999,-0.08031944930553421
2023-01-27 16:33:22.228999,-0.0788147616491494
2023-01-27 16:33:22.233999,-0.07512669265270233
2023-01-27 16:33:22.238999,-0.06919467151217304
2023-01-27 16:33:22.243999,-0.06176014989614482
2023-01-27 16:33:22.248999,-0.05471576520990972
2023-01-27 16:33:22.253999,-0.05048513412475581
2023-01-27 16:33:22.258999,-0.05078373406317044
2023-01-27 16:33:22.263999,-0.05596637725830076
2023-01-27 16:33:22.268999,-0.06510628234468198
2023-01-27 16:33:22.273999,-0.07608830928802486
2023-01-27 16:33:22.278999,-0.08598641462451641
2023-01-27 16:33:22.283999,-0.09245991706848139
2023-01-27 16:33:22.288999,-0.09521834703877519
2023-01-27 16:33:22.293999,-0.0958255976438522
2023-01-27 16:33:22.298999,-0.0962808914079048
2023-01-27 16:33:22.303999,-0.09827773272991183
2023-01-27 16:33:22.308999,-0.10309498028208626
2023-01-27 16:33:22.313999,-0.11065860837697984
2023-01-27 16:33:22.318999,-0.11854891823422906
2023-01-27 16:33:22.323999,-0.12308757007122041
2023-01-27 16:33:22.328999,-0.12149048980029196
2023-01-27 16:33:22.333999,-0.11200487613677969
2023-01-27 16:33:22.338999,-0.09280383149163476
2023-01-27 16:33:22.343999,-0.06349106878042218
2023-01-27 16:33:22.348999,-0.028412134141373047
2023-01-27 16:33:22.353999,0.003990729805082016
2023-01-27 16:33:22.358999,0.026621197185586993
2023-01-27 16:33:22.363999,0.036902230232953984
2023-01-27 16:33:22.368999,0.03380044209059269
2023-01-27 16:33:22.373999,0.01492917537689206
2023-01-27 16:33:22.378999,-0.02018694985859385
2023-01-27 16:33:22.383999,-0.0654383525252342
2023-01-27 16:33:22.388999,-0.11013609310917089
2023-01-27 16:33:22.393999,-0.14582991600036616
2023-01-27 16:33:22.398999,-0.16936884348824863
2023-01-27 16:33:22.403999,-0.18047234416007987
2023-01-27 16:33:22.408999,-0.1798450174353385
2023-01-27 16:33:22.413999,-0.17030319571495056
2023-01-27 16:33:22.418999,-0.1568556514841618
2023-01-27 16:33:22.423999,-0.14397880434989918
2023-01-27 16:33:22.428999,-0.13385542540596304
2023-01-27 16:33:22.433999,-0.1275110244750976
2023-01-27 16:33:22.438999,-0.1257092712446287
2023-01-27 16:33:22.443999,-0.12779951095581046
2023-01-27 16:33:22.448999,-0.1312640258006769
2023-01-27 16:33:22.453999,-0.13359329104423515
2023-01-27 16:33:22.458999,-0.1338136635627769
2023-01-27 16:33:22.463999,-0.1317902505397796
2023-01-27 16:33:22.468999,-0.1274199576218477
2023-01-27 16:33:22.473999,-0.12133260816335678
2023-01-27 16:33:22.478999,-0.11521213844920089
2023-01-27 16:33:22.483999,-0.11041820049285883
2023-01-27 16:33:22.488999,-0.10694821817998142
2023-01-27 16:33:22.493999,-0.10426382720470424
2023-01-27 16:33:22.498999,-0.10222175987203638
2023-01-27 16:33:22.503999,-0.10063370317220673
2023-01-27 16:33:22.508999,-0.09892347701574677
2023-01-27 16:33:22.513999,-0.09700357913970943
2023-01-27 16:33:22.518999,-0.09572228849094476
2023-01-27 16:33:22.523999,-0.09572943300008765
2023-01-27 16:33:22.528999,-0.09651241444181452
2023-01-27 16:33:22.533999,-0.09705166518688196
2023-01-27 16:33:22.538999,-0.09670382013404925
2023-01-27 16:33:22.543999,-0.09496013820171342
2023-01-27 16:33:22.548999,-0.09119010015424343
2023-01-27 16:33:22.553999,-0.08531987667083744
2023-01-27 16:33:22.558999,-0.0781194955906606
2023-01-27 16:33:22.563999,-0.07019837945699696
2023-01-27 16:33:22.568999,-0.06127588001168065
2023-01-27 16:33:22.573999,-0.05094190686941141
2023-01-27 16:33:22.578999,-0.039538446193132785
2023-01-27 16:33:22.583999,-0.027838945388793983
2023-01-27 16:33:22.588999,-0.016526831694080455
2023-01-27 16:33:22.593999,-0.0064669055864213995
2023-01-27 16:33:22.598999,0.0012575520600517649
2023-01-27 16:33:22.603999,0.006250540725886745
2023-01-27 16:33:22.608999,0.009217680525118814
2023-01-27 16:33:22.613999,0.01089036464691152
2023-01-27 16:33:22.618999,0.010924348109202767
2023-01-27 16:33:22.623999,0.008173784241080184
2023-01-27 16:33:22.628999,0.00143443694673293
2023-01-27 16:33:22.633999,-0.01040955446660512
2023-01-27 16:33:22.638999,-0.028061062961623594
2023-01-27 16:33:22.643999,-0.050773620605468694
2023-01-27 16:33:22.648999,-0.07601384449139952
2023-01-27 16:33:22.653999,-0.10075390338897697
2023-01-27 16:33:22.658999,-0.1229033851512332
2023-01-27 16:33:22.663999,-0.14140646159648887
2023-01-27 16:33:22.668999,-0.15581081378438802
2023-01-27 16:33:22.673999,-0.1663845777511595
2023-01-27 16:33:22.678999,-0.17406629721472733
2023-01-27 16:33:22.683999,-0.1796068847179412
2023-01-27 16:33:22.688999,-0.18307770764831835
2023-01-27 16:33:22.693999,-0.18460731208324416
2023-01-27 16:33:22.698999,-0.185067174752928
2023-01-27 16:33:22.703999,-0.18552085757255538
2023-01-27 16:33:22.708999,-0.18643492731097122
2023-01-27 16:33:22.713999,-0.18782874941825858
