6.36
4.96
3.59
2.16
0.64
-0.9
-2.42
-3.96
-5.64
-7.59
-9.86
-12.35
-14.85
-17.14
-19.17
-21.05
-23.04
-25.46
-28.52
-32.15
-35.95
-39.19
-41
-40.64
-37.77
-32.59
-25.82
-18.43
-11.32
-5.13
-0.13
3.68
6.47
8.48
9.91
10.98
11.87
12.68
13.42
14.04
14.47
14.71
14.85
15.01
15.33
15.83
16.5
17.28
18.08
18.82
19.37
19.61
19.39
18.66
17.46
15.96
14.35
12.8
11.4
10.1
8.82
7.44
5.94
4.31
2.62
0.95
-0.57
-1.86
-2.89
-3.77
-4.68
-5.86
-7.52
-9.72
-12.37
-15.22
-18.02
-20.61
-23.05
-25.62
-28.69
-32.5
-36.94
-41.46
-45.19
-47.13
-46.58
-43.3
-37.67
-30.51
-22.82
-15.46
-9
-3.61
0.75
4.23
7.01
9.17
10.77
11.92
12.78
13.51
14.29
15.23
16.29
17.36
18.31
19.03
19.58
20.07
20.63
21.33
22.1
22.76
23.12
23
22.37
21.3
19.98
18.57
17.22
15.99
14.89
13.84
12.71
11.4
9.83
8.02
6.09
4.22
2.59
1.26
0.22
-0.68
-1.67
-3.01
-4.84
-7.17
-9.85
-12.59
-15.1
-17.21
-18.99
-20.7
-22.77
-25.57
-29.32
-33.87
-38.7
-42.95
-45.6
-45.77
-42.97
-37.32
-29.55
-20.82
-12.38
-5.16
0.33
4.13
6.67
8.45
9.89
11.21
12.4
13.38
14.14
14.76
15.39
16.16
17.07
18
18.83
19.51
20.15
20.92
21.97
23.21
24.34
24.97
24.78
23.72
22.01
20
18.06
16.34
14.8
13.29
11.65
9.84
7.95
6.15
4.57
3.26
2.14
1.01
-0.36
-2.19
-4.54
-7.33
-10.34
-13.28
-15.92
-18.13
-20
-21.76
-23.75
-26.29
-29.64
-33.86
-38.71
-43.58
-47.49
-49.37
-48.37
-44.18
-37.22
-28.52
-19.39
-10.97
-3.94
1.55
5.76
9.06
11.77
14.03
15.9
17.42
18.65
19.68
20.57
21.37
22.1
22.76
23.4
24.09
24.92
25.9
27.01
28.14
29.15
29.85
30.13
29.88
29.08
27.81
26.16
24.31
22.41
20.61
19.02
17.67
16.56
15.57
14.59
13.47
12.11
10.49
8.71
6.94
5.36
4.08
3.05
2.07
0.8
-1.01
-3.49
-6.55
-9.93
-13.32
-16.48
-19.31
-21.91
-24.48
-27.27
-30.59
-34.72
-39.78
-45.58
-51.43
-56.17
-58.46
-57.24
-52.18
-43.89
-33.72
-23.28
-13.88
-6.25
-0.5
3.69
6.77
9.17
11.23
13.17
15.1
17.01
18.76
20.22
21.29
22
22.52
23.07
23.8
24.79
25.98
27.25
28.48
29.55
30.39
30.93
31.13
30.91
30.21
28.97
27.25
25.19
23.01
20.96
19.2
17.75
16.53
15.4
14.23
12.94
11.58
10.17
8.78
7.42
6.07
4.67
3.17
1.49
-0.46
-2.77
-5.46
-8.49
-11.76
-15.1
-18.37
-21.45
-24.29
-26.98
-29.71
-32.83
-36.66
-41.4
-46.81
-52.15
-56.22
-57.69
-55.62
-49.85
-41.11
-30.78
-20.45
-11.36
-4.12
1.24
5.08
7.82
9.79
11.21
12.31
13.29
14.37
15.64
17.01
18.32
19.36
20.08
20.52
20.88
21.36
22.13
23.25
24.65
26.13
27.39
28.11
28.11
27.38
26.15
24.72
23.3
21.92
20.38
18.43
15.98
13.16
10.29
7.71
5.59
3.87
2.27
0.49
-1.68
-4.31
-7.29
-10.45
-13.57
-16.48
-19.07
-21.37
-23.54
-25.92
-28.97
-33.02
-38.09
-43.71
-48.86
-52.28
-52.83
-49.88
-43.6
-34.82
-24.81
-14.83
-5.91
1.37
6.83
10.63
13.15
14.86
16.17
17.37
18.53
19.62
20.53
21.22
21.77
22.27
22.82
23.46
24.2
25.09
26.24
27.74
29.5
31.24
32.51
32.87
32.13
30.42
28.13
25.74
23.62
21.91
20.5
19.12
17.51
15.46
12.91
9.97
6.89
3.99
1.52
-0.42
-2.01
-3.59
-5.59
-8.22
-11.46
-15.05
-18.58
-21.75
-24.46
-26.84
-29.17
-31.82
-35.13
-39.37
-44.54
-50.28
-55.75
-59.69
-60.77
-58
-51.21
-41.15
-29.36
-17.66
-7.55
0.15
5.36
8.6
10.61
12.07
13.4
14.78
16.18
17.54
18.78
19.89
20.92
21.93
22.96
24.07
25.28
26.57
27.95
29.4
30.85
32.17
33.18
33.68
33.5
32.6
31.11
29.27
27.37
25.62
24.11
22.71
21.26
19.56
17.55
15.27
12.83
10.35
7.9
5.48
3.11
0.85
-1.25
-3.2
-5.09
-7.13
-9.52
-12.36
-15.61
-19.11
-22.62
-25.98
-29.12
-32.11
-35.09
-38.34
-42.21
-47.04
-52.94
-59.52
-65.76
-70.11
-71.03
-67.46
-59.35
-47.76
-34.42
-21.23
-9.62
-0.26
6.82
11.97
15.59
18.05
19.64
20.71
21.61
22.63
23.9
25.29
26.57
27.48
27.93
28.02
28
28.19
28.79
29.84
31.21
32.63
33.76
34.29
34.03
32.95
31.22
29.08
26.81
24.59
22.48
20.38
18.19
15.82
13.29
10.75
8.37
6.29
4.5
2.73
0.59
-2.23
-5.86
-10.07
-14.46
-18.58
-22.14
-25.12
-27.72
-30.31
-33.27
-36.99
-41.72
-47.48
-53.85
-59.86
-64.08
-65
-61.54
-53.61
-42.16
-29
-16.09
-5.02
3.5
9.56
13.76
16.82
19.21
21.09
22.41
23.12
23.27
23.1
22.93
23.04
23.59
24.52
25.64
26.76
27.76
28.65
29.53
30.45
31.39
32.14
32.38
31.81
30.24
27.67
24.32
20.53
16.68
13.05
9.79
6.86
4.09
1.25
-1.87
-5.36
-9.15
-13.07
-16.85
-20.28
-23.27
-25.92
-28.52
-31.5
-35.32
-40.3
-46.46
-53.32
-59.85
-64.67
-66.32
-63.81
-56.92
-46.39
-33.68
-20.51
-8.39
1.71
9.51
15.23
19.34
22.35
24.67
26.55
28.11
29.42
30.5
31.39
32.13
32.78
33.33
33.82
34.26
34.71
35.25
35.94
36.78
37.69
38.5
38.93
38.7
37.64
35.74
33.26
30.55
28
25.79
23.87
21.93
19.62
16.72
13.28
9.6
6.08
3.11
0.8
-0.99
-2.67
-4.73
-7.55
-11.25
-15.58
-20.14
-24.43
-28.18
-31.4
-34.41
-37.7
-41.78
-47.1
-53.76
-61.39
-69.05
-75.21
-78.1
-76.25
-69.05
-57.08
-42.03
-26.15
-11.62
0.09
8.45
13.76
16.87
18.72
20.14
21.7
23.6
25.78
28.02
30.07
31.75
33.04
33.93
34.46
34.67
34.68
34.73
35.09
36.01
37.48
39.17
40.51
40.88
39.89
37.54
34.24
30.62
27.27
24.51
22.35
20.53
18.64
16.33
13.47
10.19
6.8
3.69
1.1
-0.97
-2.82
-4.9
-7.59
-11.11
-15.3
-19.76
-23.97
-27.54
-30.36
-32.69
-35.03
-38.01
-42.18
-47.83
-54.8
-62.31
-69.04
-73.36
-73.74
-69.35
-60.26
-47.64
-33.31
-19.22
-6.91
2.8
9.86
14.76
18.14
20.57
22.39
23.75
24.7
25.27
25.58
25.83
26.18
26.75
27.5
28.27
28.86
29.18
29.23
29.18
29.18
29.25
29.26
28.91
27.9
26.11
23.67
20.95
18.38
16.24
14.5
12.8
10.63
7.58
3.59
-1.04
-5.73
-9.89
-13.19
-15.69
-17.82
-20.22
-23.51
-28.19
-34.44
-41.98
-49.96
-56.98
-61.37
-61.66
-57.1
-48.04
-35.84
-22.43
-9.67
1.21
9.77
16.27
21.25
25.21
28.44
31.03
32.97
34.28
35.06
35.48
35.7
35.82
35.92
36.04
36.23
36.54
36.99
37.53
38.03
38.29
38.16
37.56
36.51
35.08
33.33
31.27
28.84
25.98
22.68
18.99
15.06
11.07
7.18
3.5
0.04
-3.25
-6.54
-9.97
-13.58
-17.34
-21.1
-24.7
-28.07
-31.22
-34.3
-37.59
-41.46
-46.31
-52.32
-59.31
-66.44
-72.29
-75.15
-73.56
-66.88
-55.62
-41.33
-26.11
-11.96
-0.24
8.54
14.63
18.67
21.46
23.58
25.42
27.13
28.72
30.17
31.49
32.71
33.85
34.9
35.79
36.48
36.99
37.4
37.88
38.48
39.17
39.73
39.86
39.33
38.06
36.15
33.79
31.26
28.75
26.42
24.35
22.5
20.71
18.71
16.26
13.24
9.75
6.09
2.66
-0.22
-2.49
-4.36
-6.22
-8.48
-11.42
-15.03
-19.13
-23.36
-27.33
-30.78
-33.65
-36.17
-38.81
-42.15
-46.7
-52.65
-59.55
-66.33
-71.44
-73.19
-70.41
-62.84
-51.29
-37.45
-23.34
-10.7
-0.56
6.88
12.07
15.69
18.38
20.46
21.99
22.96
23.38
23.45
23.47
23.75
24.48
25.6
26.9
28.1
28.95
29.39
29.57
29.67
29.87
30.16
30.38
30.19
29.25
27.31
24.37
20.68
16.68
12.88
9.64
7.04
4.88
2.71
0.14
-3.08
-6.82
-10.69
-14.22
-17.06
-19.21
-20.96
-22.87
-25.5
-29.3
-34.44
-40.78
-47.7
-54.16
-58.77
-60.17
-57.42
-50.35
-39.77
-27.24
-14.59
-3.39
5.49
11.95
16.49
19.81
22.52
24.92
27.08
28.93
30.36
31.37
32.08
32.61
33.08
33.49
33.82
34.05
34.28
34.66
35.35
36.35
37.45
38.3
38.49
37.74
35.99
33.4
30.26
26.91
23.61
20.57
17.84
15.38
13.04
10.65
8.15
5.61
3.21
1.12
-0.65
-2.39
-4.53
-7.44
-11.21
-15.54
-19.9
-23.7
-26.64
-28.77
-30.51
-32.48
-35.29
-39.41
-44.99
-51.73
-58.76
-64.74
-68.03
-67.26
-61.78
-52.05
-39.5
-26.12
-13.74
-3.55
4.11
9.63
13.63
16.72
19.26
21.45
23.38
25.15
26.81
28.3
29.52
30.33
30.65
30.58
30.29
30
29.91
30.12
30.64
31.31
31.89
32.05
31.51
30.1
27.9
25.22
22.53
20.31
18.8
17.93
17.27
16.3
14.55
11.88
8.57
5.13
2.16
0.01
-1.33
-2.23
-3.23
-4.79
-7.15
-10.2
-13.63
-17.05
-20.19
-22.96
-25.42
-27.74
-30.15
-32.93
-36.35
-40.68
-45.88
-51.48
-56.45
-59.41
-59.04
-54.56
-46.19
-35.05
-22.87
-11.38
-1.8
5.39
10.38
13.67
15.85
17.31
18.29
18.92
19.32
19.61
19.92
20.37
20.98
21.73
22.55
23.31
23.93
24.34
24.58
24.73
24.91
25.2
25.52
25.69
25.39
24.4
22.58
20.07
17.11
14.07
11.22
8.73
6.58
4.61
2.61
0.34
-2.31
-5.35
-8.61
-11.83
-14.77
-17.3
-19.46
-21.45
-23.62
-26.38
-30.12
-35.05
-41
-47.33
-52.84
-56.09
-55.85
-51.51
-43.37
-32.62
-20.92
-9.89
-0.66
6.34
11.28
14.66
17.08
19.01
20.73
22.35
23.88
25.24
26.34
27.09
27.43
27.37
26.99
26.45
25.95
25.65
25.69
26.08
26.74
27.49
28.12
28.39
28.14
27.27
25.83
24
22.03
20.19
18.62
17.35
16.25
15.12
13.77
12.08
10.01
7.67
5.25
2.95
0.92
-0.88
-2.62
-4.62
-7.17
-10.38
-14.1
-17.99
-21.57
-24.5
-26.69
-28.35
-29.94
-32.01
-35.09
-39.42
-44.81
-50.56
-55.53
-58.36
-57.91
-53.67
-45.91
-35.67
-24.41
-13.63
-4.44
2.56
7.32
10.21
11.82
12.81
13.72
14.88
16.37
18.05
19.66
20.98
21.86
22.29
22.33
22.11
21.78
21.49
21.4
21.59
21.99
22.39
22.5
22.06
20.95
19.26
17.23
15.13
13.14
11.3
9.51
7.65
5.66
3.59
1.56
-0.32
-2.06
-3.76
-5.61
-7.72
-10.11
-12.64
-15.07
-17.24
-19.14
-20.88
-22.7
-24.84
-27.49
-30.73
-34.54
-38.78
-43.02
-46.57
-48.5
-47.92
-44.23
-37.51
-28.52
-18.55
-9
-0.96
5.08
9.16
11.75
13.4
14.54
15.4
16.05
16.49
16.75
16.97
17.27
17.77
18.47
19.24
19.95
20.51
20.93
21.32
21.76
22.29
22.77
22.95
22.58
21.45
19.49
16.8
13.64
10.37
7.33
4.77
2.72
1.01
-0.7
-2.75
-5.29
-8.19
-11.13
-13.72
-15.73
-17.2
-18.41
-19.78
-21.69
-24.43
-28.12
-32.63
-37.56
-42.14
-45.29
-45.97
-43.49
-37.81
-29.68
-20.33
-11.07
-2.87
3.8
8.91
12.67
15.33
17.11
18.27
19.06
19.71
20.34
20.93
21.3
21.34
20.96
20.23
19.34
18.5
17.89
17.63
17.71
18.05
18.42
18.55
18.21
17.28
15.85
14.11
12.33
10.69
9.21
7.81
6.38
4.82
3.17
1.52
-0.03
-1.46
-2.82
-4.29
-6.02
-8.11
-10.53
-13.13
-15.72
-18.13
-20.31
-22.34
-24.46
-26.96
-30.14
-34.19
-38.97
-43.92
-48.07
-50.27
-49.52
-45.39
-38.21
-29.01
-19.17
-10
-2.34
3.54
7.83
10.95
13.31
15.15
16.57
17.61
18.34
18.85
19.26
19.64
19.93
20.03
19.77
19.17
18.37
17.67
17.39
17.7
18.48
19.39
19.98
19.96
19.25
18.04
16.62
15.26
14.12
13.18
12.33
11.37
10.13
8.46
6.36
3.99
1.64
-0.39
-1.91
-2.98
-3.86
-4.9
-6.38
-8.34
-10.64
-13.02
-15.3
-17.42
-19.5
-21.73
-24.33
-27.52
-31.48
-36.21
-41.43
-46.41
-50.07
-51.29
-49.23
-43.75
-35.49
-25.68
-15.74
-6.81
0.43
5.81
9.5
11.83
13.17
13.88
14.28
14.63
15.09
15.67
16.28
16.79
17.12
17.23
17.2
17.14
17.19
17.46
17.99
18.69
19.37
19.78
19.7
19.05
17.9
16.41
14.79
13.16
11.52
9.78
7.86
5.71
3.39
1.01
-1.33
-3.6
-5.8
-7.98
-10.11
-12.15
-14.01
-15.64
-17.13
-18.66
-20.49
-22.85
-25.87
-29.59
-33.85
-38.36
-42.57
-45.76
-47.07
-45.78
-41.54
-34.61
-25.77
-16.25
-7.23
0.37
6.17
10.26
13
14.83
16.06
16.88
17.38
17.65
17.8
17.93
18.13
18.38
18.64
18.85
19.02
19.26
19.69
20.39
21.26
22.16
22.82
23.04
22.75
21.94
20.71
19.17
17.45
15.67
13.98
12.47
11.17
9.95
8.65
7.1
5.23
3.14
1.01
-0.96
-2.63
-4.01
-5.19
-6.37
-7.75
-9.51
-11.67
-14.2
-16.88
-19.51
-21.93
-24.15
-26.33
-28.74
-31.73
-35.51
-40.04
-44.92
-49.36
-52.29
-52.66
-49.75
-43.51
-34.63
-24.34
-14.15
-5.27
1.59
6.31
9.27
11.03
12.17
13.14
14.22
15.51
16.98
18.53
19.98
21.14
21.89
22.23
22.24
22.12
22.08
22.27
22.73
23.33
23.86
24.06
23.74
22.81
21.38
19.62
17.77
16.01
14.44
13.05
11.75
10.4
8.91
7.23
5.4
3.54
1.77
0.19
-1.21
-2.56
-4.06
-5.95
-8.36
-11.26
-14.4
-17.45
-20.1
-22.22
-23.95
-25.58
-27.56
-30.32
-34.13
-38.94
-44.26
-49.16
-52.41
-52.84
-49.76
-43.26
-34.27
-24.23
-14.61
-6.44
-0.05
4.78
8.6
11.85
14.75
17.24
19.19
20.5
21.21
21.39
21.16
20.58
19.72
18.64
17.49
16.48
15.78
15.54
15.77
16.34
17
17.41
17.26
16.31
14.52
12.03
9.16
6.29
3.76
1.69
0.07
-1.32
-2.79
-4.6
-6.9
-9.63
-12.56
-15.34
-17.64
-19.29
-20.43
-21.47
-23.03
-25.65
-29.58
-34.57
-39.85
-44.25
-46.58
-45.88
-41.8
-34.71
-25.55
-15.6
-6.1
2.05
8.39
12.92
15.93
17.84
19.04
19.8
20.29
20.62
20.88
21.14
21.46
21.79
22.07
22.2
22.14
21.96
21.8
21.83
22.09
22.45
22.67
22.43
21.5
19.81
17.43
14.55
11.41
8.26
5.37
2.9
0.91
-0.73
-2.26
-3.98
-6.12
-8.71
-11.64
-14.66
-17.52
-20.07
-22.35
-24.53
-26.92
-29.92
-33.81
-38.61
-43.9
-48.77
-52.07
-52.66
-49.89
-43.83
-35.28
-25.46
-15.68
-6.93
0.24
5.75
9.77
12.6
14.58
16.05
17.3
18.55
19.84
21.08
22.06
22.65
22.82
22.77
22.74
22.97
23.56
24.44
25.44
26.37
27.06
27.37
27.25
26.66
25.62
24.18
22.44
20.46
18.3
16.07
13.83
11.67
9.63
7.69
5.74
3.62
1.17
-1.66
-4.82
-8.15
-11.4
-14.36
-16.9
-19.1
-21.19
-23.52
-26.54
-30.64
-35.99
-42.33
-48.92
-54.53
-57.78
-57.55
-53.42
-45.81
-35.93
-25.3
-15.35
-7.03
-0.7
3.82
6.93
9.12
10.75
12.05
13.13
14.06
14.94
15.84
16.84
17.89
18.87
19.61
20.02
20.13
20.16
20.36
20.9
21.77
22.74
23.45
23.54
22.82
21.27
19.11
16.62
14.1
11.71
9.42
7.1
4.56
1.68
-1.53
-4.95
-8.39
-11.68
-14.68
-17.32
-19.58
-21.57
-23.56
-25.94
-29.13
-33.39
-38.58
-44
-48.47
-50.65
-49.55
-44.88
-37.2
-27.76
-17.95
-8.95
-1.37
4.7
9.55
13.49
16.72
19.31
21.26
22.62
23.55
24.18
24.69
25.19
25.74
26.34
27.01
27.73
28.5
29.39
30.45
31.7
33
34.1
34.62
34.27
32.89
30.64
27.91
25.17
22.78
20.83
19.16
17.44
15.39
12.91
10.13
7.35
4.89
2.93
1.45
0.2
-1.22
-3.1
-5.61
-8.62
-11.83
-14.87
-17.45
-19.53
-21.26
-22.99
-25.14
-28.09
-32.11
-37.17
-42.85
-48.31
-52.33
-53.66
-51.47
-45.6
-36.75
-26.26
-15.64
-6.15
1.55
7.31
11.45
14.46
16.84
18.95
20.98
22.94
24.67
25.97
26.7
26.87
26.69
26.44
26.39
26.7
27.4
28.41
29.63
30.88
31.97
32.68
32.8
32.22
31
29.36
27.57
25.9
24.5
23.33
22.25
21.08
19.7
18.07
16.27
14.42
12.69
11.19
9.92
8.81
7.72
6.51
5.04
3.29
1.34
-0.67
-2.59
-4.38
-6.12
-7.99
-10.17
-12.74
-15.59
-18.48
-21.15
-23.5
-25.7
-28.16
-31.35
-35.57
-40.69
-46.01
-50.43
-52.69
-51.86
-47.64
-40.44
-31.23
-21.26
-11.64
-3.22
3.55
8.56
11.94
14.01
15.19
15.95
16.64
17.49
18.49
19.44
20.18
20.62
20.81
20.94
21.2
21.72
22.53
23.54
24.64
25.67
26.5
27.02
27.12
26.74
25.86
24.59
23.08
21.53
20.11
18.86
17.75
16.66
15.53
14.32
13.07
11.81
10.55
9.23
7.8
6.19
4.39
2.51
0.68
-0.94
-2.28
-3.4
-4.48
-5.76
-7.48
-9.68
-12.21
-14.79
-17.18
-19.27
-21.15
-23.07
-25.29
-28.03
-31.37
-35.14
-38.94
-42.04
-43.57
-42.72
-39.05
-32.72
-24.52
-15.62
-7.23
-0.2
5.14
8.93
11.53
13.35
14.58
15.3
15.5
15.26
14.76
14.27
14.04
14.2
14.67
15.28
15.85
16.29
16.69
17.21
17.96
18.93
19.95
20.81
21.29
21.28
20.74
19.72
18.3
16.57
14.64
12.61
10.58
8.55
6.53
4.45
2.29
0.13
-1.91
-3.73
-5.31
-6.75
-8.23
-9.91
-11.88
-14.1
-16.42
-18.66
-20.67
-22.36
-23.75
-24.99
-26.36
-28.21
-30.78
-33.95
-37.15
-39.37
-39.54
-36.9
-31.41
-23.82
-15.38
-7.41
-0.83
4.02
7.31
9.42
10.67
11.32
11.51
11.43
11.32
11.41
11.81
12.48
13.3
14.08
14.7
15.09
15.3
15.41
15.54
15.83
16.33
17
17.59
17.81
17.4
16.3
14.72
13.02
11.57
10.53
9.88
9.36
8.69
7.7
6.37
4.81
3.18
1.61
0.14
-1.3
-2.83
-4.6
-6.71
-9.13
-11.72
-14.19
-16.26
-17.8
-18.86
-19.71
-20.74
-22.27
-24.5
-27.39
-30.66
-33.83
-36.23
-37.15
-35.95
-32.35
-26.5
-19.08
-11.12
-3.69
2.36
6.65
9.27
10.59
11.09
11.22
11.23
11.27
11.35
11.46
11.6
11.72
11.81
11.83
11.76
11.64
11.53
11.57
11.86
12.38
13.04
13.63
13.93
13.79
13.18
12.18
10.98
9.81
8.82
8.09
7.52
6.95
6.18
5.05
3.6
1.97
0.35
-1.09
-2.32
-3.42
-4.52
-5.76
-7.2
-8.83
-10.57
-12.35
-14.03
-15.56
-16.97
-18.44
-20.24
-22.65
-25.76
-29.29
-32.59
-34.85
-35.27
-33.44
-29.41
-23.73
-17.19
-10.65
-4.77
0.01
3.57
5.96
7.43
8.26
8.71
9.01
9.27
9.5
9.69
9.77
9.74
9.64
9.53
9.49
9.56
9.73
10
10.31
10.63
10.95
11.2
11.3
11.14
10.59
9.6
8.21
6.53
4.69
2.79
0.86
-1.17
-3.38
-5.76
-8.23
-10.55
-12.49
-13.9
-14.82
-15.46
-16.16
-17.28
-19.06
-21.58
-24.7
-28.13
-31.4
-33.92
-35.05
-34.26
-31.29
-26.3
-19.87
-12.89
-6.28
-0.74
3.43
6.29
8.16
9.43
10.39
11.21
11.92
12.48
12.84
13.01
13.01
12.92
12.82
12.83
13.02
13.43
14.01
14.72
15.45
16.1
16.55
16.7
16.51
15.93
14.96
13.62
11.98
10.12
8.07
5.93
3.79
1.82
0.12
-1.3
-2.53
-3.76
-5.19
-6.91
-8.89
-10.99
-13.04
-14.94
-16.64
-18.18
-19.61
-21.07
-22.73
-24.86
-27.69
-31.29
-35.4
-39.37
-42.29
-43.26
-41.72
-37.61
-31.49
-24.31
-17.11
-10.67
-5.42
-1.35
1.81
4.4
6.69
8.76
10.61
12.15
13.32
14.12
14.58
14.79
14.85
14.92
15.13
15.59
16.34
17.32
18.33
19.19
19.7
19.78
19.44
18.74
17.78
16.63
15.43
14.28
13.31
12.58
12.04
11.51
10.76
9.57
7.86
5.75
3.48
1.35
-0.41
-1.78
-2.89
-4.01
-5.43
-7.27
-9.54
-12.01
-14.48
-16.77
-18.83
-20.75
-22.66
-24.75
-27.17
-30.11
-33.69
-37.89
-42.37
-46.41
-49.02
-49.27
-46.61
-41.17
-33.75
-25.52
-17.64
-10.86
-5.42
-1.16
2.31
5.25
7.84
10.07
11.95
13.5
14.81
16.02
17.18
18.29
19.28
20.08
20.72
21.32
22.04
22.97
24.07
25.18
26.07
26.52
26.41
25.72
24.53
22.97
21.22
19.47
17.9
16.6
15.57
14.68
13.74
12.56
11.06
9.29
7.37
5.45
3.64
1.98
0.38
-1.26
-3.05
-5.06
-7.27
-9.62
-12.03
-14.39
-16.67
-18.86
-21.01
-23.2
-25.62
-28.45
-31.88
-35.9
-40.17
-44.05
-46.63
-46.99
-44.53
-39.16
-31.45
-22.43
-13.32
-5.24
1.15
5.67
8.65
10.62
12.17
13.65
15.14
16.5
17.56
18.25
18.67
19.06
19.64
20.51
21.59
22.73
23.77
24.68
25.53
26.37
27.14
27.64
27.61
26.89
25.54
23.8
21.97
20.31
18.87
17.54
16.14
14.57
12.81
10.97
9.15
7.38
5.59
3.64
1.42
-1.06
-3.75
-6.49
-9.17
-11.71
-14.17
-16.63
-19.23
-22.08
-25.32
-29.08
-33.44
-38.32
-43.32
-47.71
-50.51
-50.83
-48.15
-42.55
-34.71
-25.67
-16.57
-8.33
-1.46
3.9
7.96
11.07
13.57
15.72
17.63
19.26
20.55
21.49
22.11
22.56
22.95
23.43
24.04
24.84
25.82
26.99
28.31
29.68
30.96
31.94
32.43
32.25
31.27
29.53
27.21
24.62
22.05
19.72
17.6
15.57
13.42
11.04
8.5
5.98
3.68
1.71
0
-1.64
-3.47
-5.67
-8.27
-11.15
-14.1
-16.89
-19.39
-21.58
-23.64
-25.85
-28.6
-32.15
-36.51
-41.33
-45.75
-48.69
-49.06
-46.21
-40.18
-31.77
-22.24
-12.92
-4.81
1.61
6.43
10.03
12.82
15.13
17.11
18.76
20.06
21
21.66
22.14
22.5
22.77
22.92
22.96
22.92
22.94
23.18
23.7
24.45
25.2
25.66
25.61
25
23.94
22.6
21.11
19.53
17.8
15.88
13.76
11.54
9.36
7.3
5.37
3.44
1.38
-0.86
-3.26
-5.68
-8.03
-10.24
-12.34
-14.33
-16.21
-18.06
-20.02
-22.44
-25.67
-29.88
-34.78
-39.55
-43.05
-44.16
-42.27
-37.41
-30.28
-21.89
-13.33
-5.44
1.22
6.45
10.29
12.98
14.83
16.16
17.23
18.19
19.08
19.86
20.47
20.83
20.93
20.81
20.61
20.52
20.72
21.31
22.23
23.25
24.09
24.47
24.23
23.32
21.8
19.76
17.38
14.83
12.31
9.95
7.74
5.55
3.19
0.54
-2.4
-5.43
-8.32
-10.89
-13.11
-15.1
-17.06
-19.19
-21.67
-24.64
-28.17
-32.17
-36.28
-39.76
-41.72
-41.31
-38.07
-32.19
-24.43
-15.88
-7.65
-0.51
5.16
9.39
12.41
14.51
15.96
17
17.78
18.42
19
19.52
19.97
20.32
20.54
20.65
20.74
20.93
21.38
22.19
23.31
24.54
25.54
25.96
25.62
24.58
23.05
21.36
19.7
18.11
16.45
14.54
12.32
9.85
7.35
5.04
3.01
1.23
-0.46
-2.23
-4.2
-6.37
-8.64
-10.9
-13.07
-15.11
-17.07
-19.05
-21.2
-23.69
-26.71
-30.35
-34.49
-38.67
-42.09
-43.84
-43.12
-39.6
-33.56
-25.85
-17.57
-9.76
-3.09
2.28
6.5
9.83
12.49
14.57
16.05
16.98
17.51
17.84
18.18
18.61
19.1
19.52
19.84
20.06
20.31
20.72
21.35
22.12
22.88
23.44
23.6
23.27
22.39
21.02
19.25
17.3
15.43
13.87
12.74
11.95
11.31
10.55
9.47
8.01
6.29
4.48
2.79
1.33
0.1
-0.98
-2.06
-3.31
-4.88
-6.88
-9.31
-12.04
-14.86
-17.49
-19.73
-21.47
-22.91
-24.41
-26.48
-29.51
-33.53
-38.05
-42.13
-44.59
-44.48
-41.4
-35.65
-28.08
-19.82
-11.85
-4.85
0.85
5.23
8.4
10.52
11.77
12.34
12.48
12.42
12.4
12.57
12.96
13.55
14.2
14.82
15.3
15.6
15.76
15.88
16.04
16.33
16.75
17.25
17.72
17.99
17.92
17.36
16.23
14.52
12.3
9.7
6.89
4.12
1.6
-0.56
-2.33
-3.87
-5.32
-6.84
-8.44
-10.06
-11.59
-12.99
-14.3
-15.63
-17.16
-19.1
-21.62
-24.81
-28.55
-32.39
-35.52
-37.02
-36.16
-32.67
-26.89
-19.68
-12.11
-5.11
0.7
5.1
8.19
10.28
11.75
12.96
14.12
15.27
16.33
17.08
17.42
17.36
17.07
16.8
16.77
17.1
17.8
18.81
20.06
21.4
22.67
23.62
24.05
23.84
23
21.67
20.01
18.18
16.27
14.28
12.17
9.94
7.6
5.21
2.86
0.66
-1.39
-3.34
-5.3
-7.4
-9.68
-12.05
-14.36
-16.46
-18.27
-19.9
-21.57
-23.55
-26.1
-29.4
-33.41
-37.79
-41.83
-44.54
-44.99
-42.58
-37.36
-30.06
-21.86
-14.01
-7.35
-2.23
1.49
4.19
6.18
7.63
8.55
8.92
8.81
8.45
8.14
8.15
8.56
9.27
10.03
10.57
10.78
10.67
10.41
10.25
10.44
11.17
12.47
14.27
16.38
18.52
20.42
21.92
22.9
23.38
23.4
22.93
21.94
20.36
18.21
15.56
12.63
9.63
6.75
4.05
1.42
-1.33
-4.41
-7.87
-11.59
-15.18
-18.2
-20.27
-21.29
-21.49
-21.4
-21.64
-22.8
-25.12
-28.39
-31.96
-34.9
-36.2
-35.17
-31.56
-25.72
-18.42
-10.68
-3.45
2.54
6.93
9.7
11.09
11.53
11.51
11.47
11.73
12.41
13.35
14.27
14.85
14.91
14.55
14.02
13.61
13.54
13.81
14.23
14.63
14.84
14.79
14.42
13.65
12.41
10.72
8.74
6.76
5.05
3.72
2.6
1.37
-0.25
-2.36
-4.77
-7.15
-9.2
-10.75
-11.83
-12.64
-13.47
-14.65
-16.56
-19.46
-23.41
-28.12
-32.82
-36.5
-38.11
-36.95
-32.93
-26.64
-19.05
-11.27
-4.15
1.84
6.57
10.17
12.84
14.74
16.05
16.91
17.48
17.9
18.23
18.46
18.56
18.51
18.4
18.36
18.54
19.02
19.75
20.6
21.38
21.96
22.26
22.25
21.94
21.26
20.18
18.64
16.7
14.49
12.2
10.03
8.1
6.44
4.97
3.51
1.93
0.1
-2.02
-4.35
-6.82
-9.28
-11.62
-13.8
-15.83
-17.88
-20.19
-23.07
-26.68
-30.9
-35.16
-38.54
-39.99
-38.66
-34.34
-27.51
-19.24
-10.81
-3.3
2.67
7.03
10.07
12.21
13.8
15.01
15.9
16.48
16.78
16.9
16.99
17.16
17.48
17.91
18.37
18.78
19.11
19.44
19.84
20.36
20.9
21.21
21.02
20.1
18.45
16.27
13.9
11.67
9.76
8.22
6.91
5.66
4.35
2.91
1.38
-0.16
-1.64
-2.99
-4.23
-5.4
-6.64
-8.1
-9.86
-11.91
-14.08
-16.18
-17.97
-19.37
-20.45
-21.49
-22.92
-25.13
-28.31
-32.25
-36.25
-39.28
-40.27
-38.52
-33.95
-27.19
-19.34
-11.56
-4.72
0.75
4.88
7.89
10.06
11.57
12.55
13.12
13.43
13.66
14
14.55
15.36
16.36
17.43
18.41
19.17
19.67
19.96
20.2
20.55
21.04
21.53
21.7
21.22
19.91
17.89
15.52
13.24
11.35
9.89
8.66
7.35
5.76
3.92
2.07
0.52
-0.47
-0.91
-1.03
-1.23
-1.88
-3.19
-5.07
-7.2
-9.19
-10.75
-11.85
-12.73
-13.77
-15.41
-17.87
-21.21
-25.24
-29.53
-33.44
-36.2
-37.01
-35.31
-30.99
-24.5
-16.82
-9.09
-2.33
2.86
6.41
8.65
10.06
11.05
11.79
12.27
12.42
12.21
11.76
11.34
11.21
11.5
12.19
13.12
14.06
14.83
15.39
15.74
15.99
16.16
16.24
16.15
15.77
15.03
13.95
12.63
11.22
9.84
8.54
7.28
5.99
4.55
2.98
1.35
-0.17
-1.47
-2.48
-3.29
-4.05
-4.94
-6.1
-7.57
-9.27
-11.02
-12.64
-14.03
-15.21
-16.39
-17.87
-19.99
-22.87
-26.37
-29.92
-32.64
-33.58
-32.03
-27.85
-21.56
-14.2
-6.96
-0.78
3.9
7.11
9.19
10.53
11.45
12.13
12.71
13.27
13.81
14.31
14.66
14.74
14.52
14.06
13.53
13.12
12.96
13.09
13.47
14.03
14.64
15.16
15.4
15.15
14.29
12.85
11.03
9.17
7.59
6.47
5.78
5.27
4.67
3.76
2.56
1.24
0.04
-0.87
-1.49
-1.94
-2.43
-3.11
-4.07
-5.3
-6.73
-8.28
-9.86
-11.42
-12.93
-14.51
-16.35
-18.69
-21.71
-25.29
-28.94
-31.88
-33.21
-32.25
-28.79
-23.25
-16.44
-9.44
-3.16
1.82
5.32
7.48
8.61
9.06
9.14
9.15
9.29
9.7
10.33
11.08
11.74
12.18
12.34
12.3
12.16
12.06
12.07
12.25
12.6
13.11
13.7
14.22
14.45
14.25
13.54
12.45
11.2
9.99
8.97
8.17
7.5
6.84
6.08
5.15
4.06
2.87
1.66
0.57
-0.36
-1.11
-1.76
-2.45
-3.3
-4.38
-5.7
-7.26
-8.97
-10.73
-12.39
-13.77
-14.75
-15.32
-15.63
-15.99
-16.79
-18.38
-20.88
-24.09
-27.5
-30.27
-31.6
-30.84
-27.82
-22.87
-16.75
-10.4
-4.61
0.11
3.6
5.97
7.46
8.31
8.7
8.78
8.71
8.63
8.64
8.75
8.9
8.99
8.96
8.79
8.58
8.44
8.48
8.71
9.13
9.65
10.21
10.76
11.21
11.46
11.36
10.85
9.94
8.73
7.42
6.15
4.96
3.83
2.65
1.36
-0.02
-1.42
-2.74
-3.93
-5.02
-6.11
-7.32
-8.65
-10.04
-11.31
-12.35
-13.17
-13.96
-15.05
-16.79
-19.36
-22.68
-26.29
-29.48
-31.4
-31.33
-28.89
-24.18
-17.83
-10.83
-4.22
1.17
4.96
7.23
8.38
8.9
9.17
9.4
9.63
9.89
10.19
10.57
11
11.41
11.67
11.65
11.31
10.76
10.21
9.91
10.01
10.5
11.23
11.94
12.37
12.36
11.91
11.1
10.05
8.86
7.59
6.3
5.06
3.95
3
2.19
1.39
0.51
-0.47
-1.46
-2.33
-3.01
-3.61
-4.33
-5.44
-7.01
-8.92
-10.89
-12.57
-13.78
-14.64
-15.43
-16.62
-18.6
-21.55
-25.32
-29.38
-32.92
-35.01
-34.92
-32.35
-27.59
-21.45
-14.94
-8.95
-3.99
-0.16
2.7
4.82
6.37
7.43
8.04
8.35
8.58
8.91
9.45
10.1
10.72
11.13
11.29
11.26
11.19
11.21
11.35
11.64
12.04
12.56
13.11
13.59
13.8
13.56
12.81
11.64
10.34
9.16
8.31
7.78
7.39
6.94
6.25
5.3
4.18
3.05
1.97
1.01
0.12
-0.76
-1.69
-2.7
-3.81
-5.03
-6.37
-7.85
-9.47
-11.2
-12.95
-14.6
-16.1
-17.52
-19.06
-21.03
-23.67
-27.02
-30.72
-34.09
-36.23
-36.31
-33.9
-29.1
-22.62
-15.49
-8.81
-3.38
0.44
2.76
3.99
4.63
5.07
5.58
6.21
6.94
7.63
8.18
8.48
8.53
8.43
8.31
8.34
8.61
9.11
9.77
10.53
11.35
12.18
12.94
13.45
13.54
13.05
11.99
10.5
8.8
7.09
5.52
4.1
2.83
1.65
0.5
-0.73
-2.13
-3.78
-5.66
-7.63
-9.48
-11.08
-12.39
-13.51
-14.62
-15.91
-17.56
-19.7
-22.39
-25.53
-28.79
-31.62
-33.37
-33.41
-31.4
-27.43
-21.99
-15.84
-9.77
-4.36
0.06
3.5
6.13
8.17
9.81
11.08
11.95
12.33
12.27
11.9
11.5
11.34
11.55
12.13
12.9
13.66
14.28
14.75
15.17
15.58
15.96
16.17
16.02
15.37
14.2
12.62
10.83
9
7.27
5.69
4.27
2.97
1.73
0.44
-1.03
-2.74
-4.75
-7.01
-9.4
-11.79
-14.09
-16.24
-18.28
-20.28
-22.42
-24.92
-27.99
-31.69
-35.8
-39.72
-42.55
-43.41
-41.7
-37.39
-31.05
-23.63
-16.13
-9.3
-3.52
1.16
4.83
7.64
9.73
11.28
12.46
13.48
14.48
15.48
16.36
16.99
17.28
17.27
17.1
17.02
17.26
17.94
19.06
20.44
21.78
22.74
23.05
22.63
21.58
20.17
18.67
17.31
16.14
15.13
14.14
13.05
11.77
10.26
8.55
6.66
4.66
2.59
0.49
-1.68
-3.92
-6.27
-8.68
-11.12
-13.59
-16.08
-18.67
-21.42
-24.38
-27.66
-31.42
-35.84
-40.89
-46.21
-50.99
-54.09
-54.47
-51.56
-45.59
-37.48
-28.55
-20
-12.58
-6.5
-1.58
2.49
5.96
8.95
11.56
13.86
15.99
18.02
19.98
21.81
23.4
24.68
25.65
26.35
26.89
27.42
28.05
28.82
29.75
30.64
31.29
31.44
30.96
29.86
28.31
26.56
24.84
23.26
21.82
20.41
18.91
17.24
15.36
13.31
11.16
8.98
6.86
4.87
3.05
1.39
-0.23
-1.97
-3.96
-6.24
-8.75
-11.35
-13.94
-16.46
-18.96
-21.56
-24.37
-27.52
-31.17
-35.48
-40.46
-45.84
-50.93
-54.63
-55.8
-53.62
-47.99
-39.61
-29.75
-19.8
-10.88
-3.58
2.04
6.2
9.27
11.56
13.33
14.79
16.08
17.31
18.45
19.49
20.33
20.94
21.34
21.63
21.9
22.27
22.8
23.48
24.24
24.93
25.41
25.51
25.16
24.34
23.15
21.66
19.95
18.09
16.1
14.07
12.03
9.99
7.91
5.64
3.09
0.25
-2.74
-5.69
-8.4
-10.8
-12.95
-15.01
-17.14
-19.52
-22.33
-25.76
-29.91
-34.67
-39.54
-43.59
-45.72
-45.01
-41.1
-34.4
-25.91
-16.85
-8.28
-0.79
5.47
10.6
14.74
17.97
20.29
21.79
22.66
23.16
23.56
23.99
24.45
24.9
25.25
25.5
25.7
25.94
26.29
26.82
27.53
28.37
29.17
29.71
29.71
28.99
27.52
25.42
22.96
20.37
17.81
15.34
12.92
10.5
7.99
5.31
2.38
-0.86
-4.32
-7.84
-11.14
-14.02
-16.4
-18.41
-20.38
-22.69
-25.69
-29.62
-34.5
-40.06
-45.66
-50.32
-52.88
-52.34
-48.24
-40.87
-31.21
-20.66
-10.55
-1.82
5.2
10.66
14.99
18.64
21.88
24.8
27.29
29.17
30.3
30.69
30.5
30
29.43
28.94
28.58
28.3
28.12
28.09
28.32
28.86
29.63
30.39
30.78
30.5
29.37
27.49
25.16
22.74
20.57
18.78
17.33
15.96
14.4
12.45
10.08
7.48
4.99
2.86
1.17
-0.25
-1.77
-3.71
-6.26
-9.32
-12.59
-15.72
-18.47
-20.8
-22.89
-25.03
-27.57
-30.86
-35.16
-40.54
-46.68
-52.78
-57.64
-59.93
-58.68
-53.65
-45.45
-35.32
-24.74
-14.93
-6.57
0.16
5.48
9.68
13.04
15.74
17.88
19.56
20.93
22.12
23.27
24.41
25.5
26.43
27.12
27.58
27.91
28.29
28.88
29.66
30.47
31.01
30.97
30.22
28.8
26.91
24.85
22.88
21.15
19.69
18.43
17.17
15.73
13.96
11.86
9.57
7.35
5.39
3.76
2.31
0.75
-1.2
-3.7
-6.72
-10.05
-13.41
-16.62
-19.61
-22.45
-25.29
-28.36
-31.91
-36.13
-41.01
-46.13
-50.61
-53.26
-52.94
-49
-41.6
-31.69
-20.77
-10.35
-1.52
5.28
10.19
13.72
16.4
18.68
20.72
22.55
24.07
25.15
25.75
25.91
25.75
25.46
25.19
25.08
25.22
25.62
26.26
27.06
27.87
28.49
28.76
28.51
27.66
26.25
24.37
22.19
19.88
17.55
15.23
12.85
10.37
7.77
5.07
2.29
-0.55
-3.45
-6.42
-9.44
-12.41
-15.24
-17.89
-20.4
-22.99
-25.92
-29.46
-33.77
-38.76
-43.99
-48.69
-51.81
-52.31
-49.52
-43.39
-34.61
-24.39
-14.12
-4.9
2.65
8.48
12.88
16.2
18.74
20.69
22.14
23.2
24.03
24.75
25.46
26.16
26.8
27.32
27.67
27.84
27.89
27.9
27.97
28.2
28.57
28.95
29.1
28.75
27.76
26.2
24.32
22.4
20.62
18.98
17.28
15.32
13.03
10.5
7.95
5.6
3.51
1.57
-0.44
-2.72
-5.34
-8.22
-11.19
-14.09
-16.85
-19.5
-22.13
-24.85
-27.69
-30.71
-34.03
-37.74
-41.78
-45.78
-48.98
-50.35
-48.96
-44.33
-36.74
-27.19
-17.05
-7.67
0.05
5.79
9.71
12.32
14.13
15.55
16.78
17.86
18.75
19.46
20
20.49
21.03
21.67
22.37
23.06
23.7
24.33
25.04
25.86
26.73
27.47
27.8
27.52
26.57
25.05
23.24
21.4
19.74
18.27
16.85
15.23
13.17
10.66
7.83
5.01
2.5
0.47
-1.2
-2.77
-4.57
-6.82
-9.52
-12.47
-15.38
-17.98
-20.07
-21.65
-22.87
-24.02
-25.51
-27.77
-31.09
-35.38
-40.11
-44.29
-46.72
-46.4
-42.89
-36.5
-28.18
-19.21
-10.76
-3.61
1.99
6.17
9.24
11.51
13.17
14.32
15.02
15.33
15.36
15.24
15.11
15.11
15.35
15.87
16.71
17.77
18.94
20.04
20.9
21.46
21.67
21.58
21.19
20.48
19.37
17.79
15.77
13.48
11.18
9.09
7.31
5.72
4.04
1.99
-0.53
-3.43
-6.4
-9.12
-11.42
-13.3
-14.96
-16.64
-18.58
-20.94
-23.89
-27.59
-32.08
-37.12
-42.04
-45.79
-47.2
-45.43
-40.31
-32.49
-23.19
-13.75
-5.27
1.67
6.95
10.76
13.4
15.16
16.29
17
17.51
17.93
18.29
18.54
18.62
18.54
18.32
18.1
17.99
18.14
18.6
19.36
20.31
21.22
21.85
22
21.57
20.63
19.35
17.93
16.46
14.94
13.26
11.32
9.09
6.64
4.13
1.71
-0.5
-2.51
-4.43
-6.46
-8.77
-11.41
-14.27
-17.09
-19.63
-21.74
-23.48
-25.05
-26.81
-29.1
-32.17
-36.05
-40.37
-44.4
-47.1
-47.42
-44.68
-38.88
-30.79
-21.64
-12.75
-5.04
1.14
5.88
9.48
12.19
14.11
15.34
16.03
16.4
16.68
16.97
17.22
17.33
17.22
16.96
16.75
16.74
16.98
17.4
17.83
18.15
18.34
18.45
18.55
18.63
18.62
18.32
17.55
16.18
14.23
11.83
9.27
6.87
4.87
3.35
2.19
1.15
-0.02
-1.52
-3.4
-5.6
-8.02
-10.51
-12.98
-15.36
-17.62
-19.8
-22.07
-24.67
-27.86
-31.79
-36.33
-40.93
-44.67
-46.5
-45.56
-41.53
-34.79
-26.35
-17.51
-9.47
-3
1.71
4.88
6.97
8.38
9.36
10.04
10.44
10.6
10.63
10.7
10.94
11.39
12.01
12.73
13.46
14.27
15.22
16.36
17.62
18.81
19.61
19.78
19.2
17.89
16.05
13.92
11.76
9.72
7.81
5.95
3.97
1.7
-0.94
-3.88
-6.91
-9.79
-12.29
-14.36
-16.06
-17.63
-19.34
-21.52
-24.42
-28.07
-32.25
-36.38
-39.57
-40.9
-39.66
-35.67
-29.34
-21.56
-13.43
-5.94
0.29
5.1
8.69
11.42
13.62
15.45
16.95
18.06
18.75
19.06
19.12
19.11
19.12
19.23
19.43
19.7
20.06
20.54
21.18
21.92
22.66
23.23
23.45
23.2
22.46
21.3
19.82
18.16
16.38
14.47
12.4
10.14
7.76
5.41
3.28
1.44
-0.19
-1.83
-3.77
-6.21
-9.09
-12.17
-15.08
-17.56
-19.56
-21.29
-23.15
-25.61
-29.04
-33.51
-38.77
-44.11
-48.47
-50.7
-49.92
-45.83
-38.92
-30.25
-21.14
-12.72
-5.64
-0.02
4.37
7.88
10.77
13.24
15.39
17.32
19.14
20.91
22.57
23.98
24.97
25.44
25.47
25.26
25.08
25.14
25.52
26.11
26.66
26.9
26.6
25.7
24.27
22.54
20.78
19.22
17.97
16.98
16.1
15.16
14.02
12.68
11.17
9.57
7.91
6.23
4.55
2.97
1.53
0.25
-0.98
-2.32
-4.01
-6.1
-8.53
-11.08
-13.48
-15.61
-17.45
-19.26
-21.33
-24
-27.55
-32.03
-37.2
-42.47
-46.93
-49.5
-49.29
-45.9
-39.62
-31.36
-22.4
-13.93
-6.75
-1.12
3.16
6.39
8.89
10.81
12.22
13.23
13.95
14.58
15.26
16.02
16.79
17.46
17.96
18.33
18.73
19.32
20.17
21.21
22.27
23.11
23.56
23.57
23.17
22.4
21.33
19.97
18.31
16.37
14.19
11.83
9.39
6.9
4.46
2.14
-0.02
-1.98
-3.78
-5.49
-7.19
-8.88
-10.53
-12.08
-13.55
-15.06
-16.86
-19.24
-22.43
-26.47
-31.07
-35.63
-39.27
-41.07
-40.35
-36.88
-31
-23.49
-15.39
-7.66
-0.97
4.38
8.46
11.56
13.96
15.87
17.4
18.56
19.37
19.9
20.32
20.77
21.33
21.94
22.47
22.82
22.98
23.09
23.32
23.73
24.2
24.48
24.31
23.6
22.44
21.03
19.57
18.17
16.8
15.4
13.9
12.29
10.61
8.9
7.16
5.44
3.76
2.13
0.55
-1.02
-2.68
-4.51
-6.57
-8.84
-11.18
-13.42
-15.37
-16.95
-18.24
-19.48
-21.04
-23.34
-26.64
-30.94
-35.82
-40.47
-43.81
-44.78
-42.69
-37.52
-29.94
-21.16
-12.52
-5.09
0.62
4.66
7.48
9.61
11.46
13.17
14.66
15.81
16.57
16.97
17.2
17.4
17.66
17.95
18.18
18.3
18.37
18.54
19
19.83
20.91
21.98
22.68
22.74
22.04
20.67
18.84
16.82
14.87
13.13
11.67
10.43
9.32
8.23
7.08
5.86
4.62
3.43
2.33
1.33
0.37
-0.63
-1.76
-3.11
-4.73
-6.67
-8.9
-11.3
-13.63
-15.67
-17.29
-18.54
-19.75
-21.35
-23.79
-27.29
-31.65
-36.19
-39.88
-41.61
-40.63
-36.73
-30.41
-22.63
-14.53
-7.11
-0.98
3.69
7.05
9.41
11.02
12.08
12.64
12.75
12.49
12.04
11.63
11.49
11.77
12.41
13.2
13.88
14.25
14.29
14.17
14.11
14.28
14.64
14.94
14.87
14.17
12.75
10.76
8.52
6.34
4.47
2.99
1.82
0.78
-0.33
-1.69
-3.32
-5.19
-7.15
-9.04
-10.75
-12.28
-13.65
-14.97
-16.41
-18.16
-20.47
-23.49
-27.17
-31.06
-34.36
-36.05
-35.25
-31.63
-25.57
-18.06
-10.39
-3.6
1.74
5.68
8.6
10.95
12.97
14.67
15.94
16.65
16.83
16.61
16.22
15.83
15.57
15.45
15.46
15.57
15.77
16.06
16.41
16.79
17.11
17.28
17.18
16.73
15.86
14.59
12.96
11.05
8.94
6.72
4.49
2.36
0.42
-1.31
-2.93
-4.57
-6.39
-8.41
-10.54
-12.56
-14.27
-15.56
-16.49
-17.33
-18.42
-20.05
-22.44
-25.55
-29.13
-32.63
-35.26
-36.19
-34.79
-30.86
-24.8
-17.51
-10.1
-3.54
1.59
5.19
7.52
9.02
10.09
10.97
11.8
12.6
13.38
14.15
14.86
15.46
15.87
16.07
16.1
16.04
16.02
16.15
16.49
17.01
17.6
18.04
18.11
17.6
16.44
14.75
12.82
11
9.58
8.66
8.11
7.62
6.88
5.7
4.1
2.28
0.56
-0.86
-1.92
-2.83
-3.88
-5.33
-7.26
-9.5
-11.78
-13.82
-15.52
-16.95
-18.36
-20.05
-22.31
-25.37
-29.21
-33.5
-37.55
-40.43
-41.24
-39.46
-35.11
-28.83
-21.59
-14.37
-7.89
-2.47
1.86
5.22
7.8
9.72
11.12
12.12
12.84
13.39
13.81
14.11
14.27
14.32
14.3
14.29
14.4
14.7
15.22
15.91
16.63
17.24
17.56
17.5
17.03
16.2
15.03
13.57
11.8
9.79
7.66
5.6
3.82
2.43
1.42
0.6
-0.3
-1.51
-3.14
-5.1
-7.2
-9.2
-10.98
-12.51
-13.89
-15.27
-16.8
-18.64
-20.91
-23.74
-27.13
-30.83
-34.28
-36.69
-37.21
-35.28
-30.86
-24.47
-17.08
-9.73
-3.3
1.79
5.49
8.08
9.89
11.19
12.12
12.73
13.02
13.05
12.9
12.67
12.44
12.23
12.05
11.92
11.9
12.05
12.43
13.03
13.76
14.45
14.93
15.05
14.7
13.78
12.31
10.38
8.22
6.12
4.34
3
1.98
1.01
-0.25
-2.02
-4.26
-6.73
-9.06
-10.97
-12.38
-13.45
-14.51
-15.92
-17.97
-20.79
-24.3
-28.22
-32.01
-34.96
-36.27
-35.35
-32.01
-26.6
-19.89
-12.84
-6.35
-0.97
3.15
6.1
8.13
9.48
10.33
10.86
11.22
11.54
11.86
12.17
12.38
12.47
12.49
12.51
12.66
13.04
13.68
14.6
15.74
17.06
18.44
19.69
20.57
20.87
20.48
19.46
18.01
16.48
15.1
14
13.06
12.06
10.76
9.01
6.91
4.68
2.62
0.94
-0.36
-1.43
-2.5
-3.76
-5.26
-6.95
-8.69
-10.37
-11.91
-13.31
-14.59
-15.91
-17.49
-19.63
-22.58
-26.35
-30.61
-34.64
-37.53
-38.4
-36.74
-32.52
-26.22
-18.69
-10.89
-3.71
2.22
6.59
9.4
10.93
11.58
11.74
11.74
11.79
11.97
12.32
12.84
13.49
14.18
14.85
15.42
15.87
16.23
16.55
16.89
17.26
17.64
17.97
18.13
17.98
17.4
16.36
14.95
13.37
11.86
10.62
9.68
8.89
8.04
6.94
5.58
4.1
2.69
1.46
0.36
-0.74
-1.97
-3.4
-4.94
-6.47
-7.91
-9.24
-10.52
-11.78
-13.02
-14.18
-15.24
-16.27
-17.45
-19.02
-21.19
-24.08
-27.64
-31.64
-35.61
-38.9
-40.78
-40.62
-38.12
-33.46
-27.3
-20.58
-14.19
-8.74
-4.44
-1.09
1.62
4.01
6.16
8.05
9.58
10.75
11.66
12.48
13.4
14.51
15.8
17.19
18.55
19.8
20.87
21.68
22.17
22.26
21.92
21.2
20.22
19.12
17.97
16.75
15.39
13.81
11.98
10.02
8.09
6.32
4.76
3.29
1.68
-0.24
-2.5
-4.99
-7.47
-9.72
-11.61
-13.14
-14.41
-15.59
-16.9
-18.58
-20.89
-23.97
-27.71
-31.6
-34.81
-36.36
-35.53
-32.1
-26.5
-19.65
-12.58
-6.19
-0.95
3.03
5.93
7.98
9.43
10.49
11.32
12.1
12.92
13.8
14.67
15.45
16.06
16.5
16.86
17.21
17.64
18.16
18.75
19.35
19.87
20.16
20.1
19.61
18.66
17.37
15.89
14.36
12.87
11.43
9.99
8.49
6.94
5.39
3.93
2.62
1.46
0.33
-0.89
-2.35
-4.13
-6.2
-8.43
-10.67
-12.77
-14.66
-16.4
-18.2
-20.34
-23.09
-26.61
-30.79
-35.21
-39.1
-41.61
-41.94
-39.69
-34.98
-28.42
-20.92
-13.47
-6.82
-1.4
2.7
5.67
7.84
9.55
10.99
12.28
13.39
14.29
14.99
15.58
16.19
16.87
17.57
18.15
18.47
18.54
18.5
18.59
18.94
19.52
20.05
20.23
19.83
18.9
17.63
16.3
15.08
13.96
12.75
11.28
9.5
7.47
5.43
3.6
2.08
0.88
-0.19
-1.32
-2.69
-4.42
-6.49
-8.81
-11.19
-13.44
-15.41
-17.08
-18.58
-20.2
-22.26
-25.03
-28.56
-32.55
-36.4
-39.25
-40.3
-39
-35.25
-29.42
-22.29
-14.81
-7.84
-1.99
2.48
5.62
7.7
9.05
9.94
10.58
11.08
11.49
11.85
12.2
12.57
12.95
13.26
13.44
13.44
13.32
13.2
13.23
13.52
14.05
14.67
15.1
15.1
14.48
13.24
11.55
9.7
7.95
6.47
5.24
4.07
2.72
0.99
-1.19
-3.71
-6.35
-8.84
-10.98
-12.73
-14.25
-15.8
-17.76
-20.41
-23.84
-27.81
-31.73
-34.78
-36.08
-35.03
-31.52
-25.93
-19.09
-11.97
-5.41
0.07
4.38
7.69
10.28
12.42
14.2
15.65
16.74
17.46
17.82
17.93
17.83
17.62
17.33
17.05
16.85
16.82
17.02
17.4
17.82
18.04
17.91
17.28
16.17
14.63
12.8
10.81
8.82
7.01
5.46
4.2
3.05
1.79
0.16
-1.93
-4.41
-7
-9.45
-11.56
-13.31
-14.83
-16.34
-18.15
-20.51
-23.6
-27.38
-31.43
-34.98
-37.04
-36.77
-33.8
-28.42
-21.51
-14.2
-7.5
-1.98
2.25
5.44
7.98
10.14
12.05
13.7
15.04
16.09
16.92
17.61
18.24
18.78
19.2
19.43
19.48
19.39
19.28
19.2
19.15
19.1
18.99
18.76
18.37
17.77
16.88
15.65
14.08
12.28
10.43
8.72
7.21
5.86
4.53
3.09
1.49
-0.22
-1.93
-3.58
-5.17
-6.78
-8.49
-10.34
-12.29
-14.34
-16.53
-19.01
-21.99
-25.59
-29.7
-33.86
-37.3
-39.11
-38.55
-35.34
-29.75
-22.61
-15.01
-7.94
-2.07
2.43
5.76
8.25
10.23
11.9
13.3
14.43
15.26
15.76
15.95
15.85
15.56
15.18
14.9
14.91
15.35
16.26
17.5
18.84
19.97
20.67
20.85
20.54
19.82
18.8
17.55
16.13
14.58
12.97
11.39
9.88
8.48
7.14
5.8
4.39
2.84
1.1
-0.87
-3.06
-5.39
-7.71
-9.82
-11.63
-13.16
-14.63
-16.36
-18.68
-21.81
-25.75
-30.13
-34.25
-37.2
-38.06
-36.25
-31.77
-25.25
-17.76
-10.45
-4.17
0.69
4.21
6.76
8.68
10.17
11.3
12.04
12.44
12.63
12.78
13.07
13.53
14.12
14.72
15.21
15.54
15.75
15.96
16.28
16.76
17.32
17.74
17.77
17.2
15.96
14.12
11.92
9.65
7.6
5.93
4.67
3.7
2.81
1.73
0.31
-1.54
-3.69
-5.94
-8.03
-9.8
-11.27
-12.65
-14.28
-16.47
-19.41
-23.01
-26.93
-30.53
-33.08
-33.92
-32.61
-29.1
-23.77
-17.32
-10.63
-4.46
0.65
4.54
7.4
9.59
11.47
13.22
14.83
16.11
16.92
17.19
17.05
16.71
16.43
16.33
16.49
16.87
17.41
18.04
18.69
19.27
19.68
19.81
19.59
19.02
18.1
16.86
15.34
13.6
11.73
9.89
8.25
6.96
6.05
5.42
4.81
3.92
2.49
0.43
-2.12
-4.85
-7.44
-9.66
-11.51
-13.2
-15
-17.24
-20.08
-23.57
-27.54
-31.59
-35.04
-37.05
-36.84
-33.97
-28.63
-21.61
-14.01
-6.92
-1
3.56
6.95
9.45
11.3
12.63
13.56
14.29
15.05
15.97
17.04
18.03
18.68
18.8
18.42
17.77
17.14
16.79
16.82
17.15
17.58
17.85
17.76
17.21
16.26
15.07
13.82
12.72
11.82
11.07
10.29
9.28
7.92
6.25
4.49
2.9
1.72
0.94
0.3
-0.52
-1.83
-3.73
-6.03
-8.43
-10.61
-12.38
-13.79
-15.03
-16.34
-17.98
-20.09
-22.75
-25.82
-28.98
-31.63
-33.02
-32.49
-29.67
-24.8
-18.53
-11.84
-5.64
-0.5
3.39
6.22
8.26
9.78
10.87
11.58
11.97
12.14
12.25
12.46
12.85
13.39
13.96
14.47
14.87
15.19
15.49
15.83
16.13
16.28
16.11
15.54
14.58
13.35
12.03
10.77
9.68
8.73
7.89
7.03
6.03
4.82
3.41
1.89
0.43
-0.85
-1.94
-2.95
-4.11
-5.56
-7.32
-9.25
-11.12
-12.78
-14.17
-15.48
-16.96
-18.87
-21.35
-24.27
-27.26
-29.64
-30.67
-29.69
-26.45
-21.18
-14.62
-7.78
-1.66
3.08
6.23
8.02
8.88
9.27
9.58
9.99
10.58
11.32
12.08
12.75
13.17
13.27
13.07
12.69
12.29
12.02
11.95
12.08
12.36
12.68
12.94
13.02
12.81
12.25
11.34
10.18
8.89
7.59
6.31
5.08
3.88
2.69
1.48
0.21
-1.22
-2.88
-4.76
-6.8
-8.82
-10.61
-12.08
-13.21
-14.14
-15.04
-16.1
-17.51
-19.41
-21.85
-24.66
-27.43
-29.47
-30.06
-28.7
-25.31
-20.3
-14.41
-8.45
-3.06
1.39
4.83
7.38
9.16
10.33
11.03
11.47
11.8
12.17
12.62
13.1
13.48
13.66
13.58
13.26
12.83
12.44
12.23
12.26
12.49
12.8
13.03
13.06
12.77
12.17
11.32
10.35
9.39
8.48
7.55
6.46
5.08
3.38
1.54
-0.14
-1.35
-1.96
-2.09
-2.1
-2.39
-3.29
-4.84
-6.86
-9.04
-11.06
-12.73
-14.01
-15
-15.91
-17.02
-18.65
-21.02
-24.09
-27.46
-30.35
-31.78
-30.93
-27.49
-21.78
-14.74
-7.57
-1.33
3.33
6.31
7.92
8.66
9.01
9.28
9.57
9.91
10.27
10.64
11.05
11.44
11.73
11.83
11.7
11.42
11.19
11.22
11.59
12.21
12.79
13
12.63
11.71
10.45
9.15
8.05
7.16
6.34
5.36
4.07
2.48
0.81
-0.65
-1.68
-2.24
-2.51
-2.81
-3.41
-4.47
-6
-7.83
-9.77
-11.63
-13.25
-14.62
-15.79
-16.97
-18.47
-20.54
-23.22
-26.19
-28.8
-30.19
-29.67
-26.95
-22.27
-16.32
-10.03
-4.21
0.58
4.16
6.61
8.2
9.19
9.82
10.2
10.38
10.37
10.22
9.99
9.72
9.44
9.08
8.62
8.09
7.63
7.46
7.73
8.44
9.38
10.2
10.54
10.21
9.21
7.74
6.04
4.39
2.96
1.84
0.96
0.12
-0.91
-2.37
-4.33
-6.61
-8.89
-10.8
-12.12
-12.93
-13.58
-14.53
-16.23
-18.84
-22.22
-25.9
-29.15
-31.16
-31.22
-28.98
-24.57
-18.63
-12.15
-6.13
-1.25
2.25
4.6
6.25
7.64
8.99
10.29
11.36
12.04
12.24
12.02
11.52
10.92
10.39
9.99
9.75
9.65
9.67
9.83
10.17
10.73
11.46
12.18
12.61
12.46
11.6
10.09
8.19
6.24
4.53
3.13
1.91
0.63
-0.95
-2.89
-5.11
-7.37
-9.43
-11.13
-12.43
-13.42
-14.29
-15.31
-16.73
-18.79
-21.59
-25.01
-28.67
-31.94
-34.04
-34.28
-32.27
-28.09
-22.27
-15.64
-9.15
-3.53
0.79
3.75
5.63
6.85
7.86
8.96
10.23
11.52
12.6
13.26
13.44
13.26
12.96
12.78
12.86
13.2
13.74
14.43
15.23
16.1
16.92
17.51
17.62
17.1
15.93
14.3
12.52
10.89
9.58
8.56
7.62
6.54
5.1
3.29
1.28
-0.67
-2.38
-3.78
-5
-6.25
-7.67
-9.27
-10.95
-12.58
-14.15
-15.72
-17.45
-19.46
-21.86
-24.68
-27.94
-31.53
-35.09
-38
-39.43
-38.62
-35.26
-29.65
-22.66
-15.38
-8.75
-3.27
0.98
4.19
6.65
8.59
10.13
11.36
12.32
13.07
13.63
14.01
14.24
14.36
14.45
14.57
14.79
15.1
15.5
15.97
16.52
17.11
17.62
17.87
17.64
16.81
15.38
13.52
11.51
9.61
7.97
6.6
5.39
4.19
2.88
1.39
-0.29
-2.15
-4.17
-6.3
-8.49
-10.61
-12.54
-14.2
-15.62
-16.96
-18.52
-20.62
-23.47
-27.06
-31.01
-34.64
-37.04
-37.42
-35.26
-30.63
-24.06
-16.53
-9.06
-2.54
2.55
6.15
8.52
10.07
11.22
12.19
13.06
13.79
14.29
14.56
14.69
14.83
15.12
15.62
16.27
16.96
17.57
18.05
18.45
18.82
19.22
19.59
19.8
19.64
18.98
17.72
15.95
13.88
11.75
9.8
8.11
6.61
5.14
3.48
1.54
-0.67
-3
-5.31
-7.52
-9.63
-11.74
-13.98
-16.48
-19.36
-22.67
-26.44
-30.51
-34.56
-37.96
-39.91
-39.59
-36.56
-30.99
-23.64
-15.68
-8.29
-2.22
2.35
5.71
8.36
10.68
12.83
14.7
16.16
17.17
17.84
18.4
19.01
19.7
20.39
20.92
21.22
21.35
21.51
21.9
22.61
23.54
24.43
24.96
24.9
24.15
22.87
21.27
19.64
18.13
16.82
15.61
14.33
12.79
10.88
8.63
6.23
3.96
2.05
0.53
-0.78
-2.18
-3.97
-6.23
-8.83
-11.5
-13.93
-16
-17.8
-19.57
-21.62
-24.26
-27.62
-31.72
-36.24
-40.58
-43.83
-45.04
-43.47
-38.9
-31.79
-23.12
-14.14
-5.95
0.75
5.75
9.23
11.61
13.34
14.79
16.18
17.59
18.95
20.17
21.18
21.94
22.46
22.77
22.9
22.9
22.87
22.9
23.12
23.49
23.92
24.16
24.01
23.32
22.1
20.49
18.66
16.87
15.27
13.95
12.9
11.99
11.04
9.93
8.59
7.11
5.62
4.22
2.99
1.83
0.62
-0.76
-2.44
-4.4
-6.63
-8.96
-11.19
-13.17
-14.84
-16.37
-18.07
-20.36
-23.53
-27.59
-32.18
-36.59
-39.91
-41.25
-40.05
-36.15
-30
-22.42
-14.46
-7.07
-0.9
3.82
7.18
9.5
11.13
12.35
13.31
14.09
14.67
15.07
15.34
15.61
16.01
16.63
17.46
18.41
19.3
20
20.45
20.66
20.69
20.58
20.29
19.69
18.68
17.2
15.28
13.08
10.81
8.67
6.79
5.21
3.81
2.45
0.94
-0.83
-2.83
-4.95
-7.02
-8.89
-10.52
-11.96
-13.36
-14.91
-16.82
-19.26
-22.32
-25.92
-29.7
-33.05
-35.14
-35.18
-32.67
-27.68
-20.84
-13.21
-5.91
0.23
4.83
8.07
10.35
12.11
13.6
14.86
15.84
16.54
17.08
17.62
18.32
19.12
19.85
20.27
20.23
19.78
19.2
18.79
18.79
19.26
19.99
20.65
20.91
20.51
19.43
17.77
15.76
13.62
11.51
9.51
7.65
5.97
4.45
3.07
1.75
0.34
-1.37
-3.48
-6
-8.78
-11.55
-14.02
-16
-17.49
-18.73
-20.09
-22.01
-24.83
-28.59
-32.91
-37
-39.81
-40.4
-38.19
-33.22
-26.1
-17.84
-9.57
-2.18
3.82
8.3
11.38
13.34
14.52
15.24
15.77
16.3
16.92
17.59
18.24
18.77
19.16
19.41
19.52
19.54
19.45
19.26
18.97
18.65
18.31
17.93
17.46
16.8
15.9
14.72
13.34
11.87
10.42
9.06
7.76
6.45
5.03
3.48
1.84
0.15
-1.54
-3.26
-5.08
-7.06
-9.16
-11.24
-13.1
-14.63
-15.85
-17.03
-18.56
-20.84
-24.12
-28.28
-32.84
-36.93
-39.58
-39.94
-37.59
-32.66
-25.8
-18.01
-10.29
-3.45
2.07
6.15
8.91
10.62
11.55
11.98
12.13
12.2
12.35
12.64
13.06
13.52
13.86
13.93
13.66
13.16
12.68
12.53
12.94
13.9
15.13
16.22
16.7
16.26
14.87
12.66
9.98
7.22
4.73
2.68
1.06
-0.3
-1.68
-3.31
-5.26
-7.43
-9.55
-11.36
-12.72
-13.7
-14.6
-15.84
-17.82
-20.77
-24.6
-28.87
-32.75
-35.27
-35.57
-33.17
-28.26
-21.54
-14.12
-7.06
-1.11
3.42
6.68
8.99
10.72
12.1
13.27
14.27
15.11
15.83
16.44
16.96
17.4
17.79
18.09
18.33
18.49
18.59
18.66
18.69
18.7
18.63
18.39
17.86
16.95
15.64
14.01
12.19
10.31
8.44
6.63
4.88
3.22
1.71
0.36
-0.89
-2.22
-3.81
-5.74
-7.98
-10.29
-12.41
-14.21
-15.7
-17.13
-18.8
-21.01
-23.97
-27.72
-32.08
-36.57
-40.42
-42.69
-42.49
-39.35
-33.4
-25.49
-16.84
-8.69
-1.93
3.09
6.49
8.66
10.01
10.89
11.54
12.18
12.96
13.97
15.16
16.37
17.42
18.18
18.64
18.9
19.08
19.3
19.61
20.01
20.43
20.79
20.94
20.76
20.11
18.96
17.41
15.6
13.78
12.11
10.68
9.48
8.42
7.39
6.25
4.95
3.46
1.89
0.33
-1.08
-2.36
-3.62
-5.09
-6.97
-9.35
-12.11
-14.93
-17.44
-19.35
-20.62
-21.53
-22.53
-24.2
-26.91
-30.73
-35.22
-39.53
-42.58
-43.4
-41.48
-36.92
-30.4
-22.91
-15.47
-8.79
-3.25
1.07
4.28
6.56
8.09
9.07
9.71
10.2
10.64
11.12
11.68
12.31
13.05
13.9
14.8
15.71
16.53
17.2
17.7
18.04
18.21
18.19
17.87
17.13
15.9
14.19
12.13
9.94
7.92
6.26
5.04
4.16
3.34
2.26
0.66
-1.59
-4.41
-7.54
-10.68
-13.5
-15.85
-17.78
-19.56
-21.59
-24.31
-27.91
-32.24
-36.65
-40.19
-41.83
-40.81
-36.97
-30.77
-23.15
-15.2
-7.87
-1.7
3.14
6.73
9.31
11.12
12.38
13.23
13.79
14.15
14.38
14.63
15.01
15.63
16.44
17.3
17.96
18.26
18.24
18.17
18.41
19.14
20.23
21.21
21.46
20.57
18.53
15.71
12.71
10
7.72
5.69
3.58
1.11
-1.75
-4.84
-7.84
-10.53
-12.75
-14.52
-15.97
-17.28
-18.73
-20.64
-23.34
-27.02
-31.61
-36.65
-41.24
-44.27
-44.72
-42.04
-36.39
-28.62
-20
-11.84
-5.02
0.11
3.73
6.3
8.27
9.91
11.34
12.56
13.63
14.61
15.64
16.79
18.01
19.16
20.03
20.54
20.72
20.77
20.95
21.44
22.25
23.17
23.86
23.92
23.08
21.32
18.82
16.01
13.33
11.08
9.36
7.97
6.53
4.66
2.13
-1.04
-4.56
-8.07
-11.26
-14
-16.36
-18.53
-20.79
-23.4
-26.61
-30.59
-35.32
-40.43
-45.14
-48.37
-49.03
-46.43
-40.6
-32.35
-23.02
-14.01
-6.32
-0.36
4.03
7.29
9.85
11.96
13.7
15.09
16.18
17.07
17.84
18.5
18.94
19.09
18.93
18.62
18.46
18.72
19.52
20.76
22.1
23.11
23.39
22.77
21.31
19.27
16.98
14.7
12.52
10.37
8.08
5.5
2.54
-0.7
-4.06
-7.3
-10.25
-12.85
-15.27
-17.8
-20.89
-24.87
-29.84
-35.4
-40.64
-44.32
-45.25
-42.68
-36.62
-27.88
-17.84
-8.06
0.18
6.23
10.08
12.3
13.68
14.93
16.38
18.05
19.69
21.02
21.93
22.48
22.86
23.22
23.6
23.95
24.16
24.11
23.74
23.07
22.12
21
19.86
18.78
17.78
16.67
15.2
13.06
10.17
6.68
2.98
-0.52
-3.54
-6.06
-8.25
-10.38
-12.69
-15.38
-18.61
-22.54
-27.19
-32.3
-37.19
-40.83
-42.08
-40.16
-34.94
-27.08
-17.8
-8.49
-0.29
6.2
10.93
14.25
16.62
18.44
19.88
20.99
21.72
22.06
22.02
21.7
21.22
20.7
20.25
19.98
19.99
20.33
20.95
21.69
22.27
22.4
21.89
20.69
18.91
16.75
14.42
12.05
9.68
7.25
4.68
1.89
-1.08
-4.09
-6.96
-9.54
-11.87
-14.16
-16.82
-20.26
-24.76
-30.17
-35.93
-41.02
-44.21
-44.44
-41.15
-34.52
-25.47
-15.39
-5.69
2.59
9.02
13.74
17.16
19.76
21.81
23.45
24.68
25.52
26.05
26.41
26.73
27.11
27.57
28.09
28.69
29.33
30.03
30.74
31.4
31.89
32.03
31.68
30.7
29.03
26.74
24.02
21.11
18.29
15.72
13.44
11.33
9.12
6.54
3.42
-0.19
-4.05
-7.78
-11.02
-13.56
-15.45
-16.98
-18.53
-20.54
-23.39
-27.3
-32.3
-38.05
-43.79
-48.41
-50.62
-49.43
-44.5
-36.42
-26.46
-16.23
-7.05
0.36
5.96
10.15
13.43
16.13
18.37
20.14
21.45
22.39
23.13
23.78
24.42
25.05
25.6
26.02
26.34
26.6
26.9
27.31
27.83
28.35
28.69
28.63
28.01
26.82
25.17
23.33
21.57
20.04
18.74
17.48
16.03
14.19
11.92
9.37
6.76
4.33
2.18
0.25
-1.59
-3.56
-5.78
-8.24
-10.8
-13.22
-15.32
-17.08
-18.68
-20.41
-22.61
-25.54
-29.3
-33.86
-38.92
-43.84
-47.68
-49.34
-47.89
-42.97
-34.99
-25.15
-14.99
-5.92
1.22
6.28
9.63
11.88
13.51
14.78
15.74
16.39
16.76
16.96
17.19
17.6
18.27
19.12
19.96
20.58
20.85
20.83
20.68
20.69
21
21.6
22.3
22.79
22.77
22.04
20.58
18.49
16.02
13.43
10.92
8.59
6.35
4.05
1.5
-1.36
-4.45
-7.57
-10.45
-12.88
-14.77
-16.2
-17.4
-18.71
-20.52
-23.13
-26.72
-31.13
-35.83
-39.93
-42.43
-42.4
-39.33
-33.33
-25.13
-15.89
-6.85
0.96
6.96
11.06
13.57
14.98
15.83
16.49
17.12
17.73
18.19
18.41
18.35
18.14
17.99
18.05
18.38
18.89
19.38
19.69
19.76
19.67
19.48
19.26
18.96
18.49
17.71
16.52
14.92
13.01
10.94
8.9
7.02
5.34
3.79
2.22
0.43
-1.71
-4.16
-6.75
-9.17
-11.14
-12.54
-13.51
-14.35
-15.46
-17.19
-19.78
-23.26
-27.43
-31.83
-35.74
-38.28
-38.61
-36.25
-31.19
-24.11
-16.07
-8.27
-1.62
3.49
7.14
9.68
11.51
12.87
13.81
14.29
14.3
14
13.65
13.52
13.76
14.35
15.11
15.82
16.35
16.68
16.9
17.12
17.39
17.69
17.87
17.79
17.31
16.35
14.96
13.26
11.44
9.66
8.02
6.54
5.15
3.78
2.4
1.01
-0.39
-1.83
-3.38
-5.1
-6.96
-8.91
-10.84
-12.65
-14.29
-15.82
-17.35
-19.1
-21.34
-24.28
-27.88
-31.76
-35.11
-36.89
-36.23
-32.72
-26.73
-19.19
-11.4
-4.49
0.94
4.76
7.28
8.87
9.83
10.29
10.29
9.88
9.24
8.56
8.07
7.87
7.92
8.11
8.27
8.34
8.4
8.59
9.09
9.87
10.73
11.3
11.25
10.4
8.89
7.05
5.29
3.85
2.71
1.64
0.33
-1.43
-3.64
-6.11
-8.51
-10.53
-11.98
-12.78
-13.07
-13.14
-13.4
-14.29
-16.17
-19.15
-22.97
-26.94
-30.07
-31.37
-30.16
-26.32
-20.39
-13.32
-6.2
0.08
5.02
8.47
10.61
11.72
12.15
12.24
12.31
12.57
13.11
13.86
14.65
15.27
15.62
15.67
15.47
15.19
14.97
14.94
15.14
15.47
15.77
15.81
15.4
14.51
13.23
11.75
10.28
8.93
7.72
6.56
5.36
3.96
2.31
0.32
-2.02
-4.62
-7.32
-9.91
-12.17
-14.04
-15.6
-17.07
-18.78
-21
-23.86
-27.23
-30.66
-33.42
-34.65
-33.68
-30.3
-24.91
-18.38
-11.77
-5.97
-1.39
2.03
4.63
6.72
8.48
9.91
10.9
11.45
11.63
11.6
11.5
11.42
11.36
11.3
11.22
11.15
11.16
11.32
11.67
12.19
12.81
13.37
13.73
13.76
13.29
12.27
10.68
8.64
6.42
4.4
2.85
1.89
1.37
0.93
0.16
-1.19
-3.12
-5.42
-7.73
-9.73
-11.26
-12.36
-13.23
-14.14
-15.37
-17.12
-19.49
-22.42
-25.65
-28.63
-30.67
-31.07
-29.35
-25.5
-20.04
-13.84
-7.88
-2.9
0.82
3.38
5.13
6.39
7.33
7.94
8.18
8.09
7.84
7.63
7.56
7.65
7.79
7.94
8.1
8.37
8.86
9.56
10.3
10.81
10.84
10.24
9.09
7.55
5.84
4.14
2.53
1
-0.51
-2.09
-3.79
-5.63
-7.57
-9.46
-11.16
-12.55
-13.62
-14.5
-15.43
-16.73
-18.64
-21.18
-24.07
-26.71
-28.32
-28.2
-26
-21.83
-16.31
-10.27
-4.57
0.22
3.82
6.28
7.79
8.57
8.84
8.76
8.52
8.26
8.09
8.04
8.08
8.1
8.01
7.82
7.59
7.46
7.56
7.92
8.47
9.01
9.31
9.15
8.43
7.18
5.58
3.85
2.23
0.83
-0.37
-1.49
-2.69
-4.05
-5.55
-7.09
-8.55
-9.91
-11.23
-12.65
-14.31
-16.34
-18.75
-21.39
-23.96
-25.94
-26.76
-25.9
-23.15
-18.72
-13.23
-7.51
-2.35
1.72
4.6
6.49
7.75
8.69
9.46
10.03
10.31
10.26
9.91
9.42
8.95
8.62
8.49
8.49
8.56
8.7
8.95
9.36
9.93
10.56
11.05
11.17
10.75
9.73
8.19
6.38
4.6
3.13
2.08
1.39
0.81
0.01
-1.28
-3.13
-5.39
-7.72
-9.8
-11.4
-12.51
-13.28
-14.05
-15.14
-16.84
-19.28
-22.34
-25.59
-28.33
-29.82
-29.42
-26.93
-22.63
-17.21
-11.51
-6.27
-1.93
1.39
3.8
5.47
6.58
7.31
7.81
8.29
8.86
9.57
10.32
10.96
11.38
11.59
11.7
11.84
12.1
12.45
12.83
13.18
13.5
13.8
14.04
14.15
13.98
13.45
12.53
11.3
9.88
8.42
7.01
5.74
4.65
3.68
2.68
1.46
-0.18
-2.29
-4.69
-7.06
-9.06
-10.54
-11.57
-12.48
-13.69
-15.49
-18
-21.12
-24.51
-27.68
-30.03
-30.96
-30.01
-27.03
-22.31
-16.51
-10.5
-5.06
-0.67
2.58
4.85
6.41
7.45
8.03
8.17
7.96
7.59
7.31
7.32
7.67
8.21
8.73
9.01
8.97
8.69
8.37
8.27
8.52
9.09
9.73
10.12
10.03
9.39
8.35
7.16
6.03
5.02
4
2.73
1.05
-1.06
-3.45
-5.87
-8.1
-9.98
-11.49
-12.7
-13.73
-14.8
-16.14
-18.03
-20.66
-23.94
-27.45
-30.41
-31.92
-31.29
-28.32
-23.45
-17.55
-11.57
-6.28
-2.03
1.23
3.8
6.06
8.35
10.83
13.44
15.9
17.78
18.69
18.46
17.25
15.55
13.88
12.66
12
11.86
12.08
12.56
13.22
13.97
14.58
14.78
14.34
13.2
11.57
9.79
8.19
6.91
5.87
4.78
3.31
1.3
-1.26
-4.11
-6.89
-9.24
-10.99
-12.23
-13.33
-14.81
-17.1
-20.3
-24.07
-27.61
-29.95
-30.33
-28.42
-24.49
-19.21
-13.35
-7.56
-2.24
2.46
6.43
9.59
11.91
13.43
14.31
14.74
14.96
15.11
15.27
15.5
15.82
16.26
16.8
17.32
17.74
18.02
18.21
18.4
18.63
18.84
18.84
18.48
17.67
16.5
15.14
13.76
12.49
11.32
10.2
9.04
7.79
6.47
5.12
3.77
2.48
1.24
0.05
-1.18
-2.56
-4.2
-6.17
-8.38
-10.63
-12.65
-14.28
-15.52
-16.62
-18
-20.03
-22.93
-26.63
-30.75
-34.62
-37.47
-38.52
-37.2
-33.31
-27.17
-19.56
-11.52
-4.05
2.19
6.91
10.27
12.59
14.21
15.3
16
16.32
16.36
16.23
16.07
16.05
16.27
16.77
17.45
18.16
18.74
19.09
19.23
19.28
19.38
19.56
19.71
19.67
19.22
18.31
17.01
15.52
14.04
12.69
11.43
10.1
8.54
6.72
4.72
2.8
1.24
0.21
-0.32
-0.58
-0.9
-1.59
-2.8
-4.43
-6.31
-8.21
-9.99
-11.64
-13.23
-14.84
-16.57
-18.54
-20.85
-23.57
-26.57
-29.44
-31.51
-32.03
-30.4
-26.46
-20.63
-13.72
-6.68
-0.34
4.8
8.62
11.21
12.87
13.88
14.52
15.01
15.47
15.95
16.45
16.95
17.47
18
18.5
18.88
19.06
18.97
18.68
18.38
18.24
18.39
18.8
19.29
19.59
19.53
19.03
18.17
17.15
16.11
15.13
14.21
13.26
12.22
11.03
9.72
8.34
6.98
5.77
4.82
4.22
3.93
3.82
3.63
3.13
2.17
0.8
-0.84
-2.52
-4.04
-5.33
-6.42
-7.39
-8.38
-9.52
-10.88
-12.5
-14.3
-16.02
-17.26
-17.57
-16.54
-14.06
-10.31
-5.75
-0.95
3.61
7.74
11.53
15.19
18.85
22.31
25.07
26.45
25.94
23.48
19.55
15.02
10.8
7.5
5.3
4.04
3.37
2.99
2.76
2.67
2.7
2.79
2.78
2.56
2.07
1.38
0.64
0.06
-0.24
-0.21
-0.03
0.04
-0.32
-1.26
-2.72
-4.38
-5.84
-6.77
-7.07
-6.92
-6.63
-6.52
-6.77
-7.36
-8.15
-9
-9.82
-10.59
-11.35
-12.15
-13.03
-13.99
-15.05
-16.2
-17.47
-18.85
-20.28
-21.57
-22.32
-22.12
-20.57
-17.56
-13.35
-8.48
-3.65
0.56
3.77
5.9
7.05
7.38
7.08
6.36
5.44
4.54
3.84
3.38
3.13
2.97
2.81
2.64
2.5
2.49
2.68
3.07
3.56
4.04
4.37
4.45
4.25
3.79
3.2
2.57
2
1.46
0.9
0.21
-0.63
-1.54
-2.36
-2.93
-3.19
-3.18
-3.1
-3.19
-3.65
-4.56
-5.83
-7.23
-8.37
-8.94
-8.76
-7.95
-6.93
-6.32
-6.67
-8.13
-10.41
-12.78
-14.36
-14.49
-12.92
-9.9
-5.98
-1.8
2.05
5.18
7.35
8.45
8.55
7.85
6.68
5.4
4.35
3.72
3.56
3.76
4.15
4.56
4.87
5.03
5.02
4.84
4.52
4.09
3.63
3.25
3.02
2.93
2.87
2.68
2.23
1.49
0.59
-0.26
-0.9
-1.28
-1.52
-1.83
-2.35
-3.1
-3.95
-4.71
-5.19
-5.38
-5.33
-5.18
-5.09
-5.15
-5.41
-5.84
-6.37
-6.88
-7.31
-7.66
-8.03
-8.54
-9.37
-10.65
-12.45
-14.66
-16.96
-18.79
-19.51
-18.6
-15.87
-11.64
-6.63
-1.67
2.5
5.53
7.36
8.21
8.32
7.92
7.17
6.25
5.34
4.61
4.14
3.93
3.91
3.99
4.07
4.08
3.95
3.67
3.29
2.93
2.74
2.81
3.07
3.37
3.47
3.21
2.53
1.54
0.43
-0.57
-1.3
-1.68
-1.73
-1.6
-1.46
-1.57
-2
-2.75
-3.59
-4.23
-4.45
-4.25
-3.84
-3.58
-3.78
-4.54
-5.73
-7.04
-8.17
-9
-9.56
-10.03
-10.53
-11.18
-11.98
-13
-14.29
-15.87
-17.59
-18.97
-19.38
-18.16
-15.04
-10.34
-4.91
0.19
4.13
6.52
7.57
7.72
7.46
7.06
6.62
6.15
5.73
5.44
5.4
5.59
5.88
6.09
6.08
5.83
5.4
4.95
4.59
4.41
4.44
4.66
4.99
5.32
5.51
5.48
5.16
4.54
3.71
2.76
1.83
1.08
0.6
0.38
0.28
0.11
-0.34
-1.15
-2.29
-3.58
-4.85
-5.96
-6.86
-7.56
-8.09
-8.46
-8.67
-8.77
-8.83
-8.96
-9.2
-9.57
-9.97
-10.36
-10.75
-11.23
-12.02
-13.24
-14.89
-16.73
-18.26
-18.89
-18.12
-15.72
-11.88
-7.15
-2.3
1.87
4.85
6.42
6.79
6.37
5.66
5.04
4.66
4.48
4.35
4.15
3.85
3.54
3.35
3.36
3.57
3.88
4.21
4.48
4.65
4.73
4.73
4.69
4.63
4.59
4.57
4.53
4.42
4.17
3.78
3.32
2.85
2.41
1.95
1.31
0.38
-0.88
-2.29
-3.6
-4.52
-4.94
-4.96
-4.83
-4.88
-5.33
-6.22
-7.44
-8.78
-10.02
-11
-11.67
-12.05
-12.27
-12.56
-13.23
-14.55
-16.67
-19.46
-22.44
-24.82
-25.79
-24.76
-21.67
-17.02
-11.67
-6.53
-2.27
0.87
2.96
4.3
5.06
5.36
5.24
4.79
4.18
3.63
3.29
3.15
3.02
2.76
2.29
1.73
1.31
1.23
1.57
2.27
3.13
3.95
4.65
5.19
5.54
5.62
5.35
4.73
3.89
3.06
2.43
2.11
1.98
1.82
1.43
0.7
-0.3
-1.47
-2.77
-4.23
-5.95
-7.98
-10.24
-12.49
-14.48
-16.07
-17.31
-18.42
-19.71
-21.44
-23.71
-26.33
-28.8
-30.5
-30.81
-29.36
-26.19
-21.71
-16.6
-11.51
-6.93
-3.05
0.15
2.74
4.74
6.12
6.81
6.87
6.51
6.01
5.66
5.61
5.89
6.39
6.96
7.47
7.88
8.22
8.5
8.75
8.91
8.93
8.8
8.56
8.38
8.35
8.54
8.81
8.93
8.63
7.76
6.38
4.7
3.06
1.72
0.8
0.18
-0.41
-1.27
-2.64
-4.55
-6.89
-9.43
-11.95
-14.26
-16.38
-18.38
-20.48
-22.87
-25.73
-29.12
-32.95
-36.85
-40.26
-42.47
-42.82
-40.91
-36.79
-30.92
-24.11
-17.22
-11.01
-5.91
-2.1
0.54
2.28
3.44
4.33
5.12
5.86
6.55
7.17
7.76
8.41
9.21
10.16
11.18
12.15
13
13.77
14.59
15.58
16.76
18.01
19.05
19.62
19.54
18.8
17.56
16.12
14.7
13.5
12.52
11.69
10.87
9.96
8.85
7.49
5.86
3.97
1.85
-0.39
-2.66
-4.88
-7.07
-9.31
-11.71
-14.36
-17.21
-20.16
-23.1
-25.95
-28.78
-31.83
-35.43
-39.84
-44.99
-50.37
-54.98
-57.62
-57.22
-53.38
-46.44
-37.5
-27.9
-18.86
-11.12
-4.91
-0.07
3.66
6.56
8.82
10.61
12.09
13.47
14.86
16.32
17.82
19.29
20.72
22.16
23.67
25.27
26.96
28.62
30.17
31.47
32.41
32.91
32.86
32.24
31.06
29.5
27.84
26.33
25.06
23.91
22.59
20.79
18.4
15.62
12.82
10.41
8.59
7.27
6.11
4.67
2.59
-0.26
-3.75
-7.63
-11.54
-15.16
-18.31
-20.98
-23.34
-25.74
-28.61
-32.38
-37.27
-43.17
-49.49
-55.16
-58.9
-59.56
-56.55
-50.02
-40.88
-30.44
-20.04
-10.65
-2.75
3.62
8.64
12.59
15.66
18
19.74
21.02
22.09
23.18
24.53
26.22
28.13
29.93
31.25
31.8
31.57
30.82
29.94
29.28
28.95
28.82
28.6
28.05
27.02
25.5
23.58
21.32
18.78
16.07
13.33
10.79
8.6
6.73
4.94
2.89
0.29
-2.93
-6.56
-10.24
-13.64
-16.64
-19.36
-22.17
-25.51
-29.81
-35.32
-42
-49.36
-56.43
-61.91
-64.42
-62.98
-57.31
-47.99
-36.28
-23.73
-11.8
-1.46
6.84
13.18
17.91
21.51
24.41
26.92
29.2
31.3
33.23
34.94
36.45
37.77
38.92
39.99
41.04
42.16
43.36
44.6
45.82
46.91
47.79
48.38
48.55
48.16
47.09
45.31
42.94
40.21
37.44
34.89
32.69
30.8
29.1
27.43
25.58
23.37
20.64
17.38
13.73
9.95
6.34
3.04
0
-3.02
-6.31
-10.02
-14.09
-18.28
-22.33
-26.06
-29.49
-32.8
-36.36
-40.58
-45.83
-52.23
-59.5
-66.79
-72.69
-75.62
-74.23
-67.98
-57.4
-43.94
-29.6
-16.22
-5.06
3.48
9.69
14.23
17.79
20.84
23.62
26.2
28.59
30.85
33.07
35.3
37.53
39.61
41.37
42.64
43.41
43.83
44.21
44.82
45.76
46.85
47.7
47.86
47.08
45.4
43.08
40.54
38.09
35.88
33.83
31.78
29.6
27.25
24.85
22.53
20.42
18.5
16.7
14.83
12.77
10.47
7.92
5.18
2.22
-1.01
-4.6
-8.54
-12.73
-16.91
-20.8
-24.25
-27.33
-30.41
-34.02
-38.68
-44.52
-51.14
-57.47
-62.04
-63.38
-60.5
-53.32
-42.63
-29.92
-16.85
-4.89
5.07
12.73
18.24
22.05
24.68
26.68
28.44
30.21
32
33.61
34.77
35.29
35.16
34.6
33.99
33.7
33.94
34.72
35.84
36.99
37.88
38.28
38.04
37.06
35.34
32.93
30.01
26.8
23.51
20.29
17.25
14.43
11.89
9.62
7.56
5.5
3.12
0.2
-3.31
-7.12
-10.8
-13.9
-16.3
-18.21
-20.17
-22.78
-26.48
-31.47
-37.61
-44.37
-50.9
-56.02
-58.46
-57.2
-51.79
-42.61
-30.87
-18.22
-6.25
3.85
11.63
17.22
21.09
23.82
25.81
27.3
28.41
29.23
29.9
30.54
31.29
32.21
33.26
34.34
35.33
36.2
36.99
37.77
38.63
39.56
40.44
41.03
41.1
40.44
39.01
36.92
34.4
31.75
29.22
26.95
24.98
23.16
21.33
19.3
16.97
14.36
11.62
8.94
6.48
4.33
2.44
0.69
-1.15
-3.27
-5.85
-8.93
-12.48
-16.35
-20.33
-24.2
-27.74
-30.85
-33.62
-36.39
-39.64
-43.84
-49.11
-54.92
-60.13
-63.14
-62.51
-57.49
-48.42
-36.58
-23.77
-11.74
-1.64
6.08
11.57
15.29
17.77
19.42
20.57
21.47
22.3
23.2
24.19
25.22
26.17
26.92
27.42
27.72
27.96
28.3
28.9
29.83
31.03
32.33
33.46
34.16
34.19
33.42
31.88
29.72
27.25
24.77
22.52
20.54
18.76
16.97
14.98
12.69
10.21
7.75
5.57
3.84
2.6
1.64
0.62
-0.84
-3.01
-5.91
-9.33
-12.87
-16.18
-19.06
-21.57
-24.01
-26.77
-30.23
-34.58
-39.74
-45.23
-50.23
-53.62
-54.33
-51.61
-45.38
-36.33
-25.7
-15.01
-5.54
1.96
7.34
10.93
13.24
14.78
15.88
16.71
17.31
17.71
17.96
18.14
18.32
18.51
18.69
18.82
18.87
18.91
19.03
19.36
19.92
20.63
21.21
21.36
20.78
19.32
17.08
14.36
11.57
9.09
7.12
5.62
4.32
2.81
0.73
-2.02
-5.25
-8.54
-11.45
-13.69
-15.3
-16.59
-18
-19.98
-22.82
-26.54
-30.94
-35.47
-39.31
-41.46
-41.08
-37.7
-31.51
-23.37
-14.54
-6.25
0.68
5.98
9.85
12.69
14.82
16.4
17.4
17.84
17.82
17.59
17.4
17.46
17.82
18.4
19.06
19.74
20.41
21.09
21.75
22.3
22.6
22.57
22.16
21.42
20.42
19.22
17.82
16.23
14.46
12.53
10.48
8.3
6.04
3.76
1.61
-0.28
-1.84
-3.16
-4.5
-6.14
-8.25
-10.82
-13.58
-16.21
-18.44
-20.23
-21.76
-23.42
-25.64
-28.79
-32.94
-37.77
-42.55
-46.18
-47.57
-45.91
-41.04
-33.53
-24.53
-15.4
-7.32
-0.95
3.59
6.64
8.72
10.32
11.76
13.16
14.5
15.75
16.84
17.79
18.59
19.19
19.53
19.58
19.39
19.1
18.94
19.04
19.42
19.92
20.28
20.19
19.46
18.08
16.22
14.21
12.34
10.79
9.54
8.45
7.33
6.02
4.51
2.84
1.13
-0.49
-1.93
-3.12
-4.06
-4.81
-5.52
-6.42
-7.7
-9.44
-11.58
-13.89
-16.12
-18.08
-19.76
-21.27
-22.81
-24.7
-27.16
-30.34
-34.09
-37.93
-41.05
-42.47
-41.4
-37.53
-31.23
-23.49
-15.58
-8.64
-3.31
0.34
2.72
4.33
5.6
6.68
7.58
8.23
8.69
9.07
9.55
10.26
11.19
12.26
13.29
14.13
14.7
15.01
15.15
15.23
15.32
15.35
15.24
14.84
14.09
12.96
11.55
9.98
8.36
6.76
5.19
3.68
2.15
0.58
-1.13
-3.05
-5.21
-7.52
-9.8
-11.81
-13.37
-14.45
-15.23
-16.02
-17.26
-19.28
-22.28
-26.17
-30.57
-34.81
-38.01
-39.31
-38.13
-34.42
-28.65
-21.73
-14.68
-8.33
-3.12
0.89
3.91
6.2
7.99
9.45
10.7
11.85
12.95
13.96
14.79
15.38
15.74
15.99
16.3
16.77
17.42
18.13
18.82
19.44
19.98
20.47
20.8
20.8
20.3
19.22
17.66
15.86
14.11
12.62
11.4
10.32
9.19
7.93
6.58
5.32
4.35
3.75
3.41
3.09
2.48
1.42
-0.05
-1.68
-3.09
-4.03
-4.49
-4.74
-5.23
-6.37
-8.36
-11.07
-14.13
-17.01
-19.38
-21.13
-22.51
-23.97
-26.01
-28.97
-32.84
-37.28
-41.6
-44.95
-46.42
-45.31
-41.37
-34.93
-26.83
-18.24
-10.32
-3.84
0.87
3.96
5.85
7.01
7.83
8.59
9.43
10.4
11.47
12.53
13.43
14.04
14.31
14.39
14.46
14.69
15.14
15.75
16.38
16.86
17.08
17.03
16.74
16.27
15.69
15.04
14.36
13.68
13
12.33
11.62
10.85
9.96
8.93
7.8
6.63
5.55
4.64
3.91
3.24
2.44
1.35
-0.08
-1.67
-3.18
-4.41
-5.37
-6.3
-7.55
-9.36
-11.73
-14.41
-17.01
-19.23
-20.96
-22.36
-23.72
-25.42
-27.78
-30.92
-34.65
-38.39
-41.29
-42.38
-40.92
-36.69
-30.13
-22.24
-14.24
-7.22
-1.8
1.89
4.12
5.37
6.12
6.71
7.34
8.08
8.96
9.98
11.09
12.23
13.26
14.01
14.4
14.43
14.23
14.04
14.06
14.37
14.93
15.57
16.07
16.24
16.01
15.4
14.47
13.31
11.97
10.45
8.73
6.82
4.81
2.86
1.16
-0.19
-1.24
-2.2
-3.34
-4.84
-6.75
-8.89
-11.01
-12.84
-14.24
-15.21
-15.85
-16.37
-17.04
-18.19
-20.14
-23.06
-26.81
-30.8
-34.1
-35.65
-34.69
-31
-25.04
-17.76
-10.27
-3.5
2.02
6.18
9.12
11.11
12.42
13.25
13.77
14.11
14.37
14.6
14.81
15.01
15.2
15.39
15.56
15.7
15.81
15.88
15.94
15.98
15.99
15.91
15.66
15.16
14.34
13.21
11.81
10.19
8.4
6.53
4.68
2.94
1.43
0.17
-0.88
-1.94
-3.25
-4.98
-7.15
-9.6
-12.05
-14.27
-16.1
-17.59
-18.89
-20.24
-21.9
-24.09
-26.94
-30.43
-34.17
-37.47
-39.43
-39.17
-36.24
-30.78
-23.57
-15.73
-8.32
-2.06
2.78
6.3
8.72
10.29
11.2
11.63
11.78
11.89
12.15
12.63
13.3
14.01
14.6
14.97
15.1
15.04
14.91
14.89
15.14
15.7
16.53
17.38
17.95
18
17.45
16.4
15.12
13.82
12.6
11.38
10.04
8.46
6.65
4.75
2.94
1.39
0.11
-1.04
-2.26
-3.81
-5.74
-7.98
-10.28
-12.37
-14.04
-15.29
-16.31
-17.4
-18.92
-21.1
-24.09
-27.84
-32.12
-36.45
-40.08
-42.17
-41.95
-39.06
-33.68
-26.58
-18.79
-11.36
-5
0.05
3.89
6.84
9.18
11.08
12.62
13.89
14.93
15.81
16.55
17.1
17.42
17.53
17.49
17.42
17.48
17.74
18.21
18.83
19.44
19.93
20.15
20.07
19.66
18.97
18.05
16.95
15.73
14.39
12.96
11.46
9.95
8.53
7.28
6.19
5.25
4.39
3.52
2.66
1.79
0.89
-0.11
-1.36
-3.04
-5.22
-7.82
-10.58
-13.16
-15.29
-16.91
-18.21
-19.57
-21.4
-24
-27.46
-31.63
-36.05
-39.97
-42.49
-42.74
-40.15
-34.75
-27.19
-18.59
-10.26
-3.23
1.97
5.38
7.4
8.56
9.32
9.94
10.55
11.21
11.89
12.56
13.11
13.46
13.55
13.45
13.31
13.33
13.69
14.43
15.48
16.66
17.77
18.62
19.07
19.05
18.53
17.56
16.29
14.86
13.38
11.93
10.46
8.91
7.29
5.67
4.2
2.94
1.89
0.82
-0.52
-2.3
-4.53
-6.97
-9.33
-11.38
-13.05
-14.42
-15.69
-17.03
-18.62
-20.65
-23.31
-26.64
-30.4
-33.93
-36.29
-36.49
-33.96
-28.79
-21.81
-14.2
-7.15
-1.4
2.85
5.86
8.09
9.88
11.39
12.53
13.14
13.17
12.74
12.13
11.71
11.7
12.14
12.86
13.62
14.28
14.84
15.4
16.07
16.81
17.44
17.72
17.47
16.68
15.53
14.24
12.98
11.82
10.64
9.26
7.59
5.67
3.7
1.98
0.67
-0.26
-1.04
-2.06
-3.53
-5.51
-7.75
-9.96
-11.92
-13.61
-15.24
-17.11
-19.49
-22.5
-26.08
-29.96
-33.67
-36.59
-38
-37.32
-34.3
-29.09
-22.33
-14.89
-7.72
-1.57
3.23
6.71
9.17
11.01
12.5
13.74
14.67
15.2
15.34
15.25
15.16
15.28
15.64
16.11
16.51
16.76
16.85
16.94
17.19
17.7
18.43
19.21
19.78
19.84
19.16
17.69
15.58
13.22
11.02
9.34
8.27
7.62
7.1
6.41
5.39
4.08
2.63
1.22
-0.03
-1.09
-2.03
-3.04
-4.33
-6.06
-8.22
-10.65
-13.02
-15.03
-16.52
-17.6
-18.58
-19.92
-22.04
-25.16
-29.22
-33.76
-37.95
-40.8
-41.39
-39.24
-34.44
-27.72
-20.15
-12.84
-6.54
-1.55
2.26
5.23
7.67
9.76
11.51
12.81
13.64
14.02
14.11
14.15
14.37
14.92
15.81
17
18.36
19.82
21.32
22.79
24.11
25.07
25.49
25.25
24.4
23.08
21.5
19.87
18.27
16.74
15.29
13.92
12.63
11.41
10.21
9.05
7.96
7.06
6.41
5.99
5.61
4.99
3.89
2.21
0.09
-2.18
-4.27
-5.93
-7.14
-8
-8.72
-9.52
-10.51
-11.68
-12.92
-14.05
-14.97
-15.69
-16.44
-17.57
-19.47
-22.32
-26.04
-30.18
-34.01
-36.69
-37.51
-36.08
-32.43
-27
-20.52
-13.8
-7.56
-2.26
1.88
4.86
6.89
8.21
9.13
9.89
10.66
11.49
12.37
13.24
14.04
14.75
15.36
15.83
16.14
16.28
16.32
16.41
16.72
17.3
18.07
18.75
19.03
18.7
17.73
16.28
14.64
13.03
11.58
10.3
9.14
8.06
7.11
6.28
5.56
4.87
4.11
3.24
2.32
1.46
0.76
0.22
-0.26
-0.91
-1.88
-3.26
-4.96
-6.81
-8.58
-10.16
-11.49
-12.61
-13.64
-14.7
-15.99
-17.73
-20.12
-23.2
-26.77
-30.26
-32.87
-33.8
-32.48
-28.88
-23.47
-17.12
-10.76
-5.14
-0.64
2.74
5.19
6.92
8.13
8.9
9.29
9.38
9.3
9.19
9.14
9.21
9.39
9.68
10.14
10.83
11.8
12.99
14.26
15.39
16.16
16.44
16.18
15.44
14.35
13.1
11.86
10.76
9.87
9.19
8.64
8.05
7.32
6.32
5.08
3.7
2.31
1.03
-0.14
-1.32
-2.69
-4.43
-6.58
-9.04
-11.57
-13.84
-15.62
-16.91
-17.93
-19.1
-20.85
-23.43
-26.71
-30.17
-33.04
-34.49
-33.94
-31.21
-26.56
-20.65
-14.26
-8.14
-2.8
1.5
4.74
7.05
8.6
9.59
10.17
10.5
10.71
10.92
11.21
11.6
12.04
12.48
12.88
13.23
13.57
13.91
14.26
14.58
14.77
14.77
14.54
14.05
13.34
12.48
11.6
10.82
10.27
9.92
9.73
9.51
9.11
8.44
7.53
6.53
5.58
4.76
4.02
3.28
2.38
1.3
0.08
-1.15
-2.28
-3.36
-4.53
-6.03
-7.95
-10.25
-12.68
-14.9
-16.67
-17.93
-18.89
-19.93
-21.46
-23.75
-26.87
-30.49
-34
-36.54
-37.29
-35.66
-31.59
-25.6
-18.61
-11.71
-5.77
-1.21
1.95
4.02
5.38
6.37
7.2
7.96
8.71
9.46
10.21
10.89
11.43
11.74
11.76
11.53
11.21
11.03
11.19
11.78
12.72
13.77
14.66
15.22
15.39
15.27
14.96
14.54
13.97
13.16
12.11
10.88
9.63
8.52
7.59
6.78
5.94
4.93
3.71
2.42
1.23
0.31
-0.33
-0.86
-1.51
-2.48
-3.87
-5.57
-7.43
-9.29
-11.06
-12.74
-14.38
-15.97
-17.51
-18.97
-20.41
-22.01
-23.99
-26.56
-29.69
-33.08
-36.06
-37.85
-37.7
-35.24
-30.57
-24.32
-17.39
-10.69
-4.92
-0.39
2.87
5.05
6.41
7.19
7.62
7.92
8.23
8.68
9.33
10.12
10.95
11.69
12.29
12.74
13.08
13.4
13.77
14.23
14.73
15.21
15.55
15.7
15.63
15.36
14.84
14.03
12.88
11.45
9.89
8.43
7.27
6.45
5.84
5.21
4.33
3.12
1.69
0.24
-1.02
-2.02
-2.83
-3.66
-4.7
-6.06
-7.71
-9.53
-11.36
-13.1
-14.7
-16.25
-17.82
-19.52
-21.45
-23.76
-26.5
-29.65
-32.89
-35.64
-37.11
-36.58
-33.66
-28.52
-21.83
-14.6
-7.8
-2.09
2.26
5.36
7.46
8.82
9.61
9.93
9.91
9.7
9.48
9.32
9.28
9.29
9.34
9.46
9.76
10.31
11.18
12.29
13.53
14.77
15.88
16.75
17.22
17.14
16.45
15.22
13.65
11.98
10.35
8.76
7.06
5.16
3.09
1.05
-0.72
-2.1
-3.2
-4.33
-5.86
-7.93
-10.46
-13.14
-15.63
-17.67
-19.27
-20.6
-21.95
-23.65
-25.98
-29.06
-32.79
-36.73
-40.11
-42
-41.6
-38.55
-33.09
-25.94
-18.1
-10.51
-3.82
1.62
5.69
8.47
10.14
10.95
11.19
11.15
11.01
10.96
11.1
11.51
12.22
13.18
14.21
15.15
15.88
16.46
17.01
17.69
18.56
19.51
20.35
20.83
20.82
20.24
19.15
17.7
16.12
14.59
13.24
12.01
10.71
9.17
7.3
5.22
3.14
1.28
-0.3
-1.71
-3.1
-4.6
-6.27
-8.13
-10.18
-12.43
-14.88
-17.41
-19.88
-22.15
-24.3
-26.64
-29.57
-33.43
-38.17
-43.31
-47.91
-50.83
-51.18
-48.54
-43.12
-35.68
-27.27
-18.89
-11.33
-5.01
-0.13
3.42
5.79
7.27
8.18
8.85
9.51
10.31
11.26
12.28
13.29
14.28
15.25
16.29
17.43
18.71
20.09
21.54
22.96
24.22
25.16
25.62
25.46
24.68
23.36
21.72
20
18.4
16.98
15.63
14.13
12.28
10.02
7.47
4.97
2.87
1.42
0.6
0.07
-0.62
-1.88
-3.87
-6.46
-9.34
-12.15
-14.66
-16.79
-18.65
-20.43
-22.34
-24.68
-27.75
-31.79
-36.79
-42.32
-47.44
-50.97
-51.81
-49.34
-43.67
-35.57
-26.27
-17
-8.8
-2.26
2.48
5.63
7.63
9.02
10.27
11.72
13.47
15.43
17.34
18.9
19.88
20.21
20.02
19.64
19.42
19.69
20.55
21.86
23.32
24.56
25.35
25.64
25.57
25.3
24.91
24.34
23.4
21.92
19.84
17.29
14.55
11.93
9.65
7.75
6.11
4.55
2.88
1.02
-1.04
-3.26
-5.58
-7.97
-10.37
-12.81
-15.35
-18.19
-21.64
-25.94
-31.18
-37.07
-42.93
-47.77
-50.54
-50.48
-47.3
-41.31
-33.23
-24
-14.6
-5.83
1.78
7.94
12.69
16.28
19.06
21.43
23.63
25.77
27.74
29.39
30.59
31.32
31.69
31.9
32.13
32.53
33.18
34.04
34.93
35.55
35.58
34.83
33.3
31.26
29.15
27.47
26.55
26.43
26.79
26.99
26.32
24.2
20.44
15.31
9.45
3.62
-1.52
-5.72
-9.08
-11.99
-14.88
-17.94
-21.08
-23.99
-26.39
-28.21
-29.7
-31.43
-33.99
-37.78
-42.77
-48.41
-53.8
-57.88
-59.75
-58.84
-55.15
-49.14
-41.67
-33.75
-26.24
-19.65
-14.1
-9.37
-5.14
-1.15
2.7
6.38
9.83
12.99
15.89
18.53
20.87
22.84
24.36
25.54
26.6
27.88
29.66
31.94
34.52
36.97
38.82
39.78
39.78
39
37.68
36.08
34.35
32.55
30.68
28.72
26.65
24.52
22.33
20.15
18.03
16.03
14.16
12.37
10.51
8.45
6.14
3.65
1.08
-1.5
-4.14
-7.02
-10.37
-14.33
-18.82
-23.57
-28.25
-32.61
-36.56
-40.23
-43.93
-48.08
-53.11
-59.26
-66.47
-74.07
-80.94
-85.65
-86.99
-84.37
-78.07
-69.19
-59.26
-49.73
-41.7
-35.66
-31.68
-29.51
-28.77
-29.08
-30.08
-31.51
-33.25
-35.33
-37.85
-40.89
-44.39
-48.22
-52.2
-56.15
-60.01
-63.65
-66.9
-69.4
-70.69
-70.2
-67.38
-61.81
-53.18
-41.36
-26.34
-8.36
12.14
34.38
57.31
79.61
99.91
116.99
129.92
138.28
142.15
142.09
138.92
133.57
126.85
119.27
111.09
102.36
93.07
83.3
73.33
63.58
54.46
46.23
38.87
32.05
25.25
17.85
9.47
0.1
-9.75
-19.08
-26.61
-31.09
-31.7
-28.31
-21.52
-12.48
-2.58
6.87
15
21.33
25.87
28.9
30.84
32.15
33.09
33.75
34.02
33.72
32.78
31.35
29.75
28.41
27.61
27.44
27.76
28.34
29
29.61
30.18
30.62
30.83
30.61
29.77
28.26
26.16
23.67
21.04
18.47
16.01
13.62
11.2
8.63
5.86
2.87
-0.28
-3.54
-6.82
-10.04
-13.15
-16.16
-19.14
-22.26
-25.78
-30.03
-35.22
-41.28
-47.72
-53.53
-57.39
-58.04
-54.68
-47.37
-37.03
-25.16
-13.36
-2.96
5.39
11.62
16.11
19.41
22.04
24.39
26.62
28.72
30.57
32.01
32.98
33.54
33.81
33.98
34.16
34.43
34.83
35.39
36.13
37.01
37.9
38.54
38.62
37.9
36.37
34.2
31.73
29.29
27.08
25.05
22.96
20.55
17.61
14.21
10.61
7.2
4.35
2.21
0.64
-0.7
-2.22
-4.2
-6.67
-9.45
-12.2
-14.65
-16.73
-18.54
-20.37
-22.55
-25.46
-29.46
-34.77
-41.25
-48.26
-54.52
-58.43
-58.53
-54.13
-45.62
-34.39
-22.36
-11.3
-2.33
4.22
8.67
11.62
13.65
15.19
16.58
17.99
19.58
21.4
23.35
25.24
26.85
27.98
28.56
28.67
28.53
28.4
28.48
28.83
29.34
29.8
29.97
29.69
28.91
27.72
26.25
24.7
23.19
21.83
20.63
19.51
18.27
16.7
14.68
12.24
9.63
7.23
5.37
4.14
3.32
2.42
0.94
-1.44
-4.71
-8.53
-12.45
-16.07
-19.15
-21.72
-23.96
-26.14
-28.57
-31.55
-35.33
-39.94
-45.06
-49.97
-53.58
-54.76
-52.71
-47.22
-38.87
-28.78
-18.34
-8.8
-0.99
4.79
8.64
10.97
12.25
12.91
13.29
13.54
13.75
13.9
13.97
13.98
14.01
14.17
14.57
15.24
16.18
17.27
18.36
19.33
20.04
20.4
20.35
19.79
18.67
17
14.83
12.41
9.98
7.77
5.89
4.29
2.76
1.08
-0.92
-3.26
-5.87
-8.55
-11.16
-13.58
-15.76
-17.77
-19.74
-21.89
-24.54
-27.98
-32.29
-37.22
-42.03
-45.63
-46.86
-44.9
-39.6
-31.58
-22.03
-12.33
-3.62
3.49
8.86
12.72
15.43
17.32
18.58
19.34
19.74
19.91
20.04
20.24
20.58
21
21.37
21.61
21.71
21.74
21.87
22.24
22.92
23.81
24.73
25.37
25.47
24.89
23.64
21.87
19.82
17.76
15.84
14.11
12.48
10.79
8.92
6.86
4.73
2.68
0.9
-0.55
-1.74
-2.9
-4.31
-6.2
-8.65
-11.51
-14.54
-17.47
-20.11
-22.37
-24.32
-26.11
-27.98
-30.27
-33.23
-37
-41.3
-45.42
-48.26
-48.66
-45.87
-39.85
-31.36
-21.73
-12.37
-4.35
1.89
6.4
9.61
11.9
13.56
14.69
15.33
15.58
15.64
15.75
16.05
16.55
17.12
17.54
17.63
17.38
16.97
16.69
16.79
17.32
18.14
18.91
19.25
18.93
17.98
16.65
15.27
14.14
13.35
12.81
12.27
11.55
10.54
9.31
7.99
6.69
5.46
4.2
2.86
1.38
-0.12
-1.48
-2.6
-3.53
-4.53
-5.91
-7.93
-10.58
-13.56
-16.37
-18.6
-20.16
-21.23
-22.31
-23.89
-26.36
-29.8
-33.98
-38.33
-41.99
-44.02
-43.59
-40.33
-34.49
-26.92
-18.8
-11.21
-4.88
-0.03
3.51
6.02
7.74
8.81
9.33
9.41
9.22
9
8.92
9.09
9.52
10.12
10.79
11.4
11.89
12.29
12.64
13.04
13.54
14.09
14.55
14.75
14.56
13.94
12.98
11.85
10.7
9.6
8.5
7.29
5.87
4.22
2.49
0.83
-0.64
-1.95
-3.29
-4.88
-6.89
-9.26
-11.76
-14.1
-16.03
-17.51
-18.74
-20.05
-21.76
-24.12
-27.23
-30.9
-34.7
-37.88
-39.54
-38.85
-35.35
-29.23
-21.32
-12.88
-5.17
0.97
5.27
8.03
9.8
11.08
12.15
13.06
13.73
14.13
14.31
14.38
14.43
14.48
14.5
14.4
14.17
13.85
13.61
13.59
13.88
14.46
15.15
15.74
15.94
15.58
14.61
13.12
11.35
9.56
7.95
6.63
5.54
4.57
3.59
2.53
1.34
0.08
-1.22
-2.54
-3.85
-5.11
-6.23
-7.19
-7.99
-8.73
-9.58
-10.69
-12.12
-13.82
-15.65
-17.48
-19.28
-21.16
-23.42
-26.35
-30.13
-34.54
-38.95
-42.36
-43.71
-42.24
-37.81
-31.01
-22.92
-14.75
-7.46
-1.5
3.06
6.42
8.75
10.25
11.04
11.37
11.52
11.75
12.17
12.72
13.22
