6.7
5.89
5.55
5.7
6.21
6.93
7.75
8.61
9.5
10.45
11.49
12.65
13.9
15.11
16.02
16.27
15.44
13.26
9.72
5.21
0.48
-3.59
-6.1
-6.51
-4.76
-1.29
3.03
7.21
10.41
12.14
12.31
11.18
9.14
6.56
3.68
0.61
-2.53
-5.57
-8.24
-10.21
-11.21
-11.15
-10.16
-8.48
-6.44
-4.35
-2.47
-1.04
-0.32
-0.51
-1.69
-3.77
-6.46
-9.42
-12.32
-15.07
-17.76
-20.56
-23.54
-26.46
-28.72
-29.53
-28.16
-24.24
-17.98
-10.14
-1.85
5.73
11.76
15.91
18.39
19.78
20.77
21.85
23.17
24.49
25.34
25.37
24.52
23.2
22.12
21.93
22.95
24.99
27.4
29.4
30.36
30.1
28.94
27.59
26.98
28.14
31.89
38.53
47.38
56.59
63.5
65.65
62.01
53.97
45.21
40.63
44.47
58.6
81.57
109.12
135.6
155.64
165.43
163.3
149.67
126.61
97.38
65.78
35.86
11.13
-6.07
-15.2
-17.5
-15.42
-11.73
-8.64
-7.56
-8.55
-10.76
-13.09
-14.81
-15.89
-16.75
-18.28
-21.29
-26.91
-35.55
-46.91
-60.24
-75.04
-91.59
-110.85
-134.51
-163.73
-198.76
-236.9
-272.65
-299.13
-310.73
-305.42
-285.39
-256.67
-220.64
-180.67
-140.08
-101.29
-64.92
-30
3.13
36.34
69.72
101.02
125.07
136.22
129.51
103.7
62.87
16.01
-25.41
-52
-59.41
-49.93
-29.88
-6.35
15.68
34.15
48.98
60.61
68.44
71.29
68.06
59.33
47.54
36.26
28.61
25.98
27.93
32.33
36.88
39.86
40.92
40.81
40.77
41.58
43.15
44.59
44.55
41.99
36.53
28.7
19.8
11.43
4.92
0.89
-0.91
-1.41
-1.71
-2.49
-3.71
-4.75
-4.81
-3.5
-1.2
1.09
2.22
1.43
-1.34
-5.52
-10.29
-14.97
-19.1
-22.41
-24.51
-24.98
-23.42
-19.82
-14.66
-8.89
-3.55
0.64
3.41
5.05
6.06
6.89
7.76
8.54
8.97
8.71
7.68
6.04
4.22
2.74
1.99
2.07
2.76
3.61
4.17
4.16
3.56
2.54
1.32
0.07
-1.16
-2.48
-4.01
-5.91
-8.28
-11.18
-14.55
-18.06
-21.14
-23
-22.9
-20.4
-15.63
-9.11
-1.55
6.57
15.21
24.67
35.1
46.17
56.85
65.72
71.31
72.62
69.37
62.21
52.65
42.92
35.45
32.19
33.94
39.93
48.12
55.88
61.02
62.38
59.97
54.49
46.77
37.36
26.54
14.47
1.37
-12.55
-27.29
-42.88
-59.07
-74.91
-88.64
-98.01
-101.22
-97.73
-88.6
-76.19
-63.2
-51.74
-42.79
-36.27
-31.62
-28.29
-26.09
-24.96
-24.75
-24.94
-24.83
-23.77
-21.56
-18.51
-15.29
-12.62
-10.9
-10.13
-9.88
-9.65
-9.05
-8.01
-6.82
-5.92
-5.75
-6.63
-8.6
-11.47
-14.83
-18.07
-20.48
-21.41
-20.43
-17.53
-13.08
-7.71
-2.07
3.38
8.36
12.74
16.37
19.03
20.43
20.47
19.32
17.46
15.54
14.17
13.64
13.91
14.59
15.17
15.22
14.52
13.1
11.2
9.13
7.19
5.58
4.3
3.2
1.95
0.18
-2.38
-5.77
-9.64
-13.3
-15.91
-16.69
-15.24
-11.69
-6.66
-1.03
4.36
8.97
12.66
15.65
18.27
20.77
23.14
25.21
26.68
27.33
27.03
25.74
23.51
20.42
16.7
12.71
8.92
5.8
3.62
2.34
1.66
1.09
0.21
-1.27
-3.43
-6.21
-9.42
-12.82
-16.03
-18.58
-19.94
-19.65
-17.5
-13.65
-8.57
-2.93
2.59
7.58
11.9
15.61
18.85
21.59
23.58
24.49
24.06
22.35
19.76
16.9
14.35
12.38
10.87
9.44
7.65
5.29
2.47
-0.45
-3.07
-5.24
-7.07
-8.97
-11.39
-14.66
-18.8
-23.52
-28.27
-32.28
-34.73
-34.83
-32.06
-26.42
-18.74
-10.51
-3.62
0.42
1.01
-1.25
-4.92
-8.39
-10.56
-11.16
-10.6
-9.46
-8.08
-6.39
-4.14
-1.15
2.34
5.72
8.23
9.23
8.42
5.91
2.18
-2.1
-6.29
-9.94
-12.96
-15.52
-17.93
-20.49
-23.32
-26.35
-29.35
-31.98
-33.9
-34.72
-34.1
-31.75
-27.63
-21.91
-15.07
-7.75
-0.64
5.66
10.74
14.42
16.79
18.17
18.99
19.67
20.49
21.5
22.59
23.55
24.22
24.49
24.32
23.64
22.34
20.3
17.51
14.07
10.19
6.08
1.89
-2.31
-6.5
-10.59
-14.48
-18.01
-21.09
-23.65
-25.61
-26.74
-26.73
-25.22
-22.04
-17.34
-11.63
-5.62
-0
4.75
8.48
11.22
13.09
14.15
14.4
13.83
12.53
10.77
8.94
7.46
6.69
6.75
7.52
8.61
9.57
9.92
9.42
8.08
6.22
4.22
2.44
1.04
-0.15
-1.46
-3.34
-6.08
-9.76
-14.13
-18.62
-22.51
-24.99
-25.47
-23.68
-19.78
-14.35
-8.24
-2.35
2.64
6.38
8.88
10.39
11.23
11.62
11.61
11.18
10.35
9.26
8.2
7.48
7.24
7.4
7.63
7.56
6.91
5.64
3.94
2.15
0.6
-0.59
-1.52
-2.49
-3.86
-5.9
-8.69
-12.12
-15.87
-19.49
-22.4
-24.01
-23.72
-21.19
-16.44
-10
-2.77
4.1
9.67
13.46
15.56
16.51
17.01
17.54
18.25
18.94
19.22
18.82
17.7
16.07
14.31
12.81
11.83
11.44
11.54
11.9
12.25
12.32
11.95
11.13
10.11
9.25
8.97
9.45
10.46
11.28
10.92
8.53
3.92
-2.17
-8.16
-12.15
-12.67
-9.22
-2.39
6.48
16
25.21
33.86
42.15
50.23
57.84
64.14
67.99
68.48
65.45
59.69
52.84
46.73
42.7
41.01
40.64
39.71
36.3
29.21
18.44
5.16
-8.81
-21.46
-31.03
-36.34
-37.04
-34.12
-30.09
-28.65
-33.43
-46.32
-66.09
-88.34
-106.94
-116.54
-114.71
-102.66
-84.27
-64
-45.07
-28.69
-14.61
-2.36
7.91
15.35
19.1
19.16
16.72
13.75
12.21
13.16
16.34
20.41
23.69
24.96
23.98
21.54
18.91
17.18
16.76
17.29
17.84
17.44
15.4
11.53
6.18
0.08
-5.84
-10.61
-13.55
-14.38
-13.3
-10.86
-7.71
-4.34
-0.95
2.49
5.99
9.41
12.41
14.58
15.67
15.72
15.06
14.21
13.6
13.53
14.03
14.97
16.06
17.03
17.76
18.28
18.74
19.25
19.74
19.9
19.27
17.53
14.6
10.71
6.27
1.68
-2.76
-6.73
-9.82
-11.49
-11.14
-8.47
-3.63
2.7
9.65
16.47
22.71
28.2
32.68
35.69
36.54
34.69
30.03
23.1
14.89
6.46
-1.46
-8.68
-15.42
-21.99
-28.51
-34.87
-40.77
-45.96
-50.42
-54.3
-57.81
-61.06
-63.96
-66.24
-67.58
-67.84
-67.08
-65.57
-63.5
-60.77
-56.9
-51.17
-43.01
-32.35
-19.83
-6.59
6.11
17.34
26.79
34.66
41.41
47.4
52.75
57.33
60.98
63.61
65.24
65.94
65.73
64.55
62.28
58.81
54.07
48.16
41.3
33.87
26.3
18.96
11.94
5.03
-2.25
-10.44
-19.81
-30.24
-41.16
-51.68
-60.88
-67.98
-72.45
-74.1
-73.05
-69.75
-64.89
-59.27
-53.6
-48.31
-43.47
-38.84
-34.12
-29.14
-23.99
-18.96
-14.39
-10.45
-7.1
-4.06
-0.97
2.49
6.44
10.81
15.39
19.85
23.89
27.29
29.93
31.79
32.92
33.36
33.16
32.32
30.83
28.6
25.6
21.86
17.59
13.2
9.24
6.28
4.74
4.77
6.18
8.55
11.34
14.04
16.24
17.67
18.09
17.36
15.36
12.12
7.79
2.7
-2.76
-8.14
-13.1
-17.43
-21.1
-24.14
-26.66
-28.72
-30.4
-31.75
-32.93
-34.07
-35.32
-36.72
-38.23
-39.7
-41
-42.07
-42.98
-43.88
-44.81
-45.61
-45.75
-44.51
-41.16
-35.31
-27.12
-17.24
-6.66
3.65
12.96
20.89
27.35
32.41
36.22
38.93
40.67
41.63
41.98
41.92
41.62
41.27
40.91
40.48
39.72
38.2
35.59
31.71
26.73
21.12
15.43
10.08
5.13
0.34
-4.72
-10.41
-16.92
-24.18
-31.97
-39.91
-47.48
-53.97
-58.57
-60.49
-59.26
-54.95
-48.27
-40.35
-32.38
-25.24
-19.23
-14.17
-9.6
-5.07
-0.41
4.25
8.59
12.35
15.39
17.86
20.03
22.16
24.37
26.56
28.53
30.06
31.03
31.51
31.68
31.77
31.9
32.04
32.01
31.51
30.21
27.82
24.11
19.05
12.83
5.89
-1.14
-7.51
-12.59
-15.95
-17.53
-17.6
-16.67
-15.41
-14.46
-14.24
-14.89
-16.23
-17.88
-19.43
-20.66
-21.58
-22.33
-23.05
-23.73
-24.21
-24.27
-23.83
-22.97
-21.86
-20.69
-19.48
-18.09
-16.34
-14.12
-11.52
-8.84
-6.45
-4.73
-4
-4.49
-6.35
-9.56
-13.89
-18.8
-23.48
-26.95
-28.33
-27.12
-23.35
-17.6
-10.83
-4.09
1.77
6.26
9.27
10.96
11.54
11.23
10.17
8.51
6.48
4.43
2.77
1.83
1.72
2.28
3.16
3.95
4.34
4.21
3.66
2.9
2.15
1.54
1.01
0.36
-0.74
-2.56
-5.26
-8.76
-12.69
-16.4
-19.02
-19.69
-17.79
-13.19
-6.3
1.98
10.58
18.58
25.4
30.88
35.16
38.46
40.92
42.61
43.53
43.75
43.39
42.65
41.64
40.38
38.73
36.55
33.72
30.26
26.25
21.83
17.09
12.07
6.83
1.4
-4.14
-9.78
-15.59
-21.67
-27.98
-34.25
-39.85
-43.83
-45.3
-43.69
-39.01
-31.87
-23.29
-14.32
-5.78
1.87
8.51
14.16
18.88
22.65
25.39
27
27.52
27.16
26.29
25.39
24.85
24.84
25.24
25.66
25.65
24.93
23.58
21.93
20.44
19.35
18.56
17.59
15.8
12.68
8.08
2.24
-4.19
-10.36
-15.36
-18.42
-19.03
-17.08
-12.96
-7.39
-1.31
4.37
9.09
12.62
15.07
16.65
17.59
17.97
17.81
17.1
15.96
14.52
13
11.54
10.2
8.95
7.73
6.52
5.39
4.39
3.56
2.79
1.89
0.6
-1.27
-3.79
-6.93
-10.59
-14.75
-19.39
-24.44
-29.6
-34.24
-37.46
-38.36
-36.35
-31.46
-24.34
-16.1
-7.95
-0.89
4.51
8.06
9.84
10.05
8.9
6.7
3.8
0.67
-2.22
-4.5
-6.02
-6.93
-7.62
-8.57
-10.15
-12.52
-15.56
-18.92
-22.26
-25.35
-28.19
-30.95
-33.91
-37.31
-41.34
-46.09
-51.59
-57.7
-64.02
-69.78
-73.92
-75.38
-73.46
-68.11
-59.98
-50.23
-40.11
-30.55
-22.03
-14.58
-8
-2.03
3.44
8.38
12.66
16.1
18.68
20.53
21.94
23.25
24.72
26.37
28.05
29.48
30.43
30.81
30.68
30.09
29.12
27.71
25.83
23.45
20.54
17.04
12.82
7.77
1.98
-4.13
-9.78
-13.94
-15.68
-14.42
-10.2
-3.69
4.02
11.67
18.2
23.02
26
27.45
27.89
27.86
27.72
27.64
27.58
27.39
26.95
26.2
25.2
24.07
22.98
22.03
21.18
20.31
19.28
17.99
16.46
14.72
12.79
10.61
8.13
5.29
2.1
-1.4
-5.22
-9.47
-14.22
-19.39
-24.55
-28.93
-31.58
-31.73
-29.08
-23.93
-17.12
-9.69
-2.6
3.53
8.44
12.17
14.91
16.82
18.01
18.57
18.66
18.5
18.29
18.2
18.25
18.3
18.17
17.75
17.07
16.29
15.6
15.11
14.74
14.27
13.39
11.88
9.7
7.01
4.1
1.24
-1.45
-4.05
-6.84
-10.18
-14.36
-19.36
-24.77
-29.76
-33.28
-34.36
-32.39
-27.41
-20.1
-11.6
-3.17
4.19
9.95
14.05
16.78
18.56
19.7
20.42
20.74
20.63
20.05
19.06
17.81
16.57
15.59
15.08
15.09
15.52
16.11
16.59
16.72
16.38
15.51
14.14
12.32
10.1
7.6
4.92
2.18
-0.6
-3.53
-6.8
-10.58
-14.84
-19.2
-22.92
-25.12
-25
-22.17
-16.74
-9.43
-1.27
6.62
13.3
18.26
21.38
22.91
23.29
22.99
22.36
21.63
20.88
20.13
19.35
18.5
17.55
16.55
15.55
14.64
13.84
13.16
12.46
11.59
10.35
8.64
6.46
3.93
1.24
-1.43
-3.97
-6.47
-9.13
-12.22
-15.92
-20.15
-24.51
-28.26
-30.54
-30.62
-28.16
-23.35
-16.91
-9.85
-3.18
2.37
6.52
9.41
11.39
12.81
13.88
14.58
14.8
14.45
13.57
12.36
11.06
9.91
9.08
8.64
8.54
8.64
8.71
8.51
7.81
6.55
4.8
2.71
0.44
-1.96
-4.59
-7.61
-11.13
-15.17
-19.62
-24.25
-28.67
-32.39
-34.76
-35.11
-32.92
-28.14
-21.23
-13.19
-5.28
1.46
6.44
9.68
11.62
12.83
13.75
14.55
15.16
15.4
15.18
14.53
13.64
12.72
11.99
11.54
11.36
11.37
11.4
11.26
10.8
9.92
8.58
6.83
4.75
2.39
-0.21
-3.16
-6.58
-10.6
-15.21
-20.15
-24.89
-28.69
-30.76
-30.45
-27.5
-22.13
-15.07
-7.38
-0.18
5.62
9.63
11.98
13.23
14.04
14.88
15.84
16.65
16.9
16.3
14.92
13.14
11.44
10.19
9.45
8.98
8.47
7.71
6.69
5.58
4.54
3.55
2.45
0.94
-1.21
-4.08
-7.67
-11.84
-16.49
-21.37
-26.1
-30.06
-32.46
-32.62
-30.2
-25.35
-18.73
-11.33
-4.18
1.95
6.67
9.99
12.24
13.82
15.05
16.09
16.92
17.43
17.55
17.34
16.96
16.64
16.52
16.59
16.67
16.52
15.92
14.78
13.12
11.05
8.75
6.38
4.03
1.7
-0.68
-3.26
-6.26
-9.89
-14.28
-19.27
-24.36
-28.67
-31.18
-31.01
-27.77
-21.7
-13.69
-4.9
3.55
10.86
16.67
21
24.12
26.4
28.26
30
31.76
33.5
35.02
36.08
36.57
36.62
36.53
36.68
37.29
38.37
39.67
40.85
41.67
42.05
42.04
41.76
41.24
40.42
39.2
37.47
35.22
32.42
28.97
24.66
19.26
12.85
5.91
-0.59
-5.52
-8.05
-8.09
-6.3
-3.94
-2.32
-2.33
-4.15
-7.37
-11.29
-15.25
-18.89
-22.22
-25.42
-28.72
-32.22
-35.85
-39.31
-42.28
-44.5
-45.91
-46.66
-46.99
-47.19
-47.38
-47.55
-47.59
-47.42
-47.06
-46.7
-46.6
-47.01
-48.16
-50.19
-53.18
-57.14
-61.82
-66.6
-70.5
-72.33
-71.05
-66.22
-58.16
-47.89
-36.8
-26.18
-16.93
-9.38
-3.44
1.19
4.76
7.44
9.31
10.47
11.15
11.73
12.63
14.12
16.26
18.77
21.26
23.33
24.79
25.73
26.4
27.03
27.71
28.27
28.42
27.92
26.62
24.58
21.91
18.69
15.02
11.05
7.2
4.19
2.96
4.32
8.63
15.55
24.1
33.01
41.15
47.87
52.99
56.72
59.28
60.78
61.21
60.55
58.93
56.71
54.32
52.19
50.47
49.03
47.42
45.06
41.48
36.52
30.43
23.74
17.03
10.72
4.89
-0.68
-6.36
-12.41
-18.93
-25.79
-32.76
-39.52
-45.73
-50.87
-54.31
-55.36
-53.54
-48.82
-41.76
-33.41
-25.06
-17.79
-12.2
-8.33
-5.78
-4.04
-2.78
-1.93
-1.68
-2.22
-3.53
-5.34
-7.18
-8.56
-9.27
-9.44
-9.45
-9.79
-10.82
-12.61
-15.01
-17.74
-20.6
-23.5
-26.49
-29.74
-33.42
-37.68
-42.61
-48.18
-54.08
-59.71
-64.14
-66.36
-65.55
-61.4
-54.26
-45.02
-34.86
-24.84
-15.72
-7.83
-1.19
4.33
8.84
12.41
15.09
16.92
18.04
18.64
18.96
19.22
19.56
19.97
20.32
20.47
20.28
19.78
19.08
18.36
17.76
17.29
16.84
16.23
15.3
13.92
11.95
9.16
5.29
0.28
-5.54
-11.31
-15.8
-17.78
-16.46
-11.84
-4.73
3.63
11.94
19.23
25.06
29.39
32.41
34.45
35.77
36.64
37.3
37.89
38.49
39.07
39.47
39.47
38.78
37.19
34.62
31.2
27.28
23.29
19.65
16.66
14.41
12.78
11.45
10.04
8.15
5.54
2.13
-1.93
-6.28
-10.43
-13.76
-15.67
-15.6
-13.24
-8.65
-2.33
4.92
12.19
18.68
23.98
27.97
30.77
32.48
33.12
32.61
30.95
28.25
24.83
21.07
17.3
13.61
9.83
5.6
0.58
-5.32
-11.93
-18.81
-25.44
-31.51
-36.96
-42
-46.93
-52.03
-57.47
-63.21
-69.02
-74.42
-78.7
-81.04
-80.69
-77.21
-70.74
-61.9
-51.73
-41.34
-31.56
-22.88
-15.4
-9.03
-3.65
0.75
4.12
6.47
8
9.08
10.14
11.5
13.21
15.04
16.53
17.28
17.09
16.06
14.56
12.98
11.57
10.26
8.71
6.4
2.81
-2.29
-8.85
-16.38
-24.11
-31.09
-36.34
-39.02
-38.62
-35.12
-29.03
-21.31
-13.14
-5.57
0.73
5.56
9.07
11.6
13.45
14.81
15.8
16.56
17.26
18.05
19.01
20.05
20.94
21.44
21.38
20.77
19.84
18.95
18.43
18.47
19.01
19.72
20.12
19.77
18.4
15.94
12.57
8.59
4.42
0.61
-2.21
-3.33
-2.17
1.45
7.18
14.19
21.37
27.75
32.73
36.17
38.33
39.6
40.36
40.92
41.5
42.36
43.8
46.17
49.62
53.9
58.22
61.45
62.43
60.49
55.77
49.16
42.02
35.6
30.67
27.38
25.44
24.44
24.01
23.82
23.43
22.21
19.43
14.69
8.12
0.62
-6.3
-10.95
-12.03
-9.12
-2.81
5.43
13.83
20.86
25.75
28.54
29.85
30.4
30.65
30.59
29.9
28.32
25.92
23.16
20.73
19.21
18.73
18.97
19.28
19.01
17.86
15.9
13.52
11.13
8.87
6.6
3.91
0.42
-4.09
-9.55
-15.73
-22.38
-29.33
-36.52
-43.69
-50.3
-55.46
-58.17
-57.7
-53.97
-47.68
-40.04
-32.47
-26.08
-21.46
-18.66
-17.34
-16.96
-17.02
-17.17
-17.21
-17.11
-16.93
-16.73
-16.44
-15.79
-14.46
-12.17
-8.9
-5.05
-1.26
1.72
3.37
3.52
2.39
0.42
-1.9
-4.21
-6.3
-8.2
-10.13
-12.46
-15.63
-19.94
-25.35
-31.35
-37.03
-41.25
-43.1
-42.17
-38.72
-33.53
-27.69
-22.24
-17.88
-14.99
-13.61
-13.58
-14.69
-16.72
-19.5
-22.84
-26.54
-30.34
-33.95
-37.1
-39.59
-41.31
-42.24
-42.49
-42.21
-41.59
-40.83
-40.08
-39.39
-38.68
-37.83
-36.68
-35.22
-33.56
-31.99
-30.88
-30.57
-31.22
-32.66
-34.36
-35.46
-34.88
-31.65
-25.25
-15.88
-4.55
7.17
17.56
25.34
30.02
31.94
32.04
31.36
30.65
30.21
29.92
29.52
28.84
27.83
26.61
25.31
23.96
22.55
21.05
19.44
17.73
15.95
14.09
12.17
10.19
8.19
6.22
4.25
2.14
-0.34
-3.46
-7.4
-12.13
-17.36
-22.53
-26.83
-29.38
-29.46
-26.73
-21.42
-14.29
-6.4
1.18
7.73
13
17.16
20.62
23.79
26.84
29.7
32.16
34.02
35.26
36
36.47
36.82
37.01
36.84
35.99
34.22
31.45
27.78
23.47
18.72
13.59
7.97
1.7
-5.25
-12.68
-20.17
-27.18
-33.34
-38.64
-43.45
-48.32
-53.65
-59.27
-64.35
-67.59
-67.73
-64.04
-56.7
-46.73
-35.57
-24.7
-15.07
-7.06
-0.58
4.76
9.29
13.27
16.78
19.89
22.63
25.04
27.13
28.96
30.55
31.96
33.29
34.6
35.93
37.15
38.04
38.31
37.66
35.85
32.82
28.64
23.58
18.01
12.39
7.15
2.53
-1.52
-5.34
-9.54
-14.61
-20.58
-26.84
-32.22
-35.33
-35.13
-31.3
-24.43
-15.74
-6.63
1.71
8.61
13.89
17.75
20.55
22.68
24.59
26.65
29.08
31.81
34.41
36.23
36.65
35.33
32.45
28.62
24.66
21.28
18.84
17.37
16.67
16.51
16.73
17.21
17.84
18.38
18.44
17.57
15.31
11.34
5.58
-1.75
-10.1
-18.59
-26.08
-31.43
-33.71
-32.51
-28.11
-21.33
-13.43
-5.63
1.09
6.16
9.35
10.68
10.28
8.42
5.53
2.12
-1.3
-4.44
-7.31
-10.17
-13.34
-16.94
-20.8
-24.59
-27.97
-30.88
-33.57
-36.56
-40.39
-45.44
-51.74
-58.99
-66.53
-73.58
-79.3
-83.02
-84.38
-83.48
-81.04
-78.35
-76.86
-77.69
-80.92
-85.39
-88.95
-89.26
-84.78
-75.34
-62.18
-47.22
-32.29
-18.54
-6.36
4.27
13.37
20.75
26.16
29.59
31.48
32.58
33.69
35.35
37.71
40.5
43.34
45.84
47.74
48.93
49.4
49.2
48.41
47.12
45.41
43.36
41.05
38.55
35.96
33.31
30.58
27.57
23.94
19.35
13.76
7.58
1.84
-2.1
-2.95
-0.04
6.37
15.1
24.48
32.92
39.33
43.37
45.33
45.79
45.36
44.42
43.15
41.63
39.95
38.32
37.04
36.36
36.41
37.03
37.82
38.24
37.77
36.13
33.27
29.4
24.83
19.85
14.67
9.46
4.27
-0.9
-6.18
-11.89
-18.39
-25.89
-34.12
-42.21
-48.72
-52.18
-51.57
-46.77
-38.63
-28.64
-18.38
-9.06
-1.24
5.05
9.97
13.59
15.92
16.85
16.49
15.12
13.23
11.28
9.63
8.44
7.69
7.24
6.84
6.18
4.98
3.04
0.35
-2.85
-6.21
-9.43
-12.39
-15.21
-18.26
-21.95
-26.58
-32.24
-38.63
-45.05
-50.43
-53.51
-53.25
-49.17
-41.66
-31.88
-21.41
-11.79
-4.03
1.56
5.17
7.27
8.29
8.44
7.86
6.63
4.98
3.26
1.91
1.25
1.36
2.06
2.92
3.51
3.49
2.74
1.35
-0.51
-2.65
-4.98
-7.47
-10.17
-13.19
-16.69
-20.85
-25.79
-31.41
-37.26
-42.5
-46.13
-47.26
-45.43
-40.81
-34.17
-26.64
-19.36
-13.2
-8.58
-5.5
-3.68
-2.72
-2.29
-2.11
-2.08
-2.19
-2.44
-2.73
-2.75
-2.01
0.07
3.92
9.6
16.7
24.44
31.94
38.44
43.56
47.25
49.68
50.99
51.23
50.3
48.04
44.31
39.04
32.33
24.49
16.12
8.08
1.48
-2.61
-3.46
-0.94
4.29
11.05
17.88
23.58
27.49
29.52
30.01
29.45
28.17
26.34
24.01
21.28
18.35
15.54
13.15
11.41
10.42
10.12
10.25
10.37
9.84
8.05
4.65
-0.27
-6.12
-12.04
-17.24
-21.36
-24.55
-27.33
-30.23
-33.55
-37.2
-40.74
-43.54
-44.87
-44.01
-40.4
-33.89
-24.81
-14.19
-3.48
5.8
12.53
16.27
17.32
16.4
14.28
11.51
8.31
4.78
0.94
-3.07
-7.1
-10.95
-14.51
-17.7
-20.4
-22.56
-24.26
-25.79
-27.68
-30.5
-34.63
-39.96
-45.92
-51.6
-56.09
-58.75
-59.43
-58.47
-56.53
-54.48
-53.03
-52.5
-52.6
-52.43
-50.73
-46.33
-38.62
-27.88
-15.17
-2
10.05
19.87
26.93
31.29
33.44
34
33.61
32.68
31.46
30.03
28.5
27.02
25.83
25.15
25.06
25.39
25.83
25.98
25.57
24.54
23.02
21.21
19.28
17.33
15.35
13.29
11.03
8.43
5.3
1.51
-2.95
-7.8
-12.43
-15.95
-17.35
-15.85
-11.16
-3.64
5.78
15.83
25.26
33.16
39.13
43.28
46.06
48
49.53
50.85
52
52.92
53.63
54.23
54.84
55.55
56.36
57.19
57.97
58.59
59.02
59.18
58.97
58.23
56.78
54.42
50.94
46.15
39.94
32.29
23.44
13.85
4.28
-4.36
-11.07
-14.95
-15.4
-12.28
-5.99
2.49
11.82
20.66
27.91
33.07
36.12
37.46
37.57
36.82
35.35
33.18
30.23
26.51
22.19
17.57
13.01
8.81
5.12
1.9
-1.04
-3.91
-6.86
-9.88
-12.88
-15.81
-18.72
-21.77
-25.24
-29.33
-34.11
-39.49
-45.31
-51.44
-57.81
-64.34
-70.74
-76.47
-80.74
-82.78
-82.25
-79.46
-75.41
-71.46
-68.93
-68.6
-70.47
-73.86
-77.75
-81.09
-83.13
-83.55
-82.3
-79.49
-75.15
-69.26
-61.74
-52.65
-42.29
-31.26
-20.36
-10.37
-1.9
4.76
9.63
12.93
15
16.18
16.71
16.74
16.31
15.3
13.48
10.59
6.44
1.07
-5.16
-11.52
-17
-20.49
-21.12
-18.47
-12.75
-4.8
4.22
13.05
20.76
26.88
31.48
34.97
37.92
40.8
43.81
46.75
49.19
50.58
50.53
49.07
46.57
43.65
40.88
38.57
36.68
34.94
33.04
30.78
28.11
25.07
21.64
17.7
13.03
7.41
0.7
-7.1
-15.88
-25.31
-34.91
-43.92
-51.31
-55.94
-56.86
-53.59
-46.45
-36.47
-25.19
-14.2
-4.66
2.89
8.51
12.64
15.77
18.19
19.98
21.07
21.37
20.98
20.08
18.97
17.97
17.27
16.98
17.13
17.64
18.35
18.99
19.14
18.35
16.3
12.9
8.41
3.32
-1.8
-6.54
-10.83
-14.96
-19.43
-24.59
-30.36
-35.98
-40.15
-41.43
-38.84
-32.26
-22.6
-11.48
-0.71
8.37
15.12
19.63
22.44
24.17
25.28
25.99
26.4
26.52
26.38
25.99
25.37
24.55
23.62
22.75
22.09
21.74
21.63
21.55
21.16
20.13
18.25
15.51
12.1
8.36
4.63
1.12
-2.16
-5.42
-9.11
-13.7
-19.47
-26.19
-33.05
-38.73
-41.79
-41.1
-36.4
-28.3
-18.21
-7.81
1.45
8.73
13.86
17.18
19.2
20.42
21.15
21.59
21.91
22.24
22.66
23.16
23.58
23.65
23.22
22.27
21.01
19.75
18.75
18.03
17.32
16.17
14.06
10.64
5.84
-0.16
-6.96
-14.05
-20.87
-26.91
-31.84
-35.64
-38.6
-41.17
-43.73
-46.3
-48.45
-49.52
-48.95
-46.62
-42.89
-38.47
-34.04
-30.05
-26.69
-24.06
-22.37
-21.83
-22.56
-24.35
-26.6
-28.61
-29.68
-29.46
-27.88
-25.09
-21.31
-16.8
-11.88
-6.92
-2.33
1.61
4.82
7.38
9.49
11.3
12.9
14.32
15.61
16.8
17.87
18.72
19.1
18.78
17.59
15.54
12.87
10.07
7.84
7.02
8.43
12.64
19.72
29.11
39.74
50.23
59.31
66.06
70.16
71.81
71.62
70.29
68.4
66.21
63.61
60.24
55.76
50.04
43.35
36.27
29.53
23.8
19.46
16.57
14.88
13.93
13.14
11.98
10.12
7.54
4.54
1.67
-0.54
-1.86
-2.5
-3.13
-4.69
-7.98
-13.44
-20.78
-29.04
-36.72
-42.19
-44.11
-41.96
-36.21
-28.2
-19.72
-12.42
-7.3
-4.56
-3.77
-4.21
-5.3
-6.73
-8.41
-10.32
-12.38
-14.51
-16.71
-19.12
-21.98
-25.46
-29.41
-33.39
-36.78
-39.08
-40.16
-40.32
-40.11
-40.13
-40.72
-41.86
-43.26
-44.59
-45.55
-46.08
-46.31
-46.53
-47.08
-48.31
-50.35
-52.96
-55.44
-56.7
-55.52
-51
-42.89
-31.75
-18.76
-5.37
7.19
18.17
27.33
34.77
40.7
45.25
48.46
50.36
51.09
50.95
50.31
49.56
49
48.8
49.06
49.79
50.91
52.24
53.4
53.91
53.28
51.2
47.75
43.33
38.55
33.95
29.81
26.05
22.31
18.13
13.11
7.1
0.34
-6.44
-12.06
-15.15
-14.52
-9.62
-0.81
10.66
23.07
34.76
44.56
51.97
57
59.84
60.62
59.37
56.06
50.89
44.36
37.35
30.9
25.91
22.95
22.07
22.82
24.53
26.48
28.18
29.38
30.05
30.25
29.96
29
27.12
24
19.47
13.57
6.56
-1.05
-8.6
-15.4
-20.8
-24.36
-25.83
-25.31
-23.18
-20.14
-17.02
-14.63
-13.52
-13.9
-15.62
-18.34
-21.73
-25.57
-29.82
-34.53
-39.69
-45.26
-50.96
-56.46
-61.41
-65.59
-68.96
-71.69
-74.02
-76.23
-78.48
-80.77
-82.93
-84.7
-85.74
-85.83
-84.89
-83.13
-80.97
-79.05
-77.85
-77.42
-77.05
-75.35
-70.62
-61.59
-48.05
-31.07
-12.77
4.45
18.74
29.33
36.56
41.36
44.71
47.17
48.89
49.91
50.41
50.78
51.48
52.74
54.55
56.68
58.96
61.37
63.97
66.73
69.35
71.3
72.09
71.4
69.25
65.73
60.82
54.29
45.79
35.18
22.79
9.53
-3.26
-14.06
-21.5
-24.77
-23.72
-19.02
-11.98
-4.23
2.7
7.83
10.9
12.27
12.6
12.53
12.39
12.26
12.08
11.8
11.5
11.38
11.58
12.15
12.9
13.51
13.66
13.14
11.93
10.26
8.39
6.53
4.76
2.97
1.02
-1.18
-3.63
-6.29
-9.17
-12.35
-15.93
-19.81
-23.58
-26.5
-27.74
-26.7
-23.24
-17.82
-11.33
-4.81
0.86
5.1
7.79
9.14
9.51
9.29
8.75
8.01
7
5.66
3.96
1.99
-0.03
-1.86
-3.33
-4.45
-5.35
-6.29
-7.5
-9.13
-11.19
-13.57
-16.08
-18.48
-20.54
-22.13
-23.26
-24.09
-24.93
-26.13
-27.93
-30.25
-32.63
-34.28
-34.31
-32.04
-27.26
-20.35
-12.21
-3.9
3.55
9.51
13.76
16.54
18.31
19.53
20.52
21.34
21.82
21.71
20.84
19.21
17.11
14.96
13.16
11.96
11.34
11
10.57
9.73
8.41
6.7
4.81
2.87
0.86
-1.37
-4.06
-7.36
-11.33
-15.86
-20.68
-25.36
-29.3
-31.78
-32.15
-30.02
-25.48
-19.17
-12.11
-5.35
0.33
4.58
7.53
9.47
10.73
11.46
11.71
11.52
10.98
10.28
9.61
9.09
8.76
8.53
8.27
7.87
7.25
6.41
5.38
4.21
2.9
1.41
-0.38
-2.56
-5.17
-8.19
-11.51
-15
-18.62
-22.45
-26.52
-30.73
-34.64
-37.5
-38.47
-36.94
-32.85
-26.76
-19.7
-12.85
-7.15
-3.06
-0.56
0.73
1.3
1.51
1.57
1.46
1.02
0.07
-1.46
-3.51
-5.84
-8.18
-10.22
-11.79
-12.82
-13.4
-13.65
-13.76
-13.87
-14.05
-14.23
-14.27
-14.02
-13.5
-12.87
-12.53
-12.92
-14.48
-17.5
-21.97
-27.48
-33.09
-37.39
-38.84
-36.22
-29.22
-18.65
-6.2
6.2
17.07
25.85
32.83
38.66
43.88
48.58
52.49
55.2
56.54
56.57
55.56
53.78
51.46
48.73
45.78
42.89
40.33
38.28
36.69
35.31
33.74
31.63
28.8
25.32
21.45
17.48
13.62
9.98
6.43
2.76
-1.32
-5.95
-11.12
-16.43
-21.21
-24.51
-25.46
-23.53
-18.84
-12.21
-4.88
1.75
6.68
9.51
10.43
10.02
8.91
7.58
6.18
4.64
2.71
0.16
-3.13
-7.06
-11.34
-15.6
-19.54
-23.06
-26.34
-29.67
-33.31
-37.31
-41.43
-45.23
-48.35
-50.64
-52.3
-53.86
-55.99
-59.29
-64.1
-70.31
-77.16
-83.31
-86.96
-86.17
-79.44
-66.34
-47.92
-26.7
-6.16
10.31
20.43
23.7
21.46
16.19
10.47
5.99
3.16
1.38
-0.3
-2.38
-4.59
-6.07
-5.91
-3.66
0.34
5.22
9.92
13.68
16.28
18.01
19.33
20.6
21.89
22.93
23.3
22.62
20.71
17.6
13.52
8.74
3.42
-2.28
-8.06
-13.23
-16.66
-17.07
-13.5
-5.92
4.6
16.07
26.36
33.94
38.4
40.41
41.12
41.5
41.92
42.15
41.76
40.54
38.72
36.84
35.46
34.86
34.98
35.45
35.76
35.48
34.3
32.09
28.89
24.84
20.14
14.97
9.44
3.6
-2.59
-9.23
-16.46
-24.37
-32.96
-41.88
-50.35
-57.19
-61.15
-61.32
-57.58
-50.78
-42.43
-34.3
-27.76
-23.47
-21.33
-20.75
-20.96
-21.33
-21.47
-21.23
-20.61
-19.61
-18.14
-16.05
-13.07
-9.05
-3.97
1.88
8.05
14.02
19.43
24.14
28.17
31.53
34.06
35.41
35.18
33.03
28.91
22.98
15.57
7.15
-1.65
-9.96
-16.75
-21
-22.09
-20.08
-15.81
-10.57
-5.68
-2.01
0.15
0.99
0.92
0.19
-1.09
-2.95
-5.33
-7.95
-10.4
-12.23
-13.24
-13.54
-13.49
-13.58
-14.2
-15.47
-17.2
-18.98
-20.37
-21.01
-20.8
-19.88
-18.57
-17.36
-16.8
-17.36
-19.19
-21.98
-24.9
-26.79
-26.45
-23.14
-16.75
-7.85
2.52
13.24
23.42
32.45
39.99
45.83
49.83
51.89
52.06
50.59
47.92
44.6
41.15
37.97
35.22
32.83
30.5
27.88
24.68
20.82
16.48
11.99
7.73
3.91
0.44
-3.06
-7.16
-12.37
-18.87
-26.4
-34.19
-41.08
-45.85
-47.56
-45.79
-40.81
-33.39
-24.6
-15.37
-6.33
2.23
10.24
17.57
23.98
29.11
32.7
34.78
35.74
36.2
36.75
37.74
39.17
40.73
41.98
42.58
42.43
41.71
40.76
39.95
39.4
38.95
38.1
36.18
32.55
26.87
19.2
10.08
0.46
-8.45
-15.41
-19.51
-20.38
-18.31
-14.25
-9.44
-5.01
-1.68
0.43
1.59
2.24
2.69
2.99
3.02
2.68
1.97
1.07
0.2
-0.49
-0.93
-1.15
-1.23
-1.15
-0.92
-0.53
-0.06
0.33
0.44
0.11
-0.76
-2.15
-3.98
-6.12
-8.5
-11.03
-13.57
-15.85
-17.39
-17.54
-15.7
-11.54
-5.24
2.49
10.65
18.31
24.87
30.25
34.73
38.63
42.11
45.02
47.04
47.91
47.59
46.36
44.64
42.89
41.38
40.07
38.74
37.07
34.82
31.95
28.59
24.94
21.12
17.11
12.75
7.92
2.59
-3.15
-9.17
-15.42
-21.88
-28.41
-34.59
-39.66
-42.64
-42.73
-39.61
-33.74
-26.12
-18.06
-10.65
-4.59
-0.03
3.23
5.56
7.32
8.72
9.89
10.81
11.4
11.58
11.33
10.73
9.92
9.09
8.35
7.7
7.05
6.32
5.48
4.54
3.47
2.19
0.45
-1.95
-5.17
-9.21
-13.94
-19.21
-24.88
-30.85
-36.83
-42.35
-46.68
-49.05
-48.89
-46.07
-40.94
-34.19
-26.65
-19.01
-11.71
-4.91
1.36
7.16
12.49
17.3
21.55
25.19
28.28
30.95
33.33
35.53
37.56
39.32
40.67
41.47
41.63
41.13
40.05
38.48
36.5
34.13
31.33
27.95
23.79
18.58
12.13
4.4
-4.38
-13.62
-22.39
-29.67
-34.5
-36.38
-35.38
-32.13
-27.65
-22.96
-18.79
-15.5
-13.11
-11.42
-10.28
-9.65
-9.55
-10.08
-11.22
-12.74
-14.19
-14.91
-14.23
-11.71
-7.33
-1.55
4.81
10.82
15.72
19.14
21.1
21.86
21.75
21.02
19.74
17.83
15.1
11.44
6.9
1.82
-3.17
-7.22
-9.54
-9.53
-7.09
-2.56
3.35
9.76
15.89
21.21
25.46
28.63
30.83
32.21
32.84
32.74
31.86
30.18
27.76
24.78
21.55
18.36
15.45
12.92
10.68
8.57
6.39
3.99
1.32
-1.64
-4.87
-8.38
-12.13
-16.06
-20.06
-24.07
-28.12
-32.41
-37.15
-42.41
-47.87
-52.79
-56.15
-57.03
-54.88
-49.81
-42.52
-34.09
-25.62
-17.96
-11.51
-6.29
-2.07
1.51
4.66
7.43
9.69
11.25
11.98
11.96
11.44
10.81
10.41
10.39
10.68
11.05
11.28
11.2
10.8
10.15
9.33
8.32
7
5.13
2.49
-1.05
-5.43
-10.47
-15.87
-21.22
-26.04
-29.71
-31.6
-31.18
-28.21
-22.93
-15.99
-8.38
-1.14
4.95
9.48
12.48
14.25
15.2
15.69
15.91
15.94
15.77
15.4
14.88
14.34
13.93
13.78
13.92
14.35
14.97
15.67
16.31
16.77
16.89
16.6
15.83
14.6
12.95
10.93
8.52
5.68
2.35
-1.48
-5.66
-9.91
-13.73
-16.44
-17.36
-15.98
-12.16
-6.31
0.7
7.79
13.96
18.64
21.72
23.46
24.3
24.61
24.56
24.23
23.57
22.61
21.37
19.92
18.35
16.72
15.1
13.52
12.03
10.65
9.39
8.19
6.94
5.51
3.76
1.65
-0.85
-3.65
-6.72
-10.01
-13.56
-17.42
-21.7
-26.45
-31.59
-36.82
-41.55
-44.94
-46.11
-44.46
-39.95
-33.26
-25.56
-18.17
-12.09
-7.78
-5.18
-3.86
-3.35
-3.24
-3.28
-3.27
-3.07
-2.6
-1.87
-0.96
-0.01
0.96
2.03
3.38
5.15
7.31
9.62
11.68
13.11
13.71
13.5
12.73
11.67
10.51
9.24
7.67
5.54
2.56
-1.34
-6.04
-11.05
-15.59
-18.77
-19.73
-18
-13.65
-7.36
-0.15
6.88
12.91
17.5
20.64
22.51
23.34
23.3
22.46
20.91
18.75
16.2
13.5
10.91
8.61
6.68
5.14
3.92
2.89
1.94
0.92
-0.24
-1.57
-3.03
-4.55
-6.09
-7.63
-9.27
-11.12
-13.31
-15.97
-19.18
-22.98
-27.17
-31.32
-34.68
-36.37
-35.6
-32
-25.82
-17.91
-9.47
-1.7
4.57
9.06
11.92
13.65
14.71
15.42
15.9
16.07
15.86
15.24
14.31
13.25
12.26
11.47
10.91
10.54
10.21
9.8
9.18
8.27
7.05
5.54
3.81
1.88
-0.21
-2.53
-5.17
-8.28
-12
-16.38
-21.24
-26.11
-30.21
-32.65
-32.75
-30.26
-25.58
-19.54
-13.16
-7.36
-2.65
0.81
3.16
4.62
5.44
5.73
5.56
4.94
3.87
2.41
0.67
-1.21
-3.07
-4.79
-6.36
-7.84
-9.32
-10.84
-12.35
-13.77
-15.08
-16.36
-17.83
-19.7
-22.11
-24.99
-28.14
-31.33
-34.37
-37.18
-39.69
-41.74
-42.92
-42.65
-40.41
-35.95
-29.54
-21.91
-14.03
-6.82
-0.9
3.57
6.8
9.2
11.15
12.87
14.28
15.14
15.2
14.36
12.82
11
9.39
8.34
7.93
7.94
8.03
7.88
7.33
6.42
5.28
4.03
2.66
1.09
-0.88
-3.41
-6.64
-10.6
-15.15
-19.98
-24.57
-28.23
-30.24
-30.02
-27.29
-22.18
-15.28
-7.48
0.23
6.97
12.22
15.85
18.09
19.41
20.23
20.81
21.23
21.42
21.27
20.78
20.05
19.24
18.45
17.74
17.04
16.28
15.38
14.32
13.09
11.7
10.13
8.34
6.28
3.89
1.16
-1.91
-5.39
-9.35
-13.84
-18.75
-23.66
-27.84
-30.31
-30.23
-27.15
-21.31
-13.61
-5.32
2.32
8.49
12.93
15.88
17.81
19.21
20.38
21.42
22.3
22.95
23.33
23.43
23.26
22.87
22.34
21.73
21.15
20.68
20.42
20.41
20.54
20.56
20.1
18.82
16.51
13.25
9.4
5.46
1.85
-1.24
-3.92
-6.52
-9.46
-13
-17.21
-21.84
-26.4
-30.22
-32.51
-32.65
-30.35
-25.74
-19.45
-12.36
-5.39
0.81
5.9
9.89
12.98
15.43
17.44
19.11
20.54
21.79
22.92
23.97
24.98
25.92
26.71
27.21
27.34
27.02
26.24
25.07
23.6
21.9
20
17.89
15.51
12.81
9.78
6.49
3.04
-0.44
-3.89
-7.41
-11.23
-15.58
-20.45
-25.48
-29.86
-32.62
-32.95
-30.58
-25.88
-19.76
-13.31
-7.45
-2.75
0.66
2.91
4.27
5.02
5.44
5.77
6.16
6.66
7.17
7.51
7.49
6.93
5.82
4.26
2.49
0.74
-0.78
-2.03
-3.12
-4.31
-5.88
-7.97
-10.44
-12.97
-15.08
-16.36
-16.62
-15.9
-14.47
-12.74
-11.17
-10.09
-9.58
-9.41
-9.03
-7.78
-5.17
-1.1
4.01
9.44
14.38
18.33
21.11
22.87
23.86
24.27
24.22
23.85
23.37
23.04
23.04
23.37
23.87
24.28
24.46
24.45
24.43
24.51
24.54
24.16
22.84
20.22
16.28
11.43
6.32
1.6
-2.41
-5.72
-8.74
-12.04
-16.2
-21.67
-28.67
-37.14
-46.62
-56.15
-64.35
-69.66
-70.81
-67.23
-59.38
-48.59
-36.64
-25.13
-15.01
-6.5
0.72
7.14
13.08
18.58
23.51
27.8
31.57
35.19
39.23
44.16
50.16
56.91
63.62
69.2
72.66
73.45
71.75
68.41
64.65
61.63
60.05
59.92
60.62
61.15
60.41
57.42
51.43
41.94
28.81
12.36
-6.4
-25.86
-43.95
-58.65
-68.43
-72.73
-72.02
-67.6
-61.19
-54.41
-48.47
-43.96
-40.94
-39.07
-37.91
-37.11
-36.55
-36.2
-36.09
-36.03
-35.67
-34.59
-32.56
-29.69
-26.45
-23.4
-20.93
-19.1
-17.68
-16.37
-14.99
-13.63
-12.55
-12.02
-12.14
-12.79
-13.79
-15.07
-16.76
-19.2
-22.63
-26.93
-31.46
-35.13
-36.76
-35.52
-31.31
-24.81
-17.24
-9.93
-3.86
0.55
3.4
5.08
6.07
6.67
7.02
7.07
6.8
6.22
5.47
4.71
4.11
3.73
3.56
3.48
3.36
3.08
2.56
1.77
0.64
-0.87
-2.76
-5.02
-7.53
-10.14
-12.76
-15.4
-18.2
-21.37
-25.03
-28.98
-32.64
-35.09
-35.38
-32.92
-27.72
-20.47
-12.27
-4.27
2.71
8.25
12.39
15.32
17.26
18.39
18.81
18.58
17.8
16.56
15
13.34
11.84
10.73
10.17
10.09
10.19
10.07
9.41
8.13
6.39
4.54
2.89
1.59
0.48
-0.8
-2.68
-5.5
-9.39
-14.14
-19.28
-24.03
-27.53
-29.01
-28
-24.47
-18.87
-11.98
-4.76
1.97
7.62
11.93
14.92
16.74
17.53
17.4
16.44
14.79
12.66
10.42
8.43
6.98
6.15
5.79
5.54
5
3.9
2.23
0.27
-1.54
-2.76
-3.08
-2.45
-1.13
0.26
0.82
-0.37
-3.89
-9.61
-16.43
-22.46
-25.55
-24.07
-17.6
-7.08
5.53
17.99
28.57
36.45
41.69
44.84
46.57
47.37
47.57
47.41
47.19
47.18
47.55
48.23
48.9
49.04
48.13
45.86
42.11
37.1
31.21
24.92
18.73
12.99
7.92
3.51
-0.46
-4.39
-8.68
-13.6
-19.14
-24.9
-30.23
-34.32
-36.45
-36.17
-33.4
-28.47
-21.97
-14.68
-7.4
-0.83
4.59
8.66
11.46
13.15
13.94
13.91
13.05
11.35
8.97
6.24
3.61
1.45
-0.1
-1.26
-2.42
-4
-6.22
-9.04
-12.28
-15.67
-19.13
-22.66
-26.43
-30.58
-35.27
-40.56
-46.38
-52.45
-58.13
-62.55
-64.74
-63.94
-59.92
-53.14
-44.58
-35.47
-26.88
-19.5
-13.52
-8.86
-5.29
-2.54
-0.38
1.47
3.31
5.34
7.52
9.52
10.9
11.33
10.86
9.97
9.38
9.73
11.28
13.76
16.55
18.89
20.16
20.04
18.43
15.45
11.31
6.39
1.2
-3.54
-7.01
-8.48
-7.48
-4.08
1.17
7.34
13.38
18.5
22.33
24.9
26.46
27.32
27.61
27.33
26.42
24.9
22.93
20.78
18.75
17.01
15.54
14.16
12.64
10.77
8.51
5.99
3.43
1.03
-1.07
-2.98
-4.92
-7.24
-10.24
-14.08
-18.62
-23.42
-27.75
-30.73
-31.59
-29.98
-26.06
-20.49
-14.2
-8.06
-2.62
1.95
5.76
8.92
11.41
13.05
13.68
13.27
12.11
10.68
9.51
8.98
9.21
9.98
10.91
11.55
11.58
10.91
9.67
8.1
6.49
4.95
3.42
1.69
-0.44
-3.15
-6.5
-10.47
-14.96
-19.67
-24.06
-27.3
-28.5
-27
-22.7
-16.19
-8.59
-1.11
5.3
10.21
13.67
15.99
17.48
18.29
18.52
18.22
17.52
16.68
15.98
15.64
15.74
16.13
16.51
16.5
15.84
14.51
12.78
11.01
9.51
8.33
7.25
5.89
3.92
1.12
-2.49
-6.77
-11.46
-16.15
-20.24
-22.97
-23.6
-21.71
-17.42
-11.37
-4.55
2.11
7.97
12.8
16.64
19.65
21.88
23.3
23.82
23.42
22.26
20.63
18.91
17.44
16.4
15.77
15.37
14.93
14.2
13.01
11.33
9.2
6.73
4.05
1.26
-1.59
-4.5
-7.61
-11.08
-15.13
-19.85
-25.16
-30.7
-35.83
-39.7
-41.51
-40.62
-36.84
-30.51
-22.41
-13.68
-5.46
1.39
6.46
9.93
12.32
14.26
16.25
18.49
21.02
23.78
26.77
30.01
33.41
36.63
39.06
40.03
39.08
36.27
32.14
27.57
23.46
20.45
18.69
17.87
17.36
16.35
14.1
10.22
4.74
-1.77
-8.4
-14.09
-17.89
-19.24
-18.08
-14.82
-10.2
-5.09
-0.25
3.78
6.82
8.9
10.21
10.93
11.15
10.92
10.28
9.35
8.31
7.35
6.58
5.98
5.35
4.51
3.31
1.7
-0.23
-2.35
-4.63
-7.06
-9.7
-12.53
-15.41
-18.13
-20.53
-22.51
-24.11
-25.38
-26.17
-26.1
-24.59
-21.17
-15.66
-8.43
-0.28
7.78
14.84
20.31
24.07
26.36
27.57
28.14
28.36
28.38
28.22
27.79
27.04
25.93
24.55
23.01
21.43
19.86
18.26
16.53
14.58
12.4
9.97
7.31
4.42
1.29
-2.04
-5.45
-8.81
-12
-15.1
-18.29
-21.81
-25.81
-30.19
-34.51
-38.13
-40.33
-40.59
-38.72
-34.93
-29.76
-23.92
-18.06
-12.68
-7.99
-4
-0.61
2.24
4.55
6.25
7.34
7.87
7.99
7.85
7.59
7.26
6.91
6.6
6.43
6.44
6.63
6.88
6.97
6.68
5.88
4.52
2.62
0.22
-2.6
-5.76
-9.1
-12.46
-15.76
-19.01
-22.31
-25.68
-28.89
-31.4
-32.46
-31.36
-27.82
-22.14
-15.15
-7.96
-1.58
3.41
6.94
9.34
11.06
12.48
13.72
14.69
15.26
15.37
15.09
14.57
13.93
13.19
12.35
11.44
10.6
10.05
9.93
10.19
10.45
10.2
8.98
6.66
3.46
-0.14
-3.66
-6.84
-9.67
-12.34
-15.08
-18.02
-21.26
-24.79
-28.51
-32.08
-34.88
-36.09
-34.97
-31.2
-25.14
-17.76
-10.32
-3.91
0.96
4.33
6.68
8.55
10.26
11.89
13.35
14.51
15.33
15.84
16.09
16.13
15.98
15.66
15.24
14.82
14.42
14.01
13.44
12.48
10.98
8.87
6.27
3.4
0.52
-2.24
-4.9
-7.63
-10.66
-14.21
-18.36
-23.05
-27.95
-32.54
-36.1
-37.85
-37.18
-33.81
-28.02
-20.58
-12.57
-5.07
1.15
5.78
8.95
11.05
12.48
13.53
14.29
14.77
14.94
14.83
14.54
14.18
13.85
13.6
13.44
13.33
13.23
13.07
12.79
12.24
11.27
9.72
7.51
4.69
1.44
-1.93
-5.11
-7.93
-10.45
-13.04
-16.16
-20.2
-25.13
-30.42
-35.01
-37.69
-37.5
-34.08
-27.89
-19.97
-11.63
-3.97
2.35
7.17
10.7
13.25
15.06
16.29
17.06
17.54
17.92
18.37
18.9
19.41
19.69
19.6
19.12
18.41
17.72
17.23
16.99
16.81
16.43
15.58
14.1
11.95
9.23
6.15
2.95
-0.12
-2.93
-5.46
-7.88
-10.45
-13.46
-17.14
-21.51
-26.41
-31.36
-35.66
-38.44
-38.92
-36.63
-31.64
-24.58
-16.53
-8.64
-1.85
3.39
7.11
9.71
11.66
13.3
14.77
16.04
17.04
17.7
18.07
18.26
18.36
18.43
18.48
18.47
18.36
18.13
17.77
17.28
16.66
15.85
14.77
13.31
11.33
8.78
5.69
2.26
-1.23
-4.47
-7.32
-9.85
-12.38
-15.32
-19.03
-23.56
-28.49
-33.03
-36.12
-36.82
-34.6
-29.61
-22.59
-14.67
-7
-0.38
4.88
8.88
11.95
14.39
16.33
17.81
18.79
19.32
19.53
19.62
19.73
19.91
20.08
20.12
19.97
19.63
19.19
18.75
18.34
17.92
17.35
16.49
15.17
13.28
10.77
7.72
4.29
0.71
-2.71
-5.72
-8.22
-10.29
-12.25
-14.54
-17.61
-21.66
-26.55
-31.68
-36.09
-38.72
-38.75
-35.84
-30.3
-22.95
-14.9
-7.16
-0.47
4.87
8.86
11.69
13.59
14.75
15.3
15.38
15.12
14.69
14.24
13.86
13.56
13.31
13.01
12.6
12.13
11.67
11.32
11.09
10.85
10.35
9.25
7.22
4.12
0.03
-4.7
-9.55
-13.98
-17.56
-20.16
-21.91
-23.21
-24.55
-26.38
-28.91
-32.03
-35.24
-37.82
-38.95
-37.98
-34.62
-29.07
-22
-14.37
-7.12
-0.94
3.82
7.2
9.43
10.77
11.46
11.63
11.42
10.96
10.38
9.77
9.14
8.47
7.75
7.01
6.37
5.99
5.92
6.07
6.15
5.83
4.84
3.13
0.87
-1.58
-3.84
-5.66
-7.01
-8.06
-9.1
-10.42
-12.24
-14.55
-17.04
-19.03
-19.62
-17.84
-13.05
-5.29
4.61
15.15
24.62
31.61
35.47
36.39
35.19
32.97
30.63
28.7
27.19
25.87
24.45
22.75
20.82
18.88
17.15
15.79
14.93
14.59
14.76
15.39
16.32
17.34
18.2
18.75
18.96
18.94
18.77
18.5
18.03
17.16
15.65
13.31
10.01
5.78
0.9
-4.08
-8.32
-10.86
-10.96
-8.34
-3.37
3
9.54
15.15
19.07
21.12
21.54
20.79
19.33
17.49
15.33
12.83
9.98
6.87
3.76
0.96
-1.3
-2.95
-4.12
-5.04
-5.96
-7.02
-8.34
-9.96
-11.99
-14.53
-17.63
-21.27
-25.26
-29.4
-33.46
-37.4
-41.27
-45.26
-49.5
-53.95
-58.25
-61.72
-63.52
-62.84
-59.27
-52.97
-44.66
-35.47
-26.57
-18.83
-12.59
-7.69
-3.7
-0.13
3.32
6.76
10.14
13.39
16.51
19.49
22.25
24.64
26.37
27.18
26.91
25.5
23.08
19.86
16.17
12.33
8.66
5.38
2.62
0.35
-1.55
-3.24
-4.98
-7.07
-9.85
-13.58
-18.17
-23.07
-27.24
-29.46
-28.78
-24.91
-18.4
-10.44
-2.36
4.71
10.18
13.94
16.21
17.32
17.6
17.36
16.92
16.63
16.73
17.29
18.19
19.18
19.98
20.42
20.48
20.23
19.72
18.94
17.75
16.02
13.72
10.96
7.96
4.93
1.97
-0.95
-3.97
-7.28
-11.06
-15.41
-20.3
-25.44
-30.19
-33.57
-34.6
-32.62
-27.67
-20.55
-12.52
-4.86
1.58
6.55
10.27
13.07
15.19
16.67
17.44
17.46
16.81
15.63
14.07
12.27
10.35
8.49
6.86
5.59
4.68
3.98
3.27
2.4
1.26
-0.16
-1.79
-3.65
-5.8
-8.37
-11.51
-15.31
-19.8
-24.8
-29.9
-34.43
-37.52
-38.33
-36.33
-31.54
-24.59
-16.56
-8.62
-1.7
3.77
7.79
10.67
12.72
14.16
15.06
15.43
15.29
14.76
14.03
13.26
12.61
12.09
11.64
11.1
10.3
9.12
7.59
5.84
4.09
2.49
1.08
-0.28
-1.85
-3.92
-6.67
-10.22
-14.51
-19.32
-24.22
-28.52
-31.4
-32.07
-30.04
-25.34
-18.64
-11.01
-3.65
2.54
7.14
10.26
12.37
13.97
15.37
16.6
17.42
17.61
17.06
15.91
14.48
13.13
12.07
11.27
10.53
9.6
8.31
6.65
4.76
2.79
0.84
-1.15
-3.31
-5.81
-8.73
-12.08
-15.84
-19.93
-24.29
-28.71
-32.76
-35.73
-36.81
-35.3
-30.93
-24.06
-15.64
-6.88
1.05
7.39
11.9
14.78
16.52
17.63
18.51
19.36
20.2
20.89
21.23
21.1
20.51
19.64
18.73
17.97
17.4
16.93
16.36
15.52
14.35
12.89
11.19
9.28
7.13
4.71
2
-0.95
-4.1
-7.45
-11.13
-15.24
-19.71
-24.12
-27.72
-29.55
-28.83
-25.29
-19.31
-11.84
-4.08
2.88
8.38
12.28
14.84
16.53
17.77
18.82
19.7
20.31
20.55
20.38
19.88
19.18
18.4
17.55
16.61
15.55
14.39
13.2
12.04
10.89
9.61
8.02
6.02
3.59
0.85
-2.07
-5.1
-8.29
-11.77
-15.64
-19.83
-23.97
-27.42
-29.4
-29.22
-26.54
-21.56
-14.93
-7.58
-0.46
5.74
10.65
14.22
16.61
18.03
18.75
19.06
19.18
19.28
19.4
19.48
19.38
19.01
18.37
17.56
16.73
16
15.41
14.88
14.22
13.23
11.71
9.55
6.83
3.78
0.7
-2.14
-4.6
-6.78
-8.99
-11.59
-14.89
-18.98
-23.6
-28.14
-31.68
-33.3
-32.37
-28.73
-22.87
-15.7
-8.32
-1.65
3.75
7.8
10.73
12.88
14.54
15.83
16.72
17.13
17.02
16.43
15.5
14.41
13.31
12.29
11.39
10.64
10.05
9.61
9.21
8.66
7.66
5.98
3.53
0.43
-3.04
-6.5
-9.65
-12.31
-14.53
-16.51
-18.63
-21.29
-24.76
-28.99
-33.52
-37.49
-39.93
-40.06
-37.59
-32.88
-26.76
-20.26
-14.29
-9.37
-5.61
-2.8
-0.6
1.31
3.12
4.96
6.9
8.96
11.16
13.44
15.74
17.98
20.18
22.4
24.72
27.08
29.26
30.91
31.61
31.14
29.54
27.12
24.27
21.31
18.33
15.25
11.88
8.06
3.68
-1.24
-6.55
-11.92
-16.75
-20.31
-21.85
-20.89
-17.48
-12.2
-6.01
0.06
5.22
9.1
11.76
13.44
14.49
15.13
15.51
15.68
15.68
15.55
15.3
14.92
14.39
13.71
12.86
11.92
11.03
10.35
10.02
10.04
10.21
10.17
9.5
7.91
5.42
2.29
-1.01
-4.04
-6.61
-8.83
-11.04
-13.64
-16.92
-20.98
-25.63
-30.47
-34.85
-38
-39.14
-37.79
-33.89
-27.94
-20.84
-13.63
-7.12
-1.74
2.45
5.67
8.14
10
11.32
12.14
12.57
12.79
13.02
13.36
13.83
14.29
14.54
14.45
14.03
13.41
12.77
12.31
12.03
11.8
11.37
10.44
8.85
6.55
3.69
0.48
-2.83
-6.03
-9.03
-11.83
-14.58
-17.49
-20.82
-24.68
-28.91
-32.97
-36.05
-37.23
-35.86
-31.81
-25.57
-18.08
-10.45
-3.63
1.85
5.9
8.72
10.63
11.9
12.7
13.13
13.23
13.06
12.76
12.43
12.15
11.91
11.64
11.28
10.82
10.36
10.04
9.95
10.04
10.06
9.64
8.44
6.32
3.39
-0.07
-3.63
-6.99
-10.01
-12.78
-15.58
-18.72
-22.43
-26.72
-31.28
-35.51
-38.63
-39.91
-38.9
-35.54
-30.23
-23.7
-16.79
-10.31
-4.86
-0.75
1.98
3.54
4.29
4.58
4.67
4.64
4.42
3.88
2.94
1.61
0.06
-1.55
-3.01
-4.16
-4.9
-5.13
-4.91
-4.35
-3.68
-3.2
-3.19
-3.82
-5.07
-6.71
-8.4
-9.74
-10.49
-10.69
-10.65
-10.86
-11.72
-13.26
-14.97
-15.94
-15.09
-11.67
-5.54
2.75
12.1
21.3
29.32
35.56
39.82
42.22
42.98
42.4
40.75
38.32
35.41
32.29
29.19
26.22
23.49
21.02
18.87
17.04
15.48
14.1
12.73
11.21
9.45
7.44
5.2
2.79
0.19
-2.67
-5.83
-9.32
-13.09
-17.08
-21.34
-25.96
-31.07
-36.54
-41.93
-46.47
-49.3
-49.8
-47.92
-44.16
-39.4
-34.65
-30.64
-27.81
-26.3
-26.02
-26.75
-28.05
-29.29
-29.61
-28.11
-24.03
-17.06
-7.42
4.08
16.27
27.87
37.83
45.57
51.07
54.85
57.72
60.51
63.85
67.94
72.6
77.29
81.33
84
84.72
83.04
78.78
72.18
63.89
55.08
47.19
41.61
39.2
39.98
43.03
46.82
49.7
50.33
48.04
42.78
34.97
25.21
14.09
2.17
-10.08
-22.19
-33.68
-44.06
-52.82
-59.5
-63.81
-65.73
-65.69
-64.41
-62.76
-61.47
-60.86
-60.83
-61.03
-61.11
-60.86
-60.33
-59.7
-59.17
-58.93
-59.12
-59.84
-61.01
-62.25
-62.83
-61.79
-58.23
-51.78
-42.8
-32.32
-21.73
-12.27
-4.63
1.07
5.18
8.13
10.16
11.31
11.53
10.85
9.56
8.12
7
6.44
6.39
6.52
6.39
5.71
4.46
2.87
1.35
0.16
-0.63
-1.25
-2.12
-3.66
-6.12
-9.56
-13.8
-18.49
-23.12
-27.07
-29.6
-29.98
-27.71
-22.68
-15.32
-6.52
2.64
11.2
18.52
24.35
28.72
31.72
33.38
33.71
32.71
30.53
27.54
24.29
21.34
19.09
17.6
16.61
15.7
14.49
12.82
10.86
8.96
7.37
6.09
4.78
2.98
0.28
-3.49
-8.23
-13.66
-19.37
-24.8
-29.21
-31.73
-31.6
-28.48
-22.69
-15.22
-7.37
-0.34
5.2
9.19
11.97
13.93
15.23
15.79
15.42
14.15
12.32
10.5
9.24
8.82
9.09
9.62
9.9
9.56
8.59
7.2
5.74
4.43
3.27
2.1
0.66
-1.3
-3.93
-7.29
-11.32
-15.81
-20.31
-24.16
-26.56
-26.81
-24.57
-19.99
-13.72
-6.67
0.26
6.45
11.58
15.6
18.56
20.52
21.48
21.48
20.62
19.13
17.32
15.53
14.1
13.18
12.76
12.65
12.53
12.06
11.07
9.6
7.88
6.19
4.64
3.15
1.44
-0.88
-4.06
-8.19
-13.07
-18.3
-23.25
-27.16
-29.3
-29.09
-26.37
-21.42
-14.97
-7.95
-1.21
4.71
9.61
13.51
16.47
18.49
19.53
19.63
18.95
17.85
16.74
16
15.76
15.89
16.09
16.03
15.46
14.33
12.77
10.97
9.13
7.37
5.71
4.08
2.35
0.33
-2.24
-5.62
-9.93
-14.99
-20.27
-24.81
-27.58
-27.66
-24.68
-18.9
-11.21
-2.82
5.05
11.56
16.37
19.58
21.62
22.91
23.75
24.26
24.4
24.14
23.59
22.94
22.43
22.18
22.15
22.12
21.83
21.14
20.13
19.07
18.23
17.77
17.54
17.24
16.51
15.07
12.88
10.09
6.91
3.61
0.37
-2.68
-5.47
-8
-10.37
-12.72
-15.27
-18.29
-21.95
-26.24
-30.83
-35.02
-37.87
-38.48
-36.33
-31.5
-24.71
-17.06
-9.64
-3.25
1.83
5.7
8.63
10.91
12.69
14.03
15.01
15.7
16.22
16.63
16.95
17.13
17.11
16.84
16.37
15.82
15.38
15.18
15.25
15.39
15.24
14.37
12.48
9.51
5.76
1.77
-1.88
-4.78
-6.89
-8.47
-10.03
-12.1
-15.08
-19.04
-23.73
-28.53
-32.56
-34.88
-34.73
-31.82
-26.42
-19.34
-11.68
-4.51
1.41
5.75
8.56
10.14
10.89
11.22
11.45
11.82
12.37
13
13.5
13.6
13.19
12.32
11.24
10.24
9.58
9.37
9.52
9.82
9.97
9.68
8.69
6.87
4.21
0.93
-2.63
-6.06
-9.08
-11.68
-14.17
-16.98
-20.43
-24.46
-28.51
-31.6
-32.71
-31.14
-26.79
-20.26
-12.64
-5.16
1.19
5.91
8.99
10.87
12.1
13.16
14.23
15.22
15.88
15.99
15.49
14.53
13.42
12.51
11.98
11.83
11.89
11.9
11.63
10.92
9.72
8.08
6.09
3.89
1.59
-0.73
-3.08
-5.57
-8.38
-11.7
-15.65
-20.15
-24.8
-28.91
-31.56
-31.89
-29.44
-24.35
-17.36
-9.62
-2.28
3.8
8.32
11.36
13.32
14.59
15.45
16.01
16.31
16.36
16.19
15.92
15.69
15.62
15.79
16.19
16.74
17.37
17.95
18.42
18.71
18.72
18.36
17.52
16.17
14.34
12.17
9.78
7.21
4.35
0.95
-3.21
-8.11
-13.3
-17.94
-21.03
-21.79
-20.01
-16.18
-11.27
-6.4
-2.47
0.1
1.3
1.36
0.58
-0.83
-2.72
-4.95
-7.38
-9.88
-12.29
-14.52
-16.4
-17.74
-18.34
-18.07
-16.97
-15.28
-13.41
-11.77
-10.68
-10.29
-10.51
-11.2
-12.19
-13.39
-14.83
-16.63
-18.92
-21.83
-25.34
-29.19
-32.87
-35.62
-36.63
-35.27
-31.34
-25.16
-17.57
-9.66
-2.43
3.48
7.89
11.03
13.3
15.03
16.41
17.41
17.92
17.82
17.13
16
14.68
13.46
12.54
11.95
11.58
11.16
10.46
9.33
7.8
6.02
4.15
2.27
0.29
-1.93
-4.53
-7.57
-11.03
-14.88
-19.19
-23.99
-29.14
-34.14
-38.16
-40.17
-39.35
-35.43
-28.78
-20.32
-11.2
-2.5
5.08
11.19
15.85
19.26
21.71
23.45
24.7
25.52
25.91
25.81
25.2
24.14
22.79
21.39
20.17
19.25
18.65
18.22
17.78
17.1
16
14.38
12.2
9.5
6.34
2.87
-0.73
-4.29
-7.77
-11.29
-15.16
-19.7
-24.98
-30.68
-35.97
-39.76
-41.02
-39.15
-34.24
-26.99
-18.54
-10.04
-2.39
3.94
8.91
12.74
15.75
18.18
20.14
21.6
22.52
22.87
22.73
22.25
21.61
20.97
20.41
19.93
19.48
19.02
18.48
17.77
16.76
15.29
13.24
10.59
7.48
4.16
0.91
-2.08
-4.81
-7.48
-10.45
-14.04
-18.36
-23.18
-27.82
-31.31
-32.66
-31.13
-26.56
-19.49
-10.93
-2.15
5.77
12.23
17.11
20.69
23.4
25.54
27.2
28.32
28.79
28.57
27.75
26.54
25.14
23.73
22.42
21.22
20.14
19.13
18.18
17.25
16.21
14.91
13.19
10.94
8.19
5.16
2.19
-0.4
-2.47
-4.21
-6.04
-8.51
-12
-16.54
-21.65
-26.5
-30.12
-31.67
-30.66
-27.09
-21.36
-14.23
-6.58
0.7
6.92
11.69
14.92
16.81
17.64
17.67
17.07
15.92
14.36
12.58
10.88
9.51
8.61
8.14
7.96
7.87
7.73
7.49
7.11
6.48
5.46
3.9
1.73
-0.93
-3.85
-6.71
-9.32
-11.68
-14.03
-16.73
-20.06
-23.92
-27.79
-30.81
-32.04
-30.81
-26.96
-20.94
-13.57
-5.88
1.25
7.19
11.68
14.69
16.39
17.06
16.95
16.29
15.22
13.84
12.28
10.72
9.46
8.76
8.76
9.35
10.16
10.69
10.55
9.57
7.93
5.98
4.08
2.37
0.74
-1.06
-3.28
-6.04
-9.34
-13.13
-17.34
-21.83
-26.2
-29.74
-31.57
-30.87
-27.35
-21.35
-13.88
-6.18
0.65
5.97
9.68
12.07
13.52
14.36
14.77
14.81
14.52
13.99
13.3
12.62
12.07
11.76
11.74
11.99
12.45
13
13.55
13.97
14.17
14.03
13.47
12.36
10.63
8.33
5.59
2.59
-0.55
-3.85
-7.43
-11.37
-15.42
-18.95
-20.97
-20.57
-17.26
-11.33
-3.83
3.78
10.15
14.4
16.37
16.43
15.29
13.67
12.12
11.04
10.65
11.03
12.12
13.63
15.02
15.66
15.05
13.17
10.53
8.1
6.85
7.3
9.29
12.06
14.58
16.02
15.99
14.5
11.71
7.67
2.26
-4.67
-12.98
-22.06
-30.85
-38.05
-42.5
-43.54
-41.2
-36.15
-29.49
-22.42
-15.85
-10.28
-5.65
-1.54
2.57
7.04
11.79
16.33
19.85
21.57
21.01
18.12
13.34
7.37
0.99
-5.15
-10.57
-14.95
-18.11
-19.93
-20.42
-19.74
-18.22
-16.39
-14.86
-14.25
-14.99
-17.19
-20.58
-24.47
-27.9
-29.84
-29.46
-26.41
-20.85
-13.52
-5.41
2.43
9.21
14.56
18.39
20.79
21.82
21.43
19.53
16.22
11.82
6.94
2.32
-1.45
-4.07
-5.66
-6.62
-7.5
-8.66
-10.25
-12.13
-14.02
-15.65
-16.92
-17.95
-19.03
-20.55
-22.86
-26.18
-30.42
-35.19
-39.76
-43.19
-44.59
-43.33
-39.28
-32.83
-24.8
-16.24
-8.15
-1.29
3.91
7.41
9.43
10.39
10.68
10.6
10.31
9.86
9.33
8.85
8.57
8.56
8.69
8.74
8.41
7.54
6.18
4.54
2.92
1.52
0.33
-0.86
-2.34
-4.45
-7.45
-11.49
-16.5
-22.1
-27.52
-31.74
-33.71
-32.71
-28.64
-22.07
-14.06
-5.85
1.52
7.44
11.76
14.7
16.55
17.58
17.87
17.43
16.28
14.55
12.57
10.79
9.58
9.09
9.16
9.4
9.37
8.79
7.64
6.08
4.35
2.58
0.76
-1.24
-3.59
-6.44
-9.89
-14.04
-18.87
-24.25
-29.78
-34.81
-38.49
-39.97
-38.63
-34.27
-27.26
-18.45
-8.96
0.06
7.69
13.47
17.35
19.6
20.62
20.75
20.25
19.3
18.1
16.91
16
15.53
15.48
15.64
15.76
15.6
15.06
14.14
12.93
11.5
9.89
8.14
6.3
4.41
2.43
0.2
-2.6
-6.26
-10.98
-16.61
-22.6
-28.02
-31.72
-32.65
-30.22
-24.48
-16.19
-6.56
3.06
11.55
18.22
22.82
25.47
26.45
26.16
24.97
23.28
21.43
19.7
18.26
17.19
16.5
16.14
16.02
15.99
15.89
15.54
14.84
13.76
12.31
10.53
8.42
5.97
3.2
0.24
-2.74
-5.6
-8.35
-11.19
-14.46
-18.48
-23.27
-28.41
-33.02
-35.95
-36.2
-33.27
-27.39
-19.46
-10.78
-2.61
4.19
9.28
12.79
15.05
16.39
17.01
17.01
16.47
15.57
14.56
13.71
13.22
13.14
13.37
13.67
13.79
13.52
12.78
11.62
10.2
8.7
7.2
5.68
3.96
1.79
-1.02
-4.61
-8.99
-14.09
-19.63
-25.1
-29.7
-32.45
-32.53
-29.53
-23.66
-15.78
-7.11
1.12
7.99
13.07
16.39
18.31
19.26
19.65
19.7
19.47
18.9
17.96
16.73
15.48
14.51
14.06
14.07
14.28
14.33
13.95
13.08
11.82
10.34
8.7
6.85
4.67
2.06
-1
-4.48
-8.42
-12.92
-17.98
-23.43
-28.64
-32.66
-34.41
-33.1
-28.55
-21.37
-12.72
-3.98
3.71
9.73
14
16.86
18.74
20
20.77
21.07
20.85
20.13
19.04
17.77
16.51
15.44
14.68
14.3
14.28
14.49
14.71
14.66
14.1
12.86
10.92
8.4
5.52
2.51
-0.49
-3.5
-6.64
-10.18
-14.37
-19.32
-24.76
-30.01
-34.08
-35.86
-34.59
-30.06
-22.84
-14.02
-4.93
3.31
10
14.92
18.25
20.27
21.28
21.47
21.05
20.26
19.39
18.69
18.31
18.19
18.15
17.97
17.55
16.91
16.19
15.58
15.14
14.79
14.24
13.16
11.27
8.52
5.15
1.58
-1.73
-4.5
-6.75
-8.8
-11.16
-14.32
-18.5
-23.6
-29.05
-33.96
-37.24
-37.91
-35.4
-29.75
-21.72
-12.47
-3.32
4.66
10.86
15.12
17.66
18.84
19.09
18.83
18.36
17.91
17.59
17.4
17.29
17.14
16.89
16.49
15.99
15.49
15.13
14.98
15.03
15.04
14.62
13.35
11.01
7.66
3.73
-0.24
-3.78
-6.71
-9.18
-11.58
-14.29
-17.62
-21.66
-26.23
-30.88
-34.88
-37.35
-37.44
-34.65
-29.04
-21.27
-12.42
-3.69
3.96
9.98
14.26
16.95
18.35
18.77
18.47
17.67
16.52
15.15
13.64
12.13
10.76
9.74
9.24
9.32
9.85
10.55
11.05
11.01
10.26
8.79
6.72
4.21
1.36
-1.72
-4.92
-8.13
-11.22
-14.17
-17.14
-20.45
-24.42
-29.12
-34.11
-38.46
-40.96
-40.58
-36.84
-30.09
-21.35
-12.03
-3.35
3.9
9.59
14.01
17.63
20.86
23.88
26.7
29.24
31.41
33.2
34.62
35.74
36.59
37.23
37.69
38.05
38.39
38.75
39.08
39.21
38.85
37.66
35.38
31.94
27.54
22.52
17.24
11.96
6.68
1.19
-4.78
-11.32
-18.24
-24.96
-30.61
-34.3
-35.34
-33.5
-29.08
-22.82
-15.71
-8.71
-2.54
2.42
6.1
8.64
10.29
11.28
11.78
11.95
11.92
11.86
11.98
12.51
13.62
15.32
17.42
19.63
21.59
23.1
24.15
24.9
25.63
26.45
27.23
27.59
26.96
24.81
20.78
14.77
6.93
-2.33
-12.31
-22.04
-30.32
-35.97
-38.15
-36.65
-32.02
-25.43
-18.37
-12.18
-7.72
-5.32
-4.9
-6.11
-8.57
-11.9
-15.68
-19.49
-22.89
-25.49
-27.05
-27.54
-27.18
-26.3
-25.28
-24.4
-23.77
-23.3
-22.81
-22.12
-21.2
-20.16
-19.3
-18.98
-19.55
-21.29
-24.28
-28.32
-32.88
-37.1
-39.94
-40.48
-38.12
-32.84
-25.2
-16.1
-6.54
2.71
11.11
18.43
24.53
29.35
32.78
34.8
35.53
35.4
35.16
35.81
38.23
42.74
48.81
54.97
59.26
59.86
55.78
47.2
35.32
21.83
8.24
-4.51
-16.08
-26.56
-36.11
-44.84
-52.84
-60.19
-66.97
-73.09
-78.09
-81.17
-81.33
-77.8
-70.43
-59.93
-47.67
-35.37
-24.5
-15.98
-10.02
-6.26
-4.06
-2.76
-1.87
-1.13
-0.44
0.19
0.75
1.29
1.89
2.63
3.55
4.53
5.4
5.92
5.92
5.35
4.27
2.79
0.99
-1.16
-3.74
-6.85
-10.52
-14.73
-19.44
-24.62
-30.15
-35.68
-40.5
-43.61
-43.97
-40.9
-34.47
-25.47
-15.28
-5.31
3.31
10.07
14.94
18.23
20.32
21.54
22.14
22.37
22.52
22.83
23.41
24.21
24.99
25.44
25.37
24.81
24.01
23.37
23.18
23.43
23.76
23.59
22.34
19.73
15.87
11.25
6.51
2.22
-1.37
-4.35
-7.03
-9.92
-13.45
-17.99
-23.62
-30.08
-36.64
-42.14
-45.23
-44.84
-40.5
-32.64
-22.45
-11.52
-1.32
7.19
13.67
18.3
21.52
23.76
25.32
26.37
26.98
27.26
27.37
27.48
27.77
28.27
28.91
29.52
29.96
30.13
30.06
29.85
29.61
29.29
28.74
27.67
25.81
23
19.3
14.94
10.32
5.84
1.82
-1.63
-4.63
-7.44
-10.41
-13.85
-18.02
-23.01
-28.73
-34.78
-40.35
-44.33
-45.54
-43.12
-36.9
-27.57
-16.48
-5.29
4.61
12.42
18
21.74
24.23
25.99
27.3
28.27
28.89
29.15
29.12
28.97
28.86
28.92
29.13
29.37
29.46
29.25
28.65
27.68
26.45
25.08
23.69
22.29
20.74
18.81
16.25
12.97
9.04
4.79
0.62
-3.14
-6.35
-9.08
-11.6
-14.24
-17.34
-21.19
-25.98
-31.69
-37.92
-43.82
-48.15
-49.65
-47.43
-41.36
-32.14
-21.1
-9.79
0.5
8.97
15.37
19.88
22.86
24.69
25.7
26.08
26
25.56
24.89
24.15
23.56
23.29
23.44
23.96
24.67
25.34
25.78
25.9
25.7
25.22
24.43
23.2
21.31
18.64
15.14
11
6.57
2.26
-1.59
-4.81
-7.56
-10.21
-13.31
-17.33
-22.47
-28.55
-34.91
-40.53
-44.28
-45.17
-42.62
-36.68
-27.99
-17.69
-7.14
2.41
10.07
15.5
18.87
20.66
21.43
21.63
21.52
21.24
20.84
20.43
20.09
19.94
20
20.19
20.38
20.42
20.26
19.94
19.57
19.24
18.98
18.63
17.91
16.48
14.09
10.68
6.45
1.79
-2.85
-7.09
-10.73
-13.83
-16.65
-19.62
-23.16
-27.6
-32.97
-38.81
-44.24
-48.06
-49.13
-46.76
-40.93
-32.41
-22.41
-12.31
-3.21
4.24
9.87
13.86
16.49
18.08
18.87
19.05
18.8
18.33
17.82
17.44
17.26
17.23
17.23
17.13
16.91
16.64
16.5
16.65
17.07
17.51
17.55
16.7
14.66
11.43
7.36
3
-1.11
-4.66
-7.64
-10.36
-13.31
-16.99
-21.69
-27.37
-33.52
-39.18
-43.17
-44.37
-42.11
-36.41
-27.99
-18.06
-7.95
1.22
8.69
14.12
17.55
19.21
19.55
19.07
18.28
17.52
16.94
16.52
16.2
15.89
15.64
15.54
15.72
16.18
16.85
17.54
18.04
18.11
17.58
16.25
14.06
10.97
7.14
2.85
-1.52
-5.64
-9.33
-12.74
-16.29
-20.48
-25.66
-31.66
-37.71
-42.54
-44.82
-43.62
-38.77
-30.93
-21.42
-11.72
-3.07
3.77
8.64
11.77
13.54
14.33
14.37
13.77
12.59
10.95
9.07
7.26
5.91
5.3
5.56
6.55
7.9
9.11
9.74
9.55
8.57
6.99
5.06
2.94
0.66
-1.89
-4.79
-8.11
-11.89
-16.15
-20.87
-25.89
-30.79
-34.76
-36.83
-36.08
-32.09
-25.16
-16.29
-6.91
1.61
8.35
13.02
15.87
17.4
18.1
18.18
17.7
16.61
14.99
13.11
11.35
10.06
9.39
9.29
9.52
9.78
9.83
9.49
8.66
7.31
5.41
2.99
0.19
-2.84
-5.91
-8.95
-12
-15.32
-19.22
-23.95
-29.39
-34.9
-39.38
-41.56
-40.47
-35.84
-28.25
-18.94
-9.38
-0.81
6.08
11.16
14.68
16.98
18.31
18.78
18.38
17.17
15.36
13.36
11.64
10.65
10.57
11.31
12.52
13.76
14.62
14.83
14.3
13.02
11.04
8.44
5.37
1.97
-1.62
-5.39
-9.47
-14.06
-19.32
-25.15
-31.1
-36.29
-39.64
-40.13
-37.16
-30.81
-21.85
-11.59
-1.49
7.22
13.83
18.2
20.65
21.71
21.91
21.67
21.2
20.62
19.95
19.22
18.45
17.69
16.94
16.3
15.84
15.67
15.78
16.05
16.14
15.64
14.18
11.64
8.18
4.23
0.3
-3.28
-6.44
-9.5
-12.91
-17.16
-22.39
-28.3
-34.07
-38.51
-40.37
-38.78
-33.54
-25.26
-15.18
-4.81
4.51
11.95
17.2
20.47
22.18
22.77
22.63
22.05
21.28
20.51
19.9
19.49
19.21
18.93
18.53
18.01
17.48
17.11
16.99
17.03
16.91
16.2
14.57
11.87
8.27
4.13
-0.11
-4.08
-7.58
-10.64
-13.5
-16.58
-20.33
-25
-30.39
-35.73
-39.77
-41.24
-39.25
-33.75
-25.52
-15.96
-6.58
1.44
7.49
11.53
13.92
15.18
15.8
16.13
16.35
16.49
16.48
16.26
15.83
15.32
14.88
14.63
14.55
14.53
14.4
14.02
13.33
12.3
10.9
9.08
6.79
4
0.81
-2.64
-6.18
-9.76
-13.48
-17.59
-22.33
-27.69
-33.2
-37.93
-40.66
-40.28
-36.26
-28.84
-19.12
-8.61
1.15
9.07
14.74
18.31
20.29
21.27
21.65
21.66
21.4
20.91
20.32
19.76
19.35
19.13
18.99
18.81
18.45
17.89
17.22
16.54
15.82
14.91
13.5
11.34
8.36
4.77
0.97
-2.67
-6
-9.14
-12.42
-16.25
-20.9
-26.3
-32.08
-37.47
-41.46
-43.03
-41.43
-36.5
-28.78
-19.38
-9.63
-0.71
6.65
12.23
16.17
18.74
20.21
20.83
20.89
20.69
20.55
20.64
20.97
21.4
21.72
21.79
21.58
21.18
20.7
20.23
19.78
19.26
18.46
17.14
15.08
12.19
8.58
4.57
0.57
-3.04
-6.1
-8.75
-11.4
-14.6
-18.73
-23.86
-29.58
-35.03
-39.09
-40.7
-39.2
-34.52
-27.26
-18.5
-9.45
-1.16
5.68
10.85
14.43
16.69
17.91
18.33
18.16
17.61
16.87
16.1
15.42
14.89
14.54
14.35
14.3
14.39
14.55
14.7
14.72
14.4
13.55
12
9.66
6.59
3.03
-0.64
-4.06
-7.05
-9.66
-12.21
-15.12
-18.74
-23.12
-27.96
-32.59
-36.14
-37.74
-36.73
-32.84
-26.31
-17.91
-8.77
-0.07
7.21
12.57
16.07
18.11
19.17
19.6
19.52
18.94
17.93
16.69
15.54
14.74
14.39
14.4
14.55
14.67
14.66
14.54
14.29
13.87
13.1
11.76
9.7
6.87
3.35
-0.62
-4.7
-8.56
-11.94
-14.83
-17.51
-20.47
-24.22
-29
-34.49
-39.75
-43.44
-44.24
-41.35
-34.8
-25.5
-14.92
-4.68
3.96
10.34
14.41
16.58
17.44
17.55
17.33
17.02
16.73
16.51
16.34
16.21
16.03
15.71
15.18
14.43
13.56
12.72
12.1
11.75
11.54
11.19
10.34
8.68
6.14
2.91
-0.67
-4.22
-7.55
-10.71
-13.93
-17.55
-21.81
-26.79
-32.3
-37.84
-42.59
-45.58
-45.89
-42.97
-36.86
-28.29
-18.46
-8.74
-0.19
6.56
11.41
14.59
16.44
17.28
17.37
16.97
16.37
15.86
15.61
15.63
15.77
15.79
15.52
14.96
14.27
13.69
13.4
13.39
13.42
13.12
12.14
10.23
7.37
3.74
-0.32
-4.39
-8.14
-11.39
-14.22
-16.98
-20.17
-24.26
-29.45
-35.45
-41.44
-46.2
-48.42
-47.17
-42.18
-34
-23.82
-13.15
-3.37
4.62
10.46
14.3
16.54
17.6
17.84
17.52
16.88
16.15
15.51
15.07
14.79
14.52
14.15
13.65
13.14
12.81
12.76
12.91
13
12.62
11.43
9.28
6.22
2.49
-1.59
-5.72
-9.69
-13.43
-17.03
-20.78
-25.05
-30.11
-35.87
-41.71
-46.43
-48.64
-47.22
-41.78
-32.93
-22.04
-10.84
-0.85
6.95
12.31
15.51
17.11
17.7
17.66
17.26
16.6
15.77
14.88
14.09
13.55
13.33
13.38
13.59
13.8
13.89
13.74
13.28
12.33
10.78
8.52
5.58
2.13
-1.54
-5.17
-8.56
-11.78
-15.09
-18.95
-23.78
-29.68
-36.23
-42.38
-46.73
-47.9
-45.09
-38.4
-28.83
-17.95
-7.38
1.68
8.67
13.62
16.91
18.96
20.08
20.43
20.12
19.3
18.21
17.17
16.47
16.3
16.64
17.33
18.11
18.7
18.88
18.53
17.59
16.05
13.95
11.4
8.56
5.56
2.52
-0.54
-3.74
-7.24
-11.24
-15.91
-21.23
-26.93
-32.34
-36.48
-38.24
-36.77
-31.78
-23.82
-14.11
-4.2
4.47
11.04
15.3
17.59
18.49
18.48
17.83
16.57
14.7
12.32
9.72
7.35
5.65
4.92
5.17
6.13
7.38
8.45
9.02
8.96
8.32
7.2
5.65
3.65
1.06
-2.25
-6.34
-11.21
-16.75
-22.77
-28.85
-34.31
-38.15
-39.29
-36.93
-30.94
-22.09
-11.85
-1.87
6.54
12.75
16.83
19.24
20.44
20.7
20.1
18.74
16.88
14.96
13.45
12.65
12.56
12.88
13.23
13.27
12.84
11.98
10.84
9.54
8.14
6.59
4.8
2.69
0.17
-2.88
-6.69
-11.48
-17.37
-24.09
-30.9
-36.63
-39.92
-39.73
-35.65
-28.17
-18.48
-8.12
1.51
9.5
15.5
19.6
22.14
23.45
23.81
23.42
22.48
21.21
19.87
18.74
18
17.72
17.75
17.79
17.49
16.6
15.08
13.12
11.03
9.1
7.42
5.86
4.14
1.93
-1.02
-4.88
-9.69
-15.4
-21.71
-28.03
-33.43
-36.85
-37.3
-34.31
-28.05
-19.41
-9.67
-0.15
8.16
14.71
19.44
22.61
24.61
25.85
26.6
27.01
27.08
26.75
26.01
24.95
23.75
22.62
21.73
21.13
20.73
20.34
19.76
18.82
17.42
15.47
12.91
9.74
6.05
2
-2.15
-6.18
-9.99
-13.7
-17.65
-22.2
-27.49
-33.14
-38.23
-41.47
-41.66
-38.15
-31.18
-21.78
-11.47
-1.69
6.53
12.74
17.01
19.68
21.17
21.87
22.13
22.21
22.28
22.43
22.64
22.81
22.84
22.69
22.33
21.77
21.08
20.34
19.66
19.08
18.55
17.83
16.53
14.25
10.82
6.41
1.52
-3.17
-7.13
-10.16
-12.53
-14.85
-17.83
-21.95
-27.2
-32.98
-38.23
-41.65
-42.15
-39.13
-32.77
-23.96
-14.02
-4.36
3.94
10.35
14.9
17.95
19.95
21.25
22.03
22.42
22.53
22.55
22.63
22.88
23.25
23.56
23.59
23.16
22.28
21.12
19.98
19.09
18.48
17.93
17.03
15.36
12.72
9.21
5.17
1.1
-2.6
-5.73
-8.31
-10.58
-12.86
-15.54
-18.95
-23.34
-28.6
-34.24
-39.33
-42.68
-43.23
-40.43
-34.48
-26.28
-17.14
-8.34
-0.81
5.02
9.17
11.92
13.56
14.36
14.55
14.33
13.92
13.52
13.23
13.03
12.81
12.49
12.07
11.65
11.41
11.46
11.77
12.12
12.14
11.48
9.91
7.44
4.3
0.89
-2.4
-5.36
-8.01
-10.6
-13.5
-17.09
-21.55
-26.8
-32.36
-37.38
-40.8
-41.61
-39.16
-33.49
-25.34
-15.96
-6.72
1.3
7.53
11.96
14.9
16.74
17.82
18.35
18.49
18.32
17.96
17.47
16.89
16.24
15.54
14.86
14.29
13.87
13.61
13.4
13.06
12.35
11.07
9.07
6.41
3.25
-0.12
-3.4
-6.42
-9.14
-11.77
-14.62
-18.05
-22.29
-27.31
-32.65
-37.45
-40.58
-40.97
-38.01
-31.79
-23.18
-13.55
-4.29
3.55
9.51
13.69
16.46
18.19
19.16
19.52
19.4
18.99
18.54
18.21
18.06
17.99
17.84
17.49
16.9
16.16
15.44
14.86
14.45
14.12
13.63
12.64
10.84
8.09
4.45
0.28
-3.94
-7.82
-11.15
-14.08
-16.98
-20.35
-24.58
-29.71
-35.32
-40.47
-43.95
-44.57
-41.62
-35.18
-26.09
-15.79
-5.82
2.66
9.1
13.51
16.29
17.9
18.73
19.05
19.01
18.78
18.44
18.05
17.58
16.98
16.23
15.39
14.59
13.97
13.59
13.37
13.14
12.65
11.71
10.19
8.06
5.36
2.18
-1.34
-4.96
-8.46
-11.64
-14.5
-17.3
-20.49
-24.55
-29.65
-35.39
-40.75
-44.29
-44.69
-41.24
-34.16
-24.54
-13.99
-4.07
4.13
10.13
14.02
16.22
17.23
17.54
17.5
17.38
17.25
17.13
16.92
16.55
15.98
15.24
14.45
13.71
13.19
12.96
13.04
13.27
13.32
12.73
11.11
8.27
4.35
-0.2
-4.8
-8.92
-12.31
-15.06
-17.56
-20.4
-24.12
-28.98
-34.69
-40.38
-44.77
-46.55
-44.85
-39.59
-31.51
-21.9
-12.19
-3.51
3.5
8.71
12.33
14.69
16.15
17.02
17.52
17.85
18.12
18.33
18.45
18.38
18.01
17.32
16.41
15.52
14.91
14.78
15.12
15.68
16.01
15.58
14.04
11.24
7.37
2.85
-1.81
-6.2
-10.13
-13.68
-17.16
-20.99
-25.53
-30.94
-36.98
-42.94
-47.72
-50.09
-49.07
-44.33
-36.34
-26.31
-15.79
-6.23
1.49
7.13
11
13.65
15.54
16.91
17.8
18.19
18.11
17.7
17.18
16.74
16.45
16.24
16.02
15.71
15.36
15.09
15.04
15.22
15.42
15.25
14.26
12.16
8.92
4.82
0.38
-3.93
-7.79
-11.22
-14.49
-18
-22.17
-27.27
-33.3
-39.86
-46.1
-50.87
-52.91
-51.31
-45.84
-37.16
-26.54
-15.54
-5.48
2.83
9.19
13.81
17.08
19.33
20.77
21.5
21.63
21.28
20.7
20.13
19.77
19.72
19.87
20.02
19.96
19.63
19.1
18.5
17.88
17.1
15.83
13.73
10.65
6.75
2.46
-1.73
-5.49
-8.79
-11.94
-15.46
-19.84
-25.39
-32.03
-39.21
-45.91
-50.82
-52.67
-50.59
-44.47
-35.01
-23.62
-11.94
-1.42
7
13.04
16.9
19.09
20.16
20.6
20.73
20.73
20.67
20.53
20.29
19.94
19.48
18.96
18.41
17.88
17.39
16.95
16.5
15.89
14.86
13.15
10.6
7.29
3.54
-0.25
-3.8
-7.05
-10.34
-14.15
-18.93
-24.85
-31.55
-38.15
-43.44
-46.12
-45.25
-40.49
-32.3
-21.79
-10.45
0.28
9.33
16.16
20.82
23.67
25.23
25.99
26.2
25.97
25.31
24.27
23
21.78
20.85
20.36
20.26
20.39
20.52
20.49
20.16
19.4
18.11
16.14
13.41
9.98
6.03
1.86
-2.29
-6.3
-10.24
-14.44
-19.26
-24.98
-31.45
-38.02
-43.51
-46.46
-45.64
-40.53
-31.54
-19.99
-7.68
3.67
12.84
19.38
23.46
25.66
26.56
26.63
26.12
25.17
23.9
22.45
21.02
19.75
18.72
17.99
17.56
17.43
17.55
17.79
17.9
17.58
16.54
14.64
11.87
8.42
4.57
0.59
-3.31
-7.13
-11.05
-15.44
-20.64
-26.75
-33.32
-39.33
-43.31
-43.86
-40.16
-32.39
-21.7
-9.86
1.33
10.58
17.3
21.62
24.05
25.15
25.38
24.97
24.03
22.63
20.92
19.15
17.61
16.63
16.39
16.87
17.76
18.6
18.88
18.26
16.71
14.42
11.76
9.01
6.29
3.5
0.48
-2.93
-6.81
-11.2
-16.08
-21.4
-26.9
-31.97
-35.68
-36.94
-34.88
-29.25
-20.59
-10.15
0.53
10.04
17.44
22.41
25.14
26.13
25.99
25.19
24.08
22.8
21.43
20.05
18.81
17.97
17.73
18.15
18.98
19.78
20.08
19.57
18.21
16.13
13.56
10.65
7.47
4.08
0.54
-3.1
-6.93
-11.15
-16.02
-21.62
-27.56
-32.91
-36.42
-36.89
-33.7
-27.05
-17.97
-7.94
1.52
9.35
15.02
18.57
20.4
20.97
20.66
19.67
18.13
16.18
14.08
12.19
10.86
10.28
10.41
11
11.66
12.05
11.92
11.19
9.94
8.32
6.52
4.68
2.84
0.87
-1.46
-4.44
-8.34
-13.26
-19.03
-25.11
-30.63
-34.48
-35.62
-33.43
-27.93
-19.93
-10.7
-1.67
6.06
11.93
15.91
18.27
19.35
19.37
18.5
16.91
14.87
12.72
10.83
9.47
8.72
8.49
8.54
8.59
8.37
7.73
6.65
5.2
3.52
1.69
-0.23
-2.28
-4.53
-7.13
-10.29
-14.2
-18.97
-24.38
-29.85
-34.38
-36.86
-36.37
-32.59
-25.93
-17.39
-8.28
0.19
7.2
12.38
15.76
17.64
18.37
18.27
17.54
16.32
14.72
12.92
11.21
9.94
9.34
9.43
9.92
10.32
10.13
9.11
7.36
5.22
3.08
1.12
-0.73
-2.77
-5.4
-8.92
-13.45
-18.89
-24.88
-30.77
-35.69
-38.62
-38.69
-35.5
-29.29
-20.97
-11.83
-3.17
4.08
9.52
13.28
15.75
17.4
18.56
19.35
19.77
19.76
19.31
18.55
17.67
16.85
16.22
15.79
15.47
15.12
14.57
13.68
12.32
10.46
8.17
5.59
2.87
0.07
-2.87
-6.09
-9.76
-13.97
-18.74
-23.94
-29.24
-34.06
-37.6
-38.91
-37.29
-32.53
-25.14
-16.23
-7.17
0.83
7.06
11.4
14.16
15.79
16.72
17.26
17.59
17.8
17.97
18.16
18.32
18.41
18.32
17.97
17.36
16.55
15.67
14.86
14.14
13.39
12.38
10.82
8.54
5.59
2.2
-1.27
-4.5
-7.35
-9.94
-12.66
-15.98
-20.26
-25.55
-31.41
-36.93
-40.91
-42.21
-40.1
-34.61
-26.5
-17.06
-7.72
0.3
6.37
10.4
12.8
14.13
14.93
15.5
15.94
16.22
16.26
16.04
15.58
14.93
14.12
13.22
12.33
11.55
10.96
10.53
10.11
9.45
8.34
6.67
4.47
1.86
-1.05
-4.21
-7.67
-11.54
-15.95
-20.99
-26.54
-32.23
-37.31
-40.79
-41.72
-39.47
-34.07
-26.22
-17.09
-7.98
0.01
6.23
10.55
13.19
14.64
15.44
16.04
16.65
17.27
17.72
17.74
17.22
16.23
15.05
14.05
13.54
13.61
14.13
14.72
14.97
14.48
13.02
10.54
7.2
3.29
-0.88
-5.04
-9.04
-12.86
-16.63
-20.58
-24.99
-29.96
-35.26
-40.23
-43.82
-44.9
-42.7
-37.12
-28.87
-19.24
-9.66
-1.28
5.3
10.05
13.32
15.5
16.95
17.89
18.47
18.86
19.21
19.66
20.22
20.78
21.19
21.3
21.04
20.49
19.79
19.11
18.51
17.9
17.03
15.53
13.11
9.63
5.24
0.32
-4.61
-9.1
-12.9
-16.05
-18.91
-22.04
-25.99
-31.09
-37.19
-43.51
-48.79
-51.56
-50.7
-45.85
-37.67
-27.52
-17.08
-7.74
-0.26
5.26
9.14
11.82
13.66
14.92
15.79
16.44
17
17.51
17.95
18.21
18.23
18.03
17.76
17.64
17.84
18.42
19.3
20.25
21
21.2
20.57
18.91
16.18
12.53
8.26
3.81
-0.39
-4.11
-7.35
-10.41
-13.79
-17.97
-23.24
-29.48
-36.11
-42.12
-46.32
-47.61
-45.37
-39.66
-31.25
-21.4
-11.51
-2.71
4.31
9.43
12.87
15.06
16.41
17.19
17.58
17.68
17.57
17.34
17.06
16.74
16.34
15.85
15.3
14.8
14.48
14.42
14.51
14.46
13.89
12.49
10.11
6.86
3.05
-0.92
-4.71
-8.14
-11.28
-14.45
-18.12
-22.65
-28.13
-34.11
-39.62
-43.38
-44.18
-41.26
-34.69
-25.31
-14.57
-4.03
5
11.78
16.23
18.76
20.02
20.6
20.84
20.82
20.45
19.64
18.44
17.09
15.95
15.3
15.2
15.54
16.03
16.41
16.46
16.12
15.32
13.98
11.97
9.22
5.79
1.92
-2.06
-5.88
-9.49
-13.1
-17.14
-22.04
-27.95
-34.59
-41.12
-46.32
-48.86
-47.78
-42.78
-34.42
-23.96
-13.01
-3.07
4.83
10.28
13.46
14.91
15.26
14.96
14.28
13.23
11.75
9.82
7.58
5.3
3.38
2.22
2.13
3.2
5.28
7.98
10.75
13.01
14.3
14.38
13.28
11.22
8.51
5.41
2.04
-1.6
-5.65
-10.31
-15.79
-22.08
-28.88
-35.41
-40.48
-42.74
-41.09
-35.16
-25.53
-13.65
-1.43
9.4
17.69
23.19
26.34
27.97
28.89
29.57
30.13
30.39
30.17
29.35
28.03
26.44
24.85
23.47
22.4
21.63
21.17
21.01
21.11
21.37
21.55
21.28
20.26
18.33
15.6
12.38
9.01
5.7
2.34
-1.37
-5.82
-11.1
-16.88
-22.29
-26.12
-27.22
-24.83
-18.93
-10.28
-0.18
9.88
18.68
25.49
30.15
32.88
34.11
34.26
33.65
32.44
30.74
28.63
26.19
23.6
21.06
18.8
17.01
15.82
15.2
15.03
15.06
14.99
14.55
13.51
11.79
9.39
6.39
2.87
-1.1
-5.48
-10.28
-15.48
-21.1
-27.03
-33.04
-38.58
-42.81
-44.75
-43.61
-39.08
-31.57
-22.09
-12.01
-2.59
5.3
11.3
15.41
17.82
18.76
18.38
16.87
14.47
11.54
8.54
5.94
4.13
3.28
3.27
3.69
4.04
3.87
2.99
1.51
-0.25
-1.93
-3.36
-4.65
-6.09
-8.09
-10.97
-14.89
-19.84
-25.61
-31.77
-37.65
-42.3
-44.69
-43.87
-39.4
-31.54
-21.28
-10.13
0.37
9.03
15.33
19.36
21.58
22.54
22.61
21.91
20.47
18.3
15.63
12.83
10.35
8.54
7.51
7.11
7
6.79
6.2
5.12
3.58
1.71
-0.36
-2.57
-4.89
-7.42
-10.34
-13.9
-18.34
-23.75
-29.85
-35.92
-40.82
-43.29
-42.33
-37.56
-29.45
-19.18
-8.3
1.71
9.88
15.87
19.8
22.06
23.02
22.9
21.88
20.14
17.98
15.79
13.93
12.59
11.75
11.26
10.94
10.59
10.13
9.46
8.51
7.21
5.54
3.53
1.27
-1.16
-3.81
-6.82
-10.44
-14.86
-20.16
-26.05
-31.88
-36.61
-39.07
-38.27
-33.81
-26.09
-16.23
-5.77
3.86
11.65
17.25
20.82
22.83
23.74
23.87
23.42
22.48
21.16
19.61
18
16.54
15.4
14.68
14.38
14.35
14.34
14.05
13.25
11.83
9.82
7.33
4.52
1.5
-1.66
-4.97
-8.48
-12.36
-16.77
-21.84
-27.44
-32.99
-37.52
-39.79
-38.78
-34.02
-25.92
-15.64
-4.73
5.36
13.62
19.63
23.45
25.41
25.88
25.22
23.72
21.66
19.29
16.89
14.68
12.87
11.59
10.92
10.79
11.06
11.46
11.63
11.22
9.95
7.73
4.69
1.19
-2.39
-5.71
-8.69
-11.46
-14.35
-17.75
-21.95
-27
-32.58
-38.01
-42.23
-44.05
-42.49
-37.15
-28.48
-17.69
-6.44
3.7
11.67
17.17
20.49
22.2
22.81
22.63
21.73
20.14
17.95
15.4
12.86
10.7
9.25
8.63
8.76
9.36
9.99
10.23
9.83
8.73
7.08
5.08
2.87
0.49
-2.16
-5.19
-8.7
-12.79
-17.54
-23.02
-29.07
-35.16
-40.32
-43.29
-42.97
-38.81
-31.13
-21
-10
0.39
9.05
15.47
19.62
21.8
22.41
21.88
20.58
18.87
17.02
15.25
13.69
12.44
11.56
11.1
11.08
11.42
11.94
12.36
12.4
11.81
10.48
8.43
5.73
2.54
-1
-4.74
-8.59
-12.54
-16.71
-21.32
-26.53
-32.21
-37.74
-42.09
-43.99
-42.39
-36.91
-28.01
-16.95
-5.41
5.03
13.28
18.89
22.08
23.43
23.63
23.25
22.59
21.76
20.72
19.45
18.04
16.7
15.64
14.98
14.75
14.79
14.9
14.86
14.47
13.59
12.12
10.05
7.42
4.35
0.99
-2.48
-6.03
-9.72
-13.74
-18.31
-23.59
-29.46
-35.44
-40.6
-43.75
-43.74
-39.88
-32.3
-21.96
-10.44
0.59
9.78
16.43
20.53
22.51
23
22.6
21.73
20.64
19.48
18.32
17.21
16.2
15.34
14.67
14.24
14.03
14.01
14.13
14.24
14.16
13.65
12.48
10.49
7.68
4.22
0.36
-3.6
-7.46
-11.2
-15.04
-19.34
-24.46
-30.48
-36.95
-42.84
-46.7
-47.14
-43.31
-35.34
-24.34
-12.06
-0.3
9.63
17.14
22.31
25.53
27.27
27.83
27.4
26.14
24.33
22.38
20.71
19.64
19.23
19.36
19.74
20.09
20.25
20.18
19.91
19.41
18.6
17.3
15.34
12.64
9.3
5.55
1.64
-2.24
-6.09
-10.04
-14.37
-19.3
-24.79
-30.38
-35.15
-37.93
-37.62
-33.66
-26.28
-16.55
-5.98
3.87
11.86
17.51
20.87
22.35
22.39
21.28
19.15
16.07
12.22
7.97
3.86
0.47
-1.78
-2.8
-2.83
-2.37
-1.94
-1.86
-2.22
-2.91
-3.82
-4.94
-6.37
-8.19
-10.36
-12.67
-14.83
-16.68
-18.4
-20.44
-23.19
-26.57
-29.79
-31.32
-29.55
-23.4
-12.9
0.72
15.45
29.25
40.69
49.2
54.97
58.48
60.13
60.08
58.4
55.29
51.27
47.09
43.46
40.79
38.95
37.29
34.99
31.38
26.21
19.74
12.52
5.16
-1.98
-8.8
-15.35
-21.72
-27.89
-33.88
-39.74
-45.77
-52.25
-59.2
-66.07
-71.64
-74.31
-72.7
-66.31
-55.8
-42.92
-29.82
-18.32
-9.37
-2.95
1.54
4.68
6.76
7.63
7.03
4.97
1.92
-1.31
-3.86
-5.2
-5.37
-4.85
-4.35
-4.46
-5.47
-7.25
-9.49
-11.76
-13.8
-15.57
-17.21
-18.96
-21.07
-23.77
-27.23
-31.6
-36.84
-42.61
-48.03
-51.8
-52.49
-49.02
-41.17
-29.72
-16.28
-2.78
9.12
18.38
24.73
28.44
30.08
30.26
29.43
27.87
25.7
22.94
19.7
16.25
13.07
10.71
9.53
9.58
10.48
11.6
12.3
12.2
11.31
9.97
8.68
7.84
7.6
7.74
7.72
6.77
4.14
-0.68
-7.66
-16.03
-24.3
-30.59
-33.1
-30.77
-23.7
-13.14
-1.11
10.24
19.33
25.46
28.81
30.08
30
29.1
27.61
25.63
23.27
20.81
18.56
16.79
15.57
14.75
14.08
13.31
12.35
11.28
10.25
9.33
8.44
7.32
5.64
3.1
-0.37
-4.65
-9.42
-14.33
-19.13
-23.84
-28.68
-33.98
-39.9
-46.17
-51.96
-56.01
-56.96
-53.91
-46.76
-36.33
-24.17
-12.01
-1.31
7.12
13.17
17.17
19.68
21.18
21.99
22.37
22.54
22.77
23.3
24.29
25.76
27.55
29.46
31.3
32.96
34.34
35.27
35.45
34.52
32.19
28.43
23.5
17.94
12.33
7.13
2.56
-1.48
-5.28
-9.28
-13.86
-19.2
-25.1
-30.94
-35.67
-38.14
-37.43
-33.2
-25.84
-16.32
-5.88
4.36
13.66
21.68
28.34
33.64
37.5
39.77
40.38
39.42
37.31
34.63
32.03
29.92
28.41
27.28
26.16
24.75
22.96
20.95
18.95
17.1
15.33
13.39
11.02
8.1
4.71
1.07
-2.58
-6.1
-9.47
-12.81
-16.29
-20.13
-24.52
-29.45
-34.61
-39.23
-42.27
-42.65
-39.7
-33.46
-24.68
-14.64
-4.71
3.99
10.78
15.38
17.78
18.16
16.8
14.12
10.67
7.08
3.99
1.91
1.12
1.56
2.94
4.75
6.52
7.92
8.77
9.01
8.59
7.42
5.39
2.46
-1.22
-5.3
-9.32
-12.87
-15.75
-18.01
-19.94
-21.98
-24.51
-27.75
-31.53
-35.19
-37.72
-37.93
-34.92
-28.45
-19.04
-7.87
3.61
14.05
22.55
28.74
32.68
34.65
35.02
34.15
32.36
29.93
27.17
24.33
21.67
19.42
17.77
16.8
16.51
16.72
17.11
17.31
16.98
15.9
14.06
11.61
8.81
5.84
2.78
-0.44
-3.92
-7.73
-11.87
-16.4
-21.37
-26.81
-32.44
-37.57
-41.08
-41.77
-38.79
-32.1
-22.54
-11.64
-1.03
7.98
14.73
19.17
21.68
22.79
22.97
22.56
21.73
20.58
19.11
17.4
15.59
13.89
12.56
11.79
11.65
12.07
12.89
13.84
14.65
15.03
14.71
13.54
11.55
8.95
6.05
3.17
0.49
-2.04
-4.66
-7.72
-11.49
-15.85
-20.18
-23.36
-24.05
-21.16
-14.38
-4.36
7.37
18.85
28.25
34.37
36.82
36.01
32.85
28.52
24.14
20.52
18.06
16.67
16.02
15.77
15.81
16.37
17.73
20
22.81
25.36
26.66
25.95
22.97
18.02
11.69
4.67
-2.52
-9.58
-16.41
-23.04
-29.58
-36.19
-42.89
-49.52
-55.52
-59.98
-61.76
-59.76
-53.31
-42.33
-27.42
-9.87
8.66
26.32
41.36
52.42
58.71
60.14
57.3
51.34
43.68
35.67
28.27
21.95
16.66
12.11
7.92
3.88
-0.06
-3.78
-7.17
-10.24
-13.11
-16.01
-19.16
-22.69
-26.6
-30.77
-35.06
-39.32
-43.47
-47.58
-51.76
-56.15
-60.75
-65.29
-69.14
-71.38
-71.02
-67.35
-60.25
-50.36
-38.94
-27.48
-17.29
-9.14
-3.2
0.82
3.36
4.79
5.32
5.05
4.11
2.76
1.38
0.4
0.12
0.61
1.66
2.9
3.89
4.35
4.18
3.5
2.5
1.33
-0.01
-1.64
-3.73
-6.42
-9.82
-14
-19.03
-24.86
-31.12
-37.02
-41.4
-43.01
-40.99
-35.25
-26.62
-16.52
-6.53
2.14
8.94
13.89
17.34
19.68
21.08
21.58
21.22
20.22
18.95
17.94
17.66
18.38
20.05
22.35
24.72
26.58
27.47
27.2
25.9
23.9
21.63
19.38
17.23
15.06
12.58
9.45
5.35
0.07
-6.36
-13.54
-20.59
-26.28
-29.29
-28.69
-24.32
-16.91
-7.89
1.09
8.71
14.23
17.57
19.05
19.19
18.43
17.07
15.29
13.27
11.19
9.23
7.53
6.21
5.26
4.71
4.54
4.7
5.12
5.61
5.99
6.03
5.59
4.59
3.02
0.86
-1.97
-5.61
-10.22
-15.87
-22.51
-29.88
-37.39
-44.21
-49.23
-51.34
-49.74
-44.25
-35.48
-24.74
-13.67
-3.77
4
9.33
12.53
14.2
14.96
15.3
15.49
15.62
15.65
15.53
15.2
14.69
14.1
13.58
13.27
13.22
13.32
13.3
12.85
11.68
9.74
7.1
4.01
0.72
-2.6
-5.92
-9.35
-13.02
-17.14
-21.84
-27.23
-33.18
-39.22
-44.46
-47.7
-47.78
-44.01
-36.53
-26.33
-14.97
-4.11
5.07
11.98
16.74
19.78
21.65
22.77
23.38
23.62
23.65
23.62
23.7
23.99
24.43
24.84
25.01
24.82
24.3
23.62
22.96
22.41
21.81
20.81
19.01
16.12
12.13
7.33
2.2
-2.7
-7
-10.61
-13.73
-16.86
-20.57
-25.31
-31.17
-37.66
-43.76
-48.07
-49.27
-46.59
-40.06
-30.59
-19.7
-8.93
0.52
8.1
13.8
17.95
20.93
23
24.27
24.86
24.94
24.79
24.73
25.08
25.97
27.3
28.84
30.24
31.26
31.82
32.03
32.05
31.94
31.58
30.7
28.97
26.25
22.67
18.65
14.74
11.43
8.95
7.21
5.85
4.37
2.3
-0.65
-4.49
-8.86
-13.08
-16.11
-16.79
-14.12
-7.51
2.87
16.09
30.66
44.92
57.43
67.34
74.31
78.39
79.77
78.61
75.07
69.49
62.51
54.98
47.8
41.55
36.3
31.71
27.28
22.66
17.87
13.27
9.31
6.32
4.35
3.16
2.27
1.09
-0.98
-4.41
-9.41
-15.96
-23.81
-32.59
-41.99
-51.85
-62.07
-72.4
-82.31
-90.93
-97.12
-99.88
-98.58
-93.18
-84.3
-73.04
-60.7
-48.55
-37.59
-28.47
-21.54
-16.88
-14.35
-13.66
-14.32
-15.71
-17.11
-17.83
-17.25
-14.95
-10.81
-5.07
1.69
8.6
14.75
19.4
22.12
22.89
21.99
19.89
17.12
14.12
11.23
8.58
6.15
3.68
0.79
-3.09
-8.49
-15.75
-24.73
-34.61
-43.93
-50.88
-53.85
-52.05
-45.85
-36.7
-26.67
-17.69
-10.96
-6.76
-4.54
-3.45
-2.72
-1.91
-0.92
0.14
1.18
2.19
3.25
4.48
5.87
7.38
8.88
10.31
11.65
12.88
13.91
14.55
14.5
13.47
11.37
8.3
4.6
0.68
-3.1
-6.6
-9.94
-13.47
-17.53
-22.3
-27.57
-32.63
-36.4
-37.71
-35.75
-30.32
-22.07
-12.25
-2.37
6.22
12.74
16.99
19.31
20.34
20.7
20.84
20.92
20.86
20.49
19.69
18.52
17.23
16.13
15.49
15.37
15.6
15.83
15.75
15.13
13.9
12.09
9.75
6.93
3.7
0.2
-3.36
-6.85
-10.25
-13.82
-17.95
-22.95
-28.69
-34.43
-38.93
-40.81
-39.04
-33.41
-24.64
-14.12
-3.47
5.97
13.41
18.67
21.99
23.79
24.53
24.55
24.15
23.52
22.82
22.1
21.32
20.45
19.5
18.56
17.84
17.52
17.7
18.27
18.92
19.16
18.52
16.68
13.56
9.42
4.7
-0.09
-4.57
-8.65
-12.52
-16.58
-21.21
-26.6
-32.5
-38.21
-42.66
-44.71
-43.47
-38.66
-30.73
-20.74
-10.02
0.13
8.8
15.54
20.31
23.31
24.82
25.13
24.52
23.36
22.05
20.95
20.33
20.22
20.51
20.94
21.31
21.49
21.51
21.41
21.14
20.55
19.34
17.21
14.01
9.82
4.99
0.02
-4.59
-8.5
-11.74
-14.66
-17.94
-22.34
-28.3
-35.65
-43.42
-50.01
-53.58
-52.77
-47.2
-37.62
-25.67
-13.28
-2.03
7.12
13.96
18.68
21.68
23.35
24.06
24.16
24
23.84
23.76
23.74
23.64
23.37
22.91
22.36
21.84
21.47
21.31
21.28
21.2
20.76
19.59
17.41
14.13
9.93
5.19
0.31
-4.35
-8.69
-12.83
-17.09
-21.86
-27.4
-33.71
-40.28
-46.12
-49.89
-50.32
-46.63
-38.9
-28.14
-16
-4.24
5.76
13.35
18.55
21.78
23.55
24.27
24.17
23.41
22.26
21.07
20.19
