-10.8
-13.36
-15.91
-18.91
-22.64
-27.07
-31.81
-36.18
-39.4
-40.79
-39.94
-36.82
-31.77
-25.44
-18.65
-12.17
-6.62
-2.28
0.89
3.12
4.72
5.88
6.65
6.95
6.7
5.92
4.71
3.34
2.03
1.01
0.42
0.28
0.46
0.7
0.59
-0.3
-2.27
-5.35
-9.19
-13.25
-17.01
-20.25
-23.12
-26.14
-29.82
-34.43
-39.8
-45.41
-50.56
-54.62
-57.14
-58.02
-57.53
-56.44
-55.88
-57
-60.3
-65.07
-69.14
-69.34
-62.63
-47.29
-23.77
5.42
36.44
65.45
89.47
106.85
117.05
120.27
117.22
109.11
97.84
85.83
75.62
69.09
66.87
68.06
70.59
72.11
70.79
65.99
58.37
49.42
40.88
34.1
29.72
27.66
27.27
27.6
27.72
26.9
24.75
21.31
16.95
12.32
8.11
4.87
2.91
2.24
2.72
4.07
5.98
8.07
9.9
10.93
10.71
9.04
6.11
2.47
-1.19
-4.3
-6.61
-8.15
-9.09
-9.52
-9.38
-8.53
-6.95
-4.87
-2.68
-0.83
0.39
0.92
0.91
0.59
0.15
-0.29
-0.69
-1.11
-1.78
-3.21
-6.06
-11
-18.4
-28
-38.85
-49.47
-58.32
-64.16
-66.46
-65.41
-61.74
-56.43
-50.42
-44.39
-38.78
-33.91
-30.03
-27.32
-25.76
-25.02
-24.42
-23.14
-20.56
-16.55
-11.59
-6.47
-2.04
1.22
3.31
4.57
5.47
6.3
7.14
7.88
8.38
8.49
8.1
7.11
5.4
2.87
-0.43
-4.3
-8.31
-11.84
-14.22
-14.82
-13.28
-9.56
-4.01
2.7
9.81
16.57
22.49
27.29
30.91
33.32
34.48
34.42
33.28
31.47
29.55
28.15
27.69
28.21
29.41
30.73
31.68
31.97
31.63
30.87
29.93
28.92
27.74
26.18
24
21.11
17.57
13.53
9.13
4.51
-0.21
-4.85
-9.18
-12.95
-15.93
-18.07
-19.36
-19.79
-19.28
-17.65
-14.86
-11.15
-7.19
-3.88
-2.09
-2.32
-4.48
-7.99
-11.99
-15.65
-18.43
-20.19
-21.05
-21.28
-21.18
-20.97
-20.85
-21.01
-21.61
-22.76
-24.42
-26.29
-27.9
-28.75
-28.51
-27.25
-25.52
-24.18
-24.06
-25.53
-28.19
-30.89
-32.07
-30.25
-24.65
-15.36
-3.45
9.4
21.2
30.04
34.48
33.83
28.48
19.86
10.09
1.39
-4.65
-7.53
-7.8
-6.54
-4.74
-2.83
-0.69
2.02
5.39
9.04
12.23
14.26
14.8
14.02
12.51
10.94
9.81
9.23
8.97
8.57
7.59
5.82
3.42
0.85
-1.23
-2.26
-1.96
-0.44
1.84
4.3
6.47
8.1
9.19
9.81
9.87
9.03
6.82
2.84
-2.89
-9.85
-17.12
-23.63
-28.54
-31.48
-32.61
-32.44
-31.54
-30.35
-29.06
-27.64
-26.01
-24.15
-22.22
-20.44
-19.13
-18.51
-18.75
-19.89
-21.9
-24.69
-28.03
-31.51
-34.51
-36.27
-36.08
-33.49
-28.48
-21.5
-13.31
-4.78
3.39
10.85
17.59
23.79
29.6
34.95
39.4
42.32
43.16
41.73
38.42
34.21
30.33
27.88
27.41
28.72
30.99
33.11
34.12
33.49
31.23
27.7
23.38
18.64
13.62
8.35
2.82
-2.88
-8.5
-13.74
-18.29
-21.95
-24.57
-26.01
-26.11
-24.66
-21.51
-16.65
-10.32
-3.03
4.49
11.41
16.99
20.69
22.32
22.1
20.54
18.33
16.17
14.61
13.95
14.19
15.12
16.33
17.32
17.64
16.98
15.21
12.37
8.51
3.6
-2.57
-10.23
-19.5
-30.13
-41.37
-52.11
-61.1
-67.32
-70.27
-69.98
-67
-62.09
-56.01
-49.38
-42.69
-36.38
-30.89
-26.72
-24.3
-23.83
-25.16
-27.8
-30.98
-33.91
-36.01
-37.04
-37.14
-36.64
-35.84
-34.84
-33.4
-31.06
-27.35
-22.03
-15.33
-8.02
-1.18
4.1
7.08
7.54
5.74
2.22
-2.37
-7.31
-11.83
-15.02
-15.95
-13.97
-8.97
-1.65
6.63
14.2
19.67
22.26
22.02
19.71
16.35
12.87
9.73
6.83
3.63
-0.4
-5.41
-10.87
-15.77
-18.88
-19.36
-17.06
-12.57
-7.03
-1.87
1.39
1.22
-3.69
-13.85
-28.39
-44.93
-60.1
-70.81
-75.4
-74.22
-69.22
-62.63
-55.84
-48.81
-40.53
-29.96
-16.9
-2.27
12.42
25.78
37.23
47.02
55.86
64.28
72.21
78.93
83.42
84.91
83.42
79.91
75.9
72.89
71.68
72.07
73.07
73.45
72.29
69.25
64.41
57.99
50.06
40.59
29.78
18.36
7.72
-0.39
-4.55
-4.39
-0.85
4.08
8.19
10
9.25
6.94
4.64
3.72
4.82
7.73
11.77
16.38
21.36
26.89
33.12
39.79
46.13
51.06
53.72
53.99
52.75
51.7
52.75
57.33
65.82
77.41
90.36
102.52
111.78
116.35
114.86
106.42
90.9
69.2
43.35
16.19
-9.36
-31.28
-49
-63.29
-75.54
-86.82
-97.25
-106.05
-112.11
-114.69
-113.8
-110.1
-104.48
-97.6
-89.76
-80.99
-71.44
-61.54
-52
-43.64
-37.02
-32.22
-28.86
-26.27
-23.77
-20.94
-17.68
-14.18
-10.74
-7.58
-4.7
-1.91
1.05
4.36
7.97
11.6
14.88
17.47
19.21
20.27
21
21.88
23.29
25.51
28.65
32.64
37.28
42.12
46.55
49.82
51.22
50.32
47.11
42.03
35.81
29.23
22.87
17
11.66
6.83
2.55
-1.03
-3.75
-5.59
-6.8
-7.76
-8.85
-10.23
-11.75
-13.04
-13.74
-13.71
-13.14
-12.53
-12.46
-13.37
-15.35
-18.16
-21.3
-24.26
-26.71
-28.56
-29.96
-31.09
-32.15
-33.25
-34.36
-35.38
-36.08
-36.12
-35.07
-32.6
-28.58
-23.17
-16.8
-10.02
-3.42
2.57
7.58
11.34
13.67
14.53
14.09
12.73
10.97
9.28
7.96
7.04
6.41
5.89
5.32
4.67
4.02
3.49
3.19
3.18
3.4
3.65
3.67
3.25
2.28
0.85
-0.89
-2.75
-4.63
-6.56
-8.61
-10.89
-13.45
-16.21
-18.91
-21.07
-22.18
-21.69
-19.34
-15.19
-9.76
-3.84
1.68
6.07
8.91
10.14
9.95
8.69
6.7
4.32
1.87
-0.38
-2.19
-3.42
-4.01
-4.06
-3.74
-3.29
-2.88
-2.59
-2.38
-2.15
-1.86
-1.62
-1.63
-2.16
-3.41
-5.41
-8.01
-10.93
-13.95
-16.95
-19.96
-23.07
-26.25
-29.23
-31.45
-32.23
-30.99
-27.49
-22
-15.24
-8.12
-1.51
4.03
8.36
11.62
14.08
15.93
17.21
17.82
17.66
16.75
15.26
13.52
11.88
10.63
9.88
9.61
9.66
9.8
9.83
9.56
8.88
7.74
6.19
4.33
2.29
0.2
-1.89
-4.06
-6.48
-9.36
-12.85
-16.9
-21.18
-25.02
-27.62
-28.21
-26.35
-22.11
-16.09
-9.22
-2.46
3.44
8.13
11.61
14.06
15.7
16.64
16.92
16.57
15.69
14.5
13.22
12.08
11.2
10.6
10.24
10.03
9.88
9.67
9.24
8.47
7.28
5.72
3.93
2.11
0.35
-1.33
-3.11
-5.22
-7.86
-11.18
-15.15
-19.51
-23.78
-27.29
-29.3
-29.18
-26.67
-21.97
-15.68
-8.66
-1.72
4.57
9.91
14.24
17.58
19.94
21.31
21.69
21.14
19.82
18.01
16.01
14.13
12.59
11.53
10.96
10.79
10.86
10.94
10.8
10.28
9.29
7.83
5.92
3.61
0.92
-2.17
-5.61
-9.36
-13.37
-17.61
-22.03
-26.48
-30.62
-33.84
-35.39
-34.65
-31.33
-25.72
-18.6
-10.97
-3.78
2.36
7.25
10.96
13.7
15.59
16.64
16.84
16.27
15.13
13.8
12.74
12.27
12.53
13.32
14.26
14.91
14.97
14.42
13.51
12.63
12.12
12.02
12.08
11.83
10.78
8.7
5.68
2.08
-1.58
-4.76
-7.01
-7.99
-7.44
-5.2
-1.26
4.25
11.15
19.17
28.03
37.35
46.61
55.06
61.85
66.29
68.14
67.79
66.21
64.82
65.2
68.82
76.54
88.21
102.14
115.13
123.11
122.45
111.39
90.89
64.46
36.81
12.11
-7.34
-21.45
-31.53
-39.19
-45.41
-50.49
-54.53
-57.89
-61.38
-65.81
-71.41
-77.5
-82.66
-85.36
-84.73
-80.94
-75.14
-68.82
-63.23
-58.9
-55.5
-52.26
-48.32
-43.22
-37
-30.16
-23.39
-17.44
-12.84
-9.95
-8.84
-9.34
-10.97
-13.05
-14.79
-15.53
-15
-13.32
-10.98
-8.61
-6.75
-5.79
-5.97
-7.38
-10.03
-13.69
-17.79
-21.4
-23.43
-22.96
-19.59
-13.73
-6.44
0.85
6.89
10.95
12.94
13.22
12.35
10.78
8.78
6.52
4.09
1.63
-0.75
-2.97
-5.09
-7.19
-9.35
-11.58
-13.83
-15.96
-17.85
-19.42
-20.63
-21.58
-22.49
-23.76
-25.84
-29.09
-33.63
-39.2
-45.18
-50.71
-54.86
-56.83
-56.13
-52.67
-46.75
-38.98
-30.13
-20.95
-12.05
-3.81
3.52
9.75
14.64
17.99
19.73
20.11
19.75
19.42
19.75
20.98
22.82
24.59
25.55
25.27
23.79
21.55
19.11
16.8
14.59
12.28
9.61
6.51
3.03
-0.78
-4.96
-9.64
-14.81
-20.16
-25.04
-28.59
-30.21
-29.78
-27.77
-24.9
-21.76
-18.48
-14.76
-10.15
-4.48
1.93
8.27
13.56
17.06
18.57
18.48
17.57
16.63
16.21
16.49
17.31
18.36
19.43
20.43
21.4
22.35
23.12
23.43
22.88
21.18
18.22
14.13
9.14
3.53
-2.5
-8.72
-14.79
-20.1
-23.84
-25.16
-23.56
-19.1
-12.44
-4.68
3.06
9.9
15.48
19.86
23.37
26.34
28.97
31.2
32.86
33.72
33.68
32.84
31.51
30.17
29.27
29.11
29.75
31.02
32.57
34
34.95
35.1
34.16
31.87
27.97
22.27
14.74
5.48
-5.18
-16.81
-28.84
-40.59
-51.26
-59.97
-65.83
-68.12
-66.52
-61.28
-53.24
-43.63
-33.8
-24.87
-17.51
-11.89
-7.81
-4.95
-2.99
-1.69
-0.88
-0.38
-0.06
0.2
0.41
0.53
0.53
0.44
0.43
0.68
1.28
2.14
2.96
3.41
3.21
2.28
0.7
-1.36
-3.71
-6.16
-8.53
-10.7
-12.67
-14.59
-16.78
-19.58
-23.17
-27.31
-31.31
-34.14
-34.77
-32.51
-27.24
-19.46
-10.1
-0.2
9.4
18.21
26.11
33.19
39.54
45.17
50.01
54.04
57.39
60.37
63.3
66.35
69.41
72.08
73.87
74.3
73.2
70.72
67.3
63.52
59.83
56.42
53.13
49.6
45.44
40.41
34.5
27.87
20.71
13.08
4.89
-3.97
-13.47
-23.31
-33
-41.95
-49.67
-55.78
-60.03
-62.18
-62.06
-59.58
-54.91
-48.57
-41.31
-33.92
-26.94
-20.59
-14.83
-9.6
-5.04
-1.53
0.4
0.41
-1.39
-4.31
-7.16
-8.6
-7.63
-3.96
1.82
8.43
14.35
18.37
19.96
19.34
17.26
14.51
11.71
9.11
6.75
4.68
2.96
1.72
0.93
0.34
-0.56
-2.32
-5.37
-9.79
-15.22
-20.88
-25.73
-28.77
-29.23
-26.8
-21.73
-14.71
-6.69
1.34
8.58
14.55
19.09
22.21
24.09
24.88
24.75
23.88
22.46
20.72
18.91
17.26
15.9
14.89
14.15
13.58
13.09
12.67
12.36
12.21
12.2
12.17
11.85
11
9.42
7.1
4.19
0.93
-2.42
-5.75
-9.09
-12.63
-16.57
-21.01
-25.7
-30.08
-33.34
-34.67
-33.58
-30.1
-24.8
-18.6
-12.49
-7.2
-3.1
-0.22
1.63
2.66
3.01
2.74
1.86
0.48
-1.22
-2.9
-4.24
-4.96
-4.92
-4.11
-2.61
-0.55
1.89
4.49
7.01
9.22
10.92
12.03
12.56
12.55
12
10.82
8.82
5.81
1.74
-3.23
-8.64
-13.77
-17.77
-19.86
-19.51
-16.57
-11.33
-4.52
2.91
9.91
15.64
19.59
21.69
22.22
21.63
20.36
18.68
16.72
14.49
12.02
9.43
6.87
4.49
2.33
0.36
-1.54
-3.55
-5.84
-8.54
-11.6
-14.72
-17.36
-18.91
-18.93
-17.39
-14.75
-11.85
-9.57
-8.54
-8.92
-10.36
-12.21
-13.66
-14.04
-12.91
-10.12
-5.85
-0.53
5.2
10.61
15.01
17.9
19.08
18.61
16.81
14.06
10.76
7.21
3.63
0.17
-3.04
-5.94
-8.44
-10.53
-12.19
-13.4
-14.04
-13.9
-12.74
-10.36
-6.79
-2.36
2.28
6.37
9.21
10.36
9.76
7.64
4.33
0.15
-4.58
-9.47
-13.94
-17.2
-18.42
-16.98
-12.75
-6.22
1.62
9.54
16.42
21.52
24.63
25.98
26.11
25.58
24.8
24.01
23.24
22.49
21.8
21.26
21
21.08
21.39
21.7
21.71
21.17
19.93
17.96
15.22
11.62
7.04
1.4
-5.11
-11.93
-18.15
-22.76
-25.1
-25.11
-23.44
-21.11
-19.03
-17.56
-16.43
-14.99
-12.69
-9.4
-5.58
-1.9
1.03
3.1
4.67
6.29
8.37
10.89
13.39
15.22
15.87
15.25
13.69
11.8
10.18
9.17
8.8
8.84
9.01
9.11
9.06
8.84
8.45
7.82
6.82
5.34
3.28
0.59
-2.69
-6.49
-10.67
-15.12
-19.79
-24.65
-29.58
-34.24
-38.03
-40.09
-39.68
-36.42
-30.6
-23.17
-15.34
-8.28
-2.66
1.37
4.09
5.85
6.92
7.38
7.18
6.29
4.86
3.15
1.62
0.74
0.95
2.48
5.29
9
12.95
16.43
18.82
19.84
19.49
18.04
15.77
12.86
9.36
5.22
0.41
-5
-10.82
-16.66
-21.97
-26.08
-28.29
-28.05
-25.19
-19.98
-13.15
-5.65
1.56
7.79
12.68
16.23
18.56
19.87
20.24
19.71
18.31
16.12
13.4
10.53
8.01
6.26
5.52
5.74
6.58
7.53
8.09
7.95
6.99
5.34
3.21
0.77
-1.86
-4.69
-7.77
-11.13
-14.81
-18.79
-22.99
-27.2
-30.99
-33.75
-34.76
-33.45
-29.62
-23.57
-16.02
-7.96
-0.33
6.17
11.2
14.73
16.89
17.89
17.95
17.26
16.02
14.46
12.78
11.18
9.81
8.75
7.98
7.46
7.06
6.66
6.13
5.34
4.23
2.75
0.93
-1.13
-3.36
-5.65
-8.03
-10.56
-13.42
-16.81
-20.79
-25.22
-29.66
-33.38
-35.61
-35.64
-33.16
-28.32
-21.71
-14.22
-6.75
-0.12
5.15
8.82
10.92
11.71
11.58
10.92
10.06
9.25
8.6
8.13
7.82
7.62
7.53
7.68
8.34
9.9
12.7
16.74
21.58
26.34
29.94
31.48
30.51
27.17
22.09
16.11
10.11
4.84
0.79
-1.84
-3.25
-3.92
-4.47
-5.28
-6.35
-7.23
-7.3
-6.2
-4.04
-1.38
1.11
3.05
4.58
6.21
8.42
11.27
14.26
16.54
17.41
16.74
15.18
13.85
13.9
15.9
19.57
23.78
27.09
28.32
27.12
24.14
20.76
18.53
18.74
22.09
28.68
37.89
48.16
57.04
61.56
59.33
49.69
34.47
17.55
3.44
-4.6
-5.85
-2.07
3.78
9.16
13.1
16.17
19.56
23.96
28.94
33.06
34.63
32.43
26.34
17.29
6.85
-3.44
-12.71
-20.97
-29
-37.64
-47.14
-56.85
-65.32
-71.04
-73.13
-71.66
-67.4
-61.08
-52.82
-42.04
-28.16
-11.45
6.38
22.51
34.14
39.69
39.56
35.7
30.43
25.19
19.99
13.86
5.99
-3.42
-13.04
-21.12
-26.5
-29.28
-30.55
-31.55
-32.8
-33.76
-33.3
-30.57
-25.75
-20.1
-15.36
-12.86
-12.92
-14.89
-17.62
-20.12
-21.92
-22.94
-23.18
-22.4
-20.11
-15.78
-9.26
-0.96
8.3
17.53
25.86
32.69
37.61
40.36
40.76
38.79
34.73
29.21
23.13
17.47
13
9.95
7.9
5.78
2.15
-4.33
-14.45
-28.15
-44.33
-61.16
-76.4
-88.01
-94.62
-95.72
-91.73
-83.72
-73.07
-61.12
-48.96
-37.33
-26.67
-17.22
-9.12
-2.49
2.63
6.29
8.72
10.23
11.2
11.95
12.65
13.32
13.88
14.24
14.44
14.62
15.07
16.07
17.82
20.48
24.19
29.07
35
41.46
47.39
51.4
52.33
49.84
44.69
38.63
33.67
31.34
32.17
35.71
40.93
46.72
52.17
56.59
59.39
59.98
57.95
53.29
46.49
38.52
30.48
23.27
17.25
12.19
7.39
1.93
-4.97
-13.73
-24.15
-35.48
-46.57
-56.18
-63.32
-67.48
-68.73
-67.65
-65.05
-61.78
-58.53
-55.7
-53.43
-51.66
-50.23
-48.94
-47.71
-46.63
-45.94
-46.1
-47.46
-50.14
-53.8
-57.59
-60.33
-60.84
-58.37
-52.88
-45.03
-35.94
-26.74
-18.24
-10.72
-4.05
2
7.46
12.01
15.13
16.36
15.67
13.62
11.38
10.5
12.48
18.36
28.17
40.72
53.67
64.01
68.85
66.47
57.07
42.86
27.48
14.81
7.67
7.05
12.09
20.71
30.52
39.63
47.02
52.47
56.23
58.76
60.59
62.27
64.47
67.88
73.08
80.21
88.96
98.51
107.79
115.74
121.53
124.56
124.31
120.26
112.02
99.73
84.41
67.89
52.35
39.6
30.58
25.32
23.39
24.34
27.89
33.72
41.02
48.41
54.16
56.89
56.05
52
45.64
37.84
29.17
20.05
11.21
3.92
-0.27
-0.16
4.28
11.53
18.84
23.11
22.14
15.37
4.05
-9.42
-22.57
-33.75
-42.51
-49.35
-55.01
-59.83
-63.44
-64.94
-63.33
-58.03
-49.13
-37.37
-23.91
-10.07
2.82
13.36
20
21.16
15.7
3.46
-14.23
-34.78
-55.04
-72.43
-85.81
-95.71
-103.67
-111.05
-118.08
-123.51
-125.14
-120.89
-109.75
-92.21
-70.04
-45.74
-22.01
-1.32
14.17
22.89
24.03
17.88
5.99
-9.15
-24.57
-37.65
-46.59
-50.81
-50.94
-48.7
-46.53
-47.04
-52.29
-63.02
-78.08
-94.34
-107.43
-112.94
-108.11
-93.22
-72.09
-51.25
-38.02
-38.05
-53.45
-82.02
-118.02
-153.97
-182.62
-198.72
-199.97
-187.07
-163.41
-134.06
-104.56
-79.4
-60.87
-48.44
-39.11
-28.53
-12.7
10.61
41.09
75.99
111.19
142.49
166.95
183.5
193.05
197.79
200.39
202.75
205.13
205.74
201.19
187.8
163.01
126.56
80.77
29.86
-21.17
-67.71
-106.44
-135.5
-154.46
-164.05
-165.78
-161.58
-153.34
-142.44
-129.58
-114.92
-98.58
-80.93
-62.66
-44.59
-27.47
-11.99
1.23
11.57
18.79
23.23
25.98
28.48
31.94
36.7
42.13
46.95
49.84
50.12
47.85
43.73
38.63
33.25
28.04
23.32
19.33
16.26
14.08
12.42
10.64
8.13
4.53
-0.07
-5.29
-10.69
-15.99
-21.07
-25.95
-30.59
-34.89
-38.69
-41.78
-43.9
-44.63
-43.43
-39.71
-33.09
-23.49
-11.27
2.93
18.27
33.74
48.26
60.71
70.11
75.95
78.3
77.74
75.04
70.73
64.87
57.2
47.42
35.72
22.88
9.99
-1.98
-12.45
-21.3
-28.63
-34.65
-39.77
-44.63
-50.04
-56.63
-64.44
-72.89
-81.1
-88.54
-95.5
-103.09
-112.62
-124.63
-138.23
-151.02
-159.76
-161.53
-154.76
-139.71
-118.36
-93.76
-69.12
-47.02
-28.84
-14.88
-4.74
2.09
5.88
6.7
4.76
0.79
-3.94
-7.84
-9.56
-8.46
-4.77
0.55
6.32
11.63
16.08
19.8
23.01
25.78
27.81
28.64
27.98
26.08
23.72
21.95
21.6
22.86
25.15
27.39
28.35
27.17
23.64
18.18
11.78
5.79
1.61
0.5
3.2
9.82
19.68
31.56
43.99
55.68
65.74
73.83
79.96
84.33
87.14
88.64
89.17
89.17
89.18
89.62
90.6
91.9
93.04
93.52
93.03
91.49
88.96
85.47
80.86
74.76
66.78
56.69
44.56
30.82
16.11
1.05
-13.94
-28.69
-43.24
-57.66
-71.94
-85.81
-98.58
-109.16
-116.2
-118.36
-114.78
-105.39
-91.06
-73.48
-54.74
-36.85
-21.29
-8.83
0.48
7.06
11.55
14.58
16.69
18.32
19.85
21.67
24.16
27.66
32.33
38.04
44.28
50.27
55.19
58.44
59.82
59.61
58.33
56.44
54.02
50.58
45.17
36.64
24.02
6.87
-14.48
-38.77
-63.92
-87.16
-105.56
-116.59
-118.83
-112.33
-98.54
-79.92
-59.14
-38.45
-19.3
-2.39
12.1
24.14
33.7
40.76
45.47
48.23
49.73
50.87
52.5
55.23
59.21
64.17
69.52
74.65
79.12
82.81
85.77
88.1
89.74
90.49
90.02
88.01
84.14
78.08
69.41
57.83
43.41
26.97
10.19
-4.76
-15.77
-21.59
-22.24
-18.93
-13.48
-7.63
-2.48
1.71
5.26
8.72
12.57
17.06
22.2
27.9
33.97
40.16
46.07
51.23
55.12
57.35
57.7
56.24
53.22
49.04
44.19
39.12
34.2
29.56
25.04
20.09
13.86
5.42
-6
-20.68
-38.29
-57.73
-77.29
-94.73
-107.68
-114.07
-112.69
-103.63
-88.39
-69.58
-50.22
-32.95
-19.4
-9.99
-4.15
-0.71
1.54
3.6
6.09
9.25
12.97
16.92
20.61
23.49
25.13
25.3
24.13
22.18
20.33
19.59
20.63
23.51
27.47
31.22
33.26
32.4
27.99
19.93
8.48
-5.88
-22.34
-39.58
-55.59
-67.93
-74.36
-73.66
-66.17
-53.77
-39.23
-25.24
-13.57
-4.77
1.58
6.28
9.89
12.51
13.87
13.67
11.85
8.75
4.96
1.12
-2.25
-4.81
-6.47
-7.28
-7.36
-6.8
-5.71
-4.17
-2.34
-0.52
0.91
1.52
0.98
-0.92
-4.26
-9.08
-15.5
-23.62
-33.3
-43.86
-53.93
-61.59
-64.83
-62.22
-53.5
-39.79
-23.45
-7.48
5.32
13.11
15.48
13.4
8.75
3.58
-0.57
-3.03
-3.93
-3.89
-3.58
-3.4
-3.45
-3.67
-3.91
-4
-3.77
-3.03
-1.71
0.08
1.94
3.29
3.6
2.6
0.34
-2.84
-6.57
-10.71
-15.41
-20.98
-27.52
-34.59
-41.12
-45.62
-46.65
-43.4
-35.99
-25.46
-13.38
-1.39
9.3
18.06
24.75
29.47
32.37
33.53
33.11
31.44
29.04
26.6
24.71
23.68
23.49
23.84
24.34
24.68
24.73
24.5
24.01
23.29
22.26
20.83
18.95
16.63
13.91
10.8
7.27
3.23
-1.36
-6.4
-11.55
-16.13
-19.26
-20.03
-17.82
-12.48
-4.46
5.24
15.4
24.86
32.78
38.78
42.85
45.18
45.96
45.28
43.08
39.29
34.05
27.75
21.09
14.89
9.81
6.12
3.62
1.75
-0.16
-2.61
-5.81
-9.61
-13.75
-17.97
-22.14
-26.28
-30.51
-34.89
-39.53
-44.46
-49.66
-54.92
-59.72
-63.18
-64.3
-62.2
-56.5
-47.53
-36.22
-23.88
-11.8
-1.01
7.88
14.6
19.11
21.59
22.35
21.82
20.58
19.22
18.26
18.02
18.52
19.49
20.46
20.96
20.68
19.58
17.89
15.97
14.14
12.54
11
9.15
6.5
2.6
-2.75
-9.34
-16.46
-22.97
-27.58
-29.23
-27.43
-22.44
-15.15
-6.74
1.64
9.25
15.73
21.01
25.1
27.96
29.47
29.56
28.35
26.15
23.46
20.85
18.81
17.58
17.11
17.09
17.04
16.59
15.51
13.92
12.09
10.34
8.78
7.22
5.26
2.4
-1.67
-6.96
-13.14
-19.49
-25.02
-28.61
-29.27
-26.45
-20.25
-11.5
-1.53
8.27
16.8
23.53
28.46
31.89
34.18
35.57
36.17
35.94
34.9
33.12
30.78
28.2
25.71
23.59
21.92
20.62
19.44
18.1
16.43
14.39
12.05
9.48
6.67
3.57
0.03
-4.07
-8.86
-14.38
-20.58
-27.2
-33.77
-39.61
-43.9
-45.92
-45.18
-41.6
-35.56
-27.77
-19.15
-10.62
-2.91
3.52
8.5
12.05
14.34
15.6
16.15
16.32
16.45
16.79
17.43
18.28
19.17
19.99
20.73
21.53
22.53
23.76
25.05
25.97
26.01
24.7
21.87
17.65
12.51
7.11
2
-2.47
-6.36
-10.07
-14.15
-19.04
-24.85
-31.24
-37.44
-42.42
-45.19
-45.07
-41.82
-35.73
-27.59
-18.44
-9.37
-1.26
5.42
10.7
14.96
18.71
22.25
25.51
28.1
29.53
29.61
28.58
27.14
26.05
25.8
26.29
26.91
26.9
25.74
23.44
20.43
17.33
14.62
12.44
10.63
8.85
6.85
4.5
1.89
-0.79
-3.39
-5.8
-8.06
-10.3
-12.77
-15.78
-19.63
-24.47
-30.18
-36.24
-41.73
-45.5
-46.46
-43.92
-37.92
-29.25
-19.34
-9.73
-1.66
4.28
8.17
10.57
12.17
13.42
14.41
14.95
14.79
13.88
12.51
11.19
10.5
10.8
12.08
13.99
16.09
18.01
19.61
20.97
22.25
23.51
24.61
25.25
25.07
23.8
21.36
17.89
13.75
9.45
5.48
2.18
-0.38
-2.4
-4.31
-6.57
-9.54
-13.38
-17.87
-22.52
-26.56
-29.13
-29.43
-27.03
-21.94
-14.72
-6.35
2.04
9.45
15.24
19.22
21.52
22.48
22.42
21.66
20.47
19.14
17.94
17.1
16.69
16.64
16.76
16.82
16.71
16.43
16.11
15.9
15.84
15.82
15.57
14.77
13.15
10.59
7.19
3.23
-0.93
-4.91
-8.41
-11.33
-13.71
-15.75
-17.78
-20.18
-23.33
-27.46
-32.5
-37.98
-43.03
-46.59
-47.63
-45.55
-40.34
-32.58
-23.27
-13.52
-4.23
4
10.87
16.27
20.18
22.58
23.51
23.15
21.84
20.04
18.28
16.98
16.42
16.65
17.56
18.91
20.44
21.92
23.2
24.14
24.6
24.46
23.55
21.8
19.25
16.1
12.68
9.36
6.37
3.69
1.11
-1.77
-5.29
-9.66
-14.75
-20.2
-25.39
-29.63
-32.26
-32.85
-31.28
-27.78
-22.93
-17.51
-12.26
-7.79
-4.36
-1.97
-0.45
0.42
0.73
0.46
-0.51
-2.25
-4.65
-7.39
-9.95
-11.78
-12.49
-11.96
-10.41
-8.29
-6.09
-4.22
-2.87
-2.05
-1.67
-1.64
-1.99
-2.79
-4.17
-6.19
-8.81
-11.93
-15.29
-18.41
-20.44
-20.14
-16.11
-7.33
6.2
23.11
41
57.38
70.6
80.33
87.21
92.1
95.46
97.38
98.13
98.69
100.64
105.21
112.29
119.86
124.6
123.33
114.29
97.81
75.68
50.12
22.88
-4.89
-32.17
-57.54
-79.18
-95.53
-106.07
-111.81
-114.88
-117.45
-120.51
-123.34
-124.07
-120.98
-113.83
-104.18
-94.75
-87.99
-84.81
-84.19
-83.94
-81.89
-76.93
-69.36
-60.41
-51.45
-43.35
-36.39
-30.47
-25.48
-21.46
-18.53
-16.74
-15.89
-15.58
-15.28
-14.56
-13.24
-11.47
-9.65
-8.25
-7.58
-7.67
-8.31
-9.2
-10.2
-11.48
-13.45
-16.64
-21.43
-27.85
-35.39
-43.08
-49.56
-53.49
-53.83
-50.18
-42.97
-33.28
-22.55
-12.15
-3.05
4.33
10.04
14.38
17.64
20.02
21.57
22.28
22.15
21.31
20.02
18.59
17.28
16.21
15.27
14.28
13.07
11.66
10.22
9
8.11
7.43
6.55
4.95
2.26
-1.6
-6.3
-11.33
-16.14
-20.35
-23.79
-26.32
-27.72
-27.52
-25.09
-19.89
-11.76
-1.23
10.47
21.58
30.3
35.28
36.07
33.17
27.96
22.24
17.94
16.74
19.73
26.96
37.07
47.3
54.16
54.66
47.69
34.78
19.75
7.26
0.93
2.03
9.29
19.79
30.4
38.89
44.29
46.53
45.84
42.27
35.74
26.28
14.33
0.87
-12.74
-25.08
-35.11
-42.34
-46.84
-49.04
-49.33
-47.91
-44.71
-39.63
-32.77
-24.66
-16.27
-8.71
-2.87
0.9
2.93
4.03
5.21
7.32
10.8
15.65
21.48
27.64
33.37
37.96
40.92
42.09
41.66
40.01
37.47
34.1
29.78
24.47
18.58
13.16
9.62
9.25
12.57
19.02
27.2
35.39
42.2
46.84
49.15
49.32
47.56
44.07
39.01
32.65
25.31
17.26
8.59
-0.87
-11.39
-23.17
-36.06
-49.4
-61.94
-72.01
-77.85
-78.13
-72.41
-61.34
-46.54
-30.1
-14.05
-0.03
10.81
17.65
20.01
17.79
11.64
3.05
-5.95
-13.35
-17.72
-18.5
-15.84
-10.24
-2.31
7.18
17.17
26.31
33.19
36.88
37.18
34.74
30.69
26.2
22.15
19
16.91
15.89
15.81
16.35
16.99
17.12
16.21
14
10.56
6.22
1.45
-3.27
-7.52
-11.02
-13.77
-16.19
-19.24
-24.2
-32.25
-43.78
-58
-72.9
-85.85
-94.62
-98.14
-96.81
-92.01
-85.28
-77.61
-69.22
-59.81
-49.2
-37.63
-25.86
-14.88
-5.54
1.75
7
10.56
12.94
14.65
16.07
17.49
19.04
20.75
22.53
24.21
25.48
26
25.39
23.35
19.78
14.79
8.75
2.14
-4.45
-10.59
-16.09
-21.1
-26.02
-31.18
-36.61
-41.72
-45.45
-46.51
-43.9
-37.4
-27.65
-15.95
-3.86
7.32
16.85
24.56
30.68
35.55
39.53
42.85
45.7
48.17
50.28
52.01
53.26
54.01
54.3
54.28
54.14
53.96
53.67
53.07
51.91
49.98
47.22
43.63
39.23
34.13
28.52
22.83
17.64
13.55
10.84
9.22
7.77
5.18
0.31
-7.3
-17.08
-27.55
-36.77
-43.03
-45.24
-43.23
-37.52
-29.11
-19.16
-8.83
0.71
8.44
13.62
15.98
15.82
14.02
11.72
9.94
9.27
9.72
10.8
11.8
12.1
11.4
9.81
7.78
5.88
4.56
3.95
3.84
3.79
3.39
2.46
1.11
-0.36
-1.62
-2.56
-3.31
-4.16
-5.46
-7.43
-10.21
-13.9
-18.41
-23.44
-28.19
-31.52
-32.16
-29.25
-22.78
-13.69
-3.56
6.03
13.99
19.97
24.16
26.91
28.41
28.67
27.67
25.51
22.54
19.14
15.64
12.18
8.73
5.26
1.85
-1.26
-3.77
-5.45
-6.24
-6.32
-6.06
-5.9
-6.26
-7.32
-9.08
-11.32
-13.76
-16.17
-18.46
-20.73
-23.22
-26.22
-29.91
-34.27
-38.97
-43.32
-46.44
-47.43
-45.67
-41.02
-33.92
-25.2
-15.89
-6.88
1.24
8.27
14.23
19.28
23.56
27.11
29.94
32.07
33.62
34.83
35.97
37.36
39.22
41.73
45.01
49.13
54.16
59.98
66.27
72.39
77.46
80.49
80.7
77.74
71.88
63.9
54.81
45.55
36.72
28.49
20.7
13.11
5.61
-1.62
-8.11
-13.26
-16.52
-17.61
-16.73
-14.48
-11.75
-9.41
-8.07
-7.89
-8.6
-9.73
-10.78
-11.52
-11.98
-12.46
-13.33
-14.85
-17.08
-19.79
-22.59
-25.02
-26.75
-27.68
-27.91
-27.74
-27.46
-27.32
-27.46
-27.95
-28.84
-30.13
-31.78
-33.61
-35.41
-36.93
-38.09
-38.96
-39.78
-40.69
-41.52
-41.69
-40.29
-36.37
-29.37
-19.4
-7.24
5.94
18.97
31.04
41.84
51.44
60.07
67.96
75.22
81.86
87.82
92.96
97.12
100.09
101.71
101.95
100.89
98.64
95.21
90.54
84.57
77.43
69.52
61.39
53.5
45.87
38.1
29.54
19.7
8.52
-3.5
-15.68
-27.41
-38.39
-48.52
-57.57
-65.01
-70.02
-71.8
-70.03
-65.17
-58.39
-51.13
-44.59
-39.39
-35.49
-32.55
-30.24
-28.5
-27.51
-27.54
-28.72
-30.95
-33.92
-37.22
-40.47
-43.45
-46.02
-48.23
-50.23
-52.3
-54.7
-57.64
-61.11
-64.93
-68.78
-72.36
-75.47
-78.12
-80.43
-82.59
-84.75
-86.94
-89.06
-90.85
-91.82
-91.28
-88.41
-82.39
-72.76
-59.68
-44.02
-27.26
-11.05
3.22
14.73
23.27
29.02
32.22
32.94
31.11
26.68
19.84
11.13
1.32
-8.79
-18.55
-27.55
-35.59
-42.64
-48.73
-53.99
-58.69
-63.16
-67.73
-72.52
-77.3
-81.52
-84.5
-85.72
-84.98
-82.41
-78.3
-72.87
-66.13
-57.99
-48.32
-37.12
-24.54
-10.75
4
19.47
35.27
50.78
65.18
77.63
87.55
94.77
99.55
102.38
103.74
103.92
103.06
101.26
98.75
95.92
93.17
90.68
88.28
85.43
81.45
75.77
68.19
58.9
48.4
37.27
26
14.89
4.13
-6.19
-16
-25.23
-33.96
-42.41
-50.91
-59.64
-68.43
-76.54
-82.72
-85.58
-84.12
-78.13
-68.38
-56.39
-43.93
-32.51
-23.04
-15.76
-10.44
-6.6
-3.73
-1.45
0.48
2.12
3.45
4.44
5.09
5.58
6.19
7.22
8.87
11.11
13.66
16.12
18.06
19.15
19.18
18.1
15.94
12.84
8.99
4.66
0.13
-4.42
-8.98
-13.77
-19.1
-25.12
-31.59
-37.64
-42.02
-43.37
-40.76
-34.08
-24.15
-12.5
-0.84
9.47
17.71
23.82
28.18
31.3
33.59
35.25
36.36
36.91
36.89
36.36
35.44
34.3
33.13
32.1
31.28
30.64
30.05
29.33
28.31
26.85
24.85
22.22
18.93
15.07
10.81
6.43
2.18
-1.87
-5.89
-10.29
-15.45
-21.53
-28.12
-34.24
-38.5
-39.58
-36.66
-29.78
-19.86
-8.41
2.99
13.06
21.11
27.03
31.1
33.74
35.3
35.98
35.93
35.24
34.08
32.65
31.13
29.65
28.29
27.12
26.23
25.75
25.74
26.08
26.48
26.42
25.41
23.16
19.65
15.23
10.41
5.69
1.4
-2.43
-6.04
-9.9
-14.49
-20.13
-26.7
-33.55
-39.54
-43.3
-43.66
-40.01
-32.55
-22.23
-10.49
1.19
11.6
20.06
26.38
30.68
33.3
34.56
34.73
34.07
32.82
31.21
29.46
27.72
26.11
24.64
23.32
22.14
21.13
20.28
19.57
18.87
17.96
16.57
14.43
11.42
7.63
3.31
-1.17
-5.48
-9.42
-13.03
-16.6
-20.52
-25.11
-30.41
-35.96
-40.87
-43.9
-43.91
-40.19
-32.81
-22.62
-11.06
0.3
10.12
17.67
22.81
25.87
27.37
27.82
27.56
26.77
25.53
23.93
22.09
20.19
18.45
17.06
16.11
15.57
15.27
15.02
14.62
13.95
12.91
11.4
9.31
6.56
3.17
-0.7
-4.82
-8.99
-13.22
-17.67
-22.56
-27.87
-33.13
-37.38
-39.4
-38.2
-33.36
-25.34
-15.28
-4.75
4.86
12.6
18.16
21.77
23.92
25.03
25.32
24.82
23.52
21.51
19.05
16.56
14.46
12.99
12.14
11.7
11.36
10.82
9.91
8.59
6.91
4.97
2.83
0.53
-1.91
-4.57
-7.58
-11.16
-15.55
-20.86
-26.88
-32.99
-38.22
-41.43
-41.68
-38.51
-32.13
-23.34
-13.34
-3.4
5.41
12.46
17.56
20.89
22.83
23.77
23.93
23.38
22.08
20.04
17.48
14.8
12.44
10.72
9.68
9.07
8.53
7.75
6.6
5.17
3.61
1.98
0.2
-1.9
-4.52
-7.74
-11.64
-16.25
-21.59
-27.54
-33.66
-39.07
-42.63
-43.23
-40.23
-33.72
-24.56
-14.11
-3.78
5.3
12.48
17.59
20.83
22.59
23.31
23.39
23.11
22.62
21.97
21.13
20.09
18.89
17.64
16.43
15.34
14.32
13.25
11.98
10.38
8.42
6.15
3.69
1.12
-1.57
-4.51
-7.98
-12.25
-17.46
-23.5
-29.91
-35.88
-40.4
-42.46
-41.36
-36.88
-29.41
-19.82
-9.33
0.81
9.62
16.47
21.2
24.01
25.31
25.57
25.21
24.49
23.49
22.16
20.4
18.19
15.62
13.01
10.77
9.32
8.86
9.26
10.08
10.65
10.33
8.75
5.97
2.46
-1.06
-3.93
-5.86
-7.08
-8.37
-10.68
-14.74
-20.55
-27.14
-32.67
-34.92
-31.93
-22.74
-7.79
11.07
30.97
48.79
61.96
69.26
71.13
69.6
67.64
68.22
73.3
83.13
96.12
109.38
119.76
124.82
123.45
115.95
103.52
87.62
69.53
50.23
30.59
11.6
-5.65
-20.2
-31.64
-40.29
-47.13
-53.39
-60.11
-67.8
-76.39
-85.37
-94.02
-101.45
-106.81
-109.41
-108.75
-104.72
-97.51
-87.61
-75.53
-61.83
-47.09
-32.12
-17.96
-5.77
3.55
9.64
12.87
14.12
14.4
14.47
14.72
15.24
16.07
17.38
19.4
22.26
25.79
29.42
32.31
33.62
32.79
29.75
24.92
19.13
13.42
8.77
5.91
5.07
5.91
7.55
8.95
9.18
7.72
4.59
0.16
-5.1
-10.79
-16.64
-22.35
-27.45
-31.35
-33.44
-33.31
-30.94
-26.6
-20.67
-13.48
-5.29
3.59
12.69
21.31
28.66
34.05
37.16
38.1
37.33
35.54
33.41
31.51
30.16
29.38
28.83
27.93
25.96
22.28
16.56
8.88
-0.19
-9.67
-18.36
-25.21
-29.57
-31.48
-31.67
-31.35
-31.82
-34.03
-38.3
-44.13
-50.29
-55.05
-56.62
-53.6
-45.59
-33.45
-19.36
-6.29
2.93
6.55
4.4
-2.08
-10.56
-18.67
-24.72
-28.06
-28.92
-28.07
-26.36
-24.47
-22.77
-21.31
-19.91
-18.25
-16
-12.95
-9.19
-5.1
-1.33
1.4
2.5
1.69
-0.99
-5.16
-10.24
-15.64
-20.92
-25.96
-30.95
-36.35
-42.52
-49.47
-56.56
-62.55
-65.91
-65.35
-60.31
-51.26
-39.54
-26.97
-15.17
-5.28
2.31
7.72
11.4
13.75
15.15
15.87
16.22
16.53
17.1
18.06
19.3
20.54
21.45
21.9
22.01
22.1
22.49
23.25
24.11
24.57
24.1
22.36
19.36
15.4
10.93
6.36
1.89
-2.57
-7.35
-12.96
-19.86
-28.21
-37.61
-47.04
-55
-59.91
-60.64
-56.85
-49.16
-38.77
-27.16
-15.58
-4.88
4.49
12.31
18.48
22.94
25.71
26.98
27.09
26.39
25.27
24.02
22.87
22.03
21.64
21.73
22.29
23.17
24.24
25.33
26.22
26.6
26.1
24.4
21.34
17.1
12.14
7.01
2.16
-2.3
-6.6
-11.23
-16.68
-23.22
-30.65
-38.2
-44.65
-48.52
-48.57
-44.18
-35.64
-24.07
-11.15
1.42
12.29
20.72
26.54
30
31.57
31.78
31.14
30.03
28.78
27.53
26.31
25.06
23.69
22.2
20.62
19.13
17.87
16.95
16.33
15.82
15.12
13.93
12.04
9.36
5.89
1.74
-2.93
-7.92
-13.02
-18.1
-23.17
-28.44
-34.06
-39.92
-45.37
-49.24
-50.19
-47.23
-40.19
-29.93
-18.07
-6.37
3.81
11.84
17.81
22.13
25.2
27.15
27.93
27.49
25.97
23.74
21.34
19.22
17.69
16.8
16.46
16.48
16.65
16.74
16.54
15.82
14.42
12.28
9.47
6.16
2.52
-1.31
-5.28
-9.5
-14.19
-19.59
-25.83
-32.68
-39.44
-44.93
-47.83
-47.04
-42.11
-33.43
-22.13
-9.77
2.18
12.61
20.91
26.93
30.86
33.1
34.12
34.39
34.29
34.03
33.66
33.13
32.44
31.69
31.08
30.83
30.98
31.38
31.65
31.44
30.5
28.85
26.71
24.34
21.81
18.94
15.36
10.63
4.48
-3.15
-12.12
-22.1
-32.59
-42.82
-51.76
-58.24
-61.27
-60.39
-55.97
-49.09
-41.28
-34
-28.18
-24.03
-21.13
-18.71
-16.13
-13.07
-9.67
-6.37
-3.62
-1.62
-0.26
0.81
1.96
3.41
5.14
6.94
8.54
9.73
10.37
10.37
9.71
8.41
6.54
4.22
1.61
-1.23
-4.37
-8.02
-12.45
-17.88
-24.2
-30.84
-36.72
-40.44
-40.69
-36.74
-28.71
-17.63
-5.11
7.16
17.88
26.37
32.58
36.8
39.49
41.03
41.74
41.83
41.48
40.85
40.01
39.04
37.91
36.61
35.19
33.75
32.49
31.58
31.07
30.79
30.3
29.02
26.48
22.54
17.51
12.05
6.88
2.49
-1.13
-4.47
-8.28
-13.24
-19.62
-27.06
-34.54
-40.59
-43.67
-42.66
-37.16
-27.73
-15.6
-2.33
10.7
22.63
33.08
42.03
49.52
55.47
59.74
62.24
63.15
62.95
62.37
62.2
63.14
65.66
69.92
75.64
82.02
87.7
90.99
90.34
84.91
75.04
62.21
48.55
36.14
26.24
19.12
14.26
11.02
9.02
8.23
8.58
9.48
9.66
7.57
2.08
-6.79
-17.7
-28.47
-36.95
-41.88
-43.24
-42.09
-39.92
-37.96
-36.75
-36.18
-35.76
-35.04
-33.82
-32.24
-30.57
-28.99
-27.46
-25.66
-23.23
-19.98
-16.11
-12.21
-9.1
-7.47
-7.53
-9.01
-11.22
-13.45
-15.22
-16.39
-17.13
-17.74
-18.43
-19.29
-20.3
-21.44
-22.77
-24.41
-26.5
-29.09
-32.12
-35.4
-38.63
-41.51
-43.64
-44.54
-43.69
-40.54
-34.71
-26.19
-15.53
-3.78
7.67
17.54
25.09
30.39
34.29
37.94
42.22
47.25
52.25
55.91
57.08
55.33
51.18
45.72
40.06
34.74
29.6
24.09
17.81
10.86
3.87
-2.45
-7.75
-12.27
-16.67
-21.56
-27.03
-32.57
-37.4
-40.95
-43.32
-45.29
-47.99
-52.32
-58.58
-66.27
-74.17
-80.62
-83.92
-82.62
-75.96
-64.12
-48.29
-30.45
-12.88
2.43
14.3
22.51
27.54
30.14
30.96
30.31
28.3
25.16
21.43
17.95
15.62
14.99
15.96
17.77
19.35
19.75
18.65
16.4
13.78
11.56
10.07
9.07
7.9
5.88
2.67
-1.55
-6.19
-10.46
-13.73
-15.67
-16.32
-16.06
-15.48
-15.19
-15.71
-17.18
-19.24
-20.98
-21.08
-18.23
-11.59
-1.18
12.11
26.74
41.06
53.75
64.04
71.71
76.84
79.64
80.28
78.95
75.82
71.16
65.36
58.91
52.42
46.53
41.7
38.12
35.59
33.55
31.36
28.4
24.31
18.95
12.39
4.84
-3.33
-11.58
-19.24
-25.72
-30.61
-33.94
-35.99
-37.3
-38.44
-40.07
-42.9
-47.57
-54.4
-62.97
-71.85
-78.81
-81.4
-77.84
-67.76
-52.46
-34.53
-16.99
-2.38
7.85
13.43
15.02
13.6
10.09
5.09
-1.07
-8.1
-15.67
-23.22
-30.14
-35.87
-40.12
-42.86
-44.34
-44.93
-44.94
-44.66
-44.24
-43.78
-43.33
-42.96
-42.73
-42.72
-43.06
-43.83
-45.11
-46.89
-49.15
-51.93
-55.32
-59.42
-64.1
-68.75
-72.25
-73.08
-69.9
-62.03
-49.87
-34.86
-19.02
-4.33
7.76
16.65
22.43
25.61
26.76
26.29
24.53
21.73
18.27
14.6
11.19
8.43
6.55
5.58
5.35
5.59
6.04
6.37
6.33
5.75
4.56
2.82
0.7
-1.53
-3.7
-5.76
-7.85
-10.33
-13.64
-18.2
-24.16
-31.13
-38.16
-43.78
-46.46
-45.03
-39.14
-29.42
-17.3
-4.54
7.24
16.92
24.06
28.7
31.15
31.79
30.88
28.69
25.49
21.71
17.89
14.62
12.36
11.25
11.09
11.28
11.14
10.05
7.76
4.42
0.49
-3.44
-6.98
-10.05
-12.9
-15.98
-19.76
-24.53
-30.34
-36.87
-43.37
-48.73
-51.59
-50.74
-45.49
-36.04
-23.5
-9.61
3.81
15.35
24.32
30.68
34.73
36.82
37.09
35.63
32.65
28.64
24.43
20.91
18.74
18.06
18.48
19.24
19.56
18.97
17.47
15.44
13.31
11.36
9.5
7.33
4.34
0.07
-5.69
-12.92
-21.34
-30.34
-38.94
-45.81
-49.49
-48.79
-43.26
-33.46
-20.9
-7.57
4.67
14.65
22.05
27.26
30.97
33.72
35.72
36.79
36.73
35.46
33.27
30.76
28.59
27.18
26.51
26.13
25.37
23.72
21.05
17.7
14.27
11.29
9.04
7.38
5.98
4.46
2.66
0.71
-0.92
-1.49
-0.03
4.5
12.95
25.64
42.01
60.49
78.64
93.75
103.53
106.8
103.87
96.3
86.47
76.75
68.94
63.85
61.35
60.65
60.63
60.28
58.86
56.04
51.83
46.52
40.61
34.67
29.24
24.62
20.8
17.39
13.77
9.34
3.81
-2.73
-9.83
-16.95
-23.74
-30.16
-36.53
-43.34
-51.09
-60.03
-70.01
-80.31
-89.68
-96.47
-99.02
-96.18
-87.75
-74.63
-58.66
-42.03
-26.73
-14.08
-4.54
2.09
6.41
9.11
10.78
11.82
12.49
12.96
13.3
13.6
13.92
14.33
14.88
15.59
16.4
17.23
17.92
18.29
18.15
17.27
15.52
12.84
9.32
5.22
0.9
-3.33
-7.33
-11.22
-15.29
-19.94
-25.44
-31.74
-38.3
-44.05
-47.66
-47.87
-43.9
-35.78
-24.43
-11.37
1.72
13.46
23.08
30.44
35.81
39.62
42.26
43.93
44.75
44.86
44.45
43.77
42.99
42.24
41.52
40.82
40.2
39.76
39.62
39.75
39.88
39.52
38.12
35.29
30.96
25.43
19.27
13.1
7.36
2.23
-2.47
-7.18
-12.48
-18.92
-26.71
-35.57
-44.54
-52.17
-56.79
-57.12
-52.72
-44.21
-33.12
-21.38
-10.69
-2.04
4.4
9.07
12.61
15.51
17.96
19.93
21.35
22.29
22.96
23.59
24.3
25.04
25.61
25.84
25.61
24.97
24.04
23.04
22.08
21.18
20.24
19.04
17.28
14.68
11.1
6.58
1.46
-3.81
-8.78
-13.13
-16.88
-20.3
-23.87
-28.1
-33.36
-39.66
-46.55
-53.07
-57.92
-59.77
-57.65
-51.32
-41.44
-29.41
-16.9
-5.43
4.07
11.38
16.82
20.99
24.46
27.61
30.53
33.15
35.24
36.56
37.04
36.72
35.92
34.98
34.25
33.8
33.5
33.05
32.22
30.95
29.32
27.46
25.28
22.52
18.81
13.86
7.67
0.52
-7.09
-14.61
-21.6
-27.77
-33.08
-37.67
-41.93
-46.37
-51.53
-57.77
-65.06
-72.84
-80.01
-85.2
-87.15
-85.13
-79.18
-70.1
-59.13
-47.42
-35.58
-23.53
-10.6
4.01
20.67
38.86
57.09
73.07
84.39
89.31
87.55
80.58
71.34
63.26
59.15
60.25
66.02
74.5
83.21
89.96
93.37
92.98
89.04
82.22
73.31
63.02
51.83
40.01
27.73
15.21
2.78
-9.11
-20.08
-29.94
-38.73
-46.56
-53.52
-59.47
-64.18
-67.45
-69.25
-69.67
-68.79
-66.43
-62.12
-55.32
-45.74
-33.73
-20.31
-7
4.75
14.09
21.06
26.55
31.74
37.49
43.91
50.36
55.84
59.5
61.05
60.73
59.06
56.64
54.04
51.93
51.11
52.37
56.13
62.07
68.94
74.91
78.22
77.78
73.59
66.51
57.86
48.82
40.05
31.73
23.71
15.84
8.13
0.69
-6.51
-13.8
-21.78
-31.19
-42.5
-55.58
-69.41
-82.2
-91.63
-95.46
-92.23
-81.76
-65.35
-45.54
-25.42
-7.79
5.36
13.2
15.79
13.78
8.06
-0.33
-10.27
-20.52
-29.98
-37.93
-44.2
-49.11
-53.24
-56.98
-60.32
-62.91
-64.22
-63.91
-61.99
-58.84
-55
-50.97
-47.06
-43.41
-40.18
-37.58
-35.95
-35.59
-36.64
-38.95
-42.08
-45.45
-48.52
-51.02
-53.01
-54.89
-57.29
-60.93
-66.36
-73.64
-82.1
-90.21
-95.82
-96.77
-91.65
-80.4
-64.44
-46.33
-28.86
-14.23
-3.53
3.24
6.76
7.92
7.4
5.66
3.11
0.26
-2.26
-3.84
-4.17
-3.32
-1.76
-0.14
1.02
1.48
1.32
0.85
0.45
0.44
1.04
2.35
4.36
6.86
9.49
11.73
13.05
13.11
11.98
10
7.73
5.62
3.81
2.01
-0.43
-4.25
-9.92
-17.25
-25.14
-31.71
-34.7
-32.26
-23.62
-9.47
8.15
26.58
43.4
57.07
67.12
73.88
77.9
79.62
79.28
77.15
73.72
69.7
65.76
62.22
58.81
54.85
49.67
43.01
35.27
27.37
20.29
14.56
10.01
5.86
1.06
-5.19
-13.1
-22.23
-31.73
-40.7
-48.58
-55.31
-61.33
-67.36
-74.06
-81.71
-89.93
-97.6
-103.08
-104.6
-100.87
-91.53
-77.35
-60.02
-41.7
-24.4
-9.55
2.2
10.86
16.83
20.67
22.94
24.08
24.36
23.95
22.87
21.17
18.94
16.45
14.03
11.98
10.37
9.05
7.61
5.6
2.69
-1.15
-5.69
-10.54
-15.42
-20.27
-25.32
-30.98
-37.66
-45.6
-54.65
-64.2
-73.15
-79.95
-82.9
-80.54
-72.18
-58.15
-39.95
-19.85
-0.26
16.84
30.41
40.3
46.98
51.2
53.63
54.73
54.77
53.93
52.3
50.02
47.28
44.3
41.35
38.66
36.33
34.27
32.22
29.84
26.86
23.2
18.9
14.14
9
3.45
-2.67
-9.62
-17.62
-26.83
-37.21
-48.38
-59.48
-69.14
-75.63
-77.31
-73.12
-63.04
-48.2
-30.6
-12.55
3.9
17.42
27.51
34.42
38.84
41.61
43.44
44.81
45.9
46.7
47.13
47.07
46.53
45.58
44.34
42.92
41.35
39.58
37.47
34.85
31.58
27.59
22.95
17.83
12.4
6.8
1.01
-5.13
-11.97
-19.86
-28.98
-39.05
-49.15
-57.75
-63.02
-63.41
-58.23
-47.96
-34.16
-19.02
-4.64
7.46
16.55
22.67
26.26
27.92
28.2
27.54
26.26
24.55
22.44
19.88
16.83
13.35
9.72
6.43
3.97
2.67
2.48
3
3.6
3.67
2.8
0.91
-1.78
-4.94
-8.28
-11.62
-14.99
-18.61
-22.85
-28.12
-34.53
-41.68
-48.38
-52.85
-53.22
-48.14
-37.47
-22.33
-4.82
12.72
28.41
41.26
51.11
58.35
63.49
67.02
69.3
70.62
71.25
71.41
71.19
70.57
69.5
67.95
66.04
64.06
62.35
61.27
60.99
61.46
62.31
62.92
62.56
60.6
56.71
51.04
44.16
36.9
30.03
23.99
18.62
13.24
6.86
-1.45
-12.05
-24.36
-36.83
-47.16
-53.05
-52.94
-46.61
-35.28
-21.24
-7.01
5.34
14.69
20.83
24.18
25.36
25
23.62
21.73
19.76
18.02
16.55
15.17
13.54
11.38
8.66
5.64
2.78
0.58
-0.68
-0.99
-0.75
-0.59
-1.29
-3.44
-7.25
-12.5
-18.5
-24.42
-29.56
-33.6
-36.68
-39.35
-42.35
-46.33
-51.6
-57.83
-63.97
-68.41
-69.37
-65.47
-56.33
-42.72
-26.39
-9.53
5.88
18.61
28.24
35.07
39.74
42.93
45.19
46.85
48.06
48.89
49.32
49.38
49.11
48.56
47.77
46.73
45.43
43.92
42.34
40.9
39.76
38.93
38.2
37.17
35.37
32.46
28.33
23.09
17.07
10.67
4.32
-1.64
-6.97
-11.67
-15.96
-20.34
-25.4
-31.66
-39.29
-47.76
-55.88
-62.01
-64.52
-62.4
-55.59
-45.02
-32.25
-18.95
-6.44
4.54
13.74
21.21
27.06
31.32
34.12
35.65
36.22
36.18
35.77
35.09
34.16
32.97
31.59
30.22
29.09
28.33
27.88
27.56
27.09
26.24
24.83
22.79
20
16.36
11.78
6.3
0.15
-6.27
-12.48
-18.1
-22.99
-27.25
-31.17
-35.15
-39.63
-44.99
-51.42
-58.67
-65.92
-71.77
-74.55
-72.85
-66.08
-54.75
-40.31
-24.72
-9.82
3.12
13.54
21.46
27.25
31.37
34.26
36.28
37.66
38.52
38.92
38.92
38.63
38.16
37.62
36.97
36.1
34.88
33.28
31.48
29.78
28.47
27.65
27.09
26.32
24.76
21.95
17.69
12.09
5.49
-1.63
-8.75
-15.44
-21.4
-26.5
-30.83
-34.69
-38.55
-42.83
-47.71
-52.85
-57.29
-59.7
-58.74
-53.68
-44.73
-33.06
-20.47
-8.8
0.66
7.34
11.3
13
12.97
11.71
9.77
7.76
6.31
5.89
6.66
8.39
10.59
12.74
14.55
16.05
17.44
18.94
20.52
21.93
22.76
22.65
21.4
19.06
15.85
12.12
8.15
4.2
0.37
-3.36
-7.12
-11.16
-15.8
-21.37
-27.99
-35.43
-42.91
-49.13
-52.58
-51.98
-46.79
-37.48
-25.44
-12.55
-0.58
9.24
16.42
21.02
23.44
24.06
23.25
21.25
18.34
14.81
10.99
7.19
3.72
0.79
-1.45
-2.9
-3.56
-3.51
-3
-2.34
-1.97
-2.29
-3.59
-5.96
-9.29
-13.36
-17.9
-22.73
-27.82
-33.31
-39.46
-46.52
-54.54
-63.17
-71.44
-77.94
-81.12
-79.85
-73.82
-63.86
-51.55
-38.81
-27.27
-17.82
-10.63
-5.3
-1.27
1.92
4.47
6.42
7.71
8.31
8.34
8.02
7.61
7.36
7.38
7.63
7.99
8.29
8.41
8.28
7.85
7.04
5.74
3.8
1.2
-2.01
-5.68
-9.69
-14.04
-18.9
-24.48
-30.8
-37.38
-43.21
-46.88
-47.03
-42.84
-34.44
-22.89
-9.87
2.88
13.98
22.72
29.01
33.13
35.55
36.66
36.76
36.07
34.77
33.01
30.95
28.76
26.62
24.7
23.12
21.89
20.92
20.01
18.91
17.4
15.34
12.71
9.61
6.18
2.48
-1.45
-5.71
-10.49
-15.99
-22.4
-29.67
-37.36
-44.55
-49.86
-51.83
-49.39
-42.34
-31.48
-18.44
-5.15
6.73
16.19
22.97
27.34
29.84
31
31.25
30.89
30.12
29.08
27.85
26.47
24.97
23.43
22.03
20.93
20.25
19.93
19.72
19.21
17.97
15.68
12.3
8.01
3.19
-1.78
-6.65
-11.36
-16.08
-21.15
-26.91
-33.49
-40.58
-47.3
-52.3
-54.13
-51.7
-44.71
-33.87
-20.65
-6.87
5.81
16.24
23.97
29.12
32.16
33.72
34.31
34.32
33.91
33.09
31.83
30.12
28.1
26.03
24.21
22.91
22.17
21.86
21.64
21.1
19.89
17.81
14.86
11.22
7.15
2.85
-1.54
-6.07
-10.93
-16.41
-22.76
-29.98
-37.56
-44.5
-49.4
-50.89
-48.12
-41.08
-30.62
-18.22
-5.48
6.26
16.15
23.83
29.33
32.92
35.01
36.1
36.61
36.84
36.83
36.42
35.37
33.5
30.84
27.7
24.5
21.64
19.37
17.66
16.22
14.68
12.71
10.1
6.8
2.93
-1.35
-5.9
-10.59
-15.36
-20.24
-25.33
-30.83
-36.9
-43.43
-49.9
-55.24
-58.14
-57.36
-52.31
-43.29
-31.46
-18.5
-6.04
4.79
13.54
20.34
25.56
29.6
32.64
34.78
36.07
36.65
36.69
36.33
35.63
34.56
33.1
31.33
29.48
27.87
26.73
26.1
25.69
25.02
23.58
21.04
17.34
12.79
7.79
2.78
-2.01
-6.55
-11
-15.62
-20.66
-26.37
-32.79
-39.62
-46.13
-51.16
-53.39
-51.81
-46.12
-36.92
-25.57
-13.7
-2.71
6.58
14
19.8
24.31
27.77
30.27
31.83
32.52
32.52
32.08
31.45
30.82
30.25
29.68
28.99
28.05
26.8
25.34
23.83
22.46
21.29
20.12
18.63
16.39
13.15
8.94
4.03
-1.12
-6.08
-10.62
-14.71
-18.55
-22.46
-26.81
-31.88
-37.72
-43.94
-49.69
-53.73
-54.77
-51.91
-45.06
-35.04
-23.3
-11.48
-0.82
8.08
15.18
20.77
25.12
28.3
30.29
31.08
30.92
30.36
30.05
30.57
32.14
34.51
37.12
39.24
40.37
40.41
39.83
39.42
40.02
42.14
45.76
50.31
54.78
58.01
58.91
56.75
51.44
43.65
34.79
26.63
20.7
17.77
17.48
18.53
19.32
18.67
16.41
13.42
11.22
11.23
14.22
20.05
27.74
35.96
43.37
49.02
52.44
53.63
52.86
50.56
47.17
43.06
38.44
33.46
28.23
22.88
17.61
12.54
7.71
3.01
-1.68
-6.35
-10.76
-14.48
-17.07
-18.46
-19.04
-19.59
-20.96
-23.7
-27.84
-32.91
-38.16
-42.89
-46.64
-49.32
-51.05
-52.13
-52.95
-53.94
-55.48
-57.83
-60.87
-63.99
-66.09
-65.79
-61.92
-53.88
-41.94
-27.21
-11.36
3.89
17.18
27.72
35.34
40.34
43.24
44.61
44.9
44.51
43.64
42.44
40.98
39.3
37.44
35.38
33.11
30.63
28
25.31
22.73
20.3
17.86
14.95
10.86
4.83
-3.57
-14.15
-26.04
-37.86
-48.16
-55.92
-60.82
-63.28
-64.2
-64.54
-65.04
-66.13
-68.02
-70.85
-74.68
-79.33
-84.17
-88.02
-89.4
-86.95
-80.03
-69.02
-55.27
-40.61
-26.77
-14.85
-5.25
2.18
7.73
11.56
13.63
13.76
11.91
8.25
3.31
-2.14
-7.2
-11.08
-13.24
-13.58
-12.42
-10.42
-8.33
-6.75
-5.99
-5.99
-6.45
-7.05
-7.6
-8.16
-9.03
-10.57
-13.02
-16.34
-20.17
-23.91
-27.03
-29.26
-30.78
-32.14
-34.08
-37.25
-42
-48.16
-55.08
-61.56
-66.09
-67.18
-63.78
-55.62
-43.47
-28.97
-14.17
-0.99
9.29
16.25
20.2
21.92
22.3
22.08
21.8
21.74
21.96
22.34
22.68
22.81
22.63
22.23
21.72
21.2
20.75
20.35
19.98
19.69
19.55
19.59
19.76
19.86
19.67
19.02
17.92
16.63
15.6
15.33
16.17
18.16
20.82
23.15
23.79
21.41
15.09
4.87
-8.09
-21.66
-33.23
-40.44
-41.83
-37.21
-27.58
-14.75
-0.77
12.51
23.77
32.25
37.74
40.48
41.02
40.16
38.63
36.94
35.25
33.43
31.35
29.15
27.3
26.47
27.18
29.52
33.12
37.31
41.43
45.02
47.73
49.29
49.32
47.49
43.71
38.39
32.4
26.79
22.37
19.31
17.13
14.87
11.49
6.41
-0.18
-7.25
-13.13
-16.1
-15.01
-9.76
-1.42
8.18
17.01
23.48
26.78
26.89
24.24
19.4
12.87
5.07
-3.59
-12.63
-21.52
-29.82
-37.26
-43.82
-49.74
-55.48
-61.54
-68.35
-76.17
-85.06
-94.98
-105.85
-117.62
-130.15
-143.05
-155.59
-166.74
-175.53
-181.29
-183.89
-183.78
-181.77
-178.87
-176.06
-174.14
-173.4
-173.42
-172.84
-169.57
-161.37
-146.76
-125.69
-99.85
-72.27
-46.28
-24.5
-8.02
3.6
11.89
18.58
24.95
31.52
38.16
44.45
50
54.67
58.54
61.7
64.18
65.92
66.83
66.88
66.1
64.57
62.37
59.56
56.12
52.05
47.32
41.9
35.75
28.82
21.04
12.31
2.59
-8
-18.86
-28.78
-35.97
-38.54
-35.07
-25.28
-10.21
7.98
26.7
43.67
57.47
67.61
74.31
78.05
79.21
78
74.54
69.11
62.27
54.91
47.99
42.38
38.52
36.3
35.18
34.34
33.05
30.91
27.91
24.32
20.49
16.57
12.49
7.96
2.62
-3.85
-11.67
-20.96
-31.65
-43.16
-54.31
-63.23
-67.72
-66.03
-57.52
-43.07
-24.93
-5.93
11.36
25.4
35.74
42.8
47.22
49.52
49.95
48.68
46.06
42.74
39.51
37.1
35.85
35.67
36.06
36.37
36.03
34.76
32.64
30.04
27.44
25.2
23.35
21.5
18.95
14.88
8.6
-0.19
-11.35
-24.15
-37.28
-48.94
-57.04
-59.72
-55.81
-45.33
-29.61
-10.98
7.81
24.45
37.48
46.55
52.12
54.98
55.91
55.4
53.73
51.09
47.78
44.23
40.95
38.37
36.66
35.7
35.15
34.56
33.57
31.98
29.76
26.97
23.67
19.85
15.46
10.43
4.7
-1.76
-8.96
-17
-25.96
-35.74
-45.79
-54.86
-61.19
-62.93
-58.81
-48.78
-34.1
-17.04
-0.14
14.54
25.9
33.81
38.77
41.53
42.65
42.53
41.45
39.68
37.53
35.32
33.29
31.52
30.01
28.73
27.71
27
26.6
26.35
25.91
24.77
22.47
18.76
13.69
7.63
1.11
-5.37
-11.51
-17.35
-23.25
-29.77
-37.4
-46.18
-55.43
-63.72
-69.17
-70.03
-65.33
-55.28
-41.22
-25.18
-9.18
5.25
17.4
27.24
35.13
41.5
46.68
50.83
54.02
56.27
57.6
58.07
57.8
56.97
55.81
54.62
53.67
53.26
53.57
54.54
55.89
56.97
57.03
55.38
51.7
46.17
39.4
32.31
25.73
20.19
15.69
11.7
7.25
1.29
-6.89
-17.2
-28.49
-38.74
-45.59
-47.16
-42.76
-33.09
-20.01
-5.76
7.7
19.22
28.42
35.52
40.97
45.23
48.66
51.52
54.03
56.34
58.57
60.69
62.55
63.93
64.56
64.35
63.49
62.43
61.76
61.89
62.81
63.97
64.53
63.68
61
56.61
51.1
45.27
39.86
35.32
31.7
28.65
25.55
21.58
15.99
8.34
-1.24
-11.85
-21.93
-29.55
-33.02
-31.48
-25.34
-16.09
-5.83
3.5
10.73
15.6
18.43
19.68
19.51
17.81
14.47
9.69
4.07
-1.56
-6.53
-10.61
-14.05
-17.3
-20.67
-24.06
-27.01
-28.96
-29.57
-29.01
-27.95
-27.26
-27.76
-29.85
-33.43
-38.07
-43.18
-48.28
-53.15
-57.82
-62.53
-67.54
-73.01
-78.94
-85
-90.61
-94.83
-96.61
-94.89
-89.02
-78.99
-65.55
-50.16
-34.62
-20.57
-9.15
-0.82
4.62
7.73
9.22
9.78
10.01
10.4
11.31
12.84
14.87
17.09
19.14
20.75
21.86
22.61
23.21
23.84
24.53
25.14
25.43
25.18
24.3
22.85
21.01
19.03
17.15
15.46
13.88
12.14
9.77
6.22
1.08
-5.57
-13
-19.8
-24.31
-25.26
-22.36
-16.58
-9.78
-4.04
-0.81
-0.55
-2.75
-6.37
-10.44
-14.41
-18.19
-21.93
-25.76
-29.65
-33.4
-36.71
-39.36
-41.26
-42.51
-43.26
-43.76
-44.24
-44.95
-46.12
-47.98
-50.7
-54.32
-58.75
-63.74
-69.07
-74.64
-80.61
-87.4
-95.48
-105.11
-116
-127.09
-136.55
-142.13
-141.72
-134.08
-119.3
-98.96
-75.69
-52.51
-31.95
-15.58
-3.83
3.8
8.27
10.63
11.71
12.02
11.77
10.94
9.43
7.21
4.41
1.34
-1.61
-4.09
-5.99
-7.47
-8.89
-10.67
-13.12
-16.34
-20.23
-24.57
-29.12
-33.7
-38.31
-43.12
-48.46
-54.68
-61.95
-69.93
-77.59
-83.32
-85.33
-82.28
-73.81
-60.78
-44.99
-28.61
-13.5
-0.79
9.27
17.16
23.76
29.99
36.5
43.45
50.39
56.42
60.57
62.29
61.76
59.93
58.08
57.28
57.85
59.3
60.59
60.64
58.73
54.82
49.33
42.92
36.13
29.23
22.09
14.38
5.78
-3.82
-14.17
-24.58
-34.01
-41.18
-44.88
-44.15
-38.58
-28.46
-14.78
0.92
16.85
31.4
43.39
52.27
58.16
61.64
63.49
64.49
65.11
65.53
65.66
65.36
64.57
63.37
61.93
60.37
58.74
56.99
55.1
53.11
51.1
49.01
46.64
43.65
39.78
34.97
29.5
23.82
18.3
13.01
7.6
1.47
-5.98
-15.03
-25.4
-36.07
-45.46
-51.7
-53.11
-48.8
-38.94
-24.81
-8.46
7.91
22.52
34.31
42.96
48.72
52.11
53.71
54.05
53.59
52.63
51.35
49.79
47.91
45.71
43.24
40.68
38.2
35.98
34.16
32.72
31.54
30.26
28.43
25.56
21.36
15.84
9.39
2.58
-4.03
-10.15
-15.89
-21.74
-28.31
-36.12
-45.19
-54.9
-63.97
-70.69
-73.32
-70.69
-62.58
-49.86
-34.26
-17.87
-2.61
10.24
20.17
27.31
32.16
35.3
37.21
38.23
38.59
38.48
38
37.22
36.18
34.86
33.32
31.66
30.07
28.75
27.76
26.96
25.97
24.31
21.61
17.76
12.97
7.65
2.23
-3.06
-8.3
-13.78
-19.89
-26.95
-34.99
-43.67
-52.18
-59.33
-63.71
-64.04
-59.6
-50.47
-37.65
-22.79
-7.73
5.97
17.35
26.11
32.49
36.99
40.19
42.57
44.46
46.02
47.24
48.01
48.18
47.66
46.47
44.83
43.06
41.56
40.57
40.11
39.85
39.23
37.6
34.51
29.88
24.02
17.54
11.1
5.1
-0.37
-5.62
-11.17
-17.56
-25.09
-33.61
-42.37
-50.1
-55.26
-56.46
-53.01
-45.15
-34.07
-21.51
-9.26
1.38
9.81
16.09
20.65
24
26.48
28.24
29.27
29.53
29.01
27.81
26.07
23.92
21.49
18.88
16.24
13.81
11.87
10.64
10.15
10.11
9.95
8.99
6.67
2.84
-2.19
-7.8
-13.23
-17.95
-21.79
-25.09
-28.52
-32.8
-38.35
-44.97
-51.65
-56.84
-58.86
-56.55
-49.72
-39.22
-26.64
-13.75
-1.98
7.93
15.86
22.08
26.91
30.56
33.11
34.54
34.9
34.34
33.14
31.65
30.2
29.01
28.1
27.4
26.78
26.14
25.49
24.89
24.3
23.56
22.32
20.18
16.87
12.38
7.02
1.33
-4.15
-9.06
-13.35
-17.31
-21.45
-26.28
-32.16
-39.02
-46.31
-52.97
-57.65
-59.04
-56.29
-49.37
-39.06
-26.79
-14.19
-2.63
7.03
14.53
20
23.8
26.25
27.62
28.15
28.05
27.55
26.86
26.11
25.32
24.37
23.12
21.46
19.48
17.45
15.8
14.84
14.6
14.74
14.59
13.44
10.84
6.81
1.82
-3.43
-8.3
-12.47
-16.04
-19.46
-23.3
-28.06
-33.99
-40.92
-48.13
-54.45
-58.4
-58.66
-54.5
-46.13
-34.72
-22.02
-9.84
0.5
8.44
14.12
18.08
20.87
22.83
24.03
24.43
24
22.91
21.47
20.08
19.04
18.41
18.03
17.57
16.81
15.72
14.52
13.48
12.73
12.13
11.27
9.76
7.37
4.14
0.3
-3.9
-8.34
-13.02
-17.97
-23.15
-28.49
-34.01
-39.82
-46.08
-52.68
-58.96
-63.73
-65.49
-63.06
-56.12
-45.39
-32.47
-19.21
-7.18
2.72
10.31
15.81
19.57
21.91
23.06
23.27
22.79
21.91
20.86
19.78
18.8
18
17.49
17.33
17.5
17.9
18.41
18.97
19.54
20.1
20.45
20.2
18.86
16.04
11.71
6.26
0.47
-4.82
-9.02
-12.05
-14.39
-16.88
-20.45
-25.75
-32.94
-41.56
-50.59
-58.62
-64.14
-65.9
-63.25
-56.3
-45.94
-33.61
-20.9
-9.26
0.34
7.4
11.93
14.27
14.99
14.77
14.23
13.8
13.62
13.5
13.08
11.99
10.12
7.69
5.23
3.36
2.49
2.72
3.75
4.99
5.83
5.78
4.64
2.4
-0.73
-4.51
-8.63
-12.84
-16.91
-20.79
-24.63
-28.81
-33.78
-39.75
-46.43
-52.82
-57.37
-58.48
-55.03
-46.89
-34.97
-20.9
-6.52
6.67
17.74
26.35
32.47
36.27
37.98
37.95
36.65
34.58
32.14
29.55
26.86
24.04
21.11
18.19
15.48
13.19
11.4
10.09
9.1
8.13
6.86
4.92
2.07
-1.71
-6.24
-11.12
-15.94
-20.47
-24.72
-29.07
-34.12
-40.41
-48.13
-56.72
-64.91
-70.85
-72.68
-69.24
-60.47
-47.52
-32.36
-17.12
-3.48
7.61
15.97
21.86
25.72
27.98
29.01
29.15
28.69
27.87
26.87
25.77
24.57
23.26
21.89
20.56
19.44
18.69
18.32
18.15
17.77
16.64
14.27
10.47
5.38
-0.53
-6.66
-12.54
-17.98
-23.13
-28.44
-34.5
-41.73
-50.1
-58.88
-66.67
-71.6
-71.97
-66.76
-56.11
-41.35
-24.54
-7.89
6.89
18.87
27.87
34.18
38.31
40.76
41.97
42.34
42.17
41.63
40.76
39.5
37.82
35.82
33.76
31.98
30.76
30.18
29.97
29.57
28.33
25.69
21.45
15.82
9.32
2.59
-3.85
-9.8
-15.38
-21.02
-27.25
-34.57
-43.16
-52.67
-62.01
-69.46
-73.07
-71.28
-63.62
-50.96
-35.3
-19.04
-4.22
8.06
17.66
25.06
30.87
35.44
38.86
41.06
42.03
41.91
40.96
39.41
37.43
35.06
32.35
29.41
26.49
23.88
21.8
20.25
18.98
17.55
15.45
12.33
8.08
2.91
-2.83
-8.74
-14.55
-20.19
-25.87
-31.98
-38.87
-46.66
-54.88
-62.38
-67.52
-68.59
-64.32
-54.42
-39.71
-21.91
-3.25
14.13
28.62
39.41
46.46
50.34
51.93
52.1
51.53
50.6
49.44
48.11
46.69
45.36
44.3
43.62
43.3
43.23
43.3
43.42
43.47
43.28
42.57
41
38.36
34.68
30.32
25.75
21.43
17.51
13.81
9.77
4.7
-1.98
-10.32
-19.66
-28.49
-34.84
-36.82
-33.37
-24.68
-12.21
1.83
15.2
26.28
34.36
39.52
42.25
43.05
42.3
40.25
37.18
33.44
29.41
25.47
21.85
18.59
15.66
12.98
10.54
8.4
6.52
4.76
2.83
0.39
-2.81
-6.78
-11.32
-16.07
-20.63
-24.71
-28.21
-31.27
-34.34
-38.04
-42.93
-49.17
-56.18
-62.58
-66.39
-65.78
-59.66
-48.27
-33.12
-16.53
-0.86
12.18
21.81
28.11
31.63
33
32.7
31.04
28.34
25.01
21.61
18.75
16.88
16.23
16.73
18.05
19.7
21.17
22.05
22.09
21.23
19.55
17.25
14.51
11.49
8.31
5.04
1.68
-1.84
-5.75
-10.37
-15.95
-22.35
-28.85
-34.1
-36.48
-34.66
-28.16
-17.69
-4.95
7.93
19.06
27.32
32.55
35.19
35.95
35.38
33.74
31.2
27.92
24.29
20.78
17.88
15.89
14.77
14.21
13.72
12.87
11.45
9.55
7.43
5.41
3.62
1.99
0.28
-1.82
-4.48
-7.77
-11.69
-16.32
-21.72
-27.81
-34.02
-39.21
-41.88
-40.66
-34.93
-25.2
-13.03
-0.52
10.42
18.55
23.54
25.73
25.76
24.14
21.15
16.88
11.48
5.36
-0.75
-5.99
-9.63
-11.43
-11.71
-11.26
-11.02
-11.63
-13.19
-15.28
-17.22
-18.46
-18.92
-19.05
-19.65
-21.52
-25.14
-30.49
-37.09
-44.04
-50.06
-53.61
-53.03
-47.06
-35.51
-19.67
-2.36
12.92
23.19
27.12
25.55
20.89
16.09
13.33
13.42
15.87
19.58
23.55
27.31
30.83
34.13
36.98
38.82
38.99
37.16
33.55
28.99
24.55
21.1
18.88
17.41
15.71
12.79
7.99
1.24
-7.13
-16.55
-26.44
-36.14
-44.92
-51.85
-55.97
-56.6
-53.6
-47.5
-39.37
-30.49
-22.01
-14.74
-9.15
-5.49
-3.82
-4.07
-5.95
-8.96
-12.43
-15.73
-18.39
-20.23
-21.31
-21.88
-22.22
-22.54
-22.92
-23.32
-23.63
-23.78
-23.86
-24.09
-24.9
-26.78
-30.2
-35.32
-41.85
-48.9
-55.09
-58.88
-58.99
-54.9
-47
-36.48
-24.89
-13.69
-3.86
4.15
10.28
14.6
17.18
18.01
17.17
14.9
11.62
7.94
4.54
2.03
0.82
0.98
2.26
4.17
6.17
7.83
9
9.78
10.4
10.99
11.42
11.29
10.04
7.13
2.32
-4.08
-11.2
-17.66
-21.87
-22.53
-19.02
-11.68
-1.66
9.43
20.09
29.28
36.58
42.09
46.08
48.82
50.54
51.47
51.98
52.5
53.34
54.55
55.79
56.48
56.03
54.08
50.71
46.37
41.78
37.68
34.59
32.63
31.42
30.19
27.91
23.62
16.76
7.4
-3.69
-15.12
-25.14
-32.04
-34.62
-32.48
-26.23
-17.31
-7.6
1.19
7.93
12.29
14.54
15.25
14.82
13.29
10.43
5.94
-0.21
-7.69
-15.81
-23.83
-31.08
-37.29
-42.52
-47.05
-51.28
-55.49
-59.77
-63.96
-67.72
-70.66
-72.47
-73.04
-72.54
-71.36
-70.04
-69.09
-68.9
-69.63
-71.09
-72.7
-73.47
-72.15
-67.49
-58.75
-45.97
-30.09
-12.74
4.3
19.57
32.29
42.34
50.04
55.89
60.3
63.53
65.69
66.86
67.08
66.46
65.07
62.97
60.24
57.08
53.81
50.82
48.51
47
46.05
45.04
43.11
39.53
33.92
26.46
17.83
8.9
0.56
-6.62
-12.37
-16.9
-20.71
-24.5
-28.97
-34.42
-40.57
-46.42
-50.57
-51.67
-48.93
-42.43
-33.08
-22.21
-11.07
-0.54
8.98
17.43
24.82
31.07
36.04
39.58
41.72
42.69
42.88
42.73
42.62
42.75
43.1
43.51
43.77
43.75
43.44
42.95
42.44
41.94
41.3
40.16
38.08
34.68
29.85
23.78
16.95
9.98
3.47
-2.25
-7.14
-11.5
-15.81
-20.61
-26.26
-32.82
-39.96
-46.91
-52.54
-55.63
-55.15
-50.63
-42.38
-31.44
-19.32
-7.55
2.69
10.83
16.84
20.99
23.68
25.23
25.93
26.03
25.82
25.62
25.64
25.97
26.46
26.72
26.19
24.25
20.51
15.02
8.44
1.84
-3.56
-6.82
-7.68
-6.52
-4.24
-1.8
-0.02
0.64
-0
-1.95
-5.04
-9.04
-13.48
-17.9
-21.86
-25.15
-27.93
-30.66
-34.04
-38.7
-44.99
-52.62
-60.6
-67.33
-71.02
-70.24
-64.51
-54.46
-41.76
-28.53
-16.64
-7.24
-0.54
3.95
7.09
9.67
12.19
14.84
17.53
20.06
22.24
23.98
25.29
26.23
26.91
27.42
27.85
28.34
29.04
30.05
31.36
32.75
33.81
34.07
33.19
31.14
28.23
25.01
21.98
19.47
17.44
15.58
13.44
10.71
7.31
3.45
-0.45
-3.93
-6.67
-8.66
-10.17
-11.7
-13.9
-17.35
-22.29
-28.39
-34.6
-39.21
-40.32
-36.46
-27.22
-13.52
2.52
18.23
31.19
39.93
44.25
45.05
43.83
42.02
40.51
39.52
38.76
37.78
36.26
34.16
31.63
28.85
25.92
22.89
19.86
17.14
15.08
14.1
14.38
15.86
18.27
21.16
24.02
26.3
27.41
26.79
24.07
19.19
12.56
4.98
-2.49
-8.86
-13.49
-16.16
-17.17
-17.16
-16.97
-17.41
-19
-21.78
-25.09
-27.68
-28.05
-24.94
-17.9
-7.52
4.71
17.01
27.88
36.56
43.02
47.67
50.95
53.12
54.25
54.45
53.98
53.22
52.54
52.05
51.55
50.63
48.92
46.28
42.91
39.23
35.63
32.18
28.57
24.24
18.68
11.68
3.45
-5.47
-14.45
-23.06
-31.09
-38.56
-45.49
-51.81
-57.34
-61.92
-65.58
-68.56
-71.36
-74.56
-78.74
-84.29
-91.18
-98.83
-105.99
-111
-112.18
-108.45
-99.77
-87.25
-72.83
-58.67
-46.56
-37.5
-31.7
-28.8
-28.18
-29.2
-31.34
-34.14
-37.17
-40.07
-42.56
-44.55
-46.13
-47.59
-49.31
-51.56
-54.39
-57.52
-60.44
-62.47
-63.05
-61.89
-59.05
-54.89
-49.91
-44.66
-39.63
-35.18
-31.61
-29.02
-27.42
-26.61
-26.28
-26.13
-25.98
-25.91
-26.35
-27.93
-31.29
-36.69
-43.77
-51.34
-57.63
-60.77
-59.29
-52.6
-41.14
-26.23
-9.62
6.91
21.86
34.19
43.38
49.38
52.56
53.56
53.16
52.09
50.9
49.89
49.1
48.39
47.51
46.18
44.32
42.03
39.69
37.76
36.57
36.13
36.05
35.65
34.23
31.32
26.86
21.19
14.91
8.69
3.01
-1.98
-6.48
-10.94
-15.96
-22.07
-29.52
-38.04
-46.81
-54.42
-59.15
-59.43
-54.31
-43.9
-29.38
-12.7
4.06
19.22
31.83
41.68
48.96
53.97
56.95
58.05
57.47
55.52
52.67
49.45
46.32
43.63
41.51
39.92
38.66
37.52
36.24
34.67
32.67
30.12
26.86
22.72
17.66
11.85
5.7
-0.21
-5.47
-10
-14.29
-19.23
-25.76
-34.28
-44.22
-53.98
-61.24
-63.72
-60.03
-50.16
-35.55
-18.56
-1.81
12.6
23.41
30.31
33.68
34.36
33.36
31.68
30.09
29.07
28.71
28.79
28.97
29.04
29.07
29.35
30.27
32.06
34.6
37.47
40.11
42.01
42.91
42.8
41.87
40.35
38.4
36.07
33.26
29.73
25.16
19.24
11.97
3.91
-3.66
-8.88
-9.83
-5.23
5.02
19.71
36.63
53.26
67.43
77.72
83.57
85.13
83.1
78.47
72.33
65.62
58.99
52.61
46.29
39.69
32.6
25.17
17.79
10.96
4.96
-0.17
-4.65
-8.79
-12.85
-16.94
-21.13
-25.46
-29.95
-34.57
-39.26
-43.93
-48.59
-53.5
-59.11
-65.81
-73.49
-81.2
-87.14
-89.21
-85.76
-76.43
-62.3
-45.65
-29.06
-14.6
-3.25
5.03
10.94
15.31
18.81
21.81
24.56
27.22
29.97
32.89
35.91
38.81
41.25
42.91
43.52
42.92
41.13
38.29
34.72
30.78
26.81
22.99
19.36
15.77
12.02
7.98
3.68
-0.78
-5.29
-9.81
-14.44
-19.36
-24.69
-30.34
-36.03
-41.21
-45.37
-48.12
-49.45
-49.58
-48.8
-47.25
-44.96
-42
-38.71
-35.75
-33.88
-33.63
-35.01
-37.63
-40.96
-44.74
-49.02
-53.88
-58.94
-63.1
-64.86
-62.91
-56.93
-47.81
-37.37
-27.56
-19.75
-14.51
-11.72
-11
-12.2
-15.35
-20.46
-27.13
-34.44
-41.26
-46.72
-50.67
-53.82
-57.36
-62.28
-68.76
-75.81
-81.6
-84.08
-81.75
-74.18
-62.14
-47.3
-31.68
-17.2
-5.24
3.49
8.98
11.77
12.68
12.53
11.91
11.02
9.78
7.94
5.36
2.11
-1.42
-4.58
-6.64
-6.93
-5.1
-1.32
3.61
8.42
11.63
12.09
9.39
4.07
-2.51
-8.67
-12.98
-14.74
-14.21
-12.54
-11.28
-11.87
-15.06
-20.56
-27.07
-32.57
-34.98
-32.81
-25.64
-14.26
-0.32
14.2
27.61
38.89
47.73
54.32
59.08
62.41
64.71
66.48
68.34
70.98
74.91
80.28
86.82
93.94
101.06
107.76
113.82
118.99
122.83
124.68
123.9
120.17
113.79
105.57
96.5
87.36
78.43
69.55
60.43
50.96
41.34
31.96
23.2
15.26
8.17
2.02
-2.85
-5.83
-6.2
-3.47
2.31
10.45
19.79
29.05
37.19
43.65
48.33
51.48
53.44
54.6
55.36
56.23
57.72
60.21
63.71
67.69
71.21
73.3
73.4
71.64
68.8
65.82
63.36
61.46
59.58
56.98
53.19
48.21
42.47
36.52
30.71
25.07
19.32
13.11
6.08
-2.05
-11.51
-22.32
-34.14
-46.06
-56.61
-64.15
-67.38
-65.91
-60.48
-52.74
-44.68
-37.99
-33.67
-31.98
-32.7
-35.42
-39.7
-45.16
-51.33
-57.69
-63.63
-68.6
-72.06
-73.61
-73.02
-70.25
-65.59
-59.65
-53.28
-47.32
-42.4
-38.75
-36.25
-34.55
-33.24
-32
-30.68
-29.27
-27.93
-27
-27.05
-28.69
-32.37
-37.96
-44.57
-50.54
-53.89
-53
-47.16
-36.87
-23.63
-9.36
4.16
15.7
24.66
30.93
34.66
36.18
35.87
34.25
31.88
29.31
26.97
25.2
24.18
24.02
24.65
25.86
27.22
28.25
28.53
27.82
26.13
23.54
20.14
15.86
10.51
3.91
-3.94
-12.75
-22.05
-31.18
-39.5
-46.2
-50.38
-51.03
-47.34
-39.11
-27.17
-13.31
0.13
11.04
18.19
21.59
22.13
20.99
18.94
16.1
12.1
6.52
-0.75
-9.3
-18.44
-27.44
-35.76
-43.19
-49.7
-55.36
-60.27
-64.5
-68.2
-71.59
-74.94
-78.43
-82.04
-85.49
-88.27
-89.88
-90.07
-88.96
-87.09
-85.16
-83.61
-82.3
-80.31
-76.22
-68.63
-56.76
-40.99
-22.83
-4.48
11.89
24.8
33.81
39.39
42.43
43.76
43.84
42.83
40.8
37.99
34.88
32.04
29.94
28.69
28.08
27.61
26.78
25.2
22.83
19.9
16.81
13.95
11.49
9.27
6.85
3.73
-0.55
-6.13
-12.86
-20.3
-27.73
-34.16
-38.52
-39.81
-37.46
-31.57
-23
-13.08
-3.23
5.52
12.68
18.24
22.37
25.25
26.93
27.44
26.89
25.54
23.69
21.62
19.5
17.42
15.5
13.88
12.72
12.08
11.81
11.63
11.16
10.11
8.32
5.84
2.84
-0.45
-3.88
-7.38
-11.06
-15.22
-20.24
-26.49
-34.05
-42.42
-50.46
-56.55
-59
-56.64
-49.24
-37.59
-23.36
-8.51
5.15
16.43
24.79
30.41
33.88
35.97
37.42
38.68
39.89
40.9
41.41
41.14
39.98
38.1
35.85
33.68
31.95
30.84
30.24
29.86
29.21
27.86
25.48
21.94
17.4
12.19
6.74
1.45
-3.49
-8.16
-12.98
-18.52
-25.21
-33
-41.13
-48.17
-52.41
-52.4
-47.49
-38.1
-25.55
-11.65
1.85
13.66
23.09
30.02
34.63
37.29
38.46
38.62
38.28
37.89
37.75
37.9
38.19
38.33
38.04
37.24
36.03
34.64
33.32
32.2
31.21
30.11
28.58
26.26
22.9
18.45
13.08
7.2
1.34
-4.01
-8.61
-12.56
-16.28
-20.41
-25.55
-31.99
-39.5
-47.21
-53.7
-57.35
-56.74
-51.22
-41.11
-27.66
-12.71
1.84
14.57
24.72
32.17
37.21
40.29
41.83
42.18
41.68
40.64
39.38
38.25
37.49
37.22
37.37
37.7
37.89
37.67
36.91
35.67
34.1
32.36
30.51
28.46
26.05
23.02
19.16
14.39
8.79
2.62
-3.65
-9.52
-14.61
-18.81
-22.46
-26.19
-30.69
-36.44
-43.37
-50.76
-57.31
-61.51
-62.03
-58.14
-49.95
-38.36
-24.83
-10.98
1.78
12.49
20.76
26.65
30.51
32.78
33.78
33.74
32.81
31.17
29.16
27.21
25.76
25.06
25.1
25.62
26.26
26.68
26.67
26.17
25.23
23.94
22.37
20.57
18.5
16.03
12.98
9.22
4.77
-0.17
-5.22
-10
-14.25
-17.95
-21.32
-24.74
-28.64
-33.4
-39.13
-45.55
-51.81
-56.6
-58.39
-55.95
-48.81
-37.53
-23.52
-8.65
5.31
17.14
26.22
32.48
36.15
37.61
37.32
35.83
33.73
31.55
29.69
28.29
27.33
26.73
26.42
26.36
26.5
26.76
27.03
27.17
27.12
26.88
26.38
25.45
23.81
21.15
17.36
12.63
7.41
2.22
-2.51
-6.67
-10.4
-13.98
-17.74
-21.92
-26.69
-32.15
-38.21
-44.43
-49.91
-53.41
-53.71
-50.02
-42.38
-31.68
-19.38
-7.03
4.1
13.23
20.03
24.43
26.55
26.65
25.18
22.75
20.06
17.65
15.79
14.46
13.42
12.48
11.57
10.83
10.48
10.65
11.32
12.25
13.06
13.26
12.51
10.55
7.44
3.45
-0.97
-5.32
-9.29
-12.86
-16.28
-19.95
-24.31
-29.56
-35.58
-41.8
-47.21
-50.56
-50.69
-46.91
-39.32
-28.84
-16.98
-5.32
4.89
12.99
18.82
22.53
24.3
24.33
22.86
20.31
17.26
14.27
11.77
9.92
8.7
7.95
7.59
7.59
7.97
8.7
9.67
10.62
11.2
11.08
10.03
7.97
5.03
1.51
-2.23
-5.89
-9.33
-12.66
-16.23
-20.45
-25.64
-31.7
-38.01
-43.45
-46.61
-46.31
-41.95
-33.83
-23.07
-11.29
-0.08
9.34
16.42
21.11
23.74
24.71
24.37
22.99
20.8
18.03
14.96
11.88
9.08
6.77
5.11
4.19
3.96
4.27
4.86
5.42
5.62
5.22
4.09
2.25
-0.24
-3.31
-6.83
-10.65
-14.66
-18.8
-23.18
-28.01
-33.47
-39.37
-44.95
-48.9
-49.74
-46.37
-38.61
-27.32
-14.23
-1.32
9.76
18.07
23.5
26.42
27.48
27.22
26.02
24.1
21.62
18.79
15.86
13.12
10.82
9.13
8.12
7.68
7.59
7.56
7.28
6.52
5.19
3.34
1.06
-1.53
-4.38
-7.56
-11.16
-15.27
-19.98
-25.32
-31.29
-37.72
-44.06
-49.32
-52.21
-51.49
-46.47
-37.41
-25.55
-12.72
-0.8
8.85
15.64
19.73
21.69
22.12
21.45
19.87
17.46
14.34
10.8
7.24
4.13
1.85
0.58
0.24
0.57
1.23
1.97
2.68
3.37
4.05
4.59
4.72
4.01
2.08
-1.25
-5.97
-11.82
-18.46
-25.49
-32.4
-38.39
-42.38
-43.15
-39.79
-32.08
-20.78
-7.45
6
17.92
27.38
34.21
38.76
41.57
43.05
43.4
42.74
41.28
39.4
37.64
36.55
36.53
37.72
39.88
42.54
45.02
46.71
47.15
46.2
43.97
40.75
36.9
32.67
28.22
23.59
18.83
14.07
9.47
5.16
1.27
-2.11
-4.76
-6.3
-6.22
-4.05
0.35
6.59
13.74
20.57
25.85
28.69
28.79
26.41
22.2
17
11.59
6.53
2.11
-1.56
-4.49
-6.63
-7.92
-8.27
-7.73
-6.51
-5
-3.71
-3.1
-3.48
-4.88
-7.13
-9.86
-12.67
-15.28
-17.57
-19.72
-22.05
-25.04
-29.13
-34.66
-41.67
-49.78
-58.06
-65.02
-69.01
-68.68
-63.52
-54.18
-42.29
-29.93
-18.89
-10.13
-3.69
0.95
4.38
6.86
8.25
8.25
6.81
4.27
1.33
-1.17
-2.69
-3.09
-2.68
-1.98
-1.44
-1.27
-1.39
-1.57
-1.6
-1.43
-1.24
-1.36
-2.23
-4.24
-7.66
-12.53
-18.53
-24.96
-30.69
-34.4
-34.81
-31.14
-23.28
-11.93
1.55
15.46
28.09
38.1
44.7
47.73
47.52
44.79
40.35
35.03
29.57
24.56
20.47
17.55
15.8
14.92
14.41
13.78
12.66
11
8.95
6.82
4.85
3.11
1.47
-0.4
-2.91
-6.53
-11.61
-18.27
-26.22
-34.63
-42.19
-47.37
-48.83
-45.88
-38.75
-28.55
-16.92
-5.58
4.22
11.82
17.19
20.62
22.5
23.1
22.64
21.29
19.31
17.04
14.83
13.01
11.76
11.15
11.05
11.17
11.16
10.69
9.56
7.81
5.69
3.53
1.58
-0.16
-1.92
-4.08
-7.03
-10.99
-15.98
-21.68
-27.5
-32.46
-35.42
-35.27
-31.35
-23.76
-13.42
-1.85
9.34
18.9
26.2
31.24
34.28
35.69
35.7
34.5
32.34
29.56
26.58
23.79
21.45
19.66
18.41
17.65
17.3
17.25
17.26
17
16.11
14.35
11.69
8.35
4.71
1.15
-2.08
-4.99
-7.82
-11.02
-15.02
-20.09
-26.06
-32.19
-37.24
-39.77
-38.58
-33.15
-23.91
-12.09
0.65
12.73
23.14
31.51
38.12
43.51
48.21
52.42
55.91
58.11
58.3
55.9
50.78
43.39
34.73
26.15
18.94
14.08
11.93
12.27
14.4
17.48
20.7
23.51
25.58
26.81
27.25
27
26.17
24.86
23.1
20.7
17.2
12.03
4.72
-4.65
-15.12
-24.9
-31.85
-34.33
-31.98
-25.97
-18.65
-12.64
-9.76
-10.47
-13.84
-18.14
-21.67
-23.35
-22.94
-20.89
-17.9
-14.64
-11.55
-8.89
-6.78
-5.37
-4.75
-4.9
-5.57
-6.21
-6.18
-5.02
-2.74
0.07
2.44
3.42
2.56
0.07
-3.24
-6.38
-8.53
-9.43
-9.43
-9.35
-10.17
-12.69
-17.2
-23.32
-29.92
-35.32
-37.75
-35.94
-29.6
-19.65
-7.93
3.38
12.48
18.42
21.15
21.22
19.35
16.1
11.81
6.83
1.6
-3.25
-7.07
-9.44
-10.26
-9.75
-8.29
-6.26
-3.99
-1.69
0.42
2.09
3.05
3.15
2.32
0.69
-1.47
-3.79
-5.96
-7.8
-9.34
-10.91
-13.06
-16.42
-21.51
-28.46
-36.86
-45.63
-53.17
-57.68
-57.68
-52.48
-42.53
-29.32
-14.97
-1.6
9.26
16.94
21.56
23.71
24.07
23.19
21.44
19.15
16.71
14.54
13.03
12.4
12.64
13.53
14.72
15.91
16.89
17.55
17.83
17.64
16.87
15.37
13.02
9.81
5.86
1.43
-3.18
-7.69
-11.95
-16.01
-20.11
-24.59
-29.81
-35.91
-42.64
-49.25
-54.51
-57.05
-55.73
-50.1
-40.61
-28.55
-15.67
-3.66
6.27
13.59
18.34
20.83
21.44
20.48
18.25
15.14
11.71
8.57
6.23
4.96
4.69
5.11
5.81
6.44
6.82
6.9
6.67
6.09
4.97
3.06
0.11
-3.96
-8.99
-14.59
-20.29
-25.73
-30.85
-35.94
-41.55
-48.2
-56.08
-64.71
-72.9
-78.84
-80.59
-76.58
-66.2
-50.09
-30.11
-9.02
10.28
25.41
35.19
39.84
40.74
39.88
39.17
39.9
42.56
46.9
52.26
57.79
62.64
66.03
67.29
66.01
62.16
56.19
48.95
41.46
34.51
28.44
23.07
17.94
12.51
6.51
-0.02
-6.76
-13.32
-19.52
-25.49
-31.6
-38.19
-45.19
-51.95
-57.2
-59.52
-57.81
-51.78
-42.1
-30.24
-17.92
-6.67
2.51
9.19
13.42
15.45
15.69
14.55
12.48
9.92
7.28
4.96
3.23
2.31
2.22
2.83
3.83
4.75
5.19
4.86
3.71
1.83
-0.57
-3.33
-6.3
-9.45
-12.73
-16.13
-19.73
-23.75
-28.51
-34.26
-40.76
-47.15
-51.92
-53.33
-49.99
-41.52
-28.68
-13.24
2.6
16.82
28.07
35.73
39.83
40.75
39.05
35.33
30.21
24.26
18.04
12.01
6.54
1.86
-1.89
-4.67
-6.49
-7.46
-7.69
-7.38
-6.81
-6.36
-6.43
-7.35
-9.26
-12.08
-15.5
-19.24
-23.1
-27.16
-31.67
-36.86
-42.65
-48.41
-52.95
-54.78
-52.58
-45.68
-34.48
-20.37
-5.35
8.52
19.75
27.72
32.59
35.02
35.74
35.28
33.9
31.73
28.94
25.84
22.89
20.55
19.11
18.57
18.61
18.77
18.6
17.85
16.5
14.77
12.92
11.13
9.37
7.47
5.14
2.12
-1.83
-6.9
-13.16
-20.42
-28.07
-34.95
-39.51
-40.21
-36.06
-27.07
-14.33
0.2
14.34
26.27
34.96
40.28
42.76
43.21
42.42
40.89
38.82
36.19
33.01
29.41
25.73
22.41
19.82
18.05
16.89
15.93
14.74
13.06
10.87
8.25
5.32
2.12
-1.36
-5.12
-9.07
-13.12
-17.26
-21.67
-26.63
-32.37
-38.69
-44.79
-49.36
-50.89
-48.18
-40.92
-29.76
-16.25
-2.33
10.23
20.2
27.14
31.26
33.15
33.52
32.89
31.58
29.75
27.54
25.13
22.84
21.02
19.95
19.68
20.03
20.6
20.92
20.59
19.39
17.29
14.42
10.91
6.85
2.34
-2.52
-7.59
-12.69
-17.75
-22.85
-28.26
-34.13
-40.24
-45.79
-49.39
-49.55
-45.23
-36.4
-24.12
-10.23
3.23
14.66
23.22
28.88
32.03
33.27
33.07
31.79
29.68
27.02
24.11
21.29
18.9
17.23
16.4
16.35
16.82
17.42
17.75
17.55
16.73
15.32
13.4
10.94
7.85
4.05
-0.46
-5.59
-11.21
-17.27
-23.77
-30.6
-37.34
-43.11
-46.66
-46.77
-42.7
-34.57
-23.43
-10.95
1.07
11.21
18.74
23.69
26.55
28.02
28.68
28.86
28.63
27.98
26.93
25.57
24.12
22.81
21.79
21.08
20.58
20.09
19.4
18.35
16.9
15.09
13.03
10.79
8.37
5.67
2.56
-1.13
-5.54
-10.81
-17.1
-24.42
-32.49
-40.45
-46.98
-50.52
-49.8
-44.41
-35.01
-23.2
-10.96
-0.01
8.64
14.76
18.71
21.08
22.37
22.88
22.8
22.23
21.33
20.31
19.36
18.67
18.31
18.24
18.34
18.39
18.14
17.34
15.81
13.49
10.49
7.01
3.34
-0.29
-3.77
-7.1
-10.44
-14
-18.08
-22.89
-28.53
-34.75
-40.81
-45.53
-47.47
-45.44
-39.04
-28.88
-16.51
-3.93
7.06
15.41
20.89
23.97
25.42
25.87
25.77
25.29
24.59
23.79
23.08
22.54
22.17
21.84
21.37
20.68
19.83
19.02
18.42
18.07
17.75
17.07
15.61
13.12
9.65
5.51
1.17
-2.96
-6.7
-10.19
-13.82
-18.08
-23.3
-29.42
-35.87
-41.57
-45.19
-45.49
-41.8
-34.27
-23.84
-12.02
-0.39
9.74
17.62
23.04
26.21
27.56
27.54
26.64
25.3
23.92
22.84
22.33
22.5
23.31
24.52
25.78
26.72
27.12
26.93
26.35
25.59
24.75
23.69
22.09
19.62
16.2
12.04
7.64
3.53
0.02
-2.96
-5.79
-9.07
-13.38
-19.05
-26.04
-33.75
-41.16
-46.9
-49.69
-48.67
-43.78
-35.78
-26.07
-16.24
-7.62
-0.99
3.45
5.95
7.01
7.15
6.88
6.64
6.75
7.44
8.71
10.45
12.44
14.44
16.26
17.76
18.85
19.47
19.56
19.03
17.81
15.76
12.83
9.06
4.64
-0.08
-4.67
-8.8
-12.34
-15.38
-18.23
-21.27
-24.77
-28.85
-33.28
-37.49
-40.55
-41.4
-39.1
-33.26
-24.31
-13.42
-2.28
7.47
14.75
19.24
21.28
21.61
20.92
19.68
18.05
16.12
14
11.93
10.32
9.49
9.61
10.58
12.06
13.58
14.74
15.27
15.16
14.55
13.67
12.71
11.71
10.56
9.05
6.97
4.21
0.91
-2.61
-5.92
-8.71
-11
-13.1
-15.47
-18.27
-21.14
-23.05
-22.53
-18.25
-9.44
3.87
20.93
40.5
60.87
79.91
95.25
104.87
107.9
105.17
98.99
92.19
86.74
82.83
78.82
72.2
60.82
43.88
22.36
-1.09
-22.66
-38.25
-44.65
-40.81
-28.59
-12.49
1.8
9.53
8.45
-0.83
-15.93
-34.36
-54.51
-75.57
-96.49
-115.06
-127.85
-131.45
-124.02
-106.38
-81.83
-54.93
-29.86
-9.19
6.49
18.01
26.63
33.25
38.1
40.95
41.69
40.57
38.3
35.8
33.78
32.57
32.06
31.82
31.37
30.3
28.33
25.25
20.88
15.09
7.93
-0.24
-8.7
-16.53
-22.91
-27.38
-30.1
-31.74
-33.3
-35.66
-39.15
-43.33
-47.04
-48.7
-46.94
-41.19
-31.99
-20.9
-9.91
-0.84
5.33
8.48
9.1
7.83
5.11
1.22
-3.58
-8.75
-13.41
-16.64
-17.82
-16.97
-14.8
-12.43
-10.9
-10.81
-12.15
-14.4
-16.84
-18.95
-20.56
-21.95
-23.6
-26
-29.46
-34.03
-39.52
-45.55
-51.49
-56.44
-59.37
-59.26
-55.5
-48.14
-37.97
-26.32
-14.72
-4.45
3.67
9.3
12.44
13.28
12.08
9.24
5.33
1.09
-2.72
-5.53
-7.12
-7.72
-7.95
-8.55
-10.05
-12.56
-15.72
-18.87
-21.45
-23.27
-24.61
-26.07
-28.33
-31.86
-36.78
-42.82
-49.36
-55.46
-59.96
-61.64
-59.6
-53.54
-43.92
-31.99
-19.38
-7.67
1.92
8.76
12.73
14.08
13.25
10.88
7.69
4.52
2.09
0.92
1.15
2.49
4.39
6.21
7.56
8.49
9.5
11.37
14.83
20
26.14
31.49
33.78
31.04
22.42
8.79
-7.24
-22.12
-32.42
-35.96
-32.32
-22.79
-9.69
4.41
17.41
27.89
35.09
38.71
38.84
35.89
30.63
24.1
17.34
11.18
6.01
1.78
-1.8
-4.96
-7.77
-10.09
-11.74
-12.59
-12.71
-12.35
-11.83
-11.48
-11.66
-12.7
-14.86
-18.38
-23.32
-29.53
-36.52
-43.38
-48.81
-51.4
-50
-44.12
-34.23
-21.63
-8.08
4.76
15.74
24.39
30.79
35.24
38
39.21
38.97
37.53
35.33
33
31.11
29.97
29.56
29.53
29.48
29.17
28.63
28.12
27.89
27.96
28.12
27.96
27.06
25.05
21.63
16.49
9.38
0.37
-9.91
-20.08
-28.22
-32.41
-31.46
-25.41
-15.51
-3.84
7.52
17.1
24.32
29.34
32.55
34.24
34.43
33.04
30.22
26.5
22.78
19.97
18.63
18.77
19.9
21.29
22.34
22.78
22.7
22.35
21.97
21.55
20.9
19.7
17.7
14.76
10.9
6.18
0.73
-5.21
-11.1
-16.12
-19.13
-19.05
-15.21
-7.63
2.84
14.79
26.58
36.83
44.63
49.7
52.22
52.7
51.76
49.93
47.6
45.01
42.34
39.73
37.33
35.27
33.6
32.31
31.26
30.28
29.13
27.63
25.62
22.99
19.77
16.01
11.88
7.5
2.95
-1.78
-6.75
-12.02
-17.61
-23.46
-29.36
-34.83
-39.06
-41.01
-39.72
-34.72
-26.32
-15.65
-4.39
5.77
13.64
18.68
21.04
21.25
19.94
17.66
14.86
11.93
9.21
6.94
5.22
3.93
2.82
1.59
0.07
-1.77
-3.82
-5.93
-8.04
-10.23
-12.62
-15.27
-18.13
-21.01
-23.71
-26.13
-28.33
-30.52
-32.98
-36.02
-39.85
-44.48
-49.57
-54.36
-57.77
-58.64
-56.13
-50.08
-41.1
-30.41
-19.53
-9.78
-2.04
3.35
6.52
7.86
7.86
6.95
5.47
3.7
1.83
0.04
-1.55
-2.87
-3.93
-4.8
-5.64
-6.57
-7.64
-8.85
-10.11
-11.31
-12.35
-13.13
-13.62
-13.86
-14.01
-14.25
-14.79
-15.78
-17.29
-19.38
-22.13
-25.58
-29.62
-33.78
-37.17
-38.63
-37.09
-32.02
-23.65
-13.05
-1.76
8.7
17.2
23.27
27.03
28.95
29.6
29.37
28.46
26.91
24.8
22.33
19.86
17.83
16.59
16.25
16.63
17.38
18.08
18.39
18.12
17.2
15.69
13.66
11.25
8.55
5.68
2.74
-0.18
-3.06
-5.97
-9.11
-12.71
-16.82
-21.1
-24.71
-26.43
-25.1
-20.12
-11.78
-1.23
9.84
19.82
27.6
32.75
35.38
35.96
34.98
32.87
30
26.72
23.37
20.22
17.48
15.25
13.55
12.32
11.44
10.79
10.24
9.67
9.01
8.17
7.05
5.56
3.67
1.39
-1.2
-3.99
-6.94
-10.11
-13.62
-17.63
-22.18
-27.03
-31.65
-35.2
-36.81
-35.75
-31.72
-25.01
-16.38
-6.91
2.29
10.3
16.54
20.77
23.05
23.67
23.07
21.73
20.14
18.65
17.46
16.69
16.41
16.65
17.4
18.51
19.69
20.5
20.5
19.35
16.96
13.56
9.55
5.4
1.48
-2.11
-5.48
-8.94
-12.86
-17.55
-23.18
-29.69
-36.65
-43.21
-48.12
-50.06
-48.06
-41.94
-32.55
-21.6
-11.06
-2.58
2.99
5.69
6.21
5.39
3.95
2.29
0.55
-1.23
-3
-4.62
-5.94
-6.83
-7.26
-7.3
-7.14
-7.01
-7.11
-7.61
-8.6
-10.11
-12.06
-14.4
-16.99
-19.76
-22.72
-25.93
-29.57
-33.82
-38.84
-44.55
-50.58
-56.07
-59.87
-60.69
-57.48
-49.83
-38.15
-23.7
-8.26
6.31
18.54
27.65
33.62
36.99
38.54
38.97
38.65
37.7
36.05
33.7
30.86
27.99
25.55
23.81
22.73
21.95
20.96
19.39
17.1
14.23
11.09
7.95
4.89
1.81
-1.61
-5.69
-10.65
-16.61
-23.44
-30.84
-38.16
-44.47
-48.54
-49.15
-45.42
-37.24
-25.41
-11.55
2.38
14.62
24.02
30.26
33.71
35.16
35.41
35.06
34.44
33.54
32.24
30.41
28.05
25.4
22.85
20.81
19.53
18.93
18.67
18.26
17.26
15.49
12.96
9.9
6.5
2.83
-1.15
-5.54
-10.4
-15.72
-21.37
-27.2
-32.9
-37.96
-41.53
-42.51
-39.87
-33.07
-22.38
-9.02
5.16
18.22
28.73
36.01
40.21
41.98
42.08
41.1
39.41
37.19
34.54
31.59
28.47
25.31
22.22
19.29
16.56
14.09
11.89
9.89
7.95
5.84
3.35
0.35
-3.14
-7.01
-11.05
-15.11
-19.13
-23.17
-27.43
-32.2
-37.75
-44.16
-51.11
-57.74
-62.68
-64.45
-61.92
-54.76
-43.7
-30.24
-16.23
-3.29
7.57
16.04
22.33
26.85
30.04
32.23
33.64
34.45
34.77
34.66
34.1
33.05
31.53
29.67
27.72
26.04
24.9
24.42
24.39
24.37
23.74
21.97
18.79
14.34
9.11
3.72
-1.26
-5.56
-9.33
-13.09
-17.49
-23.03
-29.79
-37.16
-43.95
-48.63
-49.78
-46.57
-39.08
-28.29
-15.84
-3.5
7.29
15.69
21.56
25.29
27.47
28.73
29.52
30.08
30.49
30.76
30.86
30.75
30.41
29.76
28.75
27.42
25.89
24.43
23.28
22.57
22.16
21.71
20.78
19.01
16.26
12.69
8.62
4.38
0.24
-3.72
-7.53
-11.33
-15.39
-20.04
-25.55
-31.92
-38.69
-44.82
-48.9
-49.57
-46.02
-38.34
-27.54
-15.28
-3.25
7.17
15.23
20.79
24.16
25.8
26.26
25.98
25.33
24.59
23.93
23.4
22.95
22.43
21.69
20.64
19.28
17.77
16.37
15.3
14.63
14.27
13.88
13.08
11.52
9.05
5.69
1.69
-2.6
-6.82
-10.67
-14.1
-17.28
-20.66
-24.75
-29.94
-36.12
-42.58
-48.02
-50.93
-50.11
-45.11
-36.46
-25.44
-13.68
-2.65
6.71
14.05
19.41
23.06
25.26
26.25
26.3
25.72
24.83
23.95
23.27
22.85
22.63
22.48
22.21
21.65
20.72
19.46
18.03
16.67
15.58
14.75
14.01
12.99
11.32
8.83
5.57
1.89
-1.79
-5.14
-8.03
-10.58
-13.1
-15.94
-19.46
-23.95
-29.55
-36.1
-43.04
-49.33
-53.6
-54.54
-51.32
-43.99
-33.5
-21.44
-9.49
1.01
9.36
15.47
19.67
22.4
24.08
24.99
25.3
25.17
24.74
24.21
23.73
23.36
23.06
22.67
22.08
21.23
20.23
19.22
18.4
17.8
17.3
16.62
15.41
13.39
10.42
6.55
2.04
-2.72
-7.36
-11.59
-15.32
-18.67
-21.87
-25.28
-29.21
-33.94
-39.49
-45.5
-51.16
-55.22
-56.41
-53.74
-47.04
-36.98
-24.97
-12.65
-1.45
7.75
14.64
19.4
22.42
24.16
24.99
25.23
25.1
24.73
24.25
23.76
23.36
23.08
22.84
22.48
21.85
20.92
19.84
18.87
18.23
17.85
17.41
16.37
14.31
11.08
6.99
2.59
-1.51
-4.92
-7.63
-9.9
-12.24
-15.12
-18.95
-23.9
-29.84
-36.34
-42.57
-47.51
-50.03
-49.26
-44.81
-36.94
-26.59
-15.11
-3.98
5.62
13.02
18.09
21.14
22.65
23.1
22.87
22.2
21.32
20.42
19.68
19.16
18.8
18.43
17.88
17.13
16.34
15.77
15.66
16.01
16.52
16.66
15.86
13.74
10.29
5.88
1.05
-3.63
-7.78
-11.32
-14.41
-17.46
-21
-25.49
-31.07
-37.41
-43.52
-47.95
-49.15
-46.07
-38.53
-27.4
-14.29
-1.09
10.59
19.78
26.17
29.99
31.7
31.81
30.79
29.03
26.85
24.53
22.27
20.18
18.35
16.78
15.47
14.42
13.61
13.03
12.61
12.22
11.61
10.5
8.64
5.94
2.51
-1.37
-5.33
-9.05
-12.43
-15.62
-18.99
-22.99
-27.94
-33.84
-40.21
-46.06
-50.07
-50.93
-47.75
-40.36
-29.45
-16.4
-2.93
9.34
19.21
26.1
30.03
31.43
30.93
29.18
26.74
23.99
21.18
18.52
16.17
14.29
13.01
12.38
12.31
12.56
12.81
12.73
12.11
10.9
9.16
7.03
4.6
1.91
-1.07
-4.34
-7.91
-11.85
-16.27
-21.38
-27.21
-33.4
-39.06
-42.86
-43.42
-39.82
-32.04
-21.02
-8.4
4.02
14.75
22.89
28.21
30.95
31.56
30.58
28.48
25.65
22.41
19.04
15.78
12.9
10.64
9.17
8.54
8.6
9.05
9.51
9.63
9.13
7.93
6.05
3.62
0.83
-2.15
-5.19
-8.24
-11.39
-14.92
-19.16
-24.37
-30.37
-36.39
-41.14
-43.11
-41.22
-35.28
-26.09
-15.24
-4.48
4.81
11.97
16.97
20.1
21.66
21.76
20.36
17.53
13.56
9.08
4.85
1.58
-0.31
-0.86
-0.47
0.27
0.82
0.9
0.52
-0.09
-0.66
-1.04
-1.27
-1.59
-2.32
-3.79
-6.3
-9.98
-14.77
-20.25
-25.62
-29.79
-31.61
-30.26
-25.52
-17.91
-8.53
1.28
10.3
17.82
