-14.64
-5.36
3.07
9.87
14.78
17.94
19.7
20.39
20.14
19.01
17.01
14.39
11.56
9.06
7.32
6.5
6.46
6.84
7.32
7.67
7.82
7.76
7.42
6.66
5.33
3.41
0.96
-1.84
-4.87
-8.1
-11.65
-15.69
-20.29
-25.26
-30.09
-33.97
-35.99
-35.36
-31.74
-25.35
-16.98
-7.69
1.42
9.5
16.11
21.09
24.45
26.24
26.54
25.5
23.42
20.73
17.91
15.36
13.33
11.88
10.97
10.53
10.46
10.64
10.87
10.89
10.43
9.28
7.42
4.99
2.28
-0.45
-3.07
-5.67
-8.53
-11.98
-16.27
-21.34
-26.72
-31.6
-34.91
-35.73
-33.52
-28.37
-21
-12.55
-4.26
2.89
8.33
11.97
14.02
14.83
14.72
13.9
12.5
10.59
8.32
5.94
3.81
2.33
1.78
2.21
3.41
4.99
6.5
7.59
8.13
8.11
7.65
6.85
5.79
4.41
2.64
0.41
-2.39
-5.83
-10.01
-14.9
-20.27
-25.6
-30.02
-32.5
-32.13
-28.47
-21.8
-13.06
-3.59
5.27
12.61
18.09
21.82
24.12
25.27
25.39
24.49
22.65
20.04
17.07
14.2
11.85
10.28
9.53
9.45
9.77
10.18
10.4
10.23
9.58
8.42
6.84
4.93
2.8
0.56
-1.75
-4.23
-7.07
-10.58
-14.94
-20.09
-25.52
-30.29
-33.25
-33.4
-30.28
-24.14
-15.84
-6.58
2.45
10.31
16.46
20.64
22.84
23.28
22.36
20.52
18.2
15.73
13.31
11.1
9.26
8.03
7.59
7.97
8.97
10.2
11.23
11.78
11.73
11.14
10.08
8.62
6.81
4.7
2.35
-0.19
-3.02
-6.4
-10.57
-15.51
-20.79
-25.45
-28.29
-28.25
-24.85
-18.35
-9.65
-0.04
9.18
17.02
22.88
26.58
28.26
28.23
26.93
24.76
22.03
18.91
15.45
11.69
7.76
3.86
0.28
-2.75
-5.06
-6.66
-7.65
-8.16
-8.35
-8.36
-8.23
-7.97
-7.55
-6.9
-6
-4.92
-3.88
-3.21
-3.29
-4.35
-6.26
-8.45
-9.85
-9.22
-5.5
1.72
12.01
24.11
36.32
47.03
55.12
60.17
62.37
62.3
60.64
58.05
55.08
52.07
49.19
46.37
43.31
39.6
34.88
29
22.1
14.56
6.86
-0.63
-7.69
-14.26
-20.41
-26.21
-31.74
-37.02
-42
-46.59
-50.71
-54.35
-57.62
-60.78
-64.07
-67.49
-70.6
-72.52
-72.15
-68.61
-61.61
-51.67
-39.97
-28.03
-17.23
-8.52
-2.3
1.49
3.23
3.38
2.44
0.8
-1.17
-3.11
-4.63
-5.37
-5.01
-3.39
-0.59
3.06
7.1
11
14.37
16.92
18.61
19.43
19.48
18.82
17.46
15.45
12.84
9.77
6.38
2.72
-1.27
-5.69
-10.55
-15.56
-20
-22.91
-23.32
-20.71
-15.2
-7.62
0.83
8.9
15.75
21.03
24.8
27.31
28.78
29.25
28.65
26.9
24.09
20.54
16.8
13.51
11.15
9.93
9.67
9.92
10.11
9.76
8.69
6.97
4.88
2.7
0.63
-1.31
-3.26
-5.43
-8.12
-11.56
-15.91
-21.06
-26.57
-31.65
-35.31
-36.58
-34.89
-30.27
-23.35
-15.19
-6.93
0.5
6.52
10.87
13.46
14.23
13.07
9.91
4.79
-1.94
-9.62
-17.43
-24.57
-30.51
-35.21
-39.06
-42.67
-46.56
-50.87
-55.2
-58.81
-60.93
-61.15
-59.64
-57.16
-54.78
-53.49
-53.91
-56.07
-59.39
-62.74
-64.69
-63.89
-59.45
-51.4
-40.68
-28.89
-17.62
-7.99
-0.24
6.05
11.71
17.52
23.98
31.26
39.22
47.47
55.38
62.27
67.64
71.44
74.22
76.91
80.4
85.01
90.32
95.34
98.97
100.47
99.68
96.85
92.39
86.59
79.65
71.75
63.16
54.24
45.18
35.75
25.3
13.12
-0.99
-16.25
-30.88
-42.57
-49.41
-50.62
-46.8
-39.63
-31.07
-22.66
-15.22
-8.92
-3.67
0.54
3.55
5.18
5.52
4.91
3.83
2.62
1.3
-0.33
-2.49
-5.11
-7.76
-9.8
-10.69
-10.31
-9
-7.47
-6.45
-6.38
-7.29
-8.93
-10.96
-13.17
-15.53
-18.1
-20.88
-23.76
-26.59
-29.25
-31.66
-33.69
-34.99
-34.95
-32.84
-28.14
-20.78
-11.3
-0.66
10.02
19.83
28.14
34.67
39.37
42.36
43.85
44.13
43.54
42.36
40.79
38.93
36.8
34.43
31.89
29.37
27.05
25.05
23.39
21.95
20.51
18.8
16.62
13.87
10.62
6.97
2.99
-1.29
-5.93
-10.99
-16.47
-22.32
-28.44
-34.57
-40.32
-45.01
-47.75
-47.68
-44.21
-37.38
-27.88
-16.97
-6.04
3.7
11.49
17.07
20.58
22.36
22.81
22.32
21.25
19.9
18.51
17.17
15.89
14.61
13.33
12.1
11.05
10.32
9.92
9.7
9.4
8.72
7.46
5.59
3.18
0.38
-2.79
-6.4
-10.55
-15.31
-20.66
-26.51
-32.75
-39.23
-45.63
-51.34
-55.44
-56.87
-54.82
-49.03
-40
-28.89
-17.16
-6.16
3.23
10.62
16.05
19.75
21.92
22.69
22.17
20.55
18.25
15.86
13.94
12.82
12.44
12.45
12.38
11.97
11.2
10.33
9.56
8.87
8
6.54
4.22
1.08
-2.59
-6.4
-10.1
-13.73
-17.59
-22.09
-27.52
-33.9
-40.82
-47.53
-53.02
-56.26
-56.48
-53.44
-47.56
-39.86
-31.67
-24.17
-18.12
-13.58
-10.12
-7.12
-4.05
-0.7
2.81
6.21
9.27
11.89
14.16
16.3
18.57
21.1
23.79
26.31
28.21
29.15
29.02
27.99
26.37
24.52
22.63
20.76
18.93
17.09
15.22
13.2
10.73
7.39
2.69
-3.68
-11.7
-20.86
-30.23
-38.53
-44.41
-46.76
-45
-39.34
-30.64
-20.26
-9.61
0.11
8.23
14.56
19.27
22.68
25.03
26.46
27.03
26.85
26.1
25.03
23.85
22.64
21.29
19.67
17.74
15.66
13.79
12.48
11.91
11.89
11.96
11.56
10.3
8.11
5.23
2.08
-0.97
-3.67
-5.92
-7.71
-9.13
-10.36
-11.8
-13.97
-17.35
-22.04
-27.57
-32.88
-36.64
-37.7
-35.52
-30.36
-23.12
-15.03
-7.25
-0.59
4.6
8.29
10.64
11.88
12.23
11.88
11.06
10.06
9.2
8.83
9.24
10.56
12.78
15.66
18.81
21.73
23.96
25.16
25.2
24.16
22.29
19.89
17.24
14.49
11.64
8.49
4.74
0
-6.11
-13.93
-23.5
-34.4
-45.56
-55.4
-62.1
-64.21
-61.2
-53.61
-42.88
-30.83
-19.07
-8.67
-0.09
6.62
11.69
15.47
18.47
21.18
23.95
26.73
29.04
30.15
29.44
26.82
22.79
18.26
14.13
10.94
8.73
7.19
5.89
4.53
3.03
1.46
-0.14
-1.81
-3.69
-5.96
-8.7
-11.87
-15.38
-19.14
-23.1
-27.15
-30.98
-33.95
-35.19
-33.86
-29.45
-22.06
-12.4
-1.65
8.84
17.88
24.66
28.86
30.68
30.68
29.65
28.35
27.27
26.53
25.9
25.04
23.72
22
20.25
18.93
18.32
18.38
18.75
18.89
18.23
16.42
13.27
8.83
3.23
-3.3
-10.55
-18.24
-26.14
-34.01
-41.68
-48.97
-55.64
-61.29
-65.28
-66.92
-65.55
-60.88
-53.1
-42.93
-31.52
-20.1
-9.74
-1.1
5.6
10.5
13.96
16.28
17.66
18.16
17.81
16.68
15.07
13.38
12.02
11.25
11.02
11.05
10.98
10.57
9.76
8.61
7.22
5.57
3.59
1.21
-1.5
-4.41
-7.35
-10.33
-13.62
-17.61
-22.58
-28.34
-34.1
-38.67
-40.85
-39.97
-36.08
-29.9
-22.44
-14.53
-6.66
1.07
8.61
15.77
22.1
27.08
30.32
31.79
31.7
30.4
28.18
25.24
21.84
18.38
15.4
13.46
12.93
13.81
15.77
18.2
20.46
22.08
22.82
22.82
22.37
21.8
21.29
20.75
19.84
18.08
15.02
10.42
4.3
-2.88
-10.37
-17.04
-21.65
-23.07
-20.68
-14.7
-6.16
3.29
11.95
18.62
22.85
24.89
25.31
24.67
23.26
21.18
18.55
15.59
12.66
10.06
7.96
6.32
5
3.89
2.95
2.27
1.91
1.85
1.93
1.9
1.47
0.44
-1.24
-3.51
-6.15
-8.99
-11.95
-15.13
-18.75
-22.93
-27.51
-31.87
-35.04
-35.98
-33.93
-28.72
-20.83
-11.21
-1.03
8.65
17.01
23.54
28.02
30.46
31.08
30.18
28.23
25.63
22.78
19.95
17.31
15.01
13.12
11.67
10.61
9.83
9.2
8.58
7.87
7
5.9
4.51
2.75
0.5
-2.3
-5.65
-9.43
-13.43
-17.43
-21.25
-24.75
-27.78
-30.06
-31.07
-30.23
-27
-21.15
-12.94
-3.13
7.19
16.91
25.12
31.26
35.19
37.06
37.21
36.01
33.84
30.97
27.62
24
20.36
16.97
14.11
11.92
10.37
9.24
8.19
6.9
5.22
3.1
0.6
-2.18
-5.23
-8.52
-12
-15.59
-19.18
-22.8
-26.64
-31.02
-36.11
-41.71
-47.07
-51.07
-52.49
-50.53
-45.02
-36.5
-25.95
-14.53
-3.22
7.19
16.22
23.51
28.9
32.4
34.19
34.63
34.18
33.28
32.25
31.25
30.27
29.14
27.69
25.78
23.48
21.04
18.85
17.31
16.63
16.7
17.08
17.15
16.35
14.34
11.18
7.14
2.63
-2.09
-6.94
-12.11
-17.8
-24.08
-30.65
-36.79
-41.49
-43.75
-42.91
-38.9
-32.28
-24.05
-15.32
-6.98
0.45
6.77
11.91
15.8
18.26
19.19
18.65
16.94
14.56
12.02
9.71
7.8
6.3
5.12
4.14
3.3
2.59
2.02
1.63
1.36
1.08
0.58
-0.38
-1.94
-4.12
-6.84
-9.9
-13.11
-16.31
-19.47
-22.63
-25.9
-29.27
-32.55
-35.27
-36.72
-36.16
-33.03
-27.19
-19.07
-9.54
0.35
9.57
17.36
23.32
27.37
29.65
30.44
30.07
28.89
27.21
25.32
23.48
21.88
20.62
19.71
19.05
18.52
17.99
17.35
16.55
15.58
14.38
12.94
11.23
9.26
7.09
4.8
2.47
0.14
-2.25
-4.88
-7.99
-11.71
-16
-20.43
-24.25
-26.5
-26.3
-23.15
-17.13
-8.91
0.42
9.71
18.01
24.82
30.05
33.84
36.46
38.14
39.03
39.31
39.2
38.95
38.78
38.75
38.79
38.76
38.57
38.27
38.05
38.05
38.27
38.5
38.33
37.37
35.35
32.24
28.2
23.48
18.37
13.1
7.89
2.86
-1.95
-6.64
-11.33
-16.12
-20.93
-25.43
-29.17
-31.7
-32.77
-32.44
-31
-28.86
-26.4
-23.91
-21.6
-19.6
-17.99
-16.82
-16.02
-15.47
-15.04
-14.66
-14.37
-14.29
-14.55
-15.2
-16.19
-17.38
-18.53
-19.47
-20.11
-20.46
-20.66
-20.94
-21.55
-22.68
-24.35
-26.39
-28.46
-30.11
-31
-31.05
-30.47
-29.77
-29.51
-30.18
-31.93
-34.56
-37.55
-40.24
-41.99
-42.25
-40.64
-36.95
-31.09
-23.19
-13.67
-3.18
7.37
17.09
25.32
31.8
36.73
40.62
44.04
47.33
50.52
53.36
55.54
56.87
57.3
56.93
55.78
53.74
50.56
46.1
40.43
33.91
27.08
20.37
13.88
7.39
0.48
-7.13
-15.37
-23.91
-32.3
-40.28
-47.93
-55.47
-62.89
-69.69
-74.87
-77.22
-75.85
-70.55
-61.83
-50.72
-38.33
-25.65
-13.47
-2.53
6.45
12.83
16.26
16.92
15.4
12.56
9.15
5.72
2.55
-0.15
-2.18
-3.33
-3.44
-2.55
-0.91
1.08
3
4.48
5.3
5.33
4.55
3.02
0.82
-1.98
-5.33
-9.28
-13.85
-19.02
-24.53
-29.8
-33.94
-35.86
-34.63
-29.8
-21.62
-11.12
0.18
10.66
19.06
24.78
27.87
28.82
28.18
26.3
23.27
18.96
13.32
6.52
-0.86
-7.96
-13.83
-17.72
-19.37
-19.07
-17.46
-15.34
-13.37
-11.92
-11.15
-11.06
-11.6
-12.69
-14.12
-15.62
-16.91
-17.97
-19.12
-21.07
-24.59
-30.22
-37.91
-46.93
-55.88
-63.08
-66.92
-66.33
-61.02
-51.51
-38.99
-24.93
-10.7
2.64
14.46
24.46
32.53
38.67
42.98
45.74
47.38
48.39
49.2
49.96
50.48
50.36
49.11
46.49
42.54
37.6
32.05
26.13
19.77
12.81
5.24
-2.58
-9.95
-16.11
-20.72
-24.06
-26.91
-30.08
-34.05
-38.77
-43.91
-49.28
-54.97
-61.22
-67.95
-74.41
-79.2
-80.74
-78.01
-71.06
-60.99
-49.53
-38.29
-28.32
-20
-13.2
-7.67
-3.19
0.31
2.87
4.56
5.51
6.02
6.43
7.13
8.44
10.37
12.6
14.55
15.6
15.46
14.35
12.98
12.25
12.8
14.67
17.3
19.8
21.38
21.6
20.47
18.26
15.24
11.64
7.7
3.91
1.02
-0.03
1.54
5.95
12.7
20.7
28.62
35.35
40.26
43.2
44.34
43.95
42.33
39.79
36.7
33.44
30.35
27.6
25.27
23.33
21.85
20.91
20.58
20.77
21.16
21.28
20.71
19.23
16.95
14.24
11.55
9.15
7.01
4.74
1.76
-2.51
-8.36
-15.57
-23.34
-30.43
-35.45
-37.19
-35.06
-29.16
-20.32
-9.81
0.94
10.67
18.48
23.87
26.78
27.54
26.73
25.12
23.38
21.97
20.95
20.01
18.69
16.58
13.45
9.37
4.59
-0.52
-5.57
-10.15
-13.93
-16.62
-18.09
-18.46
-18.05
-17.35
-16.89
-17.14
-18.43
-20.92
-24.52
-28.81
-33.02
-36.17
-37.25
-35.56
-30.96
-23.83
-15.02
-5.5
3.91
12.62
20.25
26.53
31.18
33.87
34.42
32.88
29.6
25.2
20.46
16.13
12.8
10.79
10.14
10.63
11.89
13.45
14.84
15.69
15.75
14.97
13.42
11.26
8.64
5.63
2.19
-1.78
-6.39
-11.62
-17.27
-22.89
-27.79
-31.18
-32.32
-30.69
-26.27
-19.52
-11.4
-3.02
4.63
10.97
15.9
19.72
22.76
25.23
27.02
27.83
27.35
25.5
22.51
18.91
15.38
12.53
10.78
10.23
10.68
11.73
12.9
13.82
14.3
14.33
14.02
13.45
12.51
10.94
8.36
4.49
-0.69
-6.89
-13.58
-20.01
-25.37
-28.89
-29.91
-28.03
-23.32
-16.33
-8.06
0.27
7.59
13.18
16.93
19.11
20.26
20.78
20.9
20.58
19.66
18
15.63
12.81
10
7.75
6.47
6.33
7.11
8.3
9.34
9.8
9.56
8.72
7.49
5.96
4.01
1.44
-1.92
-6.12
-11.03
-16.41
-21.98
-27.38
-32.05
-35.23
-36.08
-33.97
-28.75
-20.89
-11.4
-1.56
7.52
15.05
20.83
24.99
27.84
29.58
30.22
29.6
27.65
24.59
21.02
17.78
15.63
14.88
15.33
16.31
17.1
17.15
16.31
14.69
12.55
10.07
7.36
4.48
1.46
-1.71
-5.16
-9.2
-14.24
-20.51
-27.79
-35.31
-41.81
-46.06
-47.16
-44.98
-40.09
-33.52
-26.31
-19.25
-12.83
-7.36
-3.24
-0.96
-0.95
-3.29
-7.59
-13.02
-18.74
-24.2
-29.36
-34.43
-39.59
-44.61
-48.91
-51.86
-53.15
-52.96
-51.73
-49.86
-47.46
-44.5
-41.16
-38.08
-36.23
-36.44
-38.8
-42.38
-45.49
-46.38
-43.75
-37.18
-26.86
-13.32
2.95
21.47
41.58
62.15
81.68
98.48
111.1
118.8
121.67
120.56
116.83
111.85
106.69
101.97
97.77
93.83
89.78
85.3
80.31
74.94
69.45
64.14
59.21
54.74
50.63
46.61
42.39
37.69
32.29
26.17
19.41
12.18
4.66
-2.98
-10.59
-18.06
-25.31
-32.28
-38.89
-45.01
-50.35
-54.45
-56.7
-56.58
-53.8
-48.49
-41.16
-32.6
-23.66
-15.11
-7.53
-1.27
3.6
7.34
10.45
13.51
16.94
20.94
25.46
30.47
36.09
42.66
50.51
59.7
69.77
79.74
88.41
94.7
97.99
98.26
95.93
91.74
86.5
80.93
75.61
70.96
67.26
64.65
63.15
62.55
62.38
61.9
60.29
57.03
52.1
46.14
40.08
34.71
30.15
25.81
20.72
14.08
5.75
-3.71
-13.32
-22.23
-30.06
-36.96
-43.35
-49.63
-55.87
-61.83
-67.12
-71.41
-74.54
-76.59
-77.75
-78.18
-78.03
-77.33
-76.11
-74.49
-72.7
-71.08
-70.01
-69.87
-70.89
-73.29
-77.24
-82.83
-90.03
-98.51
-107.64
-116.46
-123.8
-128.49
-129.54
-126.42
-119.17
-108.52
-95.7
-82.24
-69.55
-58.62
-49.86
-43.15
-38.08
-34.13
-30.86
-27.88
-24.84
-21.38
-17.22
-12.23
-6.55
-0.51
5.42
10.84
15.49
19.28
22.21
24.29
25.51
25.87
25.4
24.2
22.36
20
17.18
13.91
10.19
6.1
1.95
-1.67
-3.89
-3.83
-0.77
5.54
14.77
26.11
38.49
50.88
62.48
72.81
81.66
88.97
94.78
99.15
102.15
103.92
104.59
104.33
103.27
101.51
99.08
95.97
92.1
87.44
82.05
76.04
69.57
62.71
55.48
47.8
39.68
31.19
22.56
13.96
5.4
-3.27
-12.26
-21.66
-31.23
-40.48
-48.91
-56.22
-62.43
-67.71
-72.12
-75.48
-77.4
-77.61
-76.12
-73.23
-69.35
-64.8
-59.7
-54.01
-47.87
-41.68
-36.09
-31.71
-28.81
-27.13
-25.99
-24.59
-22.34
-19.16
-15.43
-11.8
-8.94
-7.24
-6.82
-7.66
-9.72
-13.04
-17.61
-23.36
-30.05
-37.41
-45.29
-53.71
-62.84
-72.75
-83.21
-93.58
-102.89
-109.98
-113.77
-113.45
-108.63
-99.42
-86.52
-71.17
-55
-39.66
-26.55
-16.51
-9.73
-5.92
-4.52
-4.88
-6.42
-8.56
-10.64
-11.88
-11.49
-8.88
-3.93
2.93
10.89
19.08
26.85
33.96
40.48
46.46
51.83
56.28
59.48
61.23
61.51
60.46
58.24
54.92
50.63
45.79
41.26
38.2
37.59
39.83
44.4
50.04
55.16
58.36
58.82
56.36
51.37
44.55
36.72
28.62
20.74
13.25
6.02
-1.24
-8.71
-16.28
-23.49
-29.69
-34.41
-37.53
-39.33
-40.38
-41.29
-42.58
-44.53
-47.21
-50.56
-54.38
-58.41
-62.44
-66.41
-70.42
-74.75
-79.74
-85.64
-92.38
-99.44
-105.83
-110.17
-110.98
-107.11
-98.11
-84.57
-68.03
-50.69
-34.77
-21.93
-12.9
-7.42
-4.64
-3.53
-3.33
-3.63
-4.29
-5.18
-5.98
-6.27
-5.63
-3.93
-1.41
1.39
3.9
5.67
6.57
6.78
6.6
6.31
5.99
5.48
4.37
2.2
-1.43
-6.67
-13.32
-20.85
-28.38
-34.88
-39.24
-40.57
-38.32
-32.52
-23.79
-13.27
-2.27
8.07
16.96
24.12
29.62
33.64
36.39
37.99
38.5
38
36.59
34.5
32.05
29.71
27.89
26.88
26.66
26.84
26.86
26.19
24.64
22.4
19.96
17.78
16.1
14.69
13.03
10.39
6.15
-0.03
-8.01
-17.11
-26.06
-33.3
-37.25
-36.79
-31.57
-22.12
-9.69
4.11
17.75
30.08
40.51
49.08
56.33
63.06
69.95
77.19
84.32
90.35
94.27
95.6
94.71
92.6
90.44
88.89
87.75
86.21
83.35
78.76
72.88
66.7
61.2
56.73
52.81
48.37
42.39
34.36
24.52
13.63
2.59
-7.86
-17.16
-24.63
-29.36
-30.3
-26.71
-18.69
-7.43
5.08
16.64
25.57
31.12
33.44
33.25
31.28
28.1
24.02
19.29
14.26
9.36
4.94
1.19
-1.98
-4.78
-7.43
-10
-12.44
-14.67
-16.67
-18.58
-20.6
-22.93
-25.77
-29.32
-33.8
-39.43
-46.41
-54.7
-63.96
-73.5
-82.24
-88.94
-92.3
-91.33
-85.56
-75.33
-61.8
-46.71
-31.97
-19.16
-9.19
-2.25
2.01
4.14
4.67
4.05
2.67
1
-0.39
-0.94
-0.27
1.62
4.33
7.19
9.55
11
11.5
11.33
10.82
10.15
9.29
7.9
5.6
2.02
-3.09
-9.7
-17.41
-25.36
-32.23
-36.48
-36.83
-32.66
-24.35
-13.16
-0.85
10.97
21.26
29.74
36.7
42.67
48.02
52.85
57.08
60.6
63.49
66
68.47
71.12
73.97
76.89
79.62
81.96
83.7
84.6
84.34
82.64
79.3
74.34
67.91
60.21
51.41
41.68
31.23
20.39
9.55
-1.07
-11.48
-21.92
-32.55
-43.06
-52.56
-59.65
-62.93
-61.61
-55.87
-46.9
-36.48
-26.45
-18.22
-12.52
-9.41
-8.53
-9.33
-11.24
-13.83
-16.83
-20.14
-23.83
-28.02
-32.66
-37.36
-41.47
-44.21
-45.04
-44.01
-41.8
-39.48
-38.1
-38.23
-39.77
-42.06
-44.27
-45.74
-46.35
-46.48
-46.92
-48.48
-51.72
-56.59
-62.4
-67.89
-71.63
-72.42
-69.69
-63.51
-54.57
-43.82
-32.25
-20.74
-10.05
-0.88
6.27
11.14
13.88
14.99
15.12
14.82
14.39
13.91
13.38
12.86
12.53
12.6
13.18
14.18
15.34
16.3
16.74
16.46
15.44
13.75
11.51
8.77
5.55
1.77
-2.68
-7.9
-13.9
-20.67
-27.95
-35.27
-41.83
-46.53
-48.27
-46.19
-40.11
-30.6
-18.96
-6.84
4.24
13.18
19.56
23.42
25.1
25.01
23.48
20.76
17.11
12.88
8.57
4.77
2.09
0.93
1.42
3.32
6.15
9.26
12.04
14
14.84
14.45
12.88
10.34
7.19
3.89
0.87
-1.65
-3.82
-6.19
-9.44
-14.04
-19.82
-25.8
-30.39
-31.87
-29.09
-21.84
-10.93
2.06
15.38
27.52
37.5
44.89
49.7
52.16
52.67
51.72
49.78
47.31
44.56
41.65
38.53
35.24
32.07
29.62
28.69
29.97
33.7
39.48
46.41
53.35
59.48
64.44
68.37
71.67
74.71
77.65
80.36
82.61
84.13
84.67
83.94
81.7
77.82
72.54
66.55
60.9
56.75
54.93
55.69
58.65
62.92
67.41
71.04
72.98
72.75
70.3
66.01
60.62
55.03
50.03
46.03
42.98
40.52
38.17
35.49
32.26
28.4
23.94
18.96
13.62
8.17
2.84
-2.16
-6.79
-11.16
-15.48
-19.91
-24.39
-28.6
-32.13
-34.59
-36
-36.83
-37.89
-39.87
-42.93
-46.28
-48.36
-47.32
-41.67
-30.79
-15.12
4.14
25.43
47.21
68.16
87.1
102.93
114.66
121.54
123.27
120.16
113.12
103.49
92.72
82.05
72.24
63.49
55.5
47.73
39.68
31.1
22.08
12.99
4.28
-3.65
-10.57
-16.39
-21.15
-24.92
-27.88
-30.21
-32.13
-33.83
-35.43
-36.96
-38.4
-39.71
-40.85
-41.79
-42.48
-42.85
-42.87
-42.6
-42.18
-41.82
-41.68
-41.84
-42.3
-43.04
-44.13
-45.83
-48.5
-52.47
-57.96
-64.91
-73.16
-82.45
-92.66
-103.72
-115.5
-127.56
-139.09
-148.94
-155.89
-159.03
-158.06
-153.47
-146.33
-138.06
-129.95
-122.91
-117.41
-113.63
-111.61
-111.41
-112.99
-115.95
-119.31
-121.52
-120.82
-115.78
-105.86
-91.68
-74.74
-57.02
-40.24
-25.58
-13.45
-3.79
3.72
9.34
13.21
15.39
16.03
15.42
14.03
12.49
11.46
11.48
12.85
15.56
19.24
23.25
26.91
29.65
31.19
31.55
30.93
29.59
27.69
25.29
22.38
18.89
14.76
9.86
4.11
-2.41
-9.29
-15.63
-20.18
-21.63
-19.16
-12.74
-3.26
7.75
18.63
28.08
35.42
40.57
43.84
45.6
46.06
45.31
43.35
40.37
36.72
32.97
29.68
27.23
25.67
24.76
24.09
23.3
22.24
20.91
19.42
17.8
15.99
13.85
11.28
8.16
4.42
-0.08
-5.51
-12.01
-19.53
-27.55
-35.09
-40.84
-43.49
-42.2
-36.84
-28.09
-17.27
-5.9
4.67
13.56
20.42
25.31
28.48
30.19
30.55
29.66
27.63
24.74
21.46
18.36
15.96
14.53
14.03
14.14
14.38
14.35
13.82
12.76
11.28
9.51
7.52
5.28
2.65
-0.53
-4.47
-9.38
-15.37
-22.3
-29.62
-36.38
-41.27
-43.05
-40.91
-34.76
-25.35
-14.01
-2.3
8.42
17.21
23.74
28.04
30.37
31.02
30.23
28.24
25.31
21.86
18.37
15.33
13.09
11.67
10.84
10.18
9.34
8.18
6.89
5.85
5.42
5.73
6.63
7.77
8.67
8.96
8.35
6.62
3.67
-0.45
-5.26
-9.79
-12.62
-12.27
-7.66
1.44
14.31
29.55
45.56
60.92
74.63
86.09
94.96
101.01
104.15
104.43
102.16
97.8
91.96
85.22
78.13
71.11
64.46
58.27
52.48
46.82
40.96
34.58
27.53
19.89
11.93
4
-3.58
-10.62
-17.14
-23.27
-29.17
-35.04
-40.99
-47.05
-53.04
-58.4
-62.18
-63.2
-60.32
-52.89
-41.13
-26.02
-9.08
8.21
24.86
40.5
55.19
69
81.77
93.15
102.85
110.85
117.43
122.97
127.63
131.19
133.23
133.37
131.54
128.04
123.32
117.7
111.26
103.86
95.37
85.85
75.56
64.81
53.82
42.59
31
18.9
6.19
-7.09
-20.76
-34.45
-47.69
-60
-70.96
-80.35
-87.98
-93.64
-96.98
-97.58
-95.21
-90.08
-82.95
-74.84
-66.72
-59.13
-52.16
-45.66
-39.57
-34.2
-30.07
-27.6
-26.76
-26.98
-27.46
-27.47
-26.75
-25.48
-24.23
-23.66
-24.42
-27.03
-31.97
-39.52
-49.68
-62.05
-75.79
-89.86
-103.29
-115.44
-126.03
-134.88
-141.59
-145.28
-144.8
-139.16
-128.14
-112.68
-94.68
-76.45
-59.99
-46.34
-35.6
-27.22
-20.56
-15.28
-11.47
-9.36
-9.05
-10.25
-12.34
-14.53
-16.17
-16.94
-16.86
-16.19
-15.31
-14.59
-14.29
-14.53
-15.33
-16.64
-18.35
-20.45
-22.9
-25.73
-28.94
-32.53
-36.45
-40.63
-44.94
-49.1
-52.64
-54.85
-54.9
-52.08
-46.1
-37.24
-26.4
-14.83
-3.79
5.74
13.18
18.35
21.29
22.17
21.22
18.79
15.38
11.6
8.09
5.42
3.91
3.63
4.37
5.72
7.27
8.72
10.03
11.45
13.35
16.04
19.52
23.41
26.98
29.38
29.95
28.33
24.53
18.84
11.84
4.35
-2.5
-7.38
-9.05
-6.72
-0.36
9.19
20.43
31.66
41.45
48.95
53.97
56.79
57.92
57.87
57.03
55.63
53.8
51.6
49.08
46.4
43.77
41.46
39.73
38.7
38.25
38.07
37.71
36.75
34.96
32.35
29.12
25.55
21.9
18.25
14.53
10.49
5.8
0.18
-6.44
-13.74
-20.94
-26.88
-30.32
-30.29
-26.4
-19.06
-9.36
1.25
11.35
19.86
26.26
30.51
32.89
33.84
33.73
32.83
31.29
29.2
26.67
23.94
21.27
19.01
17.45
16.69
16.65
17.01
17.38
17.38
16.8
15.59
13.81
11.59
8.97
6.02
2.73
-0.89
-4.94
-9.59
-15.03
-21.24
-27.78
-33.67
-37.57
-38.2
-34.86
-27.7
-17.74
-6.53
4.38
13.8
21.17
26.42
29.77
31.46
31.65
30.45
28.07
24.9
21.51
18.45
16.06
14.42
13.34
12.52
11.76
10.95
10.06
9.07
7.88
6.38
4.5
2.25
-0.29
-3.08
-6.18
-9.75
-13.99
-19.02
-24.74
-30.79
-36.49
-40.88
-42.91
-41.69
-36.81
-28.54
-17.83
-6.04
5.35
15.22
22.96
28.54
32.33
34.9
36.64
37.73
38.08
37.44
35.49
32
26.88
20.2
12.28
3.65
-4.97
-12.82
-19.26
-24
-27.18
-29.34
-31.21
-33.42
-36.31
-39.91
-44.07
-48.59
-53.45
-58.7
-64.3
-69.81
-74.38
-76.84
-76.12
-71.66
-63.68
-53.11
-41.31
-29.63
-19.08
-10.23
-3.24
1.89
5.28
7.04
7.38
6.58
5.05
3.2
1.42
-0.01
-0.96
-1.41
-1.44
-1.2
-0.83
-0.4
0.12
0.89
2.14
3.91
6.02
7.98
9.24
9.43
8.51
6.76
4.53
2.06
-0.52
-2.99
-4.78
-4.93
-2.42
3.28
11.81
21.95
32.08
40.8
47.43
52
54.94
56.61
57.06
56.1
53.52
49.4
44.18
38.54
33.19
28.67
25.24
22.89
21.36
20.25
19.07
17.4
14.95
11.67
7.78
3.59
-0.59
-4.63
-8.64
-12.96
-18.02
-24.2
-31.61
-39.98
-48.58
-56.31
-61.89
-64.24
-62.74
-57.52
-49.43
-39.81
-30.16
-21.72
-15.16
-10.52
-7.29
-4.6
-1.59
2.34
7.4
13.41
19.98
26.73
33.42
39.97
46.33
52.33
57.67
62.02
65.09
66.85
67.4
66.95
65.63
63.44
60.35
56.33
51.46
45.89
39.74
33.12
26.19
19.32
13.16
8.58
6.38
7.03
10.44
16.02
22.78
29.65
35.68
40.24
43.03
44.06
43.61
42.06
39.76
36.88
33.51
29.66
25.51
21.44
17.94
15.41
13.94
13.15
12.3
10.56
7.37
2.7
-2.93
-8.65
-13.61
-17.33
-19.87
-21.84
-24.13
-27.61
-32.84
-39.86
-48.08
-56.35
-63.11
-66.71
-65.9
-60.22
-50.2
-37.27
-23.28
-9.95
1.57
10.82
17.91
23.13
26.68
28.55
28.55
26.59
22.74
17.38
11.1
4.6
-1.4
-6.26
-9.55
-11.09
-11.03
-9.83
-8.12
-6.51
-5.41
-4.89
-4.76
-4.75
-4.63
-4.39
-4.15
-4.13
-4.45
-5.06
-5.66
-5.73
-4.6
-1.66
3.51
10.92
20.16
30.48
41.02
50.94
59.64
66.75
72.04
75.3
76.15
74.13
68.84
60.18
48.59
35.1
21.09
8.02
-3.04
-11.58
-17.71
-21.96
-25.02
-27.5
-29.85
-32.33
-35.04
-37.98
-40.96
-43.73
-46.07
-47.91
-49.44
-51.06
-53.33
-56.71
-61.32
-66.81
-72.28
-76.48
-78.1
-76.18
-70.42
-61.36
-50.22
-38.58
-27.98
-19.43
-13.31
-9.43
-7.26
-6.21
-5.86
-5.96
-6.36
-7
-7.85
-8.9
-10.1
-11.35
-12.44
-13.01
-12.77
-11.64
-9.92
-8.2
-7.15
-7.2
-8.38
-10.35
-12.61
-14.72
-16.58
-18.37
-20.48
-23.32
-27.12
-31.8
-36.96
-41.83
-45.44
-46.81
-45.18
-40.32
-32.6
-23
-12.77
-3.19
4.82
10.8
14.72
16.91
17.85
18.05
18
18.03
18.27
18.66
19
19.09
18.91
18.62
18.5
18.76
19.36
20.02
20.33
20.04
19.12
17.78
16.36
15.12
14.17
13.44
12.76
11.83
10.24
7.54
3.37
-2.3
-8.96
-15.5
-20.45
-22.42
-20.56
-14.86
-6.17
4.13
14.51
23.64
30.65
35.17
37.33
37.53
36.33
34.19
31.43
28.14
24.35
20.15
15.82
11.92
9.05
7.63
7.73
8.94
10.51
11.6
11.5
9.85
6.71
2.41
-2.6
-7.88
-13.16
-18.34
-23.49
-28.8
-34.63
-41.38
-49.31
-58.24
-67.31
-75.01
-79.49
-79.19
-73.47
-62.89
-49.08
-34.17
-20.14
-8.3
0.77
7.14
11.09
12.95
12.99
11.49
8.86
5.74
2.82
0.73
-0.21
-0.04
0.9
2.14
3.3
4.18
4.78
5.12
5.17
4.77
3.73
1.91
-0.68
-3.91
-7.63
-11.75
-16.24
-21.18
-26.62
-32.62
-39.05
-45.47
-51.07
-54.8
-55.66
-53.1
-47.29
-39.09
-29.8
-20.6
-12.31
-5.3
0.33
4.48
7.02
7.84
7.11
5.37
3.39
1.94
1.5
2.19
3.86
6.27
9.27
12.75
16.57
20.42
23.85
26.39
27.78
28.08
27.65
26.95
26.34
25.81
25.05
23.51
20.65
16.12
9.87
2.21
-6.2
-14.41
-21.3
-25.74
-26.95
-24.65
-19.24
-11.64
-3.01
5.59
13.48
20.33
26.11
30.86
34.62
37.41
39.3
40.48
41.24
41.93
42.82
44.11
45.89
48.18
50.9
53.89
56.87
59.51
61.49
62.66
63.04
62.83
62.27
61.55
60.76
59.85
58.73
57.32
55.51
53.24
50.51
47.51
44.69
42.73
42.35
44.03
47.7
52.65
57.68
61.4
62.66
60.85
56.06
48.97
40.66
32.32
25.01
19.47
16.02
14.55
14.64
15.69
17.11
18.45
19.48
20.09
20.28
19.98
19.06
17.38
14.86
11.66
8.1
4.58
1.39
-1.43
-4.12
-7.05
-10.49
-14.49
-18.84
-23.2
-27.18
-30.42
-32.44
-32.7
-30.67
-26.08
-19.2
-10.93
-2.6
4.49
9.57
12.51
13.72
13.64
12.45
9.95
5.87
0.22
-6.48
-13.33
-19.4
-24.15
-27.52
-29.87
-31.64
-33.19
-34.75
-36.38
-38.16
-40.18
-42.41
-44.8
-47.23
-49.7
-52.37
-55.53
-59.56
-64.7
-71.02
-78.32
-86.09
-93.55
-99.65
-103.29
-103.52
-99.94
-92.85
-83.23
-72.43
-61.79
-52.29
-44.44
-38.37
-34.02
-31.31
-30.11
-30.23
-31.29
-32.8
-34.21
-35.08
-35.22
-34.71
-33.84
-32.98
-32.42
-32.23
-32.26
-32.15
-31.48
-30.03
-27.86
-25.35
-23.03
-21.42
-20.84
-21.38
-22.88
-24.95
-26.99
-28.18
-27.59
-24.42
-18.26
-9.25
1.76
13.5
24.62
34.01
41.13
45.91
48.68
49.81
49.64
48.37
46.16
43.23
39.89
36.51
33.48
31
29.12
27.72
26.57
25.43
24.12
22.5
20.51
18.12
15.38
12.32
9.02
5.51
1.77
-2.31
-6.89
-12.14
-18.01
-24.11
-29.62
-33.4
-34.32
-31.68
-25.47
-16.42
-5.8
5.02
14.91
23.2
29.63
34.17
36.95
38.1
37.83
36.4
34.2
31.62
29.08
26.89
25.3
24.41
24.23
24.61
25.28
25.88
26.08
25.63
24.45
22.64
20.41
18
15.57
13.14
10.58
7.56
3.68
-1.36
-7.55
-14.38
-20.81
-25.54
-27.35
-25.58
-20.46
-13.01
-4.77
2.72
8.38
11.8
13.18
13.1
12.2
10.95
9.54
7.98
6.18
4.19
2.18
0.44
-0.73
-1.19
-1.04
-0.6
-0.28
-0.42
-1.18
-2.47
-4.07
-5.8
-7.62
-9.68
-12.29
-15.74
-20.29
-26.03
-32.98
-40.97
-49.63
-58.3
-65.97
-71.49
-73.81
-72.27
-66.97
-58.66
-48.59
-38.12
-28.35
-19.94
-13.11
-7.81
-3.87
-1.12
0.6
1.57
2.22
3.04
4.52
6.88
10.1
13.91
17.96
22
25.89
29.63
33.17
36.39
39.09
40.97
41.83
41.52
40.06
37.51
33.95
29.51
24.27
18.33
11.84
5.09
-1.39
-6.77
-10.06
-10.37
-7.27
-1.05
7.34
16.49
25.02
31.97
36.99
40.2
41.98
42.69
42.52
41.52
39.72
37.23
34.27
31.13
28.07
25.33
23.09
21.48
20.57
20.32
20.6
21.1
21.45
21.26
20.24
18.25
15.41
11.99
8.42
5.07
2.16
-0.39
-2.9
-5.9
-9.9
-15.13
-21.38
-27.87
-33.45
-36.87
-37.21
-34.17
-28.19
-20.3
-11.81
-3.91
2.58
7.32
10.35
11.9
12.24
11.57
10.07
7.95
5.45
2.85
0.37
-1.92
-3.97
-5.78
-7.19
-8
-8
-7.21
-5.97
-4.88
-4.58
-5.47
-7.49
-10.24
-13.14
-15.77
-17.99
-19.93
-21.86
-23.99
-26.46
-29.27
-32.13
-34.49
-35.46
-34.03
-29.32
-21.06
-9.83
3.04
15.82
26.97
35.54
41.27
44.46
45.64
45.36
44.05
42.05
39.64
37.01
34.24
31.38
28.5
25.73
23.27
21.29
19.78
18.48
17
14.98
12.27
9.04
5.6
2.23
-0.96
-4.07
-7.35
-10.96
-14.91
-19.15
-23.55
-28.05
-32.59
-36.91
-40.46
-42.44
-42.04
-38.8
-32.94
-25.32
-17.2
-9.81
-3.91
0.32
3.25
5.45
7.37
9.11
10.44
10.92
10.19
8.18
5.18
1.78
-1.29
-3.42
-4.27
-3.84
-2.47
-0.68
0.93
1.83
1.74
0.69
-1.04
-2.96
-4.67
-5.99
-7.11
-8.44
-10.45
-13.41
-17.28
-21.58
-25.49
-28.05
-28.29
-25.6
-19.87
-11.57
-1.69
8.57
18.1
26.19
32.69
37.9
42.38
46.63
50.83
54.77
57.9
59.61
59.48
57.46
54.03
49.95
46.11
43.17
41.35
40.36
39.51
38.01
35.22
30.93
25.34
18.97
12.39
6.02
0.02
-5.66
-11.11
-16.49
-21.88
-27.4
-32.99
-38.43
-43.1
-46.11
-46.61
-44.15
-39.03
-32.34
-25.64
-20.4
-17.59
-17.42
-19.46
-22.97
-27.2
-31.61
-35.89
-40.02
-44.05
-48.08
-52.1
-55.93
-59.2
-61.45
-62.22
-61.3
-58.83
-55.28
-51.35
-47.77
-45.08
-43.51
-43.03
-43.39
-44.22
-45.21
-46.1
-46.81
-47.38
-47.95
-48.71
-49.74
-50.8
-51.26
-50.17
-46.55
-39.83
-30.18
-18.55
-6.41
4.76
13.94
20.7
25.17
27.69
28.64
28.27
26.81
24.57
21.96
19.47
17.5
16.26
15.78
15.94
16.53
17.31
18.01
18.4
18.26
17.48
16.11
14.3
12.27
10.17
8.06
5.74
2.93
-0.73
-5.48
-11.14
-17.1
-22.31
-25.57
-25.84
-22.72
-16.46
-7.91
1.8
11.69
21.15
29.98
38.28
46.18
53.7
60.67
66.79
71.7
75.15
77
77.23
75.92
73.17
69.05
63.66
57.1
49.6
41.44
32.89
24.16
15.28
6.21
-3.15
-12.82
-22.74
-32.7
-42.46
-51.73
-60.26
-67.86
-74.35
-79.49
-82.94
-84.28
-83.05
-78.94
-71.9
-62.25
-50.6
-37.72
-24.37
-11.19
1.32
12.77
22.83
31.3
38.18
43.69
48.1
51.42
53.26
52.87
49.46
42.78
33.45
22.88
12.82
4.57
-1.44
-5.75
-9.49
-13.75
-19.07
-25.43
-32.31
-39.18
-45.67
-51.67
-57.12
-61.75
-64.84
-65.32
-62.01
-54.17
-41.91
-26.34
-9.36
6.88
20.6
30.84
37.57
41.33
42.78
42.26
39.73
35.01
28.19
19.94
11.43
3.94
-1.75
-5.69
-8.81
-12.4
-17.52
-24.42
-32.46
-40.4
-46.88
-51.02
-52.68
-52.59
-52.21
-53.54
-58.61
-68.94
-84.87
-105.12
-126.82
-146.09
-159.06
-162.97
-156.88
-141.74
-119.9
-94.17
-67.08
-40.44
-15.33
7.65
28.13
45.84
60.62
72.49
81.69
88.6
93.66
97.39
100.29
102.9
105.66
108.8
112.32
116.06
119.82
123.47
126.87
129.82
131.88
132.45
130.82
126.54
119.58
110.44
99.97
89.16
78.98
70.21
63.43
58.91
56.58
56.08
56.8
58.16
59.66
61
61.9
61.96
60.64
57.36
51.76
44.01
34.84
25.4
16.8
9.67
3.98
-0.8
-5.46
-10.55
-16.26
-22.34
-28.45
-34.43
-40.5
-47.26
-55.29
-64.71
-74.87
-84.41
-91.81
-96.03
-97.11
-96.12
-94.66
-94.14
-95.18
-97.48
-100.26
-102.73
-104.43
-105.17
-104.7
-102.42
-97.41
-88.81
-76.29
-60.41
-42.59
-24.72
-8.55
4.75
14.77
21.77
26.31
28.95
30.03
29.68
28
25.12
21.34
17.06
12.66
8.48
4.75
1.64
-0.8
-2.66
-4.16
-5.6
-7.25
-9.27
-11.68
-14.37
-17.21
-20.21
-23.46
-27.19
-31.6
-36.76
-42.5
-48.27
-53.14
-55.9
-55.36
-50.74
-41.92
-29.62
-15.16
-0.1
14.21
26.86
37.4
45.68
51.69
55.36
56.68
55.73
52.89
48.79
44.21
39.94
36.55
34.31
33.13
32.72
32.68
32.68
32.46
31.9
30.94
29.54
27.71
25.45
22.77
19.6
15.84
11.34
5.99
-0.12
-6.61
-12.79
-17.76
-20.62
-20.72
-17.82
-12.21
-4.67
3.69
11.73
18.48
23.4
26.37
27.61
27.5
26.39
24.59
22.3
19.69
16.97
14.39
12.22
10.67
9.81
9.56
9.68
9.93
10.02
9.81
9.26
8.37
7.13
5.52
3.46
0.94
-2.03
-5.35
-8.92
-12.74
-16.9
-21.53
-26.5
-31.4
-35.38
-37.45
-36.75
-32.9
-26.2
-17.55
-8.14
0.86
8.6
14.58
18.68
21
21.81
21.49
20.49
19.24
18.07
17.19
16.71
16.62
16.95
17.68
18.8
20.23
21.76
23.14
24.13
24.55
24.35
23.53
22.19
20.37
18.09
15.35
12.08
8.24
3.73
-1.54
-7.59
-14.19
-20.79
-26.46
-30.12
-30.79
-28.04
-22.17
-14.2
-5.49
2.63
9.25
14.07
17.21
19
19.74
19.61
18.65
16.93
14.65
12.1
9.63
7.61
6.26
5.69
5.85
6.55
7.5
8.42
9.04
9.2
8.8
7.84
6.35
4.38
1.95
-0.89
-4.13
-7.81
-12.08
-17.04
-22.64
-28.45
-33.63
-37.05
-37.64
-34.78
-28.64
-20.08
-10.44
-1.11
6.89
13.04
17.33
20.01
21.36
21.56
20.67
18.77
16.03
12.82
9.61
6.92
5.13
4.4
4.64
5.56
6.74
7.78
8.36
8.35
7.76
6.73
5.39
3.82
1.96
-0.38
-3.39
-7.29
-12.1
-17.63
-23.4
-28.63
-32.32
-33.56
-31.7
-26.73
-19.34
-10.76
-2.41
4.56
9.61
12.79
14.57
15.49
15.89
15.88
15.39
14.35
12.85
11.1
9.43
8.08
7.17
6.66
6.38
6.16
5.86
5.46
5.02
4.56
4
3.15
1.71
-0.55
-3.75
-7.83
-12.65
-17.99
-23.57
-28.98
-33.58
-36.55
-37.09
-34.7
-29.39
-21.8
-12.99
-4.16
3.65
9.77
13.97
16.36
17.26
17.07
16.22
15.07
13.9
12.89
12.08
11.43
10.9
10.42
9.99
9.59
9.23
8.79
8.08
6.89
5.05
2.56
-0.41
-3.57
-6.69
-9.64
-12.56
-15.73
-19.41
-23.69
-28.28
-32.52
-35.45
-36.11
-33.76
-28.2
-19.85
-9.65
1.12
11.27
19.87
26.52
31.16
34.04
35.47
35.76
35.18
34
32.52
31.05
29.85
29.06
28.71
28.67
28.79
28.95
29.1
29.25
29.36
29.33
28.92
27.88
26.03
23.36
20.06
16.43
12.8
9.39
6.25
3.21
-0.02
-3.78
-8.21
-13.1
-17.76
-21.14
-22.1
-19.84
-14.27
-6.07
3.51
13.02
21.26
27.55
31.7
33.92
34.54
33.92
32.36
30.09
27.29
24.11
20.7
17.19
13.75
10.52
7.63
5.1
2.83
0.59
-1.89
-4.86
-8.41
-12.48
-16.84
-21.27
-25.66
-30.04
-34.56
-39.42
-44.73
-50.47
-56.5
-62.5
-68.05
-72.53
-75.2
-75.33
-72.45
-66.5
-57.95
-47.71
-36.84
-26.32
-16.83
-8.77
-2.26
2.74
6.34
8.75
10.27
11.24
12
12.81
13.79
14.95
16.19
17.44
18.66
19.81
20.87
21.78
22.42
22.66
22.36
21.44
19.88
17.81
15.41
12.92
10.51
8.15
5.63
2.63
-1.02
-5.11
-8.96
-11.57
-11.94
-9.47
-4.18
3.23
11.68
19.95
26.98
32.03
34.8
35.39
34.19
31.73
28.48
24.72
20.48
15.73
10.52
5.18
0.25
-3.66
-6.19
-7.36
-7.58
-7.45
-7.51
-8.03
-9.01
-10.33
-11.88
-13.64
-15.7
-18.12
-20.9
-23.95
-27.18
-30.58
-34.18
-37.9
-41.4
-44
-44.84
-43.11
-38.46
-31.09
-21.81
-11.76
-2.09
6.29
12.91
17.68
20.83
22.7
23.61
23.76
23.26
22.16
20.54
18.58
16.57
14.8
13.5
12.77
12.53
12.54
12.53
12.22
11.44
10.16
8.46
6.49
4.39
2.22
-0.05
-2.54
-5.41
-8.87
-13.07
-18.05
-23.57
-29.01
-33.4
-35.59
-34.62
-30.1
-22.44
-12.75
-2.54
6.79
14.28
19.62
22.96
24.72
25.27
24.83
23.45
21.21
18.28
15
11.85
9.28
7.58
6.83
6.86
7.37
8.01
8.5
8.66
8.4
7.65
6.4
4.6
2.29
-0.46
-3.48
-6.62
-9.85
-13.34
-17.36
-22.18
-27.69
-33.31
-37.91
-40.19
-39.11
-34.35
-26.44
-16.71
-6.72
2.17
9.15
14.1
17.31
19.21
20.05
19.85
18.51
16.04
12.69
8.99
5.61
3.08
1.68
1.31
1.62
2.19
2.67
2.9
2.78
2.29
1.4
0.07
-1.75
-4.04
-6.74
-9.87
-13.45
-17.57
-22.2
-27
-31.3
-34.1
-34.43
-31.7
-25.98
-18.06
-9.11
-0.36
7.33
13.56
18.3
21.69
23.76
24.47
23.74
21.63
18.44
14.67
10.92
7.75
5.52
4.32
4
4.23
4.65
4.97
5.05
4.86
4.43
3.77
2.82
1.44
-0.49
-3.14
-6.63
-11
-16.11
-21.53
-26.49
-29.99
-31.06
-29.11
-24.14
-16.82
-8.22
0.52
8.47
15.1
20.16
23.63
25.56
26.03
25.21
23.36
20.86
18.15
15.65
13.65
12.33
11.68
11.52
11.54
11.46
11.05
10.23
9.07
7.71
6.27
4.81
3.24
1.34
-1.2
-4.64
-9.07
-14.31
-19.78
-24.62
-27.87
-28.71
-26.75
-22.08
-15.28
-7.22
1.21
9.22
16.28
22.12
26.71
30.13
32.5
33.87
34.24
33.57
31.84
29.19
25.87
22.24
18.66
15.39
12.5
9.9
7.39
4.82
2.08
-0.83
-3.87
-7.02
-10.28
-13.67
-17.2
-20.88
-24.7
-28.67
-32.82
-37.12
-41.3
-44.8
-46.72
-45.98
-41.71
-33.58
-22.03
-8.27
6.19
19.95
32.21
42.87
52.3
60.97
69.13
76.69
83.41
89.14
93.98
98.35
102.8
107.85
113.9
121.16
129.67
139.26
149.48
159.55
168.4
174.89
177.89
176.56
170.5
159.85
145.23
127.59
107.93
87.08
65.59
43.83
22.14
1.02
-18.88
-36.9
-52.58
-65.81
-76.85
-86.12
-94.01
-100.74
-106.31
-110.64
-113.63
-115.31
-115.89
-115.64
-114.83
-113.61
-111.99
-109.88
-107.23
-104.04
-100.39
-96.39
-92.13
-87.76
-83.48
-79.61
-76.53
-74.54
-73.72
-73.98
-75.02
-76.51
-78.09
-79.46
-80.3
-80.24
-78.98
-76.28
-72.15
-66.74
-60.39
-53.43
-46.28
-39.34
-33.06
-27.73
-23.5
-20.18
-17.4
-14.72
-11.81
-8.61
-5.28
-2.11
0.65
2.87
4.47
5.36
5.43
4.6
3.01
1.05
-0.67
-1.54
-1.28
-0.04
1.67
3.21
4.13
4.33
4.19
4.36
5.59
8.51
13.34
19.68
26.36
31.6
33.42
30.37
22.14
9.91
-3.98
-16.78
-26.25
-31.35
-32.28
-30.2
-26.54
-22.48
-18.74
-15.63
-13.22
-11.49
-10.35
-9.61
-8.97
-8.12
-6.86
-5.23
-3.51
-2.07
-1.18
-0.84
-0.78
-0.58
0.15
1.52
3.35
5.21
6.58
7.01
6.3
4.55
2.07
-0.72
-3.48
-6.01
-8.36
-10.69
-13.12
-15.6
-17.78
-19.12
-19
-16.96
-12.9
-7.12
-0.25
6.89
13.52
19.11
23.42
26.47
28.41
29.4
29.51
28.82
27.45
25.63
23.65
21.8
20.3
19.23
18.56
18.2
17.98
17.73
17.26
16.41
15.06
13.17
10.76
7.87
4.62
1.1
-2.6
-6.35
-10.13
-14.03
-18.19
-22.77
-27.68
-32.5
-36.47
-38.71
-38.5
-35.53
-30.04
-22.69
-14.46
-6.33
0.87
6.6
10.67
13.19
14.47
14.96
15.09
15.21
15.56
16.22
17.19
18.39
19.73
21.19
22.84
24.82
27.35
30.56
34.48
38.96
43.72
48.4
52.6
55.93
58.14
59.28
59.73
60.18
61.34
63.57
66.56
69.38
70.78
69.76
66
60.04
53
46.17
40.52
36.58
34.5
34.22
35.61
38.46
42.33
46.51
50.12
52.35
52.74
51.28
48.33
44.46
40.25
36.13
32.43
29.37
26.98
25.16
23.61
21.95
19.9
17.36
14.44
11.35
8.16
4.73
0.74
-4.11
-9.87
-16.22
-22.56
-28.31
-33.09
-36.97
-40.33
-43.69
-47.41
-51.5
-55.57
-59.02
-61.16
-61.4
-59.41
-55.1
-48.7
-40.8
-32.27
-24.14
-17.38
-12.61
-10.02
-9.37
-10.1
-11.6
-13.36
-15.04
-16.48
-17.67
-18.59
-19.23
-19.5
-19.32
-18.6
-17.35
-15.69
-13.83
-12.02
-10.48
-9.41
-8.93
-9.08
-9.85
-11.15
-12.86
-14.84
-17.02
-19.37
-22.02
-25.07
-28.5
-32
-34.94
-36.46
-35.74
-32.36
-26.5
-18.93
-10.84
-3.35
2.75
7.14
9.96
11.56
12.26
12.32
11.86
10.92
9.56
7.85
5.92
3.92
2.08
0.57
-0.45
-0.97
-1.05
-0.92
-0.86
-1.18
-2.09
-3.64
-5.67
-7.85
-9.85
-11.45
-12.7
-13.88
-15.41
-17.64
-20.76
-24.61
-28.71
-32.32
-34.56
-34.68
-32.26
-27.37
-20.59
-12.86
-5.19
1.57
6.86
10.43
12.26
12.49
11.41
9.42
6.95
4.36
1.82
-0.66
-3.14
-5.54
-7.68
-9.28
-10.2
-10.54
-10.69
-11.19
-12.4
-14.39
-16.9
-19.58
-22.17
-24.6
-26.96
-29.27
-31.39
-33.04
-34.02
-34.41
-34.56
-34.9
-35.57
-36.24
-36.16
-34.53
-30.9
-25.46
-18.94
-12.26
-6.22
-1.29
2.42
4.94
6.34
6.67
6.03
4.58
2.61
0.5
-1.41
-2.85
-3.68
-3.87
-3.53
-2.89
-2.21
-1.72
-1.5
-1.41
-1.2
-0.6
0.43
1.64
2.58
2.79
1.99
0.19
-2.33
-5.19
-8.01
-10.54
-12.55
-13.79
-13.99
-12.91
-10.49
-6.98
-2.79
1.48
5.35
8.5
10.81
12.21
12.72
12.26
10.77
8.28
5.02
1.44
-1.81
-4.07
-4.89
-4.1
-1.99
0.88
3.74
5.86
6.75
6.24
4.56
2.2
-0.31
-2.57
-4.45
-6.11
-7.93
-10.27
-13.35
-17.06
-20.93
-24.2
-25.98
-25.52
-22.39
-16.76
-9.3
-1.13
6.56
12.81
17.12
19.47
20.18
19.67
18.26
16.16
13.49
10.41
7.28
4.48
2.45
1.38
1.21
1.63
2.15
2.33
1.94
0.99
-0.31
-1.7
-2.99
-4.18
-5.39
-6.82
-8.64
-11.01
-13.95
-17.43
-21.24
-24.9
-27.76
-28.98
-27.86
-24.09
-17.96
-10.33
-2.34
4.94
10.83
15.14
18.03
19.82
20.76
20.99
20.6
19.68
18.38
16.85
15.25
13.69
12.28
11.11
10.27
9.66
9.09
8.22
6.78
4.7
2.13
-0.62
-3.33
-5.97
-8.71
-11.81
-15.45
-19.63
-24.16
-28.79
-33.13
-36.69
-38.79
-38.72
-35.81
-29.85
-21.22
-10.91
-0.33
9.09
16.28
20.81
22.83
22.93
21.85
20.23
18.52
16.91
15.44
14.1
12.89
11.89
11.21
10.94
11.07
11.45
11.91
12.16
11.96
11.08
9.42
7.02
4.11
0.98
-2.05
-4.85
-7.43
-10
-12.84
-16.23
-20.29
-24.89
-29.54
-33.4
-35.3
-34.1
-29.11
-20.44
-9.24
2.73
13.52
21.77
27
29.57
30.3
29.92
28.9
27.34
25.24
22.74
20.14
17.84
16.15
15.23
15.04
15.42
16.11
16.81
17.17
16.9
15.86
14.13
11.96
9.65
7.35
5.04
2.51
-0.48
-4.11
-8.51
-13.76
-19.84
-26.48
-33.03
-38.36
-41.13
-40.22
-35.24
-26.78
-16.3
-5.65
3.56
10.38
14.65
16.8
17.49
17.26
16.46
15.26
13.75
12.08
10.46
9.17
8.46
8.48
9.25
10.65
12.35
13.97
15.09
15.43
14.87
13.5
11.49
9.04
6.29
3.29
0.08
-3.31
-6.83
-10.53
-14.53
-18.94
-23.68
-28.24
-31.65
-32.67
-30.3
-24.19
-14.93
-3.91
7.17
16.81
24.1
28.8
31.14
31.61
30.66
28.74
26.23
23.53
20.96
18.77
17.04
15.76
14.88
14.38
14.3
14.62
15.23
15.87
16.21
15.93
14.85
12.97
10.46
7.51
4.29
0.93
-2.46
-5.79
-8.98
-12.07
-15.26
-18.78
-22.68
-26.58
-29.58
-30.48
-28.28
-22.61
-14.08
-4
6.02
14.6
21.02
25.18
27.36
27.96
27.27
25.55
23.13
20.44
18.01
16.25
15.29
14.98
14.98
14.97
14.81
14.62
14.57
14.73
14.97
14.95
14.29
12.67
10.1
6.75
3.02
-0.7
-4.1
-7.07
-9.71
-12.3
-15.2
-18.75
-23.07
-27.99
-32.96
-37.11
-39.42
-38.92
-35.09
-28.01
-18.48
-7.83
2.41
10.97
17.11
20.76
22.3
22.35
21.42
19.83
17.75
15.36
12.92
10.77
9.23
8.42
8.24
8.41
8.61
8.68
8.61
8.53
8.52
8.45
8.02
6.86
4.75
1.79
-1.65
-5.05
-8.01
-10.39
-12.39
-14.51
-17.3
-21.18
-26.14
-31.6
-36.46
-39.36
-39.11
-35.15
-27.81
-18.26
-8.14
0.95
8.02
12.75
15.43
16.66
16.88
16.35
15.07
13.06
10.41
7.4
4.39
1.68
-0.57
-2.41
-3.91
-5.17
-6.22
-7.09
-7.85
-8.74
-10.11
-12.27
-15.43
-19.49
-24.15
-28.9
-33.3
-37.1
-40.41
-43.72
-47.65
-52.73
-58.99
-65.71
-71.48
-74.44
-72.96
-66.13
-54.27
-38.81
-21.97
-6.03
7.26
17.05
23.32
26.67
27.86
27.59
26.36
24.46
22.17
19.75
17.51
15.78
14.77
14.54
14.93
15.66
16.39
16.87
16.95
16.62
15.94
14.94
13.58
11.77
9.43
6.51
3.04
-0.9
-5.29
-10.09
-15.21
-20.4
-25.1
-28.52
-29.8
-28.26
-23.69
-16.49
-7.55
1.95
10.86
18.31
23.8
27.23
28.76
28.75
27.63
25.83
23.72
21.55
19.45
17.52
15.85
14.62
13.97
14
14.59
15.46
16.22
16.5
16.07
14.86
12.96
10.51
7.69
4.65
1.54
-1.59
-4.76
-8.19
-12.15
-16.83
-22.21
-27.73
-32.44
-35.17
-34.94
-31.3
-24.59
-15.85
-6.42
2.39
9.71
15.13
18.71
20.71
21.48
21.34
20.53
19.29
17.78
16.16
14.58
13.13
11.89
10.87
10.1
9.58
9.3
9.28
9.45
9.66
9.65
9.09
7.74
5.52
2.6
-0.68
-3.94
-6.92
-9.58
-12.13
-14.87
-18.15
-22.04
-26.3
-30.29
-33.06
-33.67
-31.48
-26.4
-18.92
-10.07
-1.07
6.96
13.26
17.52
19.84
20.59
20.25
19.3
18.1
16.89
15.83
15.01
14.49
14.27
14.31
14.54
14.88
15.23
15.55
15.8
15.9
15.77
15.28
14.35
12.94
11.06
8.76
6.08
3.08
-0.16
-3.61
-7.24
-11.1
-15.19
-19.36
-23.18
-25.92
-26.73
-24.97
-20.46
-13.68
-5.58
2.65
10.01
15.9
20.12
22.75
24.03
24.12
23.23
21.57
19.41
17.07
14.84
12.97
11.6
10.85
10.73
11.15
11.91
12.7
13.2
13.19
12.57
11.4
9.82
7.98
5.95
3.76
1.45
-0.98
-3.58
-6.46
-9.83
-13.85
-18.43
-23.02
-26.77
-28.62
-27.77
-23.92
-17.5
-9.45
-1
6.72
12.89
17.15
19.48
20.16
19.61
18.26
16.56
14.83
13.36
12.34
11.87
11.95
12.49
13.34
14.31
15.28
16.17
16.95
17.52
17.71
17.27
16.07
14.12
11.69
9.07
6.53
4.1
1.63
-1.13
-4.46
-8.46
-13.06
-17.91
-22.34
-25.46
-26.33
-24.33
-19.38
-12.1
-3.62
4.75
11.9
17.23
20.63
22.34
22.76
22.29
21.27
19.93
18.45
16.94
15.46
14.03
12.73
11.63
10.92
10.72
11.07
11.86
12.78
13.44
13.49
12.68
10.99
8.63
5.87
3.03
0.36
-2.03
-4.17
-6.23
-8.46
-11.18
-14.6
-18.76
-23.3
-27.53
-30.5
-31.28
-29.27
-24.43
-17.31
-8.93
-0.48
7
12.83
16.78
18.98
19.77
19.54
18.65
17.38
15.95
14.47
13.06
11.8
10.74
9.96
9.49
9.35
9.49
9.89
10.44
11.03
11.49
11.63
11.2
10.01
7.96
5.14
1.88
-1.4
-4.37
-6.94
-9.31
-11.92
-15.17
-19.16
-23.49
-27.39
-29.85
-30.04
-27.57
-22.58
-15.72
-7.94
-0.21
6.65
12.09
15.91
18.13
18.95
18.64
17.49
15.73
13.59
11.26
8.98
6.98
5.5
4.64
4.45
4.83
5.6
6.53
7.39
7.91
7.91
7.23
5.82
3.77
1.29
-1.35
-3.92
-6.31
-8.59
-10.99
-13.78
-17.11
-20.84
-24.51
-27.36
-28.58
-27.49
-23.82
-17.82
-10.28
-2.32
4.88
10.41
13.89
15.42
15.56
14.93
14.01
12.97
11.78
10.32
8.61
6.85
5.36
4.41
4.08
4.25
4.67
5.1
5.35
5.38
5.17
4.69
3.87
2.6
0.83
-1.41
-3.99
-6.79
-9.74
-12.86
-16.25
-19.95
-23.73
-27.01
-29.01
-28.94
-26.36
-21.34
-14.47
-6.66
1.15
8.18
13.94
18.14
20.7
21.69
21.36
20.09
18.33
16.42
14.57
12.82
11.18
9.75
8.69
8.2
8.33
8.91
9.62
10.09
10.09
9.52
8.44
6.9
4.92
2.51
-0.29
-3.3
-6.32
-9.19
-12.02
-15.09
-18.69
-22.88
-27.22
-30.85
-32.67
-31.79
-27.87
-21.28
-13.02
-4.34
3.54
9.8
14.06
16.43
17.26
17.02
16.1
14.79
13.31
11.82
10.5
9.51
8.93
8.72
8.72
8.75
8.68
8.52
8.34
8.22
8.14
7.98
7.58
6.81
5.62
4.02
2.08
-0.2
-2.84
-5.93
-9.55
-13.6
-17.75
-21.38
-23.73
-24.13
-22.22
-18.19
-12.65
-6.5
-0.57
4.58
8.71
11.79
13.91
15.12
15.47
15
13.82
12.09
9.99
7.76
5.65
3.93
2.85
2.54
3.01
3.99
5.11
5.96
6.17
5.63
4.43
2.87
1.27
-0.14
-1.38
-2.66
-4.31
-6.68
-9.95
-14.09
-18.78
-23.45
-27.29
-29.48
-29.33
-26.56
-21.4
-14.54
-6.97
0.32
6.56
11.27
14.31
15.77
15.94
15.17
13.82
12.17
10.36
8.48
6.63
4.99
3.8
3.29
3.52
4.35
5.43
6.35
6.77
6.56
5.79
4.61
3.19
1.59
-0.22
-2.33
-4.82
-7.73
-11.1
-14.86
-18.86
-22.69
-25.7
-27.09
-26.15
-22.59
-16.7
-9.32
-1.59
5.41
10.97
14.84
17.16
18.23
18.36
17.81
16.75
15.35
13.82
12.32
11
9.95
9.19
8.71
8.47
8.39
8.36
8.22
7.84
7.12
6.06
4.7
3.16
1.48
-0.34
-2.34
-4.58
-7.18
-10.26
-13.94
-18.18
-22.68
-26.77
-29.52
-30
-27.64
-22.49
-15.28
-7.16
0.66
7.3
12.32
15.69
17.58
18.23
17.89
16.86
15.44
13.99
12.79
11.93
11.39
11.02
10.72
10.46
10.3
10.28
10.35
10.39
10.22
9.7
8.75
7.38
5.59
3.41
0.87
-1.95
-4.89
-7.8
-10.62
-13.48
-16.61
-20.21
-24.16
-27.94
-30.64
-31.29
-29.17
-24.22
-17.01
-8.63
-0.3
6.96
12.55
16.31
18.4
19.1
18.72
17.57
15.89
13.94
11.98
10.21
8.84
7.95
7.59
7.71
8.23
9.04
10
10.93
11.63
11.89
11.43
10.13
7.95
5.1
1.93
-1.16
-3.89
-6.21
-8.31
-10.57
-13.33
-16.79
-20.83
-25.05
-28.74
-31.07
-31.29
-28.98
-24.22
-17.57
-9.98
-2.41
4.33
9.78
13.8
16.39
17.58
17.43
16.09
13.94
11.51
9.35
7.85
7.07
6.82
6.82
6.89
7.05
7.41
8.07
8.93
9.67
9.91
9.36
7.99
6.01
3.71
1.37
-0.9
-3.11
-5.38
-7.85
-10.68
-14.02
-17.93
-22.27
-26.58
-30.09
-31.82
-30.97
-27.21
-20.9
-12.97
-4.65
2.93
9.01
13.31
15.95
17.18
17.27
16.47
15.02
13.2
11.32
9.68
8.41
7.57
7.07
6.82
6.79
6.98
7.36
7.87
8.32
8.5
8.23
7.46
6.21
4.58
2.66
0.49
-1.94
-4.63
-7.61
-10.9
-14.53
-18.53
-22.77
-26.91
-30.25
-31.9
-31.06
-27.31
-20.91
-12.74
-4.05
3.94
10.41
15.07
18.04
19.64
20.16
19.75
18.52
16.58
14.2
11.71
9.48
7.79
6.74
6.32
6.38
6.74
7.23
7.69
7.96
7.87
7.28
6.11
4.42
2.41
0.28
-1.78
-3.77
-5.85
-8.3
-11.36
-15.17
-19.6
-24.19
-28.26
-30.95
-31.49
-29.39
-24.63
-17.73
-9.59
-1.24
6.4
12.71
17.42
20.47
21.98
22.07
20.98
18.97
16.42
13.73
11.26
9.29
7.99
7.38
7.43
8.03
8.96
9.94
10.65
10.8
10.21
8.84
6.82
4.33
1.61
-1.16
-3.88
-6.54
-9.3
-12.41
-16.08
-20.36
-24.91
-29.02
-31.68
-31.95
-29.25
-23.72
-16.14
-7.72
0.27
6.88
11.63
14.54
15.92
16.17
15.63
14.53
12.98
11.1
9.03
7
5.32
4.25
3.91
4.22
4.93
5.66
6.09
6.06
5.56
4.7
3.59
2.28
0.76
-1.05
-3.24
-5.86
-8.99
-12.68
-16.88
-21.34
-25.52
-28.6
-29.71
-28.17
-23.85
-17.25
-9.39
-1.51
5.36
10.59
14.08
16.06
16.91
16.92
16.23
14.89
12.97
10.62
8.13
5.87
4.19
3.31
3.22
3.71
4.43
5.04
5.29
5.13
4.63
3.9
2.93
1.62
-0.19
-2.6
-5.6
-9.12
-13.05
-17.31
-21.72
-25.87
-29
-30.2
-28.64
-24.09
-17.04
-8.69
-0.49
6.33
11.21
14.21
15.84
16.61
16.76
16.26
14.97
12.84
10.11
7.21
4.63
2.78
1.78
1.52
1.71
2.03
2.23
2.12
1.57
0.48
-1.28
-3.78
-7.02
-10.92
-15.34
-20.15
-25.27
-30.67
-36.28
-41.84
-46.86
-50.67
-52.53
-51.85
-48.35
-42.11
-33.6
-23.57
-12.94
-2.55
7.03
15.66
23.59
31.23
38.87
46.4
53.39
59.22
63.46
66.05
67.3
67.65
67.4
66.52
64.72
61.68
57.27
51.66
45.21
38.35
31.36
24.34
17.25
10.02
2.65
-4.84
-12.41
-20.09
-27.84
-35.5
-42.58
-48.3
-51.73
-52.11
-49.19
-43.37
-35.63
-27.21
-19.26
-12.54
-7.33
-3.6
-1.17
0.11
0.39
-0.11
-1.04
-1.94
-2.37
-2.09
-1.18
0.01
1.12
1.91
2.4
2.82
3.4
4.19
5.02
5.53
5.33
4.19
2.12
-0.66
-3.78
-6.88
-9.73
-12.3
-14.78
-17.5
-20.81
-24.86
-29.46
-33.98
-37.51
-39.04
-37.84
-33.68
-26.94
-18.53
-9.55
-1.07
6.18
11.85
15.88
18.46
19.85
20.34
20.22
19.78
19.3
18.98
18.95
19.25
19.81
20.57
21.41
22.23
22.9
23.32
23.42
23.18
22.64
21.9
21.01
19.97
18.69
17.07
15.06
12.76
10.37
8.13
6.2
4.49
2.77
0.71
-1.91
-5.07
-8.48
-11.71
-14.35
-16.28
-17.71
-19.09
-20.93
-23.65
-27.39
-31.98
-37
-41.75
-45.38
-47
-45.9
-41.78
-34.94
-26.19
-16.72
-7.71
-0.07
5.75
9.77
12.27
13.62
14.18
14.24
14.02
13.68
13.37
13.23
13.36
13.81
14.56
15.54
16.65
17.77
18.81
19.72
20.44
20.9
20.98
20.55
19.49
17.76
15.45
12.73
9.79
6.77
3.72
0.6
-2.61
-5.8
-8.79
-11.3
-13.16
-14.39
-15.29
-16.33
-17.97
-20.46
-23.66
-27.03
-29.77
-31.03
-30.18
-27.02
-21.8
-15.18
-7.99
-1.05
5.02
9.88
13.4
15.62
16.63
16.53
15.43
13.54
11.19
8.77
6.75
5.46
5.02
5.31
5.98
6.68
7.14
7.36
7.5
7.74
8.13
8.5
8.53
7.93
6.52
4.33
1.54
-1.6
-4.8
-7.72
-10.03
-11.42
-11.77
-11.27
-10.38
-9.72
-9.76
-10.58
-11.81
-12.69
-12.35
-10.06
-5.52
1.15
9.4
18.37
27.12
34.75
40.58
44.27
45.91
45.96
45.15
44.29
44.12
45.06
47.21
50.32
53.95
57.65
61.16
64.54
68.11
72.34
77.52
83.53
89.7
94.84
97.68
97.39
94.16
89.41
85.55
85.24
90.27
100.57
113.71
125.32
130.34
124.62
106.42
77.14
40.83
3.01
-31.07
-57.75
-75.62
-85.25
-88.48
-87.58
-84.64
-81.27
-78.66
-77.55
-78.16
-80.22
-82.99
-85.46
-86.66
-86.02
-83.41
-79.15
-73.82
-68.12
-62.71
-58.24
-55.16
-53.75
-53.95
-55.38
-57.44
-59.56
-61.33
-62.66
-63.74
-64.92
-66.52
-68.84
-71.98
-75.91
-80.38
-84.83
-88.43
-90.19
-89.19
-84.84
-77.14
-66.67
-54.57
-42.27
-31.16
-22.34
-16.38
-13.26
-12.4
-12.85
-13.57
-13.72
-12.92
-11.31
-9.35
-7.64
-6.57
-6.19
-6.14
-5.86
-4.7
-2.22
1.69
6.66
11.91
16.31
18.79
18.74
16.27
12.23
7.92
4.51
2.57
1.89
1.66
0.89
-1.05
-4.16
-7.8
-10.97
-12.71
-12.49
-10.32
-6.79
-2.71
1.11
4.18
6.35
7.7
8.33
8.29
7.64
6.5
5.1
3.77
2.71
1.93
1.28
0.66
0.21
0.32
1.49
4.03
7.81
12.26
16.57
20.04
22.31
23.36
23.48
22.97
22.06
20.85
19.4
17.73
15.79
13.44
10.44
6.65
2.23
-2.19
-5.49
-6.43
-4.12
1.62
9.99
19.54
28.62
35.95
40.94
43.75
44.94
45.11
44.53
43.11
40.48
36.34
30.63
23.66
16.07
8.69
2.35
-2.32
-5.01
-5.84
-5.34
-4.29
-3.57
-3.86
-5.49
-8.41
-12.29
-16.72
-21.4
-26.23
-31.27
-36.62
-42.29
-48.02
-53.27
-57.16
-58.76
-57.27
-52.36
-44.33
-34.03
-22.69
-11.61
-1.86
5.82
11.1
13.97
14.64
13.52
11.15
8.07
4.74
1.5
-1.51
-4.21
-6.55
-8.5
-10.03
-11.19
-12.1
-12.85
-13.43
-13.62
-13.09
-11.55
-8.94
-5.5
-1.75
1.64
4.02
4.8
3.6
0.28
-4.87
-11.06
-17.03
-21.28
-22.49
-19.96
-13.86
-5.13
4.86
14.66
23.17
29.75
34.21
36.73
37.62
37.28
36.13
34.57
32.9
31.33
29.89
28.51
27.08
25.61
24.24
23.2
22.67
22.61
22.71
22.47
21.44
19.47
16.74
13.69
10.8
8.31
6.14
3.92
1.18
-2.52
-7.34
-13.1
-19.17
-24.56
-28.06
-28.58
-25.55
-19.17
-10.38
-0.64
8.54
16.06
21.43
24.7
26.32
26.72
26.22
24.89
22.67
19.5
15.52
11.06
6.61
2.67
-0.45
-2.7
-4.23
-5.26
-5.93
-6.25
-6.16
-5.74
-5.23
-5.05
-5.6
-7.15
-9.66
-12.86
-16.29
-19.53
-22.27
-24.48
-26.38
-28.42
-31.06
-34.68
-39.34
-44.67
-49.89
-53.9
-55.64
-54.36
-49.84
-42.49
-33.19
-23.04
-13.07
-4.08
3.49
9.45
13.76
16.53
17.89
18.12
17.54
16.54
15.43
14.4
13.53
12.77
12.1
11.53
11.18
11.16
11.59
12.43
13.44
14.28
14.53
13.89
12.27
9.78
6.73
3.44
0.12
-3.21
-6.73
-10.73
-15.48
-21.06
-27.23
-33.36
-38.51
-41.67
-42
-39.14
-33.32
-25.32
-16.2
-7.04
1.36
8.46
14.06
18.11
20.64
21.7
21.43
20.13
18.2
16.11
14.24
12.82
11.94
11.51
11.49
11.8
12.41
13.22
14.05
14.58
14.51
13.67
12.07
9.92
7.51
5.06
2.68
0.31
-2.22
-5.16
-8.77
-13.22
-18.38
-23.77
-28.5
-31.49
-31.82
-29.03
-23.34
-15.54
-6.71
2.1
10.08
16.72
21.81
25.27
27.19
27.77
27.3
26.13
24.6
22.95
21.38
19.96
18.78
17.89
17.32
17.06
17.07
17.29
17.57
17.73
17.55
16.8
15.34
13.2
10.53
7.59
4.65
1.83
-0.96
-4.02
-7.71
-12.28
-17.64
-23.24
-28.14
-31.22
-31.52
-28.61
-22.7
-14.61
-5.47
3.51
11.34
17.43
21.54
23.73
24.29
23.59
22.08
20.19
18.32
16.74
15.58
14.79
14.25
13.8
13.34
12.83
12.32
11.87
11.51
11.18
10.78
10.18
9.27
8.01
6.39
4.44
2.19
-0.3
-2.99
-5.88
-9.05
-12.68
-16.93
-21.81
-26.97
-31.66
-34.87
-35.59
-33.22
-27.8
-20.07
-11.22
-2.52
5.08
11.12
15.55
18.58
20.44
21.3
21.28
20.51
19.24
17.75
16.31
15.09
14.13
13.39
12.84
12.5
12.41
12.6
12.98
13.35
13.45
13.02
11.88
10
7.48
4.55
1.45
-1.61
-4.54
-7.34
-10.16
-13.23
-16.79
-20.93
-25.41
-29.58
-32.42
-32.93
-30.46
-25.04
-17.43
-8.89
-0.69
6.22
11.45
15.04
17.29
18.49
18.84
18.47
17.48
16.04
14.29
12.39
10.51
8.82
7.55
6.91
6.97
7.65
8.62
9.48
9.85
9.48
8.36
6.61
4.42
1.98
-0.57
-3.12
-5.62
-8.09
-10.7
-13.73
-17.46
-21.87
-26.55
-30.6
-32.92
-32.6
-29.23
-23.16
-15.34
-6.99
0.76
7.16
11.9
15.01
16.74
17.39
17.25
16.55
15.43
14.07
12.55
10.98
9.45
8.07
6.95
6.21
5.91
6
6.31
6.56
6.46
5.79
4.49
2.65
0.45
-1.93
-4.33
-6.72
-9.12
-11.68
-14.6
-18.09
-22.24
-26.79
-31.11
-34.24
-35.2
-33.44
-29.01
-22.59
-15.28
-8.12
-1.86
3.18
7.03
9.77
11.45
12
11.36
9.62
7.04
4.03
1.04
-1.59
-3.63
-5.05
-5.87
-6.22
-6.27
-6.24
-6.35
-6.74
-7.39
-8.13
-8.59
-8.4
-7.34
-5.45
-3.1
-0.93
0.37
0.22
-1.63
-4.99
-9.22
-13.39
-16.42
-17.39
-15.77
-11.49
-5.03
2.78
10.99
18.69
25.16
29.98
32.97
34.18
33.85
32.39
30.29
28.02
25.97
24.31
23.01
21.97
21.08
20.31
19.74
19.41
19.23
18.97
18.29
16.9
14.7
11.84
8.61
5.31
2.11
-0.98
-4.09
-7.42
-11.19
-15.55
-20.5
-25.83
-31.03
-35.35
-37.87
-37.83
-34.85
-29.11
-21.35
-12.68
-4.24
3.03
8.57
12.26
14.3
15.08
15.06
14.57
13.77
12.64
11.13
9.27
7.29
5.61
4.61
4.52
5.19
6.2
7.05
7.34
6.97
6.07
4.84
3.44
1.88
0.13
-1.88
-4.12
-6.61
-9.44
-12.76
-16.75
-21.34
-26.12
-30.24
-32.67
-32.57
-29.55
-23.9
-16.44
-8.27
-0.42
6.4
11.8
15.68
18.12
19.21
19.08
17.9
15.96
13.59
11.16
8.97
7.23
6.04
5.44
5.42
5.88
6.61
7.32
7.69
7.42
6.36
4.53
2.1
-0.67
-3.53
-6.36
-9.18
-12.15
-15.56
-19.6
-24.26
-29.16
-33.51
-36.31
-36.63
-33.94
-28.32
-20.47
-11.53
-2.7
5.03
11.08
15.22
17.57
18.37
17.97
16.7
14.91
12.89
10.9
9.15
7.75
6.8
6.31
6.19
6.33
6.56
6.69
6.62
6.32
5.79
5.02
3.95
2.45
0.44
-2.12
-5.17
-8.64
-12.51
-16.77
-21.29
-25.67
-29.19
-30.97
-30.2
-26.57
-20.39
-12.52
-4.08
3.93
10.85
16.34
20.32
22.79
23.75
23.26
21.48
18.77
15.61
12.53
9.95
8.13
7.14
6.85
7.03
7.37
7.63
7.61
7.2
6.44
5.41
4.22
2.97
1.6
-0.02
-2.18
-5.16
-9.17
-14.13
-19.64
-24.91
-28.96
-30.84
-29.94
-26.19
-20.07
-12.47
-4.4
3.25
9.87
15.13
18.91
21.22
22.12
21.78
20.4
18.33
15.91
13.47
11.26
9.44
8.12
7.33
7.03
7.06
7.19
7.12
6.61
5.53
3.92
1.93
-0.28
-2.57
-4.94
-7.49
-10.43
-13.91
-18.05
-22.73
-27.52
-31.69
-34.3
-34.48
-31.66
-25.87
-17.71
-8.22
1.46
10.37
17.86
23.61
27.51
29.62
30.05
29.1
27.11
24.52
21.75
19.07
16.68
14.67
13.13
12.12
11.63
11.51
11.5
11.28
10.56
9.28
7.51
5.43
3.2
0.92
-1.42
-3.8
-6.3
-9.03
-12.18
-15.95
-20.31
-24.9
-28.93
-31.4
-31.39
-28.45
-22.8
-15.23
-6.9
1.05
7.75
12.75
16.02
17.79
18.42
18.24
17.49
16.33
14.88
13.29
11.76
10.49
9.61
9.18
9.14
9.42
9.91
10.52
11.09
11.44
11.33
10.59
9.15
7.08
4.58
1.85
-0.97
-3.87
-6.96
-10.47
-14.57
-19.24
-24.11
-28.47
-31.34
-31.8
-29.31
-23.97
-16.48
-7.95
0.48
7.95
13.96
18.4
21.34
22.89
23.19
22.4
20.77
18.62
16.32
14.21
12.51
11.38
10.81
10.75
11.04
11.51
11.98
12.25
12.13
11.42
10.01
7.89
5.22
2.29
-0.51
-2.94
-4.97
-6.84
-8.98
-11.85
-15.65
-20.28
-25.23
-29.65
-32.56
-33.09
-30.74
-25.65
-18.5
-10.42
-2.59
4.07
9.07
12.39
14.27
15.02
14.82
13.78
11.94
9.48
6.66
3.89
1.58
0.12
-0.21
0.71
2.8
5.76
9.11
12.28
14.73
16.08
16.17
15.09
13.1
10.53
7.66
4.64
1.52
-1.79
-5.41
-9.42
-13.83
-18.46
-22.85
-26.3
-28.05
-27.45
-24.27
-18.81
-11.88
-4.55
2.19
7.65
11.57
14.03
15.26
15.52
14.98
13.85
12.3
10.61
9.04
7.8
6.96
6.5
6.33
6.37
6.63
7.09
7.76
8.52
9.15
9.35
8.84
7.44
5.19
2.31
-0.83
-3.91
-6.72
-9.3
-11.88
-14.77
-18.13
-21.81
-25.32
-27.9
-28.79
-27.49
-23.95
-18.62
-12.26
-5.73
0.28
5.3
9.12
11.66
12.93
12.96
11.88
9.95
7.55
5.09
2.92
1.26
0.12
-0.61
-1.08
-1.46
-1.85
-2.28
-2.74
-3.15
-3.43
-3.48
-3.22
-2.63
-1.78
-0.83
-0.05
0.25
-0.16
-1.44
-3.64
-6.67
-10.31
-14.16
-17.63
-19.93
-20.34
-18.34
-13.91
-7.56
-0.2
7.1
13.48
18.47
22
24.33
25.75
26.46
26.48
25.67
23.89
21.12
17.57
13.66
9.98
7.05
5.2
4.48
4.58
4.99
5.09
4.47
2.97
0.78
-1.71
-4.02
-5.81
-6.9
-7.35
-7.41
-7.48
-8.17
-10.13
-13.87
-19.48
-26.43
-33.68
-39.92
-44.08
-45.55
-44.28
-40.46
-34.36
-26.2
-16.41
-5.8
4.38
12.7
18.1
20.28
19.8
17.8
15.43
13.43
12
10.98
10.15
9.51
9.16
9.15
9.29
9.16
8.31
6.57
4.18
1.71
-0.2
-1.18
-1.23
-0.68
-0.04
0.15
-0.61
-2.71
-6.47
-11.86
-18.36
-24.91
-29.99
-32.16
-30.51
-25.06
-16.79
-7.29
1.8
9.29
14.7
18.2
20.27
21.42
21.99
22.09
21.76
21.05
20.09
19
17.89
16.76
15.58
14.31
12.92
11.4
9.74
7.89
5.85
3.63
1.31
-1.03
-3.32
-5.57
-7.83
-10.19
-12.78
-15.73
-19.14
-22.98
-26.98
-30.59
-33
-33.4
-31.21
-26.36
-19.4
-11.33
-3.38
3.4
8.35
11.31
12.56
12.55
11.74
10.4
8.7
6.7
4.55
2.47
0.72
-0.45
-0.91
-0.73
-0.11
0.67
1.29
1.57
1.38
0.7
-0.4
-1.82
-3.51
-5.39
-7.48
-9.83
-12.54
-15.72
-19.4
-23.33
-26.97
-29.49
-30.02
-27.95
-23.24
-16.5
-8.78
-1.2
5.42
10.73
14.78
17.77
19.8
20.87
20.89
19.91
18.18
16.1
14.07
12.43
11.32
10.76
10.7
11.02
11.54
12.07
12.37
12.19
11.39
9.94
7.94
5.58
3
0.34
-2.42
-5.32
-8.47
-11.97
-15.87
-20.14
-24.57
-28.7
-31.84
-33.17
-32.01
-28.05
-21.58
-13.46
-4.91
2.84
8.9
12.89
14.96
15.56
15.26
14.46
13.35
11.92
10.17
8.24
6.43
5.13
4.62
4.95
5.84
6.85
7.56
7.72
7.3
6.41
5.21
3.79
2.2
0.46
-1.42
-3.44
-5.63
-8.09
-10.96
-14.32
-18.15
-22.13
-25.71
-28.1
-28.52
-26.46
-21.85
-15.15
-7.24
0.81
8.07
13.87
17.94
20.28
21.14
20.83
19.67
17.99
16.04
14.02
12.07
10.27
8.67
7.35
6.39
5.86
5.78
6.07
6.54
6.9
6.89
6.29
5.05
3.28
1.15
-1.13
-3.44
-5.77
-8.2
-10.89
-13.97
-17.43
-21.09
-24.48
-26.91
-27.56
-25.82
-21.49
-14.97
-7.2
0.61
7.38
12.46
15.73
17.46
18.06
17.88
17.07
15.71
13.87
11.77
9.72
8.06
7.04
6.75
7.13
8
9.15
10.38
11.45
12.14
12.29
11.77
10.61
8.91
6.82
4.5
2.02
-0.63
-3.51
-6.73
-10.41
-14.64
-19.39
-24.34
-28.84
-31.94
-32.65
-30.33
-24.96
-17.28
-8.5
0.06
7.43
13.17
17.29
20.09
21.77
22.37
21.85
20.26
17.88
15.2
12.77
11.01
10.04
9.72
9.81
10.07
10.38
10.67
10.88
10.94
10.72
10.11
9.08
7.63
5.81
3.7
1.41
-0.97
-3.38
-5.83
-8.47
-11.52
-15.24
-19.72
-24.77
-29.84
-34.06
-36.48
-36.34
-33.29
-27.57
-19.89
-11.24
-2.62
5.18
11.66
16.6
19.88
21.53
21.68
20.59
18.7
16.53
14.57
13.12
12.26
11.86
11.69
11.6
11.49
11.43
11.5
11.8
12.32
12.94
13.35
13.17
12.09
9.96
6.96
3.49
0.07
-2.96
-5.51
-7.79
-10.15
-12.86
-16.09
-19.78
-23.73
-27.53
-30.63
-32.33
-32
-29.22
-24.02
-16.94
-8.89
-0.88
6.2
11.76
15.54
17.52
17.94
17.18
15.71
14.03
12.48
11.25
10.34
9.64
9.08
8.63
8.35
8.29
8.46
8.83
9.31
9.75
10.01
9.89
9.19
7.75
5.55
2.72
-0.41
-3.42
-6.03
-8.14
-10.01
-12.14
-15.02
-18.92
-23.55
-28.16
-31.62
-32.86
-31.27
-26.84
-20.19
-12.3
-4.23
3.19
9.4
14.1
17.18
18.68
18.74
17.65
15.85
13.74
11.67
9.83
8.3
7.08
6.22
5.82
5.96
6.64
7.71
8.9
9.84
10.27
9.98
8.92
7.1
4.62
1.63
-1.62
-4.89
-7.94
-10.72
-13.41
-16.35
-19.87
-23.98
-28.24
-31.73
-33.41
-32.43
-28.5
-21.97
-13.8
-5.16
2.86
9.48
14.33
17.39
18.86
19.05
18.3
16.92
15.21
13.4
11.65
10.06
8.69
7.58
6.8
6.43
6.53
7.07
7.88
8.64
9.02
8.76
7.78
6.23
4.36
2.39
0.37
-1.81
-4.39
-7.58
-11.47
-15.96
-20.76
-25.4
-29.27
-31.71
-32.12
-30.13
-25.73
-19.35
-11.76
-3.84
3.58
9.87
14.71
17.99
19.73
20.08
19.26
17.61
15.49
13.26
11.21
9.49
8.18
7.32
6.91
6.94
7.33
7.91
8.43
8.66
8.41
7.59
6.22
4.39
2.26
0
-2.24
-4.42
-6.6
-8.96
-11.79
-15.33
-19.66
-24.53
-29.3
-33.04
-34.75
-33.7
-29.66
-23.06
-14.82
-6.1
2.05
8.9
14.14
17.75
19.86
20.69
20.43
19.31
17.56
15.48
13.34
11.42
9.9
8.91
8.45
8.47
8.86
9.43
10.01
10.41
10.45
9.99
8.92
7.28
5.16
2.79
0.35
-2.03
-4.34
-6.72
-9.43
-12.74
-16.83
-21.62
-26.67
-31.25
-34.42
-35.3
-33.36
-28.59
-21.55
-13.22
-4.73
2.93
9.09
13.51
16.28
17.66
17.94
17.34
16.05
14.23
12.1
9.91
7.91
6.32
5.25
4.71
4.63
4.93
5.51
6.25
6.95
7.35
7.18
6.28
4.67
2.57
0.31
-1.87
-3.93
-6.04
-8.56
-11.8
-15.92
-20.73
-25.72
-30.09
-32.95
-33.52
-31.35
-26.48
-19.46
-11.18
-2.67
5.12
11.49
16.07
18.76
19.73
19.32
17.95
16.02
13.89
11.79
9.85
8.19
6.91
6.1
5.83
6.08
6.72
7.57
8.39
8.94
9.03
8.49
7.28
5.47
3.22
0.75
-1.76
-4.34
-7.15
-10.53
-14.73
-19.76
-25.15
-30.03
-33.31
-34.05
-31.77
-26.66
-19.45
-11.18
-2.88
4.65
10.97
15.85
19.24
21.17
21.74
21.15
19.67
17.64
15.39
13.22
11.36
10
9.25
9.12
9.5
10.24
11.09
11.84
12.28
12.26
11.65
10.39
8.46
5.95
3.04
-0.05
-3.14
-6.17
-9.26
-12.65
-16.59
-21.11
-25.89
-30.18
-33.01
-33.44
-30.89
-25.44
-17.75
-8.92
-0.09
7.77
14.09
18.64
21.45
22.64
22.41
21.05
18.97
16.68
14.64
13.16
12.27
11.78
11.47
11.16
10.91
10.9
11.29
12.05
12.9
13.4
13.12
11.81
9.53
6.57
3.35
0.2
-2.68
-5.31
-7.87
-10.66
-13.95
-17.96
-22.64
-27.67
-32.34
-35.73
-36.91
-35.23
-30.59
-23.48
-14.88
-5.92
2.37
9.3
14.5
17.91
19.68
20.03
19.25
17.72
15.82
13.94
12.42
11.47
11.1
11.22
11.58
12
12.38
12.74
13.16
13.66
14.13
14.29
13.83
12.53
10.35
7.48
4.21
0.86
-2.38
-5.45
-8.48
-11.66
-15.19
-19.2
-23.61
-28.15
-32.26
-35.19
-36.19
-34.69
-30.52
-24.02
-15.96
-7.35
0.82
7.83
13.33
17.28
19.81
21.08
21.17
20.14
18.14
15.48
12.6
9.96
7.92
6.62
6.08
6.23
6.96
8.16
9.62
11.06
12.11
12.38
11.64
9.87
7.24
4.09
0.79
-2.35
-5.16
-7.69
-10.18
-13.01
-16.52
-20.84
-25.71
-30.48
-34.17
-35.77
-34.53
-30.22
-23.26
-14.59
-5.43
3.09
10.18
15.47
18.95
20.81
21.3
20.69
19.26
17.3
15.19
13.27
11.79
10.85
10.38
10.22
10.23
10.32
10.53
10.9
11.39
11.81
11.83
11.09
9.42
6.91
3.91
0.87
-1.87
-4.24
-6.47
-9
-12.3
-16.66
-22.02
-27.87
-33.27
-37.06
-38.13
-35.82
-30.16
-21.91
-12.31
-2.72
5.79
12.58
17.54
20.81
22.67
23.37
23.13
22.15
20.63
18.84
17.04
15.53
14.63
14.56
15.43
17.13
19.4
21.82
23.97
25.5
26.16
25.81
24.45
22.26
19.58
16.8
14.19
11.71
8.94
5.29
0.25
-6.28
-13.92
-21.88
-29.25
-35.16
-38.89
-39.92
-37.91
-32.84
-25.15
-15.8
-6.13
2.44
8.86
12.7
14.17
13.94
12.82
11.51
10.4
9.63
9.09
8.59
8
7.3
6.6
6.1
5.95
6.22
6.85
7.68
8.52
9.15
9.37
9.07
8.26
7.07
5.71
4.37
3.09
1.71
-0.01
-2.38
-5.54
-9.41
-13.64
-17.65
-20.66
-21.86
-20.49
-16.01
-8.22
2.6
15.73
30.15
44.69
58.23
69.81
78.65
84.17
85.94
83.85
78.14
69.53
59.16
48.43
38.66
30.75
25.01
21.18
18.69
16.95
15.61
14.52
13.66
12.96
12.14
10.78
8.43
4.83
0.02
-5.7
-11.86
-18.07
-24.13
-30.13
-36.21
-42.35
-48.12
-52.69
-55.06
-54.45
-50.74
-44.54
-37.08
-29.65
-23.14
-17.78
-13.15
-8.62
-3.85
0.93
5.02
7.53
7.99
6.64
4.35
2.27
1.33
1.79
3.24
4.87
5.86
5.78
4.7
3.02
1.17
-0.49
-1.83
-2.72
-3.03
-2.57
-1.23
0.82
3.05
4.62
4.66
2.71
-1.09
-5.86
-10.32
-13.21
-13.79
-12.01
-8.52
-4.36
-0.53
2.29
3.84
4.27
3.79
2.6
0.66
-2.21
-6.1
-10.92
-16.21
-21.2
-25.01
-26.9
-26.43
-23.68
-19.19
-13.86
-8.75
-4.86
-2.81
-2.79
-4.48
-7.22
-10.33
-13.27
-15.86
-18.21
-20.59
-23.27
-26.38
-29.79
-33.11
-35.64
-36.46
-34.58
-29.24
-20.1
-7.45
7.8
24.35
40.81
55.98
69.05
79.67
87.83
93.76
97.79
100.28
101.57
101.89
101.32
99.85
97.41
94.03
89.82
85.02
79.73
73.92
67.33
59.55
50.26
39.32
26.87
13.35
-0.7
-14.68
-28.05
-40.39
-51.45
-61.19
-69.86
-77.9
-85.74
-93.5
-100.75
-106.4
-109.02
-107.31
-100.73
-89.83
-76.16
-61.78
-48.53
-37.53
-29
-22.58
-17.79
-14.38
-12.44
-12.25
-13.96
-17.4
-21.99
-26.91
-31.27
-34.39
-35.94
-36.06
-35.29
-34.48
-34.45
-35.71
-38.26
-41.56
-44.69
-46.69
-46.87
-44.99
-41.28
-36.33
-31.04
-26.4
-23.41
-22.79
-24.62
-28.23
-32.16
-34.62
-34.11
-29.96
-22.56
-13.05
-2.86
6.83
15.36
22.49
28.16
32.21
34.34
34.29
32.01
27.78
22.28
16.33
10.69
5.84
1.9
-1.28
-4.01
-6.52
-8.91
-11.21
-13.44
-15.67
-18.02
-20.53
-23.13
-25.65
-27.97
-30.1
-32.26
-34.78
-38.01
-42.14
-46.98
-51.97
-56.15
-58.42
-57.78
-53.68
-46.18
-35.97
-24.21
-12.13
-0.87
8.84
16.62
22.32
26.03
27.91
28.18
27.12
25.05
22.43
19.85
17.99
17.56
18.97
22.03
25.9
29.25
30.77
29.72
26.27
21.31
15.97
11.03
6.58
2.17
-2.75
-8.38
-14.41
-20.22
-25.28
-29.39
-32.71
-35.44
-37.49
-38.5
-37.94
-35.46
-31.13
-25.41
-19.03
-12.68
-6.78
-1.43
3.45
8.03
12.39
16.48
20.19
23.32
25.69
27.18
27.76
27.56
27
26.69
27.33
29.35
32.69
36.77
40.7
43.75
45.64
46.58
46.96
46.89
45.92
43.17
37.79
29.52
18.94
7.44
-3.29
-11.78
-17.19
-19.34
-18.53
-15.25
-10.03
-3.39
4.07
11.6
18.32
23.44
26.38
27.05
25.71
22.91
19.2
14.93
10.26
5.22
-0.05
-5.23
-9.76
-13.1
-14.88
-15.13
-14.34
-13.28
-12.71
-13.13
-14.58
-16.66
-18.84
-20.64
-21.88
-22.71
-23.51
-24.63
-26.3
-28.6
-31.55
-35.16
-39.38
-43.92
-48.09
-50.9
-51.23
-48.29
-41.98
-32.95
-22.37
-11.53
-1.41
7.53
15.27
22
27.85
32.8
36.68
39.36
40.89
41.57
41.88
42.33
43.26
44.76
46.61
48.48
50.03
51.04
51.45
51.34
50.78
49.8
48.35
46.26
43.35
39.37
34.08
27.21
18.58
8.09
-4.11
-17.54
-31.26
-43.96
-54.16
-60.51
-62.21
-59.18
-52.17
-42.59
-32.12
-22.31
-14.28
-8.44
-4.65
-2.31
-0.71
0.7
2.17
3.59
4.67
5.06
4.58
3.21
1.14
-1.28
-3.53
-4.98
-5.06
-3.47
-0.34
3.63
7.45
10.11
11.03
10.18
8.07
5.35
2.52
-0.39
-3.68
-7.81
-12.96
-18.81
-24.56
-29.08
-31.32
-30.7
-27.36
-22.15
-16.36
-11.25
-7.61
-5.57
-4.7
-4.43
-4.43
-4.87
-6.31
-9.33
-14.1
-20.12
-26.26
-31.09
-33.34
-32.33
-28.09
-21.33
-13.12
-4.6
3.37
10.18
15.51
19.12
20.87
20.76
18.95
15.8
11.75
7.17
2.2
-3.34
-9.77
-17.41
-26.27
-35.83
-44.95
-52.04
-55.45
-54.05
-47.67
-37.36
-25.03
-12.86
-2.53
5.21
10.57
14.29
17.08
19.29
20.84
21.57
21.42
20.68
19.79
19.17
19.05
19.52
20.58
22.4
25.2
29.18
34.27
40.08
45.99
51.39
55.94
59.64
62.78
65.67
68.49
71.08
73
73.58
72.12
68.09
61.32
52.25
42.01
32.22
24.66
20.72
21.01
25.18
32.02
39.85
47.02
52.29
55.06
55.39
53.81
51.01
47.48
43.33
38.17
31.37
22.36
11.03
-2.12
-16.09
-29.67
-41.77
-51.73
-59.32
-64.64
-68.01
-69.77
-70.22
-69.68
-68.37
-66.49
-64.19
-61.55
-58.66
-55.74
-53.1
-51.2
-50.55
-51.43
-53.75
-56.85
-59.62
-60.77
-59.22
-54.49
-46.82
-37.12
-26.53
-16.12
-6.5
2.23
10.38
18.38
26.53
34.82
42.83
49.84
55.07
58.05
58.83
58.08
56.85
56.24
57.02
59.42
63.21
67.83
72.63
76.98
80.37
82.4
82.88
81.8
79.31
75.62
70.89
65.23
58.7
51.33
43.21
34.48
25.39
16.38
8.12
1.45
-2.9
-4.67
-4.26
-2.77
-1.54
-1.69
-3.73
-7.49
-12.36
-17.62
-22.75
-27.49
-31.8
-35.66
-39.01
-41.7
-43.6
-44.6
-44.72
-44.05
-42.72
-40.82
-38.42
-35.58
-32.4
-29.08
-25.89
-23.08
-20.85
-19.1
-17.57
-15.82
-13.53
-10.6
-7.3
-4.17
-1.81
-0.54
-0.21
-0.14
0.61
2.86
6.97
12.7
19.41
26.35
32.98
39.02
44.34
48.78
52.12
54.08
54.57
53.74
51.91
49.41
46.39
42.87
38.84
34.48
30.17
26.31
23.16
20.67
18.48
16.09
13.09
9.28
4.7
-0.47
-5.98
-11.62
-17.21
-22.69
-28.09
-33.53
-39.24
-45.42
-52.07
-58.82
-64.8
-68.8
-69.61
-66.46
-59.39
-49.33
-37.83
-26.6
-16.92
-9.4
-3.99
-0.33
2.01
3.24
3.47
2.81
1.52
0.02
-1.28
-2.17
-2.71
-3.23
-4.1
-5.56
-7.58
-9.98
-12.48
-14.94
-17.32
-19.75
-22.38
-25.32
-28.58
-32.04
-35.58
-39.19
-43.03
-47.48
-52.87
-59.33
-66.42
-73.15
-78.16
-80.11
-78.18
-72.35
-63.44
-52.84
-42.1
-32.5
-24.75
-18.96
-14.77
-11.69
-9.31
-7.5
-6.37
-6.07
-6.63
-7.84
-9.28
-10.44
-10.85
-10.23
-8.48
-5.79
-2.52
0.76
3.5
5.3
6.13
6.18
5.8
5.2
4.36
3.06
1.13
-1.45
-4.44
-7.3
-9.29
-9.52
-7.02
-1.03
8.75
21.87
37.01
52.31
65.9
76.44
83.53
87.53
89.19
89.13
87.54
84.31
79.3
72.77
65.48
58.49
52.71
48.53
45.64
43.26
40.53
36.88
32.17
26.51
20.02
12.62
4.12
-5.58
-16.22
-27.16
-37.51
-46.45
-53.55
-58.87
-62.89
-66.19
-69.12
-71.58
-72.96
-72.48
-69.43
-63.65
-55.6
-46.21
-36.59
-27.55
-19.51
-12.49
-6.39
-1.22
2.8
5.39
6.38
5.91
4.35
2.27
0.26
-1.15
-1.48
-0.34
2.42
6.64
11.73
16.88
21.22
24.26
25.87
26.33
26
25.13
23.77
21.85
19.32
16.14
12.25
7.51
1.85
-4.55
-10.98
-16.35
-19.5
-19.78
-17.49
-13.84
-10.58
-9.28
-10.7
-14.61
-20.08
-26.09
-32.12
-38.44
-45.87
-55.29
-66.99
-80.41
-94.19
-106.63
-116.22
-122.15
-124.43
-123.74
-121.17
-117.79
-114.43
-111.49
-108.99
-106.64
-104.02
-100.8
-96.91
-92.56
-88.24
-84.54
-81.93
-80.51
-79.84
-78.88
-76.28
-70.66
-61.2
-47.93
-31.72
-14.05
3.54
19.79
33.99
45.83
55.21
62.09
66.42
68.26
67.91
65.97
63.2
60.4
58.11
56.57
55.74
55.34
55.05
54.57
53.71
52.36
50.43
47.8
44.42
40.34
35.72
30.79
25.75
20.63
15.26
9.4
2.83
-4.41
-11.9
-18.79
-23.98
-26.29
-24.75
-18.99
-9.27
3.49
18.09
33.4
48.61
63.24
76.8
88.44
96.96
101.09
100.13
94.36
85.01
73.97
63.11
53.88
47.14
43.21
42
43.04
45.49
48.22
50.05
50.13
48.12
44.27
39.11
33.19
26.83
20.09
12.88
5.1
-3.3
-12.18
-21.14
-29.34
-35.52
-38.24
-36.2
-28.82
-16.44
-0.39
17.38
34.85
50.48
63.47
73.73
81.58
87.34
91.05
92.44
91.09
86.76
79.66
70.52
60.47
50.68
42.05
34.99
29.45
25.1
21.62
18.83
16.71
15.18
14.02
12.7
10.67
7.57
3.45
-1.1
-5.23
-8.19
-9.67
-9.95
-9.75
-9.88
-10.78
-12.29
-13.66
-13.84
-11.91
-7.48
-0.8
7.25
15.58
23.1
29.1
33.3
35.8
36.96
37.18
36.83
35.98
34.34
31.15
25.41
16.29
3.57
-12.02
-28.92
-45.15
-59.04
-69.7
-77.15
-82.07
-85.23
-87.15
-87.95
-87.55
-85.95
-83.43
-80.55
-77.91
-76.01
-75.1
-75.25
-76.42
-78.5
-81.13
-83.53
-84.49
-82.53
-76.45
-65.82
-51.3
-34.56
-17.72
-2.73
9.22
17.85
23.61
27.23
29.41
30.58
30.94
30.63
29.7
28.29
26.57
24.83
23.38
22.6
22.77
24.05
26.45
29.87
34.16
39.16
44.66
50.38
55.94
61.05
65.51
69.31
72.52
75.08
76.71
76.9
75.09
70.95
64.78
57.54
50.84
46.48
45.94
49.83
57.63
67.92
78.82
88.66
96.46
101.93
105.19
106.36
105.34
101.9
96.05
88.27
79.48
70.66
62.44
54.78
47.17
39.11
30.5
21.88
14.11
7.95
3.59
0.6
-1.85
-4.53
-7.8
-11.53
-15.27
-18.55
-21.2
-23.42
-25.65
-28.35
-31.81
-36.05
-40.76
-45.39
-49.25
-51.59
-51.83
-49.69
-45.35
-39.43
-32.82
-26.45
-21.03
-16.97
-14.29
-12.84
-12.39
-12.76
-13.82
-15.47
-17.61
-20.06
-22.59
-24.95
-26.94
-28.54
-29.93
-31.42
-33.39
-36.12
-39.75
-44.21
-49.37
-55.06
-61.16
-67.62
-74.44
-81.64
-89.22
-97.1
-105.04
-112.6
-119.06
-123.47
-124.71
-121.73
-113.74
-100.6
-82.98
-62.42
-41.03
-20.95
-3.83
9.54
19.24
25.89
30.23
32.82
34.01
33.96
32.95
31.4
29.8
28.55
27.78
27.33
26.86
25.96
24.35
21.97
18.97
15.69
12.48
9.6
7.11
4.88
2.66
0.17
-2.81
-6.44
-10.8
-15.84
-21.35
-26.8
-31.33
-33.86
-33.39
-29.35
-21.89
-11.83
-0.4
11.14
21.77
30.86
38.04
43.11
45.97
46.72
45.73
43.65
41.23
39.03
37.23
35.56
33.62
31.1
28.14
25.22
23.01
21.99
22.14
22.92
23.41
22.74
20.45
16.67
12.08
7.52
3.66
0.66
-1.78
-4.3
-7.55
-11.96
-17.53
-23.72
-29.53
-33.7
-35.08
-33.05
-27.8
-20.41
-12.56
-5.97
-1.92
-0.87
-2.42
-5.64
-9.52
-13.4
-17.07
-20.81
-24.94
-29.59
-34.37
-38.49
-41.05
-41.46
-39.74
-36.48
-32.51
-28.44
-24.51
-20.75
-17.21
-14.24
-12.36
-11.97
-12.99
-14.78
-16.41
-17.13
-16.76
-15.69
-14.62
-14
-13.65
-12.76
-10.2
-5.09
2.73
12.54
22.94
32.29
39.29
43.18
43.82
41.5
36.74
30.25
22.93
15.84
10.06
6.34
4.83
5.04
6.08
6.99
7.17
6.52
5.34
4.08
3.03
2.3
1.73
1.04
-0.04
-1.61
-3.57
-5.69
-7.75
-9.77
-12.02
-15.02
-19.22
-24.69
-30.93
-36.77
-40.73
-41.46
-38.25
-31.21
-21.3
-10
1.17
11
18.8
24.4
27.9
29.49
29.29
27.43
24.12
19.79
15.06
10.58
6.79
3.8
1.36
-1.06
-4.08
-8.19
-13.55
-19.98
-26.84
-33.25
-38.24
-41.05
-41.44
-39.83
-37.27
-35.17
-34.8
-36.91
-41.48
-47.72
-54.31
-59.76
-62.71
-62.14
-57.53
-48.9
-36.87
-22.54
-7.38
7.11
19.62
29.32
35.86
39.29
39.92
38.13
34.37
29.18
23.23
17.27
11.97
7.81
5.07
3.78
3.86
5.13
7.33
10.07
12.81
14.89
15.73
14.96
12.55
8.86
4.47
-0.06
-4.36
-8.48
-12.78
-17.67
-23.29
-29.18
-34.24
-37.02
-36.13
-30.82
-21.27
-8.64
5.33
18.7
29.92
38.07
43.03
45.17
45.22
43.87
41.68
39.01
36.18
33.57
31.61
30.79
31.35
33.2
35.86
38.58
40.68
41.65
41.38
40.03
37.91
35.3
32.32
29.03
25.4
21.52
17.49
13.36
8.99
4.02
-2.01
-9.38
-17.92
-26.86
-34.92
-40.69
-43.05
-41.54
-36.52
-29.01
-20.43
-12.17
-5.36
-0.6
2.04
2.89
2.49
1.41
0.05
-1.35
-2.64
-3.66
-4.21
-4.03
-3.05
-1.37
0.67
2.64
4.21
5.32
6.15
7
8.12
9.52
10.99
12.19
12.86
12.9
12.48
11.86
11.29
10.88
10.54
10.16
9.72
9.39
9.54
10.58
12.75
16.01
19.96
24
27.56
30.18
31.65
32.02
31.47
30.25
28.47
26.06
22.8
18.48
13.07
6.78
-0.07
-7.21
-14.48
-21.82
-29.04
-35.69
-41.08
-44.49
-45.52
-44.26
-41.31
-37.63
-34.15
-31.66
-30.68
-31.48
-34.14
-38.44
-43.8
-49.25
-53.44
-54.95
-52.59
-45.86
-35.17
-21.83
-7.76
5.18
15.72
23.54
29.18
33.59
37.6
41.49
45.04
47.83
49.52
50.17
50.21
50.18
50.52
51.38
52.61
53.93
54.97
55.36
54.67
52.46
48.28
41.86
33.29
23.06
12.12
1.66
-7.19
-13.78
-18.21
-21.4
-24.8
-29.7
-36.53
-44.37
-51.09
-54.07
-51.35
-42.53
-28.97
-13.3
1.63
13.71
22.11
27.11
29.5
30.01
28.95
26.32
22.11
16.62
10.45
4.38
-0.96
-5.19
-8.12
-9.71
-9.99
-9.1
-7.54
-6.12
-5.93
-7.96
-12.81
-20.4
-30.07
-40.67
-50.97
-59.85
-66.6
-70.93
-72.98
-73.16
-72.03
-69.99
-67.24
-63.64
-58.93
-52.84
-45.35
-36.67
-27.29
-17.81
-8.81
-0.72
6.26
12.12
17.06
21.29
25.02
28.32
31.18
33.52
35.3
36.58
37.53
38.37
39.18
39.8
39.82
38.68
35.93
31.4
25.39
18.44
11.13
3.76
-3.71
-11.77
-21.18
-32.85
-47.57
-65.64
-86.5
-108.41
-128.53
-143.44
-150.16
-147.23
-135.44
-117.7
-98.15
-80.66
-67.58
-59.24
-54.3
-50.82
-47.38
-43.65
-40.3
-38.38
-38.5
-40.27
-42.27
-42.6
-39.59
-32.49
-21.83
-9.31
2.73
11.95
16.72
16.47
11.67
3.5
-6.6
-17.29
-27.47
-36.44
-43.81
-49.6
-54.13
-57.77
-60.65
-62.29
-61.65
-57.44
-48.68
-35.38
-18.69
-0.69
16.32
30.49
40.94
47.8
51.91
54.24
55.59
56.26
56.17
55.05
52.75
49.45
45.7
42.33
40.07
39.32
39.98
41.51
43.16
44.23
44.29
43.24
41.23
38.57
35.58
32.48
29.34
26.04
22.36
18
12.69
6.24
-1.26
-9.34
-17.05
-22.99
-25.61
-23.68
-16.76
-5.49
8.56
23.3
36.82
47.83
55.94
61.41
64.79
66.51
66.59
64.72
60.53
53.91
45.33
35.83
26.76
19.29
14.04
10.84
8.85
6.97
4.23
0.08
-5.54
-12.19
-19.19
-25.76
-31.25
-35.36
-38.23
-40.43
-42.78
-46.03
-50.61
-56.46
-63.02
-69.26
-73.91
-75.63
-73.26
-66.01
-53.82
-37.26
-17.54
3.71
24.64
43.35
58.06
67.39
70.7
68.45
62.3
54.74
48.48
45.57
46.78
51.47
57.84
63.76
67.42
68
65.71
61.64
57.22
53.81
52.27
52.78
54.99
58.22
61.77
65.06
67.66
69.18
69.27
67.61
64.08
58.92
52.78
46.63
41.51
38.24
37.24
38.44
41.39
45.43
49.9
54.23
58.1
61.45
64.47
67.48
70.63
73.7
75.93
76.06
72.67
64.71
52.11
36.01
18.64
2.55
-10.21
-18.76
-23.43
-25.25
-25.16
-23.54
-20.27
-15.34
-9.38
-3.83
-0.52
-0.76
-4.79
-11.62
-19.54
-26.84
-32.38
-35.76
-37.11
-36.83
-35.33
-33.08
-30.62
-28.55
-27.3
-26.91
-26.75
-25.7
-22.51
-16.41
-7.58
2.73
12.58
19.98
23.53
22.69
17.72
9.3
-1.64
-14.11
-26.92
-38.66
-47.83
-53.23
-54.23
-50.93
-44.13
-34.99
-24.78
-14.59
-5.28
2.67
9.13
14.35
18.75
22.77
26.63
30.27
33.41
35.68
36.77
36.32
33.91
28.94
20.77
9.02
-6.01
-23.08
-40.07
-54.42
-63.85
-67
-63.81
-55.42
-43.71
-30.74
-18.32
-7.75
0.31
5.78
9.13
11.24
13.03
15.15
17.68
20.19
21.95
22.37
21.23
18.76
15.48
11.91
8.42
5.21
2.38
-0.2
-2.8
-5.84
-9.83
-15.05
-21.39
-28.31
-35.07
-41.1
-46.25
-50.89
-55.82
-61.88
-69.7
-79.37
-90.29
-101.17
-110.32
-116.11
-117.41
-113.99
-106.54
-96.36
-84.81
-72.94
-61.33
-50.27
-40.05
-31.09
-23.86
-18.58
-15.11
-12.92
-11.38
-9.93
-8.19
-5.87
-2.63
1.97
8.37
16.75
26.85
37.89
48.75
58.28
65.64
70.43
72.71
72.86
71.41
68.83
65.49
61.63
57.32
52.5
47.05
40.89
34.13
27.21
20.93
16.31
14.3
15.39
19.41
25.48
32.3
38.56
43.31
46.18
47.31
47.14
46.12
44.59
42.72
40.54
38.09
35.43
32.72
30.11
27.75
25.84
24.51
23.87
23.89
24.38
24.96
25.18
24.64
23.13
20.72
17.72
14.59
11.67
9.12
6.8
4.33
1.25
-2.79
-7.8
-13.36
-18.63
-22.57
-24.24
-23.1
-19.23
-13.27
-6.25
0.73
6.8
11.48
14.66
16.46
17.12
16.84
15.76
14.04
11.87
9.51
7.24
5.31
3.9
3.08
2.8
2.95
3.31
3.63
3.67
3.29
2.49
1.35
-0
-1.53
-3.32
-5.57
-8.46
-12.09
-16.42
-21.27
-26.32
-31.11
-35.07
-37.58
-38.12
-36.48
-32.87
-27.92
-22.52
-17.54
-13.59
-10.9
-9.37
-8.79
-9.03
-10.06
-11.93
-14.53
-17.51
-20.28
-22.27
-23.12
-22.86
-21.84
-20.56
-19.51
-18.96
-18.97
-19.39
-19.88
-20
-19.26
-17.22
-13.64
-8.59
-2.45
4.17
10.72
16.94
23.13
30.09
38.86
50.3
64.66
81.35
99.08
116.16
131.04
142.63
150.43
154.43
154.97
152.56
147.76
141.08
132.86
123.27
112.29
99.9
86.2
71.48
56.24
41.05
26.55
13.34
2
-7.1
-13.93
-18.91
-22.86
-26.7
-31.16
-36.62
-43.21
