2023-01-28 13:52:50.074786,-0.037118595093488624
2023-01-28 13:52:50.079786,-0.041141255216680904
2023-01-28 13:52:50.084786,-0.059692662209272294
2023-01-28 13:52:50.089786,-0.07177132909830297
2023-01-28 13:52:50.094786,-0.07212162017822257
2023-01-28 13:52:50.099786,-0.07224526839995711
2023-01-28 13:52:50.104786,-0.07801155745983125
2023-01-28 13:52:50.109786,-0.08328766414304702
2023-01-28 13:52:50.114786,-0.08474290370941157
2023-01-28 13:52:50.119786,-0.08781005900892808
2023-01-28 13:52:50.124786,-0.09539286792278275
2023-01-28 13:52:50.129786,-0.10237658868120163
2023-01-28 13:52:50.134786,-0.10467251390218735
2023-01-28 13:52:50.139786,-0.10415724086432722
2023-01-28 13:52:50.144786,-0.1010904759168624
2023-01-28 13:52:50.149786,-0.08975859838075913
2023-01-28 13:52:50.154786,-0.06565471738576872
2023-01-28 13:52:50.159786,-0.03095501129410139
2023-01-28 13:52:50.164786,0.009784500114619721
2023-01-28 13:52:50.169786,0.053073383302980344
2023-01-28 13:52:50.174786,0.09258012473583219
2023-01-28 13:52:50.179786,0.11781931169653657
2023-01-28 13:52:50.184786,0.1212364435195922
2023-01-28 13:52:50.189786,0.10366505230876714
2023-01-28 13:52:50.194786,0.07106383889913549
2023-01-28 13:52:50.199786,0.030124133422376624
2023-01-28 13:52:50.204786,-0.011130770668387337
2023-01-28 13:52:50.209786,-0.043767360351342155
2023-01-28 13:52:50.214786,-0.06317853927612302
2023-01-28 13:52:50.219786,-0.07164752826149792
2023-01-28 13:52:50.224786,-0.07368426024913777
2023-01-28 13:52:50.229786,-0.0715117111807584
2023-01-28 13:52:50.234786,-0.06644805520772926
2023-01-28 13:52:50.239786,-0.060853724483018554
2023-01-28 13:52:50.244786,-0.056038498878479004
2023-01-28 13:52:50.249786,-0.05093681907833917
2023-01-28 13:52:50.254786,-0.04507601261138906
2023-01-28 13:52:50.259786,-0.04046638333214187
2023-01-28 13:52:50.264786,-0.03870527073740946
2023-01-28 13:52:50.269786,-0.038597004295514284
2023-01-28 13:52:50.274786,-0.03834466263651842
2023-01-28 13:52:50.279786,-0.03771084123933013
2023-01-28 13:52:50.284786,-0.0363733395934104
2023-01-28 13:52:50.289786,-0.03263978914112415
2023-01-28 13:52:50.294786,-0.02577145956456663
2023-01-28 13:52:50.299786,-0.017621358277231877
2023-01-28 13:52:50.304786,-0.010313391685485866
2023-01-28 13:52:50.309786,-0.004122997128948682
2023-01-28 13:52:50.314786,0.0010818243026732878
2023-01-28 13:52:50.319786,0.004545476928693603
2023-01-28 13:52:50.324786,0.006442864891141663
2023-01-28 13:52:50.329786,0.009071705250766664
2023-01-28 13:52:50.334786,0.014544527046382413
2023-01-28 13:52:50.339786,0.02277844108706652
2023-01-28 13:52:50.344786,0.03291150182485581
2023-01-28 13:52:50.349786,0.0448226042579306
2023-01-28 13:52:50.354786,0.05788962170481682
2023-01-28 13:52:50.359786,0.07011524056052634
2023-01-28 13:52:50.364786,0.08012712001800526
2023-01-28 13:52:50.369786,0.08868869602492338
2023-01-28 13:52:50.374786,0.09702762216329569
2023-01-28 13:52:50.379786,0.10516273862422146
2023-01-28 13:52:50.384786,0.1129665002226829
2023-01-28 13:52:50.389786,0.1211198378377405
2023-01-28 13:52:50.394786,0.12955448031425465
2023-01-28 13:52:50.399786,0.13632925380760869
2023-01-28 13:52:50.404786,0.13933897018432606
2023-01-28 13:52:50.409786,0.13789867505823158
2023-01-28 13:52:50.414786,0.13167004287242878
2023-01-28 13:52:50.419786,0.1196130775570751
2023-01-28 13:52:50.424786,0.10133087635040279
2023-01-28 13:52:50.429786,0.07820567852491032
2023-01-28 13:52:50.434786,0.05209585279226303
2023-01-28 13:52:50.439786,0.02419023611712551
2023-01-28 13:52:50.444786,-0.003846486564725578
2023-01-28 13:52:50.449786,-0.029106205294841814
2023-01-28 13:52:50.454786,-0.049210987985134104
2023-01-28 13:52:50.459786,-0.06388993039904538
2023-01-28 13:52:50.464786,-0.07392466068267817
2023-01-28 13:52:50.469786,-0.07982625846433224
2023-01-28 13:52:50.474786,-0.08250713348388664
2023-01-28 13:52:50.479786,-0.08377689772648152
2023-01-28 13:52:50.484786,-0.08479098975658407
2023-01-28 13:52:50.489786,-0.08497515600731914
2023-01-28 13:52:50.494786,-0.08349280059337608
2023-01-28 13:52:50.499786,-0.0807112876217382
2023-01-28 13:52:50.504786,-0.07733841985464085
2023-01-28 13:52:50.509786,-0.07340937367503668
2023-01-28 13:52:50.514786,-0.0692367553710937
2023-01-28 13:52:50.519786,-0.06617686712662066
2023-01-28 13:52:50.524786,-0.0652700662612915
2023-01-28 13:52:50.529786,-0.06608013523351575
2023-01-28 13:52:50.534786,-0.06781836599111546
2023-01-28 13:52:50.539786,-0.07050141571477532
2023-01-28 13:52:50.544786,-0.07402082532644269
2023-01-28 13:52:50.549786,-0.07726466210834457
2023-01-28 13:52:50.554786,-0.0793097466230392
2023-01-28 13:52:50.559786,-0.08047258779292654
2023-01-28 13:52:50.564786,-0.08116086572408672
2023-01-28 13:52:50.569786,-0.08076646221638129
2023-01-28 13:52:50.574786,-0.07875680923461909
2023-01-28 13:52:50.579786,-0.0757993690969624
2023-01-28 13:52:50.584786,-0.07274667918682087
2023-01-28 13:52:50.589786,-0.06957399624539895
2023-01-28 13:52:50.594786,-0.06635189056396476
2023-01-28 13:52:50.599786,-0.0640712254075178
2023-01-28 13:52:50.604786,-0.06325066089630119
2023-01-28 13:52:50.609786,-0.0627355965928122
2023-01-28 13:52:50.614786,-0.06106297299265863
2023-01-28 13:52:50.619786,-0.05806525876078937
2023-01-28 13:52:50.624786,-0.05413929745554921
2023-01-28 13:52:50.629786,-0.04924305182650677
2023-01-28 13:52:50.634786,-0.0439701490104198
2023-01-28 13:52:50.639786,-0.040404657832101336
2023-01-28 13:52:50.644786,-0.04034002870321269
2023-01-28 13:52:50.649786,-0.043536309798179504
2023-01-28 13:52:50.654786,-0.04899462312459939
2023-01-28 13:52:50.659786,-0.05668980692826742
2023-01-28 13:52:50.664786,-0.06642401218414298
2023-01-28 13:52:50.669786,-0.07620953599254235
2023-01-28 13:52:50.674786,-0.08378128707408893
2023-01-28 13:52:50.679786,-0.08885136545090408
2023-01-28 13:52:50.684786,-0.09202718734741205
2023-01-28 13:52:50.689786,-0.09258037058845733
2023-01-28 13:52:50.694786,-0.0896471738815307
2023-01-28 13:52:50.699786,-0.08497492040996502
2023-01-28 13:52:50.704786,-0.08197824656963332
2023-01-28 13:52:50.709786,-0.08225180295740432
2023-01-28 13:52:50.714786,-0.08512755483388898
2023-01-28 13:52:50.719786,-0.09008059344456226
2023-01-28 13:52:50.724786,-0.09671509265899644
2023-01-28 13:52:50.729786,-0.10238670867962155
2023-01-28 13:52:50.734786,-0.10301371663808812
2023-01-28 13:52:50.739786,-0.0971272076253851
2023-01-28 13:52:50.744786,-0.0863536223769187
2023-01-28 13:52:50.749786,-0.07081322390335121
2023-01-28 13:52:50.754786,-0.04716753959655756
2023-01-28 13:52:50.759786,-0.01374214578754841
2023-01-28 13:52:50.764786,0.024136703461408667
2023-01-28 13:52:50.769786,0.056265136985574594
2023-01-28 13:52:50.774786,0.07416506856679901
2023-01-28 13:52:50.779786,0.07433383332935962
2023-01-28 13:52:50.784786,0.057240527123212794
2023-01-28 13:52:50.789786,0.026665150695674086
2023-01-28 13:52:50.794786,-0.009952783584594702
2023-01-28 13:52:50.799786,-0.043569969101027034
2023-01-28 13:52:50.804786,-0.06784240901470161
2023-01-28 13:52:50.809786,-0.0812726838252812
2023-01-28 13:52:50.814786,-0.08556028455495826
2023-01-28 13:52:50.819786,-0.08325315350391421
2023-01-28 13:52:50.824786,-0.07700185477733604
2023-01-28 13:52:50.829786,-0.0692566070285517
2023-01-28 13:52:50.834786,-0.06144762039184569
2023-01-28 13:52:50.839786,-0.05388511047677471
2023-01-28 13:52:50.844786,-0.04685501381754866
2023-01-28 13:52:50.849786,-0.04120622481429505
2023-01-28 13:52:50.854786,-0.037527285516261985
2023-01-28 13:52:50.859786,-0.03540123465086351
2023-01-28 13:52:50.864786,-0.03392120450735082
2023-01-28 13:52:50.869786,-0.032490967317483646
2023-01-28 13:52:50.874786,-0.030844014137983322
2023-01-28 13:52:50.879786,-0.028855048113779858
2023-01-28 13:52:50.884786,-0.02678116224706168
2023-01-28 13:52:50.889786,-0.025267966533303775
2023-01-28 13:52:50.894786,-0.02464155480265616
2023-01-28 13:52:50.899786,-0.02438658263943855
2023-01-28 13:52:50.904786,-0.023559730499982796
2023-01-28 13:52:50.909786,-0.021430122006245122
2023-01-28 13:52:50.914786,-0.017525553703308126
2023-01-28 13:52:50.919786,-0.011490884330760072
2023-01-28 13:52:50.924786,-0.0033175945281981
2023-01-28 13:52:50.929786,0.0065092554029490745
2023-01-28 13:52:50.934786,0.017405351623892697
2023-01-28 13:52:50.939786,0.02904309298915091
2023-01-28 13:52:50.944786,0.041109323501586935
2023-01-28 13:52:50.949786,0.053009427147342573
2023-01-28 13:52:50.954786,0.06414016336202619
2023-01-28 13:52:50.959786,0.07427622755159076
2023-01-28 13:52:50.964786,0.08344471454620367
2023-01-28 13:52:50.969786,0.09163874157588499
2023-01-28 13:52:50.974786,0.09890278428792956
2023-01-28 13:52:50.979786,0.10543410474658081
2023-01-28 13:52:50.984786,0.11123558133840555
2023-01-28 13:52:50.989786,0.11577156019567844
2023-01-28 13:52:50.994786,0.11818329989910122
2023-01-28 13:52:50.999786,0.11766566612626218
2023-01-28 13:52:51.004786,0.11344730854034418
2023-01-28 13:52:51.009786,0.10474187941219536
2023-01-28 13:52:51.014786,0.09118577092885967
2023-01-28 13:52:51.019786,0.07331287912709501
2023-01-28 13:52:51.024786,0.05240837857127174
2023-01-28 13:52:51.029786,0.03003538066564925
2023-01-28 13:52:51.034786,0.007813176140189048
2023-01-28 13:52:51.039786,-0.012778878263482719
2023-01-28 13:52:51.044786,-0.030916135758161496
2023-01-28 13:52:51.049786,-0.04670760113180565
2023-01-28 13:52:51.054786,-0.0606542825698852
2023-01-28 13:52:51.059786,-0.07287351976684653
2023-01-28 13:52:51.064786,-0.08298794925212857
2023-01-28 13:52:51.069786,-0.09049159812444244
2023-01-28 13:52:51.074786,-0.09493609517812718
2023-01-28 13:52:51.079786,-0.09607832642298672
2023-01-28 13:52:51.084786,-0.09433507919311515
2023-01-28 13:52:51.089786,-0.09099113931420565
2023-01-28 13:52:51.094786,-0.08755564689636226
2023-01-28 13:52:51.099786,-0.08489522638009185
2023-01-28 13:52:51.104786,-0.08310814946889872
2023-01-28 13:52:51.109786,-0.08191252457828094
2023-01-28 13:52:51.114786,-0.08080025762319559
2023-01-28 13:52:51.119786,-0.07912859526423653
2023-01-28 13:52:51.124786,-0.07661720365285868
2023-01-28 13:52:51.129786,-0.07372380443581564
2023-01-28 13:52:51.134786,-0.07120808213949188
2023-01-28 13:52:51.139786,-0.06944454664215297
2023-01-28 13:52:51.144786,-0.06839533895254125
2023-01-28 13:52:51.149786,-0.06792591608457882
2023-01-28 13:52:51.154786,-0.06772220134735103
2023-01-28 13:52:51.159786,-0.06718515632488298
2023-01-28 13:52:51.164786,-0.06594320386648173
2023-01-28 13:52:51.169786,-0.06435904566911507
2023-01-28 13:52:51.174786,-0.06315450370311727
2023-01-28 13:52:51.179786,-0.06271311246631527
2023-01-28 13:52:51.184786,-0.06303429603576656
2023-01-28 13:52:51.189786,-0.06394500846123122
2023-01-28 13:52:51.194786,-0.06481330096721641
2023-01-28 13:52:51.199786,-0.06439494355863971
2023-01-28 13:52:51.204786,-0.0616399459540843
2023-01-28 13:52:51.209786,-0.0565951885853357
2023-01-28 13:52:51.214786,-0.050196647644042816
2023-01-28 13:52:51.219786,-0.04356794710063453
2023-01-28 13:52:51.224786,-0.03798405453562729
2023-01-28 13:52:51.229786,-0.03494997183604307
2023-01-28 13:52:51.234786,-0.0354357585310935
2023-01-28 13:52:51.239786,-0.039166724487865415
2023-01-28 13:52:51.244786,-0.04519621655344963
2023-01-28 13:52:51.249786,-0.05281074715403305
2023-01-28 13:52:51.254786,-0.061303377151489216
2023-01-28 13:52:51.259786,-0.06944649445108744
2023-01-28 13:52:51.264786,-0.07611235231161109
2023-01-28 13:52:51.269786,-0.0811009430537229
2023-01-28 13:52:51.274786,-0.08462270349264137
2023-01-28 13:52:51.279786,-0.08649845326097151
2023-01-28 13:52:51.284786,-0.08678635209798813
2023-01-28 13:52:51.289786,-0.08661792182846538
2023-01-28 13:52:51.294786,-0.08726716041564936
2023-01-28 13:52:51.299786,-0.08878574962618567
2023-01-28 13:52:51.304786,-0.0905366763472557
2023-01-28 13:52:51.309786,-0.09230815177043564
2023-01-28 13:52:51.314786,-0.0934455841779708
2023-01-28 13:52:51.319786,-0.09151945616097017
2023-01-28 13:52:51.324786,-0.08361300081014619
2023-01-28 13:52:51.329786,-0.06865832874423823
2023-01-28 13:52:51.334786,-0.0471194609999656
2023-01-28 13:52:51.339786,-0.019529287219601822
2023-01-28 13:52:51.344786,0.011900067329406724
2023-01-28 13:52:51.349786,0.04065489435165284
2023-01-28 13:52:51.354786,0.058490633964538505
2023-01-28 13:52:51.359786,0.0618891944232221
2023-01-28 13:52:51.364786,0.05363444611430163
2023-01-28 13:52:51.369786,0.037405979434420464
2023-01-28 13:52:51.374786,0.014207959175109735
2023-01-28 13:52:51.379786,-0.013988805846629763
2023-01-28 13:52:51.384786,-0.04050831124186514
2023-01-28 13:52:51.389786,-0.05772216029092131
2023-01-28 13:52:51.394786,-0.06358723342418678
2023-01-28 13:52:51.399786,-0.061837986249399714
2023-01-28 13:52:51.404786,-0.056711636483669184
2023-01-28 13:52:51.409786,-0.050195960935442846
2023-01-28 13:52:51.414786,-0.04363358020782474
2023-01-28 13:52:51.419786,-0.038569922437569494
2023-01-28 13:52:51.424786,-0.035171311348676626
2023-01-28 13:52:51.429786,-0.031982406724652544
2023-01-28 13:52:51.434786,-0.028127431869506773
2023-01-28 13:52:51.439786,-0.024347648937011048
2023-01-28 13:52:51.444786,-0.021468203514814266
2023-01-28 13:52:51.449786,-0.019309208683342707
2023-01-28 13:52:51.454786,-0.017573636025190274
2023-01-28 13:52:51.459786,-0.016424129303942842
2023-01-28 13:52:51.464786,-0.015554229728877515
2023-01-28 13:52:51.469786,-0.01379652884535199
2023-01-28 13:52:51.474786,-0.01028935145586722
2023-01-28 13:52:51.479786,-0.005257333154225458
2023-01-28 13:52:51.484786,0.0006971756811253442
2023-01-28 13:52:51.489786,0.0072039753477121824
2023-01-28 13:52:51.494786,0.01370310783386229
2023-01-28 13:52:51.499786,0.019368743036790575
2023-01-28 13:52:51.504786,0.024040540680289258
2023-01-28 13:52:51.509786,0.02864891952998001
2023-01-28 13:52:51.514786,0.0343298912048339
2023-01-28 13:52:51.519786,0.04160389036880376
2023-01-28 13:52:51.524786,0.05055725574493398
2023-01-28 13:52:51.529786,0.06107583039717111
2023-01-28 13:52:51.534786,0.07253031432628629
2023-01-28 13:52:51.539786,0.08385969117262301
2023-01-28 13:52:51.544786,0.09443124383687963
2023-01-28 13:52:51.549786,0.10447467903183912
2023-01-28 13:52:51.554786,0.11445701122283927
2023-01-28 13:52:51.559786,0.12443758722428135
2023-01-28 13:52:51.564786,0.1341462135314941
2023-01-28 13:52:51.569786,0.1430928992675078
2023-01-28 13:52:51.574786,0.15025338530540458
2023-01-28 13:52:51.579786,0.15406372395814183
2023-01-28 13:52:51.584786,0.15309016406536097
2023-01-28 13:52:51.589786,0.14655858005020467
2023-01-28 13:52:51.594786,0.1342664211988449
2023-01-28 13:52:51.599786,0.11651945064810464
2023-01-28 13:52:51.604786,0.09443124383687969
2023-01-28 13:52:51.609786,0.06990632527380161
2023-01-28 13:52:51.614786,0.044979851692914914
2023-01-28 13:52:51.619786,0.02123761210306299
2023-01-28 13:52:51.624786,-0.00019232432532578512
2023-01-28 13:52:51.629786,-0.018533769319328142
2023-01-28 13:52:51.634786,-0.03346443176269527
2023-01-28 13:52:51.639786,-0.04503799927902957
2023-01-28 13:52:51.644786,-0.0533219203352928
2023-01-28 13:52:51.649786,-0.058325269049417726
2023-01-28 13:52:51.654786,-0.06038983911275858
2023-01-28 13:52:51.659786,-0.06040348992966066
2023-01-28 13:52:51.664786,-0.0594762973487377
2023-01-28 13:52:51.669786,-0.05853807651660603
2023-01-28 13:52:51.674786,-0.058226190507411915
2023-01-28 13:52:51.679786,-0.05883398652770995
2023-01-28 13:52:51.684786,-0.060197513550519874
2023-01-28 13:52:51.689786,-0.0618170416442477
2023-01-28 13:52:51.694786,-0.06322662532329548
2023-01-28 13:52:51.699786,-0.06415071439779203
2023-01-28 13:52:51.704786,-0.06430844962596889
2023-01-28 13:52:51.709786,-0.06330577816471723
2023-01-28 13:52:51.714786,-0.06087064743041996
2023-01-28 13:52:51.719786,-0.05713951570705114
2023-01-28 13:52:51.724786,-0.052720904350280665
2023-01-28 13:52:51.729786,-0.04859086899572774
2023-01-28 13:52:51.734786,-0.045845311135053614
2023-01-28 13:52:51.739786,-0.04523289900342414
2023-01-28 13:52:51.744786,-0.04668673127889632
2023-01-28 13:52:51.749786,-0.04929677451311251
2023-01-28 13:52:51.754786,-0.05180736631155001
2023-01-28 13:52:51.759786,-0.053252507573565915
2023-01-28 13:52:51.764786,-0.05334595963358875
2023-01-28 13:52:51.769786,-0.05249593551107164
2023-01-28 13:52:51.774786,-0.05144675821065893
2023-01-28 13:52:51.779786,-0.050702198414097975
2023-01-28 13:52:51.784786,-0.050100486725568695
2023-01-28 13:52:51.789786,-0.04884266953921771
2023-01-28 13:52:51.794786,-0.045917432755231816
2023-01-28 13:52:51.799786,-0.040662732966169624
2023-01-28 13:52:51.804786,-0.03324806690216056
2023-01-28 13:52:51.809786,-0.024863338840980874
2023-01-28 13:52:51.814786,-0.017429392784833887
2023-01-28 13:52:51.819786,-0.012935304367820985
2023-01-28 13:52:51.824786,-0.0127655267715454
2023-01-28 13:52:51.829786,-0.01725020202984996
2023-01-28 13:52:51.834786,-0.02548297308385375
2023-01-28 13:52:51.839786,-0.035545856048073046
2023-01-28 13:52:51.844786,-0.04524429887533184
2023-01-28 13:52:51.849786,-0.053000259393401354
2023-01-28 13:52:51.854786,-0.058322351425886036
2023-01-28 13:52:51.859786,-0.06170712362737089
2023-01-28 13:52:51.864786,-0.06423632800579071
2023-01-28 13:52:51.869786,-0.06700230131089134
2023-01-28 13:52:51.874786,-0.07043878734111783
2023-01-28 13:52:51.879786,-0.07400139335177279
2023-01-28 13:52:51.884786,-0.0765931606292724
2023-01-28 13:52:51.889786,-0.07735159997626172
2023-01-28 13:52:51.894786,-0.0760402306914329
2023-01-28 13:52:51.899786,-0.07288396364558676
2023-01-28 13:52:51.904786,-0.06815493106842045
2023-01-28 13:52:51.909786,-0.06156981345188597
2023-01-28 13:52:51.914786,-0.05163908004760741
2023-01-28 13:52:51.919786,-0.03578472518944781
2023-01-28 13:52:51.924786,-0.011827945709228562
2023-01-28 13:52:51.929786,0.01999543563176153
2023-01-28 13:52:51.934786,0.05601445958018301
2023-01-28 13:52:51.939786,0.08961904520026233
2023-01-28 13:52:51.944786,0.11289437860250462
2023-01-28 13:52:51.949786,0.11919129061032431
2023-01-28 13:52:51.954786,0.10609090328216547
2023-01-28 13:52:51.959786,0.07696330709072653
2023-01-28 13:52:51.964786,0.039594769477844224
2023-01-28 13:52:51.969786,0.0028640842008123995
2023-01-28 13:52:51.974786,-0.02610802650451659
2023-01-28 13:52:51.979786,-0.04342651685597517
2023-01-28 13:52:51.984786,-0.04911482334136961
2023-01-28 13:52:51.989786,-0.04678190121275163
2023-01-28 13:52:51.994786,-0.041397809982299826
2023-01-28 13:52:51.999786,-0.036331956862006465
2023-01-28 13:52:52.004786,-0.03238260746002197
2023-01-28 13:52:52.009786,-0.02930930692605051
2023-01-28 13:52:52.014786,-0.02731005474925039
2023-01-28 13:52:52.019786,-0.026655391441671998
2023-01-28 13:52:52.024786,-0.026781162247061747
2023-01-28 13:52:52.029786,-0.026572417236801118
2023-01-28 13:52:52.034786,-0.025290649384260133
2023-01-28 13:52:52.039786,-0.022789012799848126
2023-01-28 13:52:52.044786,-0.01918435096740722
2023-01-28 13:52:52.049786,-0.014860691831958503
2023-01-28 13:52:52.054786,-0.010601878166198711
2023-01-28 13:52:52.059786,-0.007191428818769111
2023-01-28 13:52:52.064786,-0.004784067627042591
2023-01-28 13:52:52.069786,-0.0027985385560483187
2023-01-28 13:52:52.074786,-0.00031252703047346603
2023-01-28 13:52:52.079786,0.0035168765973910563
2023-01-28 13:52:52.084786,0.009111365303397083
2023-01-28 13:52:52.089786,0.01620829583493188
2023-01-28 13:52:52.094786,0.023968419060110987
2023-01-28 13:52:52.099786,0.03150947026853413
2023-01-28 13:52:52.104786,0.038392744958400685
2023-01-28 13:52:52.109786,0.044745008296978674
2023-01-28 13:52:52.114786,0.05118231102824217
2023-01-28 13:52:52.119786,0.058613857668673025
2023-01-28 13:52:52.124786,0.06779432296752924
2023-01-28 13:52:52.129786,0.07887086771840228
2023-01-28 13:52:52.134786,0.09140213578939434
2023-01-28 13:52:52.139786,0.1047330409462677
2023-01-28 13:52:52.144786,0.11818329989910122
2023-01-28 13:52:52.149786,0.13102235338923238
2023-01-28 13:52:52.154786,0.14258444309234608
2023-01-28 13:52:52.159786,0.15236975647708892
2023-01-28 13:52:52.164786,0.15974938869476307
2023-01-28 13:52:52.169786,0.16361269597373587
2023-01-28 13:52:52.174786,0.16258618235588068
2023-01-28 13:52:52.179786,0.15561369200270878
2023-01-28 13:52:52.184786,0.14224788546562184
2023-01-28 13:52:52.189786,0.12272425514946474
2023-01-28 13:52:52.194786,0.09820561110973344
2023-01-28 13:52:52.199786,0.070820869771934
2023-01-28 13:52:52.204786,0.04298448562622066
2023-01-28 13:52:52.209786,0.016557262951223076
2023-01-28 13:52:52.214786,-0.0072842836380003885
2023-01-28 13:52:52.219786,-0.02774577613768339
2023-01-28 13:52:52.224786,-0.044426918029785156
2023-01-28 13:52:52.229786,-0.05741311224609323
2023-01-28 13:52:52.234786,-0.06690482795238485
2023-01-28 13:52:52.239786,-0.0728978147711147
2023-01-28 13:52:52.244786,-0.07558345794677736
2023-01-28 13:52:52.249786,-0.07581627916268172
2023-01-28 13:52:52.254786,-0.07474204152822482
2023-01-28 13:52:52.259786,-0.07313970244771753
2023-01-28 13:52:52.264786,-0.07144849002361287
2023-01-28 13:52:52.269786,-0.07005978305575358
2023-01-28 13:52:52.274786,-0.0690684765577316
2023-01-28 13:52:52.279786,-0.06805021546310755
2023-01-28 13:52:52.284786,-0.0666403770446777
2023-01-28 13:52:52.289786,-0.06510215753382677
2023-01-28 13:52:52.294786,-0.0638757199048995
2023-01-28 13:52:52.299786,-0.06292792252613674
2023-01-28 13:52:52.304786,-0.06207267567515373
2023-01-28 13:52:52.309786,-0.061544037333186016
2023-01-28 13:52:52.314786,-0.06166398525238024
2023-01-28 13:52:52.319786,-0.06232141509281022
2023-01-28 13:52:52.324786,-0.06337086856365201
2023-01-28 13:52:52.329786,-0.06511398072227213
2023-01-28 13:52:52.334786,-0.06772220134735092
2023-01-28 13:52:52.339786,-0.07059864792833324
2023-01-28 13:52:52.344786,-0.07298707962036129
2023-01-28 13:52:52.349786,-0.07478930472179064
2023-01-28 13:52:52.354786,-0.07613639533519742
2023-01-28 13:52:52.359786,-0.07670184647536268
2023-01-28 13:52:52.364786,-0.07620851695537564
2023-01-28 13:52:52.369786,-0.07507078204040624
2023-01-28 13:52:52.374786,-0.07370829582214347
2023-01-28 13:52:52.379786,-0.07176011984114995
2023-01-28 13:52:52.384786,-0.06880402565002446
2023-01-28 13:52:52.389786,-0.06524060338092055
2023-01-28 13:52:52.394786,-0.061567824333906104
2023-01-28 13:52:52.399786,-0.057446560167998595
2023-01-28 13:52:52.404786,-0.05248050019145017
2023-01-28 13:52:52.409786,-0.0472633049910996
2023-01-28 13:52:52.414786,-0.04264792054891582
2023-01-28 13:52:52.419786,-0.03874039959231602
2023-01-28 13:52:52.424786,-0.03572424501180646
2023-01-28 13:52:52.429786,-0.03481997592066541
2023-01-28 13:52:52.434786,-0.037094555795192705
2023-01-28 13:52:52.439786,-0.04203356840753896
2023-01-28 13:52:52.444786,-0.048513811081647804
2023-01-28 13:52:52.449786,-0.05625696453135914
2023-01-28 13:52:52.454786,-0.06493350118398662
2023-01-28 13:52:52.459786,-0.07291734857688632
2023-01-28 13:52:52.464786,-0.0786606520414352
2023-01-28 13:52:52.469786,-0.08240640986061118
2023-01-28 13:52:52.474786,-0.08491118997335427
2023-01-28 13:52:52.479786,-0.08566924683291476
2023-01-28 13:52:52.484786,-0.08435826003551483
2023-01-28 13:52:52.489786,-0.08275036156319669
2023-01-28 13:52:52.494786,-0.08281966298818573
2023-01-28 13:52:52.499786,-0.0840314896568391
2023-01-28 13:52:52.504786,-0.08479098975658408
2023-01-28 13:52:52.509786,-0.08501431942162282
2023-01-28 13:52:52.514786,-0.08428613841533661
2023-01-28 13:52:52.519786,-0.07901691876017666
2023-01-28 13:52:52.524786,-0.06512582302093498
2023-01-28 13:52:52.529786,-0.04251647693642019
2023-01-28 13:52:52.534786,-0.013414621353149365
2023-01-28 13:52:52.539786,0.021644294627365685
2023-01-28 13:52:52.544786,0.06075044721364958
2023-01-28 13:52:52.549786,0.09492680575180569
2023-01-28 13:52:52.554786,0.11272609233856201
2023-01-28 13:52:52.559786,0.11164686593112966
2023-01-28 13:52:52.564786,0.0985421761870384
2023-01-28 13:52:52.569786,0.07748654498752218
2023-01-28 13:52:52.574786,0.045340459793806034
2023-01-28 13:52:52.579786,0.003240360419912496
2023-01-28 13:52:52.584786,-0.035652123391628224
2023-01-28 13:52:52.589786,-0.05750604736411605
2023-01-28 13:52:52.594786,-0.06260156631469718
2023-01-28 13:52:52.599786,-0.06178212508882012
2023-01-28 13:52:52.604786,-0.06144762039184566
2023-01-28 13:52:52.609786,-0.05947417976822458
2023-01-28 13:52:52.614786,-0.0539950542151927
2023-01-28 13:52:52.619786,-0.04789745405956905
2023-01-28 13:52:52.624786,-0.043609540909528705
2023-01-28 13:52:52.629786,-0.03993690651340259
2023-01-28 13:52:52.634786,-0.03608485311269762
2023-01-28 13:52:52.639786,-0.03397364828968475
2023-01-28 13:52:52.644786,-0.03452221676707261
2023-01-28 13:52:52.649786,-0.03544290726413846
2023-01-28 13:52:52.654786,-0.034570299088954856
2023-01-28 13:52:52.659786,-0.032258541242734064
2023-01-28 13:52:52.664786,-0.02901693247258664
2023-01-28 13:52:52.669786,-0.023815438983768384
2023-01-28 13:52:52.674786,-0.016419690102338753
2023-01-28 13:52:52.679786,-0.008877005683518282
2023-01-28 13:52:52.684786,-0.0030531487427651076
2023-01-28 13:52:52.689786,0.001331392733558334
2023-01-28 13:52:52.694786,0.0051206350326537895
2023-01-28 13:52:52.699786,0.008376238000883548
2023-01-28 13:52:52.704786,0.011851986870169499
2023-01-28 13:52:52.709786,0.017740985216942628
2023-01-28 13:52:52.714786,0.027430256828665654
2023-01-28 13:52:52.719786,0.039906771174367535
2023-01-28 13:52:52.724786,0.053369998931884634
2023-01-28 13:52:52.729786,0.06692077646786662
2023-01-28 13:52:52.734786,0.07983863353729233
2023-01-28 13:52:52.739786,0.09097833640698813
2023-01-28 13:52:52.744786,0.1001528948545454
2023-01-28 13:52:52.749786,0.1088175865826514
2023-01-28 13:52:52.754786,0.11827945709228505
2023-01-28 13:52:52.759786,0.12823292781173254
2023-01-28 13:52:52.764786,0.13770422339439387
2023-01-28 13:52:52.769786,0.14607778439509353
2023-01-28 13:52:52.774786,0.15232086181640608
2023-01-28 13:52:52.779786,0.1544809704392476
2023-01-28 13:52:52.784786,0.15102267265319813
2023-01-28 13:52:52.789786,0.14185049450091322
2023-01-28 13:52:52.794786,0.12743890285491938
2023-01-28 13:52:52.799786,0.10809496652624416
2023-01-28 13:52:52.804786,0.084839068353176
2023-01-28 13:52:52.809786,0.05993138621199163
2023-01-28 13:52:52.814786,0.035604041069746
2023-01-28 13:52:52.819786,0.01294702297631816
2023-01-28 13:52:52.824786,-0.007500648498535122
2023-01-28 13:52:52.829786,-0.02509407119221213
2023-01-28 13:52:52.834786,-0.03969093412160872
2023-01-28 13:52:52.839786,-0.05197093823493575
2023-01-28 13:52:52.844786,-0.06238520145416258
2023-01-28 13:52:52.849786,-0.07049552709288562
2023-01-28 13:52:52.854786,-0.07592003047466268
2023-01-28 13:52:52.859786,-0.07916629644674157
2023-01-28 13:52:52.864786,-0.08096854388713831
2023-01-28 13:52:52.869786,-0.08154555804740463
2023-01-28 13:52:52.874786,-0.08104066550731655
2023-01-28 13:52:52.879786,-0.07992690582457727
2023-01-28 13:52:52.884786,-0.07839620113372812
2023-01-28 13:52:52.889786,-0.07604036979331223
2023-01-28 13:52:52.894786,-0.07272263616323468
2023-01-28 13:52:52.899786,-0.06919624748123934
2023-01-28 13:52:52.904786,-0.06639997661113735
2023-01-28 13:52:52.909786,-0.06471863386366239
2023-01-28 13:52:52.914786,-0.06430844962596889
2023-01-28 13:52:52.919786,-0.06544357458862449
2023-01-28 13:52:52.924786,-0.06801068782806394
2023-01-28 13:52:52.929786,-0.07121425693057533
2023-01-28 13:52:52.934786,-0.0742612332105636
2023-01-28 13:52:52.939786,-0.07688726174373466
2023-01-28 13:52:52.944786,-0.07890105247497549
2023-01-28 13:52:52.949786,-0.07981554478150057
2023-01-28 13:52:52.954786,-0.07938186824321737
2023-01-28 13:52:52.959786,-0.07803435151179637
2023-01-28 13:52:52.964786,-0.07644891738891607
2023-01-28 13:52:52.969786,-0.07508849044486168
2023-01-28 13:52:52.974786,-0.0744295120239257
2023-01-28 13:52:52.979786,-0.0750579779927323
2023-01-28 13:52:52.984786,-0.07709801197052005
2023-01-28 13:52:52.989786,-0.07990318038260519
2023-01-28 13:52:52.994786,-0.08262734115123735
2023-01-28 13:52:52.999786,-0.08479649772195069
2023-01-28 13:52:53.004786,-0.08618533611297603
2023-01-28 13:52:53.009786,-0.08663649593180171
2023-01-28 13:52:53.014786,-0.08630554378032675
2023-01-28 13:52:53.019786,-0.08568224011166695
2023-01-28 13:52:53.024786,-0.08503139019012457
2023-01-28 13:52:53.029786,-0.08403067241535503
2023-01-28 13:52:53.034786,-0.08209844678640356
2023-01-28 13:52:53.039786,-0.0787902049373995
2023-01-28 13:52:53.044786,-0.07380446046590806
2023-01-28 13:52:53.049786,-0.06704126527881955
2023-01-28 13:52:53.054786,-0.05894740670919406
2023-01-28 13:52:53.059786,-0.05062390694960949
2023-01-28 13:52:53.064786,-0.04346529766917222
2023-01-28 13:52:53.069786,-0.038808339489277206
2023-01-28 13:52:53.074786,-0.03779172897338858
2023-01-28 13:52:53.079786,-0.04106370631188861
2023-01-28 13:52:53.084786,-0.04832148551940918
2023-01-28 13:52:53.089786,-0.05818303350897805
2023-01-28 13:52:53.094786,-0.06856362521648399
2023-01-28 13:52:53.099786,-0.07727129726781128
2023-01-28 13:52:53.104786,-0.0826754197478294
2023-01-28 13:52:53.109786,-0.08434899180476219
2023-01-28 13:52:53.114786,-0.08325239270925518
2023-01-28 13:52:53.119786,-0.08120746918402025
2023-01-28 13:52:53.124786,-0.0800790414214134
2023-01-28 13:52:53.129786,-0.08111589636263143
2023-01-28 13:52:53.134786,-0.08447846025228492
2023-01-28 13:52:53.139786,-0.08915833961681534
2023-01-28 13:52:53.144786,-0.09366194903850553
2023-01-28 13:52:53.149786,-0.09692334810656036
2023-01-28 13:52:53.154786,-0.09830176830291738
2023-01-28 13:52:53.159786,-0.09674528286515024
2023-01-28 13:52:53.164786,-0.09039243310689923
2023-01-28 13:52:53.169786,-0.07694085037843451
2023-01-28 13:52:53.174786,-0.054091215133666874
2023-01-28 13:52:53.179786,-0.02045403721347385
2023-01-28 13:52:53.184786,0.02226154133677474
2023-01-28 13:52:53.189786,0.06748290651572593
2023-01-28 13:52:53.194786,0.1053696870803832
2023-01-28 13:52:53.199786,0.12703054004867212
2023-01-28 13:52:53.204786,0.1274148672819136
2023-01-28 13:52:53.209786,0.10588202614025603
2023-01-28 13:52:53.214786,0.0670490711927412
2023-01-28 13:52:53.219786,0.021437799609405065
2023-01-28 13:52:53.224786,-0.018366973847150827
2023-01-28 13:52:53.229786,-0.04526631505334563
2023-01-28 13:52:53.234786,-0.06070236489176748
2023-01-28 13:52:53.239786,-0.06926656972554789
2023-01-28 13:52:53.244786,-0.07245819270610805
2023-01-28 13:52:53.249786,-0.06969150098854694
2023-01-28 13:52:53.254786,-0.06286601722240442
2023-01-28 13:52:53.259786,-0.05600446365605094
2023-01-28 13:52:53.264786,-0.05084574222564693
2023-01-28 13:52:53.269786,-0.04607392054554574
2023-01-28 13:52:53.274786,-0.040989123284816666
2023-01-28 13:52:53.279786,-0.03696888689679182
2023-01-28 13:52:53.284786,-0.03478666394948954
2023-01-28 13:52:53.289786,-0.033184110561041716
2023-01-28 13:52:53.294786,-0.031060378998517966
2023-01-28 13:52:53.299786,-0.028933436722151828
2023-01-28 13:52:53.304786,-0.02726197242736813
2023-01-28 13:52:53.309786,-0.025173207932951906
2023-01-28 13:52:53.314786,-0.021852850914001427
2023-01-28 13:52:53.319786,-0.017619802529896943
2023-01-28 13:52:53.324786,-0.01271744631230833
2023-01-28 13:52:53.329786,-0.006530204781248978
2023-01-28 13:52:53.334786,0.0010337432613595845
2023-01-28 13:52:53.339786,0.008672710778674656
2023-01-28 13:52:53.344786,0.015145540237426676
2023-01-28 13:52:53.349786,0.020552495868410257
2023-01-28 13:52:53.354786,0.025507014244794797
2023-01-28 13:52:53.359786,0.030245433143147326
2023-01-28 13:52:53.364786,0.03533959388732906
2023-01-28 13:52:53.369786,0.04211290844947104
2023-01-28 13:52:53.374786,0.05137463659048073
2023-01-28 13:52:53.379786,0.06254214864683996
2023-01-28 13:52:53.384786,0.07466991990804661
2023-01-28 13:52:53.389786,0.08742380333114205
2023-01-28 13:52:53.394786,0.10039329528808584
2023-01-28 13:52:53.399786,0.11243713880435836
2023-01-28 13:52:53.404786,0.12251059710979448
2023-01-28 13:52:53.409786,0.1303533828752244
2023-01-28 13:52:53.414786,0.1357088536024092
2023-01-28 13:52:53.419786,0.13770859925044904
2023-01-28 13:52:53.424786,0.1357328891754149
2023-01-28 13:52:53.429786,0.13011607183069723
2023-01-28 13:52:53.434786,0.12133260816335667
2023-01-28 13:52:53.439786,0.10919980839004866
2023-01-28 13:52:53.444786,0.0934936627745627
2023-01-28 13:52:53.449786,0.07463281158679756
2023-01-28 13:52:53.454786,0.053177677094936274
2023-01-28 13:52:53.459786,0.029432248463607903
2023-01-28 13:52:53.464786,0.0042311353608964495
2023-01-28 13:52:53.469786,-0.02052095928895982
2023-01-28 13:52:53.474786,-0.04274408146739002
2023-01-28 13:52:53.479786,-0.06113476549212378
2023-01-28 13:52:53.484786,-0.07491032779216761
2023-01-28 13:52:53.489786,-0.0834975942144028
2023-01-28 13:52:53.494786,-0.08719503879547114
2023-01-28 13:52:53.499786,-0.08754038122395055
2023-01-28 13:52:53.504786,-0.08635362237691868
2023-01-28 13:52:53.509786,-0.0847992491615234
2023-01-28 13:52:53.514786,-0.08366107940673825
2023-01-28 13:52:53.519786,-0.08370611017172214
2023-01-28 13:52:53.524786,-0.08510351181030273
2023-01-28 13:52:53.529786,-0.08704843457934631
2023-01-28 13:52:53.534786,-0.08856534957885742
2023-01-28 13:52:53.539786,-0.08926094905752309
2023-01-28 13:52:53.544786,-0.08895000070333488
2023-01-28 13:52:53.549786,-0.08726712010031269
2023-01-28 13:52:53.554786,-0.08426209539175027
2023-01-28 13:52:53.559786,-0.08084047342379411
2023-01-28 13:52:53.564786,-0.07803559303283696
2023-01-28 13:52:53.569786,-0.07624615477776678
2023-01-28 13:52:53.574786,-0.07553537935018544
2023-01-28 13:52:53.579786,-0.0760367228442139
2023-01-28 13:52:53.584786,-0.07753074169158934
2023-01-28 13:52:53.589786,-0.07918041488273449
2023-01-28 13:52:53.594786,-0.08027136325836182
2023-01-28 13:52:53.599786,-0.08082747394601367
2023-01-28 13:52:53.604786,-0.08111278712749487
2023-01-28 13:52:53.609786,-0.08106230005460352
2023-01-28 13:52:53.614786,-0.08065601438283924
2023-01-28 13:52:53.619786,-0.08030657573611344
2023-01-28 13:52:53.624786,-0.08034348487854008
2023-01-28 13:52:53.629786,-0.08054865487917852
2023-01-28 13:52:53.634786,-0.08065601438283915
2023-01-28 13:52:53.639786,-0.08086395539924256
2023-01-28 13:52:53.644786,-0.08142530918121335
2023-01-28 13:52:53.649786,-0.08219562062987897
2023-01-28 13:52:53.654786,-0.08301198482513417
2023-01-28 13:52:53.659786,-0.0840250110631531
2023-01-28 13:52:53.664786,-0.08517563343048098
2023-01-28 13:52:53.669786,-0.08578951074732068
2023-01-28 13:52:53.674786,-0.08519967645406723
2023-01-28 13:52:53.679786,-0.08346324969036882
2023-01-28 13:52:53.684786,-0.08113682270050049
2023-01-28 13:52:53.689786,-0.07877376223599666
2023-01-28 13:52:53.694786,-0.07695376873016355
2023-01-28 13:52:53.699786,-0.07620337580947115
2023-01-28 13:52:53.704786,-0.07628063857555381
2023-01-28 13:52:53.709786,-0.07584384228643352
2023-01-28 13:52:53.714786,-0.07329960912466033
2023-01-28 13:52:53.719786,-0.06783038625887139
2023-01-28 13:52:53.724786,-0.059548418968915995
2023-01-28 13:52:53.729786,-0.049350700834137055
2023-01-28 13:52:53.734786,-0.03913800045847889
2023-01-28 13:52:53.739786,-0.03163764860470213
2023-01-28 13:52:53.744786,-0.029233297333121255
2023-01-28 13:52:53.749786,-0.03284662355539072
2023-01-28 13:52:53.754786,-0.04190266132354729
2023-01-28 13:52:53.759786,-0.05478753499756416
2023-01-28 13:52:53.764786,-0.06904443353414536
2023-01-28 13:52:53.769786,-0.08185516234262763
2023-01-28 13:52:53.774786,-0.0912098139524459
2023-01-28 13:52:53.779786,-0.09670788748223821
2023-01-28 13:52:53.784786,-0.09911914914846426
2023-01-28 13:52:53.789786,-0.099523913332473
2023-01-28 13:52:53.794786,-0.09902298450469968
2023-01-28 13:52:53.799786,-0.09861940565124654
2023-01-28 13:52:53.804786,-0.09875854104757306
2023-01-28 13:52:53.809786,-0.09917738021884273
2023-01-28 13:52:53.814786,-0.09950380027294149
2023-01-28 13:52:53.819786,-0.09966773046131178
2023-01-28 13:52:53.824786,-0.09938359260559079
2023-01-28 13:52:53.829786,-0.0975052555544361
2023-01-28 13:52:53.834786,-0.0921233519911766
2023-01-28 13:52:53.839786,-0.0809901354361951
2023-01-28 13:52:53.844786,-0.061880350112915074
2023-01-28 13:52:53.849786,-0.03357220541742076
2023-01-28 13:52:53.854786,0.0024040541611610325
2023-01-28 13:52:53.859786,0.040790313596126164
2023-01-28 13:52:53.864786,0.07373233884572976
2023-01-28 13:52:53.869786,0.09336177112937961
2023-01-28 13:52:53.874786,0.0944072008132933
2023-01-28 13:52:53.879786,0.07621438407249558
2023-01-28 13:52:53.884786,0.043609540909528614
2023-01-28 13:52:53.889786,0.005514800036200576
2023-01-28 13:52:53.894786,-0.028608243912458513
2023-01-28 13:52:53.899786,-0.05231856044053979
2023-01-28 13:52:53.904786,-0.06368339061737065
2023-01-28 13:52:53.909786,-0.06473337275023906
2023-01-28 13:52:53.914786,-0.059933066368102986
2023-01-28 13:52:53.919786,-0.054117442027552996
2023-01-28 13:52:53.924786,-0.05041301250457756
2023-01-28 13:52:53.929786,-0.04939893282388504
2023-01-28 13:52:53.934786,-0.0500043258070945
2023-01-28 13:52:53.939786,-0.05089425048933049
2023-01-28 13:52:53.944786,-0.05108615010976792
2023-01-28 13:52:53.949786,-0.05006544564708914
2023-01-28 13:52:53.954786,-0.047984920442104284
2023-01-28 13:52:53.959786,-0.045537362153770404
2023-01-28 13:52:53.964786,-0.043200850486755274
2023-01-28 13:52:53.969786,-0.04071357114999558
2023-01-28 13:52:53.974786,-0.037455163896083804
2023-01-28 13:52:53.979786,-0.03304679582083357
2023-01-28 13:52:53.984786,-0.02740621566772458
2023-01-28 13:52:53.989786,-0.020660975061635455
2023-01-28 13:52:53.994786,-0.013366540893912324
2023-01-28 13:52:53.999786,-0.006463008143447268
2023-01-28 13:52:54.004786,-0.0006010135402902108
2023-01-28 13:52:54.009786,0.004337633459747816
2023-01-28 13:52:54.014786,0.008870959281921264
2023-01-28 13:52:54.019786,0.013384278115592407
2023-01-28 13:52:54.024786,0.018174648284912023
2023-01-28 13:52:54.029786,0.023633978920500304
2023-01-28 13:52:54.034786,0.0300506763160228
2023-01-28 13:52:54.039786,0.037502917639033906
2023-01-28 13:52:54.044786,0.04620591923594469
2023-01-28 13:52:54.049786,0.05662885635913518
2023-01-28 13:52:54.054786,0.06892423331737502
2023-01-28 13:52:54.059786,0.08246023416028776
2023-01-28 13:52:54.064786,0.09616216272115699
2023-01-28 13:52:54.069786,0.1090859076701785
2023-01-28 13:52:54.074786,0.12051522731780996
2023-01-28 13:52:54.079786,0.12991251044351207
2023-01-28 13:52:54.084786,0.1371031999588011
2023-01-28 13:52:54.089786,0.14218737645603644
2023-01-28 13:52:54.094786,0.14489233493804926
2023-01-28 13:52:54.099786,0.14417509646583604
2023-01-28 13:52:54.104786,0.138689875602722
2023-01-28 13:52:54.109786,0.12747833603713488
2023-01-28 13:52:54.114786,0.11017780005931846
2023-01-28 13:52:54.119786,0.08709586840399905
2023-01-28 13:52:54.124786,0.05952437967061985
2023-01-28 13:52:54.129786,0.029740340375354748
2023-01-28 13:52:54.134786,0.00031252703047345183
2023-01-28 13:52:54.139786,-0.0265876715743519
2023-01-28 13:52:54.144786,-0.04928310960531233
2023-01-28 13:52:54.149786,-0.06661300437817613
2023-01-28 13:52:54.154786,-0.07834812253713597
2023-01-28 13:52:54.159786,-0.0853975021207532
2023-01-28 13:52:54.164786,-0.08926253020763389
2023-01-28 13:52:54.169786,-0.09131161934273323
2023-01-28 13:52:54.174786,-0.09253203868865964
2023-01-28 13:52:54.179786,-0.09346515754351974
2023-01-28 13:52:54.184786,-0.09399851411581037
2023-01-28 13:52:54.189786,-0.09349924125033363
2023-01-28 13:52:54.194786,-0.09154637902975067
2023-01-28 13:52:54.199786,-0.08847571587502771
2023-01-28 13:52:54.204786,-0.08510351181030268
2023-01-28 13:52:54.209786,-0.08217668581367027
2023-01-28 13:52:54.214786,-0.08022328466176976
2023-01-28 13:52:54.219786,-0.07953595283631834
2023-01-28 13:52:54.224786,-0.07993479818105689
2023-01-28 13:52:54.229786,-0.08073922511769283
2023-01-28 13:52:54.234786,-0.08125703036785116
2023-01-28 13:52:54.239786,-0.0811949858877746
2023-01-28 13:52:54.244786,-0.08051177114248277
2023-01-28 13:52:54.249786,-0.07920949740745727
2023-01-28 13:52:54.254786,-0.07753074169158927
2023-01-28 13:52:54.259786,-0.07609180415899765
2023-01-28 13:52:54.264786,-0.0754873007535934
2023-01-28 13:52:54.269786,-0.07582824588692834
2023-01-28 13:52:54.274786,-0.0767614468932151
2023-01-28 13:52:54.279786,-0.0777146337816594
2023-01-28 13:52:54.284786,-0.07801155745983121
2023-01-28 13:52:54.289786,-0.07710317627192995
2023-01-28 13:52:54.294786,-0.07503052800893788
2023-01-28 13:52:54.299786,-0.07255039747194515
2023-01-28 13:52:54.304786,-0.07058303058147435
2023-01-28 13:52:54.309786,-0.0695489956720509
2023-01-28 13:52:54.314786,-0.06921271979808798
2023-01-28 13:52:54.319786,-0.0689159706260682
2023-01-28 13:52:54.324786,-0.06789048761129367
2023-01-28 13:52:54.329786,-0.06564009709442743
2023-01-28 13:52:54.334786,-0.06224095821380613
2023-01-28 13:52:54.339786,-0.05820580554671148
2023-01-28 13:52:54.344786,-0.054067175835371
2023-01-28 13:52:54.349786,-0.05022708938517056
2023-01-28 13:52:54.354786,-0.0470232963562011
2023-01-28 13:52:54.359786,-0.044527221804917444
2023-01-28 13:52:54.364786,-0.042335391044616595
2023-01-28 13:52:54.369786,-0.040070039035852684
2023-01-28 13:52:54.374786,-0.03820041939616195
2023-01-28 13:52:54.379786,-0.03795353434277992
2023-01-28 13:52:54.384786,-0.040291946381330386
2023-01-28 13:52:54.389786,-0.04531053153428458
2023-01-28 13:52:54.394786,-0.05255262181162833
2023-01-28 13:52:54.399786,-0.06123943384022743
2023-01-28 13:52:54.404786,-0.0699579715728759
2023-01-28 13:52:54.409786,-0.0767790312364499
2023-01-28 13:52:54.414786,-0.08027136325836182
2023-01-28 13:52:54.419786,-0.08032160410207229
2023-01-28 13:52:54.424786,-0.07791539281606666
2023-01-28 13:52:54.429786,-0.07454025020031407
2023-01-28 13:52:54.434786,-0.07190525531768788
2023-01-28 13:52:54.439786,-0.07153491160318821
2023-01-28 13:52:54.444786,-0.07394870370626444
2023-01-28 13:52:54.449786,-0.07825114695836834
2023-01-28 13:52:54.454786,-0.08265137672424311
2023-01-28 13:52:54.459786,-0.08510483352168367
2023-01-28 13:52:54.464786,-0.08339663594961158
2023-01-28 13:52:54.469786,-0.07529704669143664
2023-01-28 13:52:54.474786,-0.05942821502685543
2023-01-28 13:52:54.479786,-0.036243867255640286
2023-01-28 13:52:54.484786,-0.008342067711055208
2023-01-28 13:52:54.489786,0.019756201735487533
2023-01-28 13:52:54.494786,0.04221519082784643
2023-01-28 13:52:54.499786,0.05340322109648813
2023-01-28 13:52:54.504786,0.050220690667629145
2023-01-28 13:52:54.509786,0.033716512452575
2023-01-28 13:52:54.514786,0.008702675811946265
2023-01-28 13:52:54.519786,-0.018175846828091386
2023-01-28 13:52:54.524786,-0.0406765937805175
2023-01-28 13:52:54.529786,-0.05485069954860918
2023-01-28 13:52:54.534786,-0.060125391930341776
2023-01-28 13:52:54.539786,-0.05885393620414144
2023-01-28 13:52:54.544786,-0.05445182323455814
2023-01-28 13:52:54.549786,-0.04959336529507067
2023-01-28 13:52:54.554786,-0.045652985572814886
2023-01-28 13:52:54.559786,-0.04300426247564975
2023-01-28 13:52:54.564786,-0.041349731385707786
2023-01-28 13:52:54.569786,-0.04010013145612666
2023-01-28 13:52:54.574786,-0.03894567489624013
2023-01-28 13:52:54.579786,-0.03806009250166537
2023-01-28 13:52:54.584786,-0.037623446434736196
2023-01-28 13:52:54.589786,-0.03737306500979235
2023-01-28 13:52:54.594786,-0.03678202629089341
2023-01-28 13:52:54.599786,-0.035395226680660793
2023-01-28 13:52:54.604786,-0.03281533718109125
2023-01-28 13:52:54.609786,-0.028739333717539152
2023-01-28 13:52:54.614786,-0.023367404937744043
2023-01-28 13:52:54.619786,-0.017556621696996694
2023-01-28 13:52:54.624786,-0.012236635200679306
2023-01-28 13:52:54.629786,-0.007738939106130412
2023-01-28 13:52:54.634786,-0.003774364944547391
2023-01-28 13:52:54.639786,0.0002320565543441688
2023-01-28 13:52:54.644786,0.004952351562678799
2023-01-28 13:52:54.649786,0.010901949679268127
2023-01-28 13:52:54.654786,0.01798232458531849
2023-01-28 13:52:54.659786,0.02545308706985261
2023-01-28 13:52:54.664786,0.03267109394073475
2023-01-28 13:52:54.669786,0.03978910659172965
2023-01-28 13:52:54.674786,0.047624312341213206
2023-01-28 13:52:54.679786,0.05707139609457497
2023-01-28 13:52:54.684786,0.06873190402984608
2023-01-28 13:52:54.689786,0.08265779902994837
2023-01-28 13:52:54.694786,0.09801328182220441
2023-01-28 13:52:54.699786,0.11314066891709579
2023-01-28 13:52:54.704786,0.1263090074062347
2023-01-28 13:52:54.709786,0.1364159514562819
2023-01-28 13:52:54.714786,0.14294505119323725
2023-01-28 13:52:54.719786,0.14556185503846128
2023-01-28 13:52:54.724786,0.14397880434989918
2023-01-28 13:52:54.729786,0.13793938945830259
2023-01-28 13:52:54.734786,0.12705425918102253
2023-01-28 13:52:54.739786,0.11089304266560512
2023-01-28 13:52:54.744786,0.08959909528493877
2023-01-28 13:52:54.749786,0.06437782210227014
2023-01-28 13:52:54.754786,0.03723879903554898
2023-01-28 13:52:54.759786,0.010379803040643669
2023-01-28 13:52:54.764786,-0.01418391894549137
2023-01-28 13:52:54.769786,-0.034895371248507924
2023-01-28 13:52:54.774786,-0.05108615010976794
2023-01-28 13:52:54.779786,-0.06312231151048224
2023-01-28 13:52:54.784786,-0.07190525531768782
2023-01-28 13:52:54.789786,-0.07825236135156194
2023-01-28 13:52:54.794786,-0.08274754136800763
2023-01-28 13:52:54.799786,-0.08580870012594281
2023-01-28 13:52:54.804786,-0.08757968991994847
2023-01-28 13:52:54.809786,-0.08795092833287922
2023-01-28 13:52:54.814786,-0.08700271695852269
2023-01-28 13:52:54.819786,-0.08536064811789625
2023-01-28 13:52:54.824786,-0.08392553031444537
2023-01-28 13:52:54.829786,-0.08332412306603508
2023-01-28 13:52:54.834786,-0.08366107940673818
2023-01-28 13:52:54.839786,-0.08450340371904706
2023-01-28 13:52:54.844786,-0.08488714694976797
2023-01-28 13:52:54.849786,-0.0836457347281684
2023-01-28 13:52:54.854786,-0.08019924163818341
2023-01-28 13:52:54.859786,-0.07513694471258989
2023-01-28 13:52:54.864786,-0.06995797157287587
2023-01-28 13:52:54.869786,-0.06628337442037911
2023-01-28 13:52:54.874786,-0.06519794464111323
2023-01-28 13:52:54.879786,-0.06684346609679535
2023-01-28 13:52:54.884786,-0.07022242248058315
2023-01-28 13:52:54.889786,-0.07353836004499305
2023-01-28 13:52:54.894786,-0.07515072822570801
2023-01-28 13:52:54.899786,-0.07443656393027222
2023-01-28 13:52:54.904786,-0.07188121974468233
2023-01-28 13:52:54.909786,-0.06859608164757787
2023-01-28 13:52:54.914786,-0.06579896062612531
2023-01-28 13:52:54.919786,-0.06435636405680302
2023-01-28 13:52:54.924786,-0.06438057124614713
2023-01-28 13:52:54.929786,-0.06521102152917142
2023-01-28 13:52:54.934786,-0.06591916084289548
2023-01-28 13:52:54.939786,-0.0658666288606276
2023-01-28 13:52:54.944786,-0.06488542258739467
2023-01-28 13:52:54.949786,-0.06322200730101249
2023-01-28 13:52:54.954786,-0.06144762039184571
2023-01-28 13:52:54.959786,-0.060199738611973724
2023-01-28 13:52:54.964786,-0.059788823127746506
2023-01-28 13:52:54.969786,-0.060066121714110965
2023-01-28 13:52:54.974786,-0.06060620397329329
2023-01-28 13:52:54.979786,-0.06076416787059022
2023-01-28 13:52:54.984786,-0.0595724582672119
2023-01-28 13:52:54.989786,-0.056044293926456816
2023-01-28 13:52:54.994786,-0.049956243485212284
2023-01-28 13:52:54.999786,-0.04230665376888066
2023-01-28 13:52:55.004786,-0.03495494648814202
2023-01-28 13:52:55.009786,-0.029927921527330568
2023-01-28 13:52:55.014786,-0.028896730393171283
2023-01-28 13:52:55.019786,-0.03267129214639168
2023-01-28 13:52:55.024786,-0.04070063680410385
2023-01-28 13:52:55.029786,-0.05116613810237064
2023-01-28 13:52:55.034786,-0.06185631081461896
2023-01-28 13:52:55.039786,-0.07105981559781578
2023-01-28 13:52:55.044786,-0.07784327119588848
2023-01-28 13:52:55.049786,-0.08200213101549271
2023-01-28 13:52:55.054786,-0.08404573053121553
2023-01-28 13:52:55.059786,-0.08494448243900268
2023-01-28 13:52:55.064786,-0.08551220595836624
2023-01-28 13:52:55.069786,-0.08600452132005455
2023-01-28 13:52:55.074786,-0.08630554378032669
2023-01-28 13:52:55.079786,-0.08621263546598985
2023-01-28 13:52:55.084786,-0.08536796271800978
2023-01-28 13:52:55.089786,-0.08314341256541681
2023-01-28 13:52:55.094786,-0.07875680923461906
2023-01-28 13:52:55.099786,-0.0712702446426607
2023-01-28 13:52:55.104786,-0.05935609340667715
2023-01-28 13:52:55.109786,-0.041510020012428
2023-01-28 13:52:55.114786,-0.017116865143179782
2023-01-28 13:52:55.119786,0.012354653752033148
2023-01-28 13:52:55.124786,0.04298448562622068
2023-01-28 13:52:55.129786,0.06902627106696589
2023-01-28 13:52:55.134786,0.08431017398834217
2023-01-28 13:52:55.139786,0.08431577165039005
2023-01-28 13:52:55.144786,0.06827513873577107
2023-01-28 13:52:55.149786,0.03993685852777525
2023-01-28 13:52:55.154786,0.006250540725886807
2023-01-28 13:52:55.159786,-0.02517559099455707
2023-01-28 13:52:55.164786,-0.04841765016317356
2023-01-28 13:52:55.169786,-0.06067609774182581
2023-01-28 13:52:55.174786,-0.06262560933828346
2023-01-28 13:52:55.179786,-0.05749794107217979
2023-01-28 13:52:55.184786,-0.04925906658172602
2023-01-28 13:52:55.189786,-0.04102830769721725
2023-01-28 13:52:55.194786,-0.03454625606536865
2023-01-28 13:52:55.199786,-0.03034554335423499
2023-01-28 13:52:55.204786,-0.028007229790091508
2023-01-28 13:52:55.209786,-0.026542820155388017
2023-01-28 13:52:55.214786,-0.025026202201843203
2023-01-28 13:52:55.219786,-0.023026797954116707
2023-01-28 13:52:55.224786,-0.02050658129155628
2023-01-28 13:52:55.229786,-0.017586247914516386
2023-01-28 13:52:55.234786,-0.014568567276000876
2023-01-28 13:52:55.239786,-0.011902317649638016
2023-01-28 13:52:55.244786,-0.009808540344238139
2023-01-28 13:52:55.249786,-0.008013761631485579
2023-01-28 13:52:55.254786,-0.005986094474792329
2023-01-28 13:52:55.259786,-0.0032799163724689133
2023-01-28 13:52:55.264786,0.00045677027083002974
2023-01-28 13:52:55.269786,0.005534090896501776
2023-01-28 13:52:55.274786,0.011996230110526
2023-01-28 13:52:55.279786,0.0194645159641586
2023-01-28 13:52:55.284786,0.027406215667724613
2023-01-28 13:52:55.289786,0.03547811100405422
2023-01-28 13:52:55.294786,0.04353741928935049
2023-01-28 13:52:55.299786,0.051577718277872484
2023-01-28 13:52:55.304786,0.059884987771511
2023-01-28 13:52:55.309786,0.06906793633049947
2023-01-28 13:52:55.314786,0.07964631170034393
2023-01-28 13:52:55.319786,0.09162006558977498
2023-01-28 13:52:55.324786,0.10450422763824457
2023-01-28 13:52:55.329786,0.1175931720102867
2023-01-28 13:52:55.334786,0.13005933165550226
2023-01-28 13:52:55.339786,0.1410455638714712
2023-01-28 13:52:55.344786,0.14994084835052482
2023-01-28 13:52:55.349786,0.15647314975109541
2023-01-28 13:52:55.354786,0.16035041213035572
2023-01-28 13:52:55.359786,0.16091500827489694
2023-01-28 13:52:55.364786,0.1572972536087035
2023-01-28 13:52:55.369786,0.14879756160990804
2023-01-28 13:52:55.374786,0.13505975902080528
2023-01-28 13:52:55.379786,0.11618228042973659
2023-01-28 13:52:55.384786,0.09298881143331514
2023-01-28 13:52:55.389786,0.06711651368097066
2023-01-28 13:52:55.394786,0.04060447216033921
2023-01-28 13:52:55.399786,0.015353493695617245
2023-01-28 13:52:55.404786,-0.007091959472745628
2023-01-28 13:52:55.409786,-0.02562934944577436
2023-01-28 13:52:55.414786,-0.039835177361965096
2023-01-28 13:52:55.419786,-0.0500512355349094
2023-01-28 13:52:55.424786,-0.057000122964382074
2023-01-28 13:52:55.429786,-0.061302124879241714
2023-01-28 13:52:55.434786,-0.06339490413665766
2023-01-28 13:52:55.439786,-0.06370283676104764
2023-01-28 13:52:55.444786,-0.06267368793487542
2023-01-28 13:52:55.449786,-0.060771158209827
2023-01-28 13:52:55.454786,-0.05861083790659902
2023-01-28 13:52:55.459786,-0.05696895370854821
2023-01-28 13:52:55.464786,-0.056423150002956314
2023-01-28 13:52:55.469786,-0.056997603040903816
2023-01-28 13:52:55.474786,-0.058250229805707904
2023-01-28 13:52:55.479786,-0.059605635165054585
2023-01-28 13:52:55.484786,-0.060534082353115026
2023-01-28 13:52:55.489786,-0.060641569611721194
2023-01-28 13:52:55.494786,-0.05986094474792482
2023-01-28 13:52:55.499786,-0.05852714678500295
2023-01-28 13:52:55.504786,-0.0571203231811523
2023-01-28 13:52:55.509786,-0.05596601490713706
2023-01-28 13:52:55.514786,-0.05522112175822248
2023-01-28 13:52:55.519786,-0.05496618459725548
2023-01-28 13:52:55.524786,-0.055149000138044316
2023-01-28 13:52:55.529786,-0.055569919067867846
2023-01-28 13:52:55.534786,-0.056110620498657206
2023-01-28 13:52:55.539786,-0.05692303625401107
2023-01-28 13:52:55.544786,-0.05827426910400396
2023-01-28 13:52:55.549786,-0.060260938590492266
2023-01-28 13:52:55.554786,-0.062721773982048
2023-01-28 13:52:55.559786,-0.06528183693209895
2023-01-28 13:52:55.564786,-0.06738563627004618
2023-01-28 13:52:55.569786,-0.06845785120208728
2023-01-28 13:52:55.574786,-0.06822705268859852
2023-01-28 13:52:55.579786,-0.06688679141410597
2023-01-28 13:52:55.584786,-0.06493350118398655
2023-01-28 13:52:55.589786,-0.06296859566969365
2023-01-28 13:52:55.594786,-0.06161590665578838
2023-01-28 13:52:55.599786,-0.06129833568033351
2023-01-28 13:52:55.604786,-0.061880350112914914
2023-01-28 13:52:55.609786,-0.06269502458201394
2023-01-28 13:52:55.614786,-0.06310641765594469
2023-01-28 13:52:55.619786,-0.06294653864669227
2023-01-28 13:52:55.624786,-0.06231307983398426
2023-01-28 13:52:55.629786,-0.06111896946142163
2023-01-28 13:52:55.634786,-0.058971446007489964
2023-01-28 13:52:55.639786,-0.055328446133808766
2023-01-28 13:52:55.644786,-0.04969179630279531
2023-01-28 13:52:55.649786,-0.041970757375773625
2023-01-28 13:52:55.654786,-0.03300766274332993
2023-01-28 13:52:55.659786,-0.024678497556989896
2023-01-28 13:52:55.664786,-0.019184350967407074
2023-01-28 13:52:55.669786,-0.018064315670488534
2023-01-28 13:52:55.674786,-0.02168456837534898
2023-01-28 13:52:55.679786,-0.029273329163663205
2023-01-28 13:52:55.684786,-0.039210122078657095
2023-01-28 13:52:55.689786,-0.04955687202272616
2023-01-28 13:52:55.694786,-0.05877912044525141
2023-01-28 13:52:55.699786,-0.06616455320409902
2023-01-28 13:52:55.704786,-0.07161676883697504
2023-01-28 13:52:55.709786,-0.07524770949198997
2023-01-28 13:52:55.714786,-0.07729034125804901
2023-01-28 13:52:55.719786,-0.07817669374545054
2023-01-28 13:52:55.724786,-0.07839620113372796
2023-01-28 13:52:55.729786,-0.07824858990680601
2023-01-28 13:52:55.734786,-0.0777711495757102
2023-01-28 13:52:55.739786,-0.07668751002913517
2023-01-28 13:52:55.744786,-0.07416506856679911
2023-01-28 13:52:55.749786,-0.06867068460794142
2023-01-28 13:52:55.754786,-0.0582983121275901
2023-01-28 13:52:55.759786,-0.04141716737275
2023-01-28 13:52:55.764786,-0.01730918884277336
2023-01-28 13:52:55.769786,0.01319211974942964
2023-01-28 13:52:55.774786,0.04709541797637925
2023-01-28 13:52:55.779786,0.07923131400294545
2023-01-28 13:52:55.784786,0.10332624614238729
2023-01-28 13:52:55.789786,0.11387156910269994
2023-01-28 13:52:55.794786,0.10796606540679923
2023-01-28 13:52:55.799786,0.08649061905394875
2023-01-28 13:52:55.804786,0.054187379777431335
2023-01-28 13:52:55.809786,0.018326377127021308
2023-01-28 13:52:55.814786,-0.013727148994803392
2023-01-28 13:52:55.819786,-0.03684982030905284
2023-01-28 13:52:55.824786,-0.04923502728343
2023-01-28 13:52:55.829786,-0.05205249462566697
2023-01-28 13:52:55.834786,-0.04829744622111323
2023-01-28 13:52:55.839786,-0.041398270873184415
2023-01-28 13:52:55.844786,-0.03401736542582507
2023-01-28 13:52:55.849786,-0.027517028592587645
2023-01-28 13:52:55.854786,-0.022213459014892478
2023-01-28 13:52:55.859786,-0.017915936225351026
2023-01-28 13:52:55.864786,-0.014232000336050973
2023-01-28 13:52:55.869786,-0.010705603587000888
2023-01-28 13:52:55.874786,-0.007043878547847181
2023-01-28 13:52:55.879786,-0.003296594678875614
2023-01-28 13:52:55.884786,0.00024040541029537129
2023-01-28 13:52:55.889786,0.0032306652088621773
2023-01-28 13:52:55.894786,0.005361040588468339
2023-01-28 13:52:55.899786,0.0063859114090598695
2023-01-28 13:52:55.904786,0.006322662346064966
2023-01-28 13:52:55.909786,0.005594860265308727
2023-01-28 13:52:55.914786,0.0049042701721190695
2023-01-28 13:52:55.919786,0.0050260406651601005
2023-01-28 13:52:55.924786,0.0067553920671343136
2023-01-28 13:52:55.929786,0.010827635886995977
2023-01-28 13:52:55.934786,0.01762171648442736
2023-01-28 13:52:55.939786,0.02691413722355791
2023-01-28 13:52:55.944786,0.03800809383392327
2023-01-28 13:52:55.949786,0.050086029694230864
2023-01-28 13:52:55.954786,0.062457323074340806
2023-01-28 13:52:55.959786,0.0746855461925666
2023-01-28 13:52:55.964786,0.08666615188121791
2023-01-28 13:52:55.969786,0.09848716640760305
2023-01-28 13:52:55.974786,0.11003355681896199
2023-01-28 13:52:55.979786,0.1207486851594728
2023-01-28 13:52:55.984786,0.12989103794097895
2023-01-28 13:52:55.989786,0.1370056799291523
2023-01-28 13:52:55.994786,0.14212767779827112
2023-01-28 13:52:55.999786,0.14566623606633125
2023-01-28 13:52:56.004786,0.14816185832023618
2023-01-28 13:52:56.009786,0.1499176392666941
2023-01-28 13:52:56.014786,0.15054187178611744
2023-01-28 13:52:56.019786,0.1487829155237825
2023-01-28 13:52:56.024786,0.14294505119323725
2023-01-28 13:52:56.029786,0.13159488726057939
2023-01-28 13:52:56.034786,0.11407236754894245
2023-01-28 13:52:56.039786,0.09072284250156587
2023-01-28 13:52:56.044786,0.06298621743917461
2023-01-28 13:52:56.049786,0.03324845769348197
2023-01-28 13:52:56.054786,0.004327297210693203
2023-01-28 13:52:56.059786,-0.021187245321531885
2023-01-28 13:52:56.064786,-0.04142185300588607
2023-01-28 13:52:56.069786,-0.05553077368424386
2023-01-28 13:52:56.074786,-0.06389975547790523
2023-01-28 13:52:56.079786,-0.06804146135758483
2023-01-28 13:52:56.084786,-0.07000605762004847
2023-01-28 13:52:56.089786,-0.07157720965823969
2023-01-28 13:52:56.094786,-0.07370829582214353
2023-01-28 13:52:56.099786,-0.07635686272938702
2023-01-28 13:52:56.104786,-0.07866065204143513
2023-01-28 13:52:56.109786,-0.07945295608441304
2023-01-28 13:52:56.114786,-0.07798751443624488
2023-01-28 13:52:56.119786,-0.07443048139223095
2023-01-28 13:52:56.124786,-0.0697656497359275
2023-01-28 13:52:56.129786,-0.06527599341108221
2023-01-28 13:52:56.134786,-0.06202459335327146
2023-01-28 13:52:56.139786,-0.060538719520042736
2023-01-28 13:52:56.144786,-0.060702364891767516
2023-01-28 13:52:56.149786,-0.06188938151329314
2023-01-28 13:52:56.154786,-0.06329874694347379
2023-01-28 13:52:56.159786,-0.0642741674402006
2023-01-28 13:52:56.164786,-0.06445269286632538
2023-01-28 13:52:56.169786,-0.06380894367105756
2023-01-28 13:52:56.174786,-0.06264965236186981
2023-01-28 13:52:56.179786,-0.061482107114191546
2023-01-28 13:52:56.184786,-0.060798525810241554
2023-01-28 13:52:56.189786,-0.060967771096999766
2023-01-28 13:52:56.194786,-0.06221691891551008
2023-01-28 13:52:56.199786,-0.06447731757118577
2023-01-28 13:52:56.204786,-0.06716927140951151
2023-01-28 13:52:56.209786,-0.06934212729849747
2023-01-28 13:52:56.214786,-0.07024645805358873
2023-01-28 13:52:56.219786,-0.06981914420654871
2023-01-28 13:52:56.224786,-0.06865978240966789
2023-01-28 13:52:56.229786,-0.06767571830497703
2023-01-28 13:52:56.234786,-0.06772220134735094
2023-01-28 13:52:56.239786,-0.06925848521228992
2023-01-28 13:52:56.244786,-0.07204949855804439
2023-01-28 13:52:56.249786,-0.07521651951288923
2023-01-28 13:52:56.254786,-0.077747106552124
2023-01-28 13:52:56.259786,-0.07905009315768155
2023-01-28 13:52:56.264786,-0.0791414603590965
2023-01-28 13:52:56.269786,-0.07854213998333219
2023-01-28 13:52:56.274786,-0.07810771465301504
2023-01-28 13:52:56.279786,-0.07872072293450229
2023-01-28 13:52:56.284786,-0.08080025762319554
2023-01-28 13:52:56.289786,-0.08394873330742508
2023-01-28 13:52:56.294786,-0.08702675998210901
2023-01-28 13:52:56.299786,-0.08850931391243128
2023-01-28 13:52:56.304786,-0.08688251674175257
2023-01-28 13:52:56.309786,-0.08113448464939725
2023-01-28 13:52:56.314786,-0.07135232537984837
2023-01-28 13:52:56.319786,-0.05904405932948874
2023-01-28 13:52:56.324786,-0.04683097451925263
2023-01-28 13:52:56.329786,-0.03767500728380085
2023-01-28 13:52:56.334786,-0.03404140472412097
2023-01-28 13:52:56.339786,-0.037174599709402956
2023-01-28 13:52:56.344786,-0.046614609658718054
2023-01-28 13:52:56.349786,-0.06027905150159733
2023-01-28 13:52:56.354786,-0.07524689286947255
2023-01-28 13:52:56.359786,-0.08881168535979926
2023-01-28 13:52:56.364786,-0.09921531379222859
2023-01-28 13:52:56.369786,-0.10589395106142825
2023-01-28 13:52:56.374786,-0.10936041921377178
2023-01-28 13:52:56.379786,-0.11077003681723747
2023-01-28 13:52:56.384786,-0.1112836599349975
2023-01-28 13:52:56.389786,-0.11161332260543233
2023-01-28 13:52:56.394786,-0.1120289191603659
2023-01-28 13:52:56.399786,-0.11261123697462926
2023-01-28 13:52:56.404786,-0.11337518692016593
2023-01-28 13:52:56.409786,-0.11420707365106547
2023-01-28 13:52:56.414786,-0.11472146213054642
2023-01-28 13:52:56.419786,-0.11398563564069418
2023-01-28 13:52:56.424786,-0.11015375703573219
2023-01-28 13:52:56.429786,-0.1004597830776834
2023-01-28 13:52:56.434786,-0.08202632516622532
2023-01-28 13:52:56.439786,-0.05334431968744142
2023-01-28 13:52:56.444786,-0.01574655435979361
2023-01-28 13:52:56.449786,0.0258410335158887
2023-01-28 13:52:56.454786,0.0634189471602439
2023-01-28 13:52:56.459786,0.08796313273147272
2023-01-28 13:52:56.464786,0.09253203868865963
2023-01-28 13:52:56.469786,0.07507168188552975
2023-01-28 13:52:56.474786,0.03945052623748775
2023-01-28 13:52:56.479786,-0.005803449581430096
2023-01-28 13:52:56.484786,-0.05043705552816389
2023-01-28 13:52:56.489786,-0.0858400916010713
2023-01-28 13:52:56.494786,-0.10753333568572983
2023-01-28 13:52:56.499786,-0.115815115318231
2023-01-28 13:52:56.504786,-0.11448105424642559
2023-01-28 13:52:56.509786,-0.10854591992470508
2023-01-28 13:52:56.514786,-0.10222037881612762
2023-01-28 13:52:56.519786,-0.09785179816364806
2023-01-28 13:52:56.524786,-0.09584963321685783
2023-01-28 13:52:56.529786,-0.09530931031415309
2023-01-28 13:52:56.534786,-0.09493609517812714
2023-01-28 13:52:56.539786,-0.09379493175757617
2023-01-28 13:52:56.544786,-0.09159445762634275
2023-01-28 13:52:56.549786,-0.088603242929631
2023-01-28 13:52:56.554786,-0.08544008433818813
2023-01-28 13:52:56.559786,-0.08280494445710529
2023-01-28 13:52:56.564786,-0.08116086572408665
2023-01-28 13:52:56.569786,-0.08053901912572001
2023-01-28 13:52:56.574786,-0.08060793578624727
2023-01-28 13:52:56.579786,-0.08086088925313738
2023-01-28 13:52:56.584786,-0.08070409297943104
2023-01-28 13:52:56.589786,-0.07949104351076837
2023-01-28 13:52:56.594786,-0.07666528224945054
2023-01-28 13:52:56.599786,-0.07195543992509389
2023-01-28 13:52:56.604786,-0.06543835252523417
2023-01-28 13:52:56.609786,-0.057464219855303846
2023-01-28 13:52:56.614786,-0.04856189340353008
2023-01-28 13:52:56.619786,-0.03931763446359684
2023-01-28 13:52:56.624786,-0.030170878395438052
2023-01-28 13:52:56.629786,-0.021245092507370385
2023-01-28 13:52:56.634786,-0.012380878441035685
2023-01-28 13:52:56.639786,-0.0033067372917210064
2023-01-28 13:52:56.644786,0.006250540725886848
2023-01-28 13:52:56.649786,0.01653129460084451
2023-01-28 13:52:56.654786,0.027646621689200457
2023-01-28 13:52:56.659786,0.039421335463255075
2023-01-28 13:52:56.664786,0.05132655426859851
2023-01-28 13:52:56.669786,0.06254291471751222
2023-01-28 13:52:56.674786,0.07204949855804442
2023-01-28 13:52:56.679786,0.07870316188808775
2023-01-28 13:52:56.684786,0.08137723058462137
2023-01-28 13:52:56.689786,0.07914304046859438
2023-01-28 13:52:56.694786,0.07137636840343468
2023-01-28 13:52:56.699786,0.05778026451723998
2023-01-28 13:52:56.704786,0.03846486657857887
2023-01-28 13:52:56.709786,0.01413567646976032
2023-01-28 13:52:56.714786,-0.013775229454040463
2023-01-28 13:52:56.719786,-0.04322337301981287
2023-01-28 13:52:56.724786,-0.07190525531768793
2023-01-28 13:52:56.729786,-0.09770004173650808
2023-01-28 13:52:56.734786,-0.11907279491424556
2023-01-28 13:52:56.739786,-0.135357890823558
2023-01-28 13:52:56.744786,-0.14681558310985554
2023-01-28 13:52:56.749786,-0.15438862988168958
2023-01-28 13:52:56.754786,-0.15926858782768236
2023-01-28 13:52:56.759786,-0.16252783522577707
2023-01-28 13:52:56.764786,-0.16496619582176197
2023-01-28 13:52:56.769786,-0.1670886453375512
2023-01-28 13:52:56.774786,-0.16910116374492637
2023-01-28 13:52:56.779786,-0.17098103812397303
2023-01-28 13:52:56.784786,-0.17268320918083194
2023-01-28 13:52:56.789786,-0.1743069532036533
2023-01-28 13:52:56.794786,-0.17600080370903004
2023-01-28 13:52:56.799786,-0.17773637551456606
2023-01-28 13:52:56.804786,-0.1793183982372283
2023-01-28 13:52:56.809786,-0.18066304957385473
2023-01-28 13:52:56.814786,-0.18193881213665003
2023-01-28 13:52:56.819786,-0.1833477754064119
2023-01-28 13:52:56.824786,-0.18487176299095148
2023-01-28 13:52:56.829786,-0.1863348973971449
2023-01-28 13:52:56.834786,-0.18761238455772383
2023-01-28 13:52:56.839786,-0.18862880579872932
2023-01-28 13:52:56.844786,-0.1892230957746505
2023-01-28 13:52:56.849786,-0.18922504827666875
2023-01-28 13:52:56.854786,-0.18871824443340296
2023-01-28 13:52:56.859786,-0.18810254552863193
2023-01-28 13:52:56.864786,-0.18782874941825856
2023-01-28 13:52:56.869786,-0.18811345077904398
2023-01-28 13:52:56.874786,-0.18888652324676505
2023-01-28 13:52:56.879786,-0.18988814742592133
2023-01-28 13:52:56.884786,-0.1907857358455657
2023-01-28 13:52:56.889786,-0.19133612739100628
2023-01-28 13:52:56.894786,-0.1915550231933593
2023-01-28 13:52:56.899786,-0.19169834675533767
2023-01-28 13:52:56.904786,-0.19201180338859541
2023-01-28 13:52:56.909786,-0.19251345302076606
2023-01-28 13:52:56.914786,-0.1930455416440962
2023-01-28 13:52:56.919786,-0.19349293284434296
2023-01-28 13:52:56.924786,-0.19391100108623496
2023-01-28 13:52:56.929786,-0.19448100235802182
2023-01-28 13:52:56.934786,-0.1953774690628051
2023-01-28 13:52:56.939786,-0.19661449170488918
2023-01-28 13:52:56.944786,-0.19792577624320984
2023-01-28 13:52:56.949786,-0.1988034471103898
2023-01-28 13:52:56.954786,-0.19876718521118159
2023-01-28 13:52:56.959786,-0.1977026324956969
2023-01-28 13:52:56.964786,-0.19597849249839774
2023-01-28 13:52:56.969786,-0.19422637761425415
2023-01-28 13:52:56.974786,-0.1929493844509124
2023-01-28 13:52:56.979786,-0.19221028798914028
2023-01-28 13:52:56.984786,-0.19153098762035353
2023-01-28 13:52:56.989786,-0.19002154696242182
2023-01-28 13:52:56.994786,-0.1867228746414184
2023-01-28 13:52:56.999786,-0.1810790481403402
2023-01-28 13:52:57.004786,-0.1733323037624359
2023-01-28 13:52:57.009786,-0.16461727215013655
2023-01-28 13:52:57.014786,-0.15669624507427207
2023-01-28 13:52:57.019786,-0.15145569874879455
2023-01-28 13:52:57.024786,-0.15032550692558272
2023-01-28 13:52:57.029786,-0.15378112310279923
2023-01-28 13:52:57.034786,-0.16114374995231612
2023-01-28 13:52:57.039786,-0.17084567233252748
2023-01-28 13:52:57.044786,-0.18104931712150565
2023-01-28 13:52:57.049786,-0.19025456460956539
2023-01-28 13:52:57.054786,-0.1976132392883299
2023-01-28 13:52:57.059786,-0.20294743440845475
2023-01-28 13:52:57.064786,-0.20658037066459647
2023-01-28 13:52:57.069786,-0.20905365215580146
2023-01-28 13:52:57.074786,-0.21085958182811726
2023-01-28 13:52:57.079786,-0.2123576371001935
2023-01-28 13:52:57.084786,-0.21384060382843
2023-01-28 13:52:57.089786,-0.2155043291988348
2023-01-28 13:52:57.094786,-0.21723031997680653
2023-01-28 13:52:57.099786,-0.21837716435328122
2023-01-28 13:52:57.104786,-0.21771113574504852
2023-01-28 13:52:57.109786,-0.2133797581462574
2023-01-28 13:52:57.114786,-0.20297428965568534
2023-01-28 13:52:57.119786,-0.18402895709348688
2023-01-28 13:52:57.124786,-0.1551095694303512
2023-01-28 13:52:57.129786,-0.11707496848163738
2023-01-28 13:52:57.134786,-0.07387658208608626
2023-01-28 13:52:57.139786,-0.03245681634937176
2023-01-28 13:52:57.144786,-0.0014424324035644624
2023-01-28 13:52:57.149786,0.011413679469910468
2023-01-28 13:52:57.154786,0.002235770225524893
2023-01-28 13:52:57.159786,-0.027132334625444926
2023-01-28 13:52:57.164786,-0.06959736347198478
2023-01-28 13:52:57.169786,-0.11529883430934451
2023-01-28 13:52:57.174786,-0.154845118522644
2023-01-28 13:52:57.179786,-0.1820842469385077
2023-01-28 13:52:57.184786,-0.19547364115715016
2023-01-28 13:52:57.189786,-0.19749229168006863
2023-01-28 13:52:57.194786,-0.19254069030284882
2023-01-28 13:52:57.199786,-0.18478987330938262
2023-01-28 13:52:57.204786,-0.17713069915771476
2023-01-28 13:52:57.209786,-0.17108860629704614
2023-01-28 13:52:57.214786,-0.16705772280693054
2023-01-28 13:52:57.219786,-0.164713118277613
2023-01-28 13:52:57.224786,-0.1635718345642089
2023-01-28 13:52:57.229786,-0.16322653583547095
2023-01-28 13:52:57.234786,-0.16306698322296143
2023-01-28 13:52:57.239786,-0.16216980965640268
2023-01-28 13:52:57.244786,-0.15982151031494132
2023-01-28 13:52:57.249786,-0.156014210616404
2023-01-28 13:52:57.254786,-0.15123903751373288
2023-01-28 13:52:57.259786,-0.14605264641866045
2023-01-28 13:52:57.264786,-0.14104585349559784
2023-01-28 13:52:57.269786,-0.13679039022908573
2023-01-28 13:52:57.274786,-0.13330480456352228
2023-01-28 13:52:57.279786,-0.12976050064738612
2023-01-28 13:52:57.284786,-0.12510697543621052
2023-01-28 13:52:57.289786,-0.11881732727047292
2023-01-28 13:52:57.294786,-0.11080285161733613
2023-01-28 13:52:57.299786,-0.10109673413090729
2023-01-28 13:52:57.304786,-0.09015202522277832
2023-01-28 13:52:57.309786,-0.0790203755462888
2023-01-28 13:52:57.314786,-0.06853958219289766
2023-01-28 13:52:57.319786,-0.05855211186976544
2023-01-28 13:52:57.324786,-0.0484176501631736
2023-01-28 13:52:57.329786,-0.03787496116510677
2023-01-28 13:52:57.334786,-0.02680520340800278
2023-01-28 13:52:57.339786,-0.014772073482767866
2023-01-28 13:52:57.344786,-0.0017790000420062739
2023-01-28 13:52:57.349786,0.010935528342562928
2023-01-28 13:52:57.354786,0.021876892074942512
2023-01-28 13:52:57.359786,0.030667266415446894
2023-01-28 13:52:57.364786,0.037383042275905574
2023-01-28 13:52:57.369786,0.041121565985285866
2023-01-28 13:52:57.374786,0.04070063680410379
2023-01-28 13:52:57.379786,0.03627431839051114
2023-01-28 13:52:57.384786,0.02839187905192366
2023-01-28 13:52:57.389786,0.015834680906264234
2023-01-28 13:52:57.394786,-0.003077189205214271
2023-01-28 13:52:57.399786,-0.02666245871026758
2023-01-28 13:52:57.404786,-0.05010048672556868
2023-01-28 13:52:57.409786,-0.07069913166505558
2023-01-28 13:52:57.414786,-0.0905126333236694
2023-01-28 13:52:57.419786,-0.11200713869472712
2023-01-28 13:52:57.424786,-0.13342499732971186
2023-01-28 13:52:57.429786,-0.15094334765085546
2023-01-28 13:52:57.434786,-0.1637881994247436
2023-01-28 13:52:57.439786,-0.17427559362623515
2023-01-28 13:52:57.444786,-0.18357357382774345
2023-01-28 13:52:57.449786,-0.19036433441399064
2023-01-28 13:52:57.454786,-0.19367060065269465
2023-01-28 13:52:57.459786,-0.1943593733923324
2023-01-28 13:52:57.464786,-0.19335806369781494
2023-01-28 13:52:57.469786,-0.19061048757525056
2023-01-28 13:52:57.474786,-0.1865786314010621
2023-01-28 13:52:57.479786,-0.18296228590056796
2023-01-28 13:52:57.484786,-0.1809771955013274
2023-01-28 13:52:57.489786,-0.18019770534470433
2023-01-28 13:52:57.494786,-0.1797751635313034
2023-01-28 13:52:57.499786,-0.1795582636894923
2023-01-28 13:52:57.504786,-0.17936646938323966
2023-01-28 13:52:57.509786,-0.17841881619103517
2023-01-28 13:52:57.514786,-0.17636141180992115
2023-01-28 13:52:57.519786,-0.17397755925464184
2023-01-28 13:52:57.524786,-0.17220239341259003
2023-01-28 13:52:57.529786,-0.17125281794446162
2023-01-28 13:52:57.534786,-0.17126481235027308
2023-01-28 13:52:57.539786,-0.172818647725913
2023-01-28 13:52:57.544786,-0.1760488748550414
2023-01-28 13:52:57.549786,-0.17990576615938042
2023-01-28 13:52:57.554786,-0.18294851481914512
2023-01-28 13:52:57.559786,-0.18433632507023015
2023-01-28 13:52:57.564786,-0.1836937665939331
2023-01-28 13:52:57.569786,-0.1808995584970883
2023-01-28 13:52:57.574786,-0.1767220199108123
2023-01-28 13:52:57.579786,-0.1729947617104192
2023-01-28 13:52:57.584786,-0.17136096954345695
2023-01-28 13:52:57.589786,-0.17208803282254764
2023-01-28 13:52:57.594786,-0.17439007759094222
2023-01-28 13:52:57.599786,-0.1772828702374678
2023-01-28 13:52:57.604786,-0.17972707748413078
2023-01-28 13:52:57.609786,-0.1807350336137665
2023-01-28 13:52:57.614786,-0.18013577163219446
2023-01-28 13:52:57.619786,-0.17888571951497828
2023-01-28 13:52:57.624786,-0.1780923306941986
2023-01-28 13:52:57.629786,-0.17804111742328974
2023-01-28 13:52:57.634786,-0.17845293879508964
2023-01-28 13:52:57.639786,-0.17906196211604763
2023-01-28 13:52:57.644786,-0.17941455543041213
2023-01-28 13:52:57.649786,-0.17864613486229752
2023-01-28 13:52:57.654786,-0.17609696090221397
2023-01-28 13:52:57.659786,-0.17185544615546638
2023-01-28 13:52:57.664786,-0.16631245613098128
2023-01-28 13:52:57.669786,-0.15964194451084346
2023-01-28 13:52:57.674786,-0.1521766185760498
2023-01-28 13:52:57.679786,-0.1448301263541737
2023-01-28 13:52:57.684786,-0.13861775398254378
2023-01-28 13:52:57.689786,-0.1340980427102962
2023-01-28 13:52:57.694786,-0.13167004287242873
2023-01-28 13:52:57.699786,-0.13192141120284887
2023-01-28 13:52:57.704786,-0.13510784506797785
2023-01-28 13:52:57.709786,-0.14058996036700921
2023-01-28 13:52:57.714786,-0.14722427725791928
2023-01-28 13:52:57.719786,-0.15399789544817458
2023-01-28 13:52:57.724786,-0.15996575355529774
2023-01-28 13:52:57.729786,-0.16413150714426708
2023-01-28 13:52:57.734786,-0.1660480201244353
2023-01-28 13:52:57.739786,-0.1663045757142262
2023-01-28 13:52:57.744786,-0.16597589850425715
2023-01-28 13:52:57.749786,-0.16583793017590578
2023-01-28 13:52:57.754786,-0.16640862822532637
2023-01-28 13:52:57.759786,-0.16823127484158026
2023-01-28 13:52:57.764786,-0.17150521278381337
2023-01-28 13:52:57.769786,-0.17565913404076916
2023-01-28 13:52:57.774786,-0.17965495586395255
2023-01-28 13:52:57.779786,-0.18230710405522996
2023-01-28 13:52:57.784786,-0.18181860446929923
2023-01-28 13:52:57.789786,-0.1754364976075965
2023-01-28 13:52:57.794786,-0.16037444770336146
2023-01-28 13:52:57.799786,-0.13538548329393113
2023-01-28 13:52:57.804786,-0.10173957049846644
2023-01-28 13:52:57.809786,-0.0635695990859485
2023-01-28 13:52:57.814786,-0.02779086492955681
2023-01-28 13:52:57.819786,-0.0027142749260851196
2023-01-28 13:52:57.824786,0.005024473182857022
2023-01-28 13:52:57.829786,-0.00657305232330502
2023-01-28 13:52:57.834786,-0.03413756936788552
2023-01-28 13:52:57.839786,-0.07039825704355511
2023-01-28 13:52:57.844786,-0.10654767602682108
2023-01-28 13:52:57.849786,-0.13492878839123973
2023-01-28 13:52:57.854786,-0.15155157446861256
2023-01-28 13:52:57.859786,-0.15695217694022356
2023-01-28 13:52:57.864786,-0.15460471808910353
2023-01-28 13:52:57.869786,-0.14845145202608984
2023-01-28 13:52:57.874786,-0.14155070483684523
2023-01-28 13:52:57.879786,-0.13580602679403384
2023-01-28 13:52:57.884786,-0.13181428611278528
2023-01-28 13:52:57.889786,-0.12904453999185908
2023-01-28 13:52:57.894786,-0.12676577270030964
2023-01-28 13:52:57.899786,-0.12473248226173488
2023-01-28 13:52:57.904786,-0.12272696197032913
2023-01-28 13:52:57.909786,-0.11998324513436921
2023-01-28 13:52:57.914786,-0.11570712178945532
2023-01-28 13:52:57.919786,-0.10985877098479212
2023-01-28 13:52:57.924786,-0.10291755199432374
2023-01-28 13:52:57.929786,-0.09529313648403229
2023-01-28 13:52:57.934786,-0.08753161132335663
2023-01-28 13:52:57.939786,-0.08059152348492182
2023-01-28 13:52:57.944786,-0.07512669265270233
2023-01-28 13:52:57.949786,-0.07077935115426559
2023-01-28 13:52:57.954786,-0.06680866330862047
2023-01-28 13:52:57.959786,-0.06300679912668274
2023-01-28 13:52:57.964786,-0.05930801481008524
2023-01-28 13:52:57.969786,-0.055012203618829324
2023-01-28 13:52:57.974786,-0.04930714890360832
2023-01-28 13:52:57.979786,-0.04218364047456846
2023-01-28 13:52:57.984786,-0.03394524380564678
2023-01-28 13:52:57.989786,-0.02426949536510167
2023-01-28 13:52:57.994786,-0.012813608162105007
2023-01-28 13:52:57.999786,-0.00029598806853356523
2023-01-28 13:52:58.004786,0.012332797050475972
2023-01-28 13:52:58.009786,0.02548290718950213
2023-01-28 13:52:58.014786,0.04014770314097394
2023-01-28 13:52:58.019786,0.05557211755570281
2023-01-28 13:52:58.024786,0.06940504163503632
2023-01-28 13:52:58.029786,0.08056331166082124
2023-01-28 13:52:58.034786,0.09027223289012891
2023-01-28 13:52:58.039786,0.09945100256469955
2023-01-28 13:52:58.044786,0.10652363300323463
2023-01-28 13:52:58.049786,0.10897141472550122
2023-01-28 13:52:58.054786,0.10597070306539515
2023-01-28 13:52:58.059786,0.09823515088849014
2023-01-28 13:52:58.064786,0.08606513589620582
2023-01-28 13:52:58.069786,0.06900667299815484
2023-01-28 13:52:58.074786,0.04716753959655756
2023-01-28 13:52:58.079786,0.021658965587619112
2023-01-28 13:52:58.084786,-0.006226500030607004
2023-01-28 13:52:58.089786,-0.035271120044203796
2023-01-28 13:52:58.094786,-0.06368339061737065
2023-01-28 13:52:58.099786,-0.0890713246470847
2023-01-28 13:52:58.104786,-0.10943254083395
2023-01-28 13:52:58.109786,-0.12388340026589552
2023-01-28 13:52:58.114786,-0.13255953788757316
2023-01-28 13:52:58.119786,-0.13641553894054437
2023-01-28 13:52:58.124786,-0.13715128600597376
2023-01-28 13:52:58.129786,-0.1366488582398145
2023-01-28 13:52:58.134786,-0.13602137565612793
2023-01-28 13:52:58.139786,-0.13526414313770496
2023-01-28 13:52:58.144786,-0.13380965590476976
2023-01-28 13:52:58.149786,-0.13122952807213922
2023-01-28 13:52:58.154786,-0.12755911052227015
2023-01-28 13:52:58.159786,-0.12340963095299315
2023-01-28 13:52:58.164786,-0.11989017575979233
2023-01-28 13:52:58.169786,-0.11808998640377369
2023-01-28 13:52:58.174786,-0.1183756217360496
2023-01-28 13:52:58.179786,-0.12017863584129668
2023-01-28 13:52:58.184786,-0.12241443246603002
2023-01-28 13:52:58.189786,-0.12402889728948878
2023-01-28 13:52:58.194786,-0.12433767318725578
2023-01-28 13:52:58.199786,-0.12321145857026272
2023-01-28 13:52:58.204786,-0.12106816470623011
2023-01-28 13:52:58.209786,-0.11854779974565238
2023-01-28 13:52:58.214786,-0.11609177291393286
2023-01-28 13:52:58.219786,-0.11381442803323528
2023-01-28 13:52:58.224786,-0.11166831105947486
2023-01-28 13:52:58.229786,-0.10961357493069723
2023-01-28 13:52:58.234786,-0.10770162194967252
2023-01-28 13:52:58.239786,-0.10614054431007912
2023-01-28 13:52:58.244786,-0.10524948686361307
2023-01-28 13:52:58.249786,-0.10521956480610739
2023-01-28 13:52:58.254786,-0.10589858144521702
2023-01-28 13:52:58.259786,-0.1068368598228468
2023-01-28 13:52:58.264786,-0.10748525708913799
2023-01-28 13:52:58.269786,-0.10732803294099706
2023-01-28 13:52:58.274786,-0.1059707030653952
2023-01-28 13:52:58.279786,-0.10324685754440562
2023-01-28 13:52:58.284786,-0.09921531379222866
2023-01-28 13:52:58.289786,-0.09399583324319424
2023-01-28 13:52:58.294786,-0.08767585456371298
2023-01-28 13:52:58.299786,-0.08044855834895862
2023-01-28 13:52:58.304786,-0.07279475778341295
2023-01-28 13:52:58.309786,-0.06549824163065568
2023-01-28 13:52:58.314786,-0.05954841896891584
2023-01-28 13:52:58.319786,-0.05600040062370968
2023-01-28 13:52:58.324786,-0.05570193380117409
2023-01-28 13:52:58.329786,-0.05892929297319289
2023-01-28 13:52:58.334786,-0.06522198766469946
2023-01-28 13:52:58.339786,-0.0735579567572658
2023-01-28 13:52:58.344786,-0.08267541974782942
2023-01-28 13:52:58.349786,-0.091366119683348
2023-01-28 13:52:58.354786,-0.09875854104757299
2023-01-28 13:52:58.359786,-0.10451234919773669
2023-01-28 13:52:58.364786,-0.10871132463216777
2023-01-28 13:52:58.369786,-0.11151534430254806
2023-01-28 13:52:58.374786,-0.11294245719909653
2023-01-28 13:52:58.379786,-0.11295381605256072
2023-01-28 13:52:58.384786,-0.11164426803588848
2023-01-28 13:52:58.389786,-0.10936289459679362
2023-01-28 13:52:58.394786,-0.10673999786376945
2023-01-28 13:52:58.399786,-0.10447093529718801
2023-01-28 13:52:58.404786,-0.10270118713378903
2023-01-28 13:52:58.409786,-0.10034325919045876
2023-01-28 13:52:58.414786,-0.09500821679830547
2023-01-28 13:52:58.419786,-0.08382940515350049
2023-01-28 13:52:58.424786,-0.06481330096721635
2023-01-28 13:52:58.429786,-0.0381822772078022
2023-01-28 13:52:58.434786,-0.007212162017822204
2023-01-28 13:52:58.439786,0.02204523086888103
2023-01-28 13:52:58.444786,0.04250367730855932
2023-01-28 13:52:58.449786,0.048653168003817304
2023-01-28 13:52:58.454786,0.0387293100357055
2023-01-28 13:52:58.459786,0.015460391701397154
2023-01-28 13:52:58.464786,-0.014784932136535514
2023-01-28 13:52:58.469786,-0.044145190106845894
2023-01-28 13:52:58.474786,-0.06601532548666002
2023-01-28 13:52:58.479786,-0.07719085571148508
2023-01-28 13:52:58.484786,-0.07832407951354979
2023-01-28 13:52:58.489786,-0.0727218108602997
2023-01-28 13:52:58.494786,-0.06450077146291724
2023-01-28 13:52:58.499786,-0.05702488072494045
2023-01-28 13:52:58.504786,-0.05199968814849843
2023-01-28 13:52:58.509786,-0.049401093357829606
2023-01-28 13:52:58.514786,-0.048201285302638994
2023-01-28 13:52:58.519786,-0.04730785525799306
2023-01-28 13:52:58.524786,-0.04601359367370601
2023-01-28 13:52:58.529786,-0.043930333413432
2023-01-28 13:52:58.534786,-0.04086891934275623
2023-01-28 13:52:58.539786,-0.03681611720154118
2023-01-28 13:52:58.544786,-0.03185371682047841
2023-01-28 13:52:58.549786,-0.026087340979011234
2023-01-28 13:52:58.554786,-0.019713243469595902
2023-01-28 13:52:58.559786,-0.013038152002197748
2023-01-28 13:52:58.564786,-0.006370743270963416
2023-01-28 13:52:58.569786,-8.874538369687457e-05
2023-01-28 13:52:58.574786,0.005192756652831998
2023-01-28 13:52:58.579786,0.008999522882205648
2023-01-28 13:52:58.584786,0.01175582408905016
2023-01-28 13:52:58.589786,0.014592221050063083
2023-01-28 13:52:58.594786,0.018006365746259623
2023-01-28 13:52:58.599786,0.02141253891912702
2023-01-28 13:52:58.604786,0.024713676422834296
2023-01-28 13:52:58.609786,0.029527706809209697
2023-01-28 13:52:58.614786,0.037575364112854025
2023-01-28 13:52:58.619786,0.04824826920062484
2023-01-28 13:52:58.624786,0.05935609340667725
2023-01-28 13:52:58.629786,0.07040338019171317
2023-01-28 13:52:58.634786,0.0834687575697898
2023-01-28 13:52:58.639786,0.10012553830754312
2023-01-28 13:52:58.644786,0.11885643005371076
2023-01-28 13:52:58.649786,0.13652890113779997
2023-01-28 13:52:58.654786,0.151335209608078
2023-01-28 13:52:58.659786,0.16304592310589305
2023-01-28 13:52:58.664786,0.17121672630310042
2023-01-28 13:52:58.669786,0.1747419262928394
2023-01-28 13:52:58.674786,0.17304381728172294
2023-01-28 13:52:58.679786,0.16641688374471475
2023-01-28 13:52:58.684786,0.1550614833831787
2023-01-28 13:52:58.689786,0.13878003532280198
2023-01-28 13:52:58.694786,0.11787077039480194
2023-01-28 13:52:58.699786,0.09357894000491176
2023-01-28 13:52:58.704786,0.06748180091381073
2023-01-28 13:52:58.709786,0.041071865178211264
2023-01-28 13:52:58.714786,0.016059082001447594
2023-01-28 13:52:58.719786,-0.005674692015822579
2023-01-28 13:52:58.724786,-0.022862553596496485
2023-01-28 13:52:58.729786,-0.0353085817159833
2023-01-28 13:52:58.734786,-0.04348933696746826
2023-01-28 13:52:58.739786,-0.048131051101858086
2023-01-28 13:52:58.744786,-0.0502206906676292
2023-01-28 13:52:58.749786,-0.05082491566164924
2023-01-28 13:52:58.754786,-0.05053321644663806
2023-01-28 13:52:58.759786,-0.049336601433592524
2023-01-28 13:52:58.764786,-0.04721562191843982
2023-01-28 13:52:58.769786,-0.04458330889749392
2023-01-28 13:52:58.774786,-0.04207094758749006
2023-01-28 13:52:58.779786,-0.04020229526283475
2023-01-28 13:52:58.784786,-0.039354365319013526
2023-01-28 13:52:58.789786,-0.03963565881024239
2023-01-28 13:52:58.794786,-0.04058043286204326
2023-01-28 13:52:58.799786,-0.04123741711086113
2023-01-28 13:52:58.804786,-0.040796797722578035
2023-01-28 13:52:58.809786,-0.03904490140402249
2023-01-28 13:52:58.814786,-0.03622909635305402
2023-01-28 13:52:58.819786,-0.03277460821614106
2023-01-28 13:52:58.824786,-0.02920925617218005
2023-01-28 13:52:58.829786,-0.02604610626722836
2023-01-28 13:52:58.834786,-0.02353568933904171
2023-01-28 13:52:58.839786,-0.021676126577196867
2023-01-28 13:52:58.844786,-0.020530622452497465
2023-01-28 13:52:58.849786,-0.02032966853891892
2023-01-28 13:52:58.854786,-0.021179717034101375
2023-01-28 13:52:58.859786,-0.022858217647174512
2023-01-28 13:52:58.864786,-0.02495408058166504
2023-01-28 13:52:58.869786,-0.02702024259219507
2023-01-28 13:52:58.874786,-0.028560161590576106
2023-01-28 13:52:58.879786,-0.029121690691474356
2023-01-28 13:52:58.884786,-0.02853612229228015
2023-01-28 13:52:58.889786,-0.026925061539322167
2023-01-28 13:52:58.894786,-0.02442518994212152
2023-01-28 13:52:58.899786,-0.02106523099640463
2023-01-28 13:52:58.904786,-0.01692454144358636
2023-01-28 13:52:58.909786,-0.012200115840907536
2023-01-28 13:52:58.914786,-0.007067918777465737
2023-01-28 13:52:58.919786,-0.0016858089374238152
2023-01-28 13:52:58.924786,0.0035820405464618353
2023-01-28 13:52:58.929786,0.008091041766341726
2023-01-28 13:52:58.934786,0.011106729507446199
2023-01-28 13:52:58.939786,0.011948258802293995
2023-01-28 13:52:58.944786,0.010024905204772904
2023-01-28 13:52:58.949786,0.005066459727911846
2023-01-28 13:52:58.954786,-0.0025002162437885002
2023-01-28 13:52:58.959786,-0.011507547985896859
2023-01-28 13:52:58.964786,-0.020458500832319197
2023-01-28 13:52:58.969786,-0.027975232383310716
2023-01-28 13:52:58.974786,-0.033055745065212166
2023-01-28 13:52:58.979786,-0.03531371716136737
2023-01-28 13:52:58.984786,-0.03517131134867655
2023-01-28 13:52:58.989786,-0.03367299879980119
2023-01-28 13:52:58.994786,-0.03194987773895254
2023-01-28 13:52:58.999786,-0.030802646822296772
2023-01-28 13:52:59.004786,-0.030579566955566406
2023-01-28 13:52:59.009786,-0.031065480184293885
2023-01-28 13:52:59.014786,-0.03130078315734856
2023-01-28 13:52:59.019786,-0.029634005652123784
2023-01-28 13:52:59.024786,-0.024112662300467363
2023-01-28 13:52:59.029786,-0.0129790181094885
2023-01-28 13:52:59.034786,0.004784067627042468
2023-01-28 13:52:59.039786,0.028723686465029194
2023-01-28 13:52:59.044786,0.05627890676259983
2023-01-28 13:52:59.049786,0.08288731003465992
2023-01-28 13:52:59.054786,0.10308583825826637
2023-01-28 13:52:59.059786,0.11217939943074041
2023-01-28 13:52:59.064786,0.1078699082136153
2023-01-28 13:52:59.069786,0.0913073364827973
2023-01-28 13:52:59.074786,0.06697694957256303
2023-01-28 13:52:59.079786,0.04115692868954815
2023-01-28 13:52:59.084786,0.01959304139018044
2023-01-28 13:52:59.089786,0.005622463205150375
2023-01-28 13:52:59.094786,-0.0004567702708300132
2023-01-28 13:52:59.099786,-0.0007800003911463271
2023-01-28 13:52:59.104786,0.0015145540237425906
2023-01-28 13:52:59.109786,0.003921803727772973
2023-01-28 13:52:59.114786,0.005577405449002879
2023-01-28 13:52:59.119786,0.00710199168163041
2023-01-28 13:52:59.124786,0.009616216644644597
2023-01-28 13:52:59.129786,0.013756215977395602
2023-01-28 13:52:59.134786,0.01918435096740717
2023-01-28 13:52:59.139786,0.02464619191646213
2023-01-28 13:52:59.144786,0.028536122292280093
2023-01-28 13:52:59.149786,0.02975584915840732
2023-01-28 13:52:59.154786,0.028319757431745463
2023-01-28 13:52:59.159786,0.025321342142594412
2023-01-28 13:52:59.164786,0.022453865036368283
2023-01-28 13:52:59.169786,0.021425899319436222
2023-01-28 13:52:59.174786,0.023343365639448013
2023-01-28 13:52:59.179786,0.02823339070677007
2023-01-28 13:52:59.184786,0.03514727205038069
2023-01-28 13:52:59.189786,0.042841206320486346
2023-01-28 13:52:59.194786,0.050388973206281544
2023-01-28 13:52:59.199786,0.057377642567156745
2023-01-28 13:52:59.204786,0.06399592012166969
2023-01-28 13:52:59.209786,0.07102954309066374
2023-01-28 13:52:59.214786,0.07928570359945288
2023-01-28 13:52:59.219786,0.08875117088708033
2023-01-28 13:52:59.224786,0.09863834083080292
2023-01-28 13:52:59.229786,0.10834461648015387
2023-01-28 13:52:59.234786,0.11779864877462376
2023-01-28 13:52:59.239786,0.12670874720356912
2023-01-28 13:52:59.244786,0.1343866288661955
2023-01-28 13:52:59.249786,0.1409933087291592
2023-01-28 13:52:59.254786,0.14820992946624742
2023-01-28 13:52:59.259786,0.1576561117927385
2023-01-28 13:52:59.264786,0.16895692050457
2023-01-28 13:52:59.269786,0.18020916013311022
2023-01-28 13:52:59.274786,0.1899683475494383
2023-01-28 13:52:59.279786,0.19774409269248053
2023-01-28 13:52:59.284786,0.2028059959411621
2023-01-28 13:52:59.289786,0.20381879383243529
2023-01-28 13:52:59.294786,0.19994518160819985
2023-01-28 13:52:59.299786,0.19135780783874415
2023-01-28 13:52:59.304786,0.17838081717491133
2023-01-28 13:52:59.309786,0.16101207480326468
2023-01-28 13:52:59.314786,0.13967554271221155
2023-01-28 13:52:59.319786,0.11570023346836988
2023-01-28 13:52:59.324786,0.0906568765640258
2023-01-28 13:52:59.329786,0.06583126228245055
2023-01-28 13:52:59.334786,0.04262387752532943
2023-01-28 13:52:59.339786,0.022704059448685674
2023-01-28 13:52:59.344786,0.00721216201782226
2023-01-28 13:52:59.349786,-0.0037912260582423775
2023-01-28 13:52:59.354786,-0.010818243026733313
2023-01-28 13:52:59.359786,-0.01443167082531796
2023-01-28 13:52:59.364786,-0.015482108108699226
2023-01-28 13:52:59.369786,-0.015184793445450689
2023-01-28 13:52:59.374786,-0.01442432403564454
2023-01-28 13:52:59.379786,-0.0133354944796334
2023-01-28 13:52:59.384786,-0.011876027099788094
2023-01-28 13:52:59.389786,-0.010378866658854662
2023-01-28 13:52:59.394786,-0.009255608543753624
2023-01-28 13:52:59.399786,-0.008642370674933715
2023-01-28 13:52:59.404786,-0.0086545944213867
2023-01-28 13:52:59.409786,-0.009481729791718189
2023-01-28 13:52:59.414786,-0.01084228418767457
2023-01-28 13:52:59.419786,-0.011801174289562486
2023-01-28 13:52:59.424786,-0.0115635003894567
2023-01-28 13:52:59.429786,-0.010171308267732075
2023-01-28 13:52:59.434786,-0.008221864700317275
2023-01-28 13:52:59.439786,-0.006374818785322141
2023-01-28 13:52:59.444786,-0.005385081283748092
2023-01-28 13:52:59.449786,-0.00600479244108021
2023-01-28 13:52:59.454786,-0.00831802748143673
2023-01-28 13:52:59.459786,-0.011482886028290904
2023-01-28 13:52:59.464786,-0.014472405426204251
2023-01-28 13:52:59.469786,-0.016752341152844376
2023-01-28 13:52:59.474786,-0.018054446205496753
2023-01-28 13:52:59.479786,-0.018064951621880036
2023-01-28 13:52:59.484786,-0.016756257042288752
2023-01-28 13:52:59.489786,-0.014570991720804111
2023-01-28 13:52:59.494786,-0.011851986870169667
2023-01-28 13:52:59.499786,-0.008451231150095474
2023-01-28 13:52:59.504786,-0.004207094665616741
2023-01-28 13:52:59.509786,0.0006547524297514399
2023-01-28 13:52:59.514786,0.005938013549893971
2023-01-28 13:52:59.519786,0.011784313885332891
2023-01-28 13:52:59.524786,0.018126567825675014
2023-01-28 13:52:59.529786,0.02424344771653645
2023-01-28 13:52:59.534786,0.029233297333121175
2023-01-28 13:52:59.539786,0.032508933326423003
2023-01-28 13:52:59.544786,0.03351251408457749
2023-01-28 13:52:59.549786,0.03153409974826034
2023-01-28 13:52:59.554786,0.02637247368693349
2023-01-28 13:52:59.559786,0.01883261625443815
2023-01-28 13:52:59.564786,0.010193189606070449
2023-01-28 13:52:59.569786,0.0015884991695098165
2023-01-28 13:52:59.574786,-0.005817811004817405
2023-01-28 13:52:59.579786,-0.010755486038225114
2023-01-28 13:52:59.584786,-0.01262128353118887
2023-01-28 13:52:59.589786,-0.012017524874100056
2023-01-28 13:52:59.594786,-0.010121067985892192
2023-01-28 13:52:59.599786,-0.00791863159359722
2023-01-28 13:52:59.604786,-0.00632266234606502
2023-01-28 13:52:59.609786,-0.006274937753629676
2023-01-28 13:52:59.614786,-0.008005499839782734
2023-01-28 13:52:59.619786,-0.01052276551455092
2023-01-28 13:52:59.624786,-0.012236635200679292
2023-01-28 13:52:59.629786,-0.01155333343617608
2023-01-28 13:52:59.634786,-0.00646690558642149
2023-01-28 13:52:59.639786,0.005577845276187584
2023-01-28 13:52:59.644786,0.02637247368693342
2023-01-28 13:52:59.649786,0.05544044696363554
2023-01-28 13:52:59.654786,0.0898395031690596
2023-01-28 13:52:59.659786,0.12461630829956724
2023-01-28 13:52:59.664786,0.15313825011253346
2023-01-28 13:52:59.669786,0.16846234843270755
2023-01-28 13:52:59.674786,0.16631245613098136
2023-01-28 13:52:59.679786,0.14737844784127205
2023-01-28 13:52:59.684786,0.1167889460921287
2023-01-28 13:52:59.689786,0.08188301324172675
2023-01-28 13:52:59.694786,0.050268769264221067
2023-01-28 13:52:59.699786,0.027931648137118983
2023-01-28 13:52:59.704786,0.017020702362060467
2023-01-28 13:52:59.709786,0.015248386332281797
2023-01-28 13:52:59.714786,0.01817464828491212
2023-01-28 13:52:59.719786,0.022030392118913767
2023-01-28 13:52:59.724786,0.024497311562299708
2023-01-28 13:52:59.729786,0.0244730873036443
2023-01-28 13:52:59.734786,0.022598108276724795
2023-01-28 13:52:59.739786,0.02125194968853406
2023-01-28 13:52:59.744786,0.022574067115783625
2023-01-28 13:52:59.749786,0.026696637174476335
2023-01-28 13:52:59.754786,0.03255089372396456
2023-01-28 13:52:59.759786,0.03935005917116353
2023-01-28 13:52:59.764786,0.04615783691406259
2023-01-28 13:52:59.769786,0.05124379933288308
2023-01-28 13:52:59.774786,0.05363444611430155
2023-01-28 13:52:59.779786,0.054592268209415276
2023-01-28 13:52:59.784786,0.05601445958018301
2023-01-28 13:52:59.789786,0.05820367040446231
2023-01-28 13:52:59.794786,0.06077448651194567
2023-01-28 13:52:59.799786,0.0644852620977516
2023-01-28 13:52:59.804786,0.069909892976284
2023-01-28 13:52:59.809786,0.07536779308749618
2023-01-28 13:52:59.814786,0.0789010524749755
2023-01-28 13:52:59.819786,0.08154942165897461
2023-01-28 13:52:59.824786,0.08565644919872285
2023-01-28 13:52:59.829786,0.09063469149484721
2023-01-28 13:52:59.834786,0.09426295757293696
2023-01-28 13:52:59.839786,0.09821235678730787
2023-01-28 13:52:59.844786,0.10772566497325889
2023-01-28 13:52:59.849786,0.12426129747087199
2023-01-28 13:52:59.854786,0.1425604075193404
2023-01-28 13:52:59.859786,0.15744105155896482
2023-01-28 13:52:59.864786,0.16987046599388111
2023-01-28 13:52:59.869786,0.18311523690414355
2023-01-28 13:52:59.874786,0.19600252807140342
2023-01-28 13:52:59.879786,0.20422830904900463
2023-01-28 13:52:59.884786,0.20662844181060783
2023-01-28 13:52:59.889786,0.20583033504026488
2023-01-28 13:52:59.894786,0.20314256846904738
2023-01-28 13:52:59.899786,0.1965931565678228
2023-01-28 13:52:59.904786,0.18429479002952576
2023-01-28 13:52:59.909786,0.166558532152038
2023-01-28 13:52:59.914786,0.14409899711608876
2023-01-28 13:52:59.919786,0.1170238529046275
2023-01-28 13:52:59.924786,0.08669018745422359
2023-01-28 13:52:59.929786,0.056374211625534604
2023-01-28 13:52:59.934786,0.028872689232230072
2023-01-28 13:52:59.939786,0.004818975260343232
2023-01-28 13:52:59.944786,-0.01603504084050646
2023-01-28 13:52:59.949786,-0.033492599985281486
2023-01-28 13:52:59.954786,-0.047624312341213206
2023-01-28 13:52:59.959786,-0.059282518441418554
2023-01-28 13:52:59.964786,-0.06890019029378885
2023-01-28 13:52:59.969786,-0.07581867017241696
2023-01-28 13:52:59.974786,-0.07957419008016581
2023-01-28 13:52:59.979786,-0.08092188932983653
2023-01-28 13:52:59.984786,-0.08096854388713826
2023-01-28 13:52:59.989786,-0.08023285338342992
2023-01-28 13:52:59.994786,-0.07916550338268274
2023-01-28 13:52:59.999786,-0.07864700254100909
2023-01-28 13:53:00.004786,-0.07923762500286097
2023-01-28 13:53:00.009786,-0.0806580069725302
2023-01-28 13:53:00.014786,-0.08262734115123746
2023-01-28 13:53:00.019786,-0.08554596819672486
2023-01-28 13:53:00.024786,-0.08979141712188721
2023-01-28 13:53:00.029786,-0.0949719368929686
2023-01-28 13:53:00.034786,-0.1003932952880859
2023-01-28 13:53:00.039786,-0.1056593207813241
2023-01-28 13:53:00.044786,-0.11034607887268058
2023-01-28 13:53:00.049786,-0.11375809720135874
2023-01-28 13:53:00.054786,-0.11563500016927714
2023-01-28 13:53:00.059786,-0.1166521563884615
2023-01-28 13:53:00.064786,-0.11772652715444559
2023-01-28 13:53:00.069786,-0.1192173465828729
2023-01-28 13:53:00.074786,-0.1211402863264083
2023-01-28 13:53:00.079786,-0.12360897012935529
2023-01-28 13:53:00.084786,-0.12659749388694755
2023-01-28 13:53:00.089786,-0.12975806723543443
2023-01-28 13:53:00.094786,-0.13299226760864252
2023-01-28 13:53:00.099786,-0.13685003505504953
2023-01-28 13:53:00.104786,-0.1419353485107421
2023-01-28 13:53:00.109786,-0.14822620776366238
2023-01-28 13:53:00.114786,-0.15527784824371332
2023-01-28 13:53:00.119786,-0.1626466659529057
2023-01-28 13:53:00.124786,-0.1697021722793579
2023-01-28 13:53:00.129786,-0.17542484652149898
2023-01-28 13:53:00.134786,-0.178885668516159
2023-01-28 13:53:00.139786,-0.17974164773545362
2023-01-28 13:53:00.144786,-0.17804424464702598
2023-01-28 13:53:00.149786,-0.174016929561095
2023-01-28 13:53:00.154786,-0.16847610473632804
2023-01-28 13:53:00.159786,-0.1631655831305781
2023-01-28 13:53:00.164786,-0.1601821184158324
2023-01-28 13:53:00.169786,-0.16108804241910588
2023-01-28 13:53:00.174786,-0.16660094261169422
2023-01-28 13:53:00.179786,-0.1765878762907965
2023-01-28 13:53:00.184786,-0.1898721903562545
2023-01-28 13:53:00.189786,-0.20436024450217852
2023-01-28 13:53:00.194786,-0.21795153617858878
2023-01-28 13:53:00.199786,-0.22946265308715266
2023-01-28 13:53:00.204786,-0.23869852721691123
2023-01-28 13:53:00.209786,-0.24606139032848648
2023-01-28 13:53:00.214786,-0.2524016499519347
2023-01-28 13:53:00.219786,-0.25884634928513073
2023-01-28 13:53:00.224786,-0.2662009000778197
2023-01-28 13:53:00.229786,-0.27448524649127043
2023-01-28 13:53:00.234786,-0.2831975817680357
2023-01-28 13:53:00.239786,-0.29179073079385426
2023-01-28 13:53:00.244786,-0.299665331840515
2023-01-28 13:53:00.249786,-0.30598578277935345
2023-01-28 13:53:00.254786,-0.30981045961379994
2023-01-28 13:53:00.259786,-0.31015777617751866
2023-01-28 13:53:00.264786,-0.3056514263153075
2023-01-28 13:53:00.269786,-0.29444538369620044
2023-01-28 13:53:00.274786,-0.27514398097991943
2023-01-28 13:53:00.279786,-0.24814832953785
2023-01-28 13:53:00.284786,-0.21638891100883478
2023-01-28 13:53:00.289786,-0.1852365878171129
2023-01-28 13:53:00.294786,-0.161720722913742
2023-01-28 13:53:00.299786,-0.1527231044575158
2023-01-28 13:53:00.304786,-0.1622976958751678
2023-01-28 13:53:00.309786,-0.18963756527328002
2023-01-28 13:53:00.314786,-0.22920250892639152
2023-01-28 13:53:00.319786,-0.272789049439442
2023-01-28 13:53:00.324786,-0.31221449375152566
2023-01-28 13:53:00.329786,-0.34171382696953606
2023-01-28 13:53:00.334786,-0.3594782054424284
2023-01-28 13:53:00.339786,-0.36750935610242824
2023-01-28 13:53:00.344786,-0.36967140436172474
2023-01-28 13:53:00.349786,-0.369398782066716
2023-01-28 13:53:00.354786,-0.3686617016792296
2023-01-28 13:53:00.359786,-0.36815914169207387
2023-01-28 13:53:00.364786,-0.3677962422370909
2023-01-28 13:53:00.369786,-0.36722217913853994
2023-01-28 13:53:00.374786,-0.3665461242198943
2023-01-28 13:53:00.379786,-0.3665912960397223
2023-01-28 13:53:00.384786,-0.368156850337982
2023-01-28 13:53:00.389786,-0.37116606739964236
2023-01-28 13:53:00.394786,-0.37484011054038985
2023-01-28 13:53:00.399786,-0.3784509152792173
2023-01-28 13:53:00.404786,-0.38149935007095315
2023-01-28 13:53:00.409786,-0.38350489149858175
2023-01-28 13:53:00.414786,-0.3843120932579039
2023-01-28 13:53:00.419786,-0.38449245717531894
2023-01-28 13:53:00.424786,-0.38474482297897317
2023-01-28 13:53:00.429786,-0.3848510657644551
2023-01-28 13:53:00.434786,-0.3838312625885008
2023-01-28 13:53:00.439786,-0.3811851001229899
2023-01-28 13:53:00.444786,-0.37736436724662764
2023-01-28 13:53:00.449786,-0.3729654961654942
2023-01-28 13:53:00.454786,-0.36820492148399336
2023-01-28 13:53:00.459786,-0.3634189572463456
2023-01-28 13:53:00.464786,-0.3592618405818938
2023-01-28 13:53:00.469786,-0.35583047156704795
2023-01-28 13:53:00.474786,-0.3521218001842497
2023-01-28 13:53:00.479786,-0.3469801825756261
2023-01-28 13:53:00.484786,-0.34029385447502125
2023-01-28 13:53:00.489786,-0.33278381430315396
2023-01-28 13:53:00.494786,-0.3249559998512268
2023-01-28 13:53:00.499786,-0.31685793679280605
2023-01-28 13:53:00.504786,-0.30868053436279286
2023-01-28 13:53:00.509786,-0.30100629694955466
2023-01-28 13:53:00.514786,-0.2945206761360168
2023-01-28 13:53:00.519786,-0.29003852461147694
2023-01-28 13:53:00.524786,-0.28889518976211537
2023-01-28 13:53:00.529786,-0.29283174374159365
2023-01-28 13:53:00.534786,-0.303223341703415
2023-01-28 13:53:00.539786,-0.32049260734433066
2023-01-28 13:53:00.544786,-0.344116300344467
2023-01-28 13:53:00.549786,-0.3727671499509497
2023-01-28 13:53:00.554786,-0.4043619036674498
2023-01-28 13:53:00.559786,-0.4363891316450363
2023-01-28 13:53:00.564786,-0.46657881140708907
2023-01-28 13:53:00.569786,-0.4933796561683983
2023-01-28 13:53:00.574786,-0.5159821510314941
2023-01-28 13:53:00.579786,-0.5342140867791341
2023-01-28 13:53:00.584786,-0.5484849214553833
2023-01-28 13:53:00.589786,-0.5595314434462743
2023-01-28 13:53:00.594786,-0.5679577589035034
2023-01-28 13:53:00.599786,-0.5740162348250663
2023-01-28 13:53:00.604786,-0.5778384208679197
2023-01-28 13:53:00.609786,-0.579779354860943
2023-01-28 13:53:00.614786,-0.5805550217628477
2023-01-28 13:53:00.619786,-0.5811937122862807
2023-01-28 13:53:00.624786,-0.5828148126602168
2023-01-28 13:53:00.629786,-0.5861504531837645
2023-01-28 13:53:00.634786,-0.5910366773605344
2023-01-28 13:53:00.639786,-0.5963672934545301
2023-01-28 13:53:00.644786,-0.6006288528442381
2023-01-28 13:53:00.649786,-0.6025994751855998
2023-01-28 13:53:00.654786,-0.6018308997154234
2023-01-28 13:53:00.659786,-0.5988564628559174
2023-01-28 13:53:00.664786,-0.5950754880905151
2023-01-28 13:53:00.669786,-0.5922115510700123
2023-01-28 13:53:00.674786,-0.5915656089782714
2023-01-28 13:53:00.679786,-0.5935545960260002
2023-01-28 13:53:00.684786,-0.5977199673652647
2023-01-28 13:53:00.689786,-0.6029683121724971
2023-01-28 13:53:00.694786,-0.6078891158103941
2023-01-28 13:53:00.699786,-0.6112254062827396
2023-01-28 13:53:00.704786,-0.6123846769332884
2023-01-28 13:53:00.709786,-0.6116347043107855
2023-01-28 13:53:00.714786,-0.60988450050354
2023-01-28 13:53:00.719786,-0.6083194772228325
2023-01-28 13:53:00.724786,-0.6080573797225951
2023-01-28 13:53:00.729786,-0.6097586326892183
2023-01-28 13:53:00.734786,-0.6132982373237608
2023-01-28 13:53:00.739786,-0.617810713251362
2023-01-28 13:53:00.744786,-0.6221210956573486
2023-01-28 13:53:00.749786,-0.6252014383791608
2023-01-28 13:53:00.754786,-0.6264483928680418
2023-01-28 13:53:00.759786,-0.6258784331593321
2023-01-28 13:53:00.764786,-0.6241886019706726
2023-01-28 13:53:00.769786,-0.6224244883287084
2023-01-28 13:53:00.774786,-0.6213277578353879
2023-01-28 13:53:00.779786,-0.6208581617547514
2023-01-28 13:53:00.784786,-0.6201978921890257
2023-01-28 13:53:00.789786,-0.618099624392595
2023-01-28 13:53:00.794786,-0.6134184598922728
2023-01-28 13:53:00.799786,-0.6057941131936246
2023-01-28 13:53:00.804786,-0.5961813926696777
2023-01-28 13:53:00.809786,-0.5867131996796241
2023-01-28 13:53:00.814786,-0.5798578262329099
2023-01-28 13:53:00.819786,-0.5774662523031028
2023-01-28 13:53:00.824786,-0.580218434333801
2023-01-28 13:53:00.829786,-0.587483260036669
2023-01-28 13:53:00.834786,-0.5975276231765745
2023-01-28 13:53:00.839786,-0.6081468216407594
2023-01-28 13:53:00.844786,-0.6175053119659422
2023-01-28 13:53:00.849786,-0.6246404522637674
2023-01-28 13:53:00.854786,-0.6294053792953489
2023-01-28 13:53:00.859786,-0.6321905487924974
2023-01-28 13:53:00.864786,-0.6337086558341978
2023-01-28 13:53:00.869786,-0.6347407071337409
2023-01-28 13:53:00.874786,-0.6358242034912109
2023-01-28 13:53:00.879786,-0.6371492747149134
2023-01-28 13:53:00.884786,-0.6386850476264951
2023-01-28 13:53:00.889786,-0.6401607291567306
2023-01-28 13:53:00.894786,-0.6407765746116637
2023-01-28 13:53:00.899786,-0.6390193413213417
2023-01-28 13:53:00.904786,-0.6328191757202148
2023-01-28 13:53:00.909786,-0.6198642408949763
2023-01-28 13:53:00.914786,-0.5980565547943115
2023-01-28 13:53:00.919786,-0.5664280897647376
2023-01-28 13:53:00.924786,-0.5263916850090025
2023-01-28 13:53:00.929786,-0.4824623890050396
2023-01-28 13:53:00.934786,-0.44174492359161366
2023-01-28 13:53:00.939786,-0.41230648647841733
2023-01-28 13:53:00.944786,-0.40092408657073975
2023-01-28 13:53:00.949786,-0.41070625967551266
2023-01-28 13:53:00.954786,-0.4395091533660887
2023-01-28 13:53:00.959786,-0.4803185548629931
2023-01-28 13:53:00.964786,-0.5237472057342529
2023-01-28 13:53:00.969786,-0.561260406223687
2023-01-28 13:53:00.974786,-0.5875027179718016
2023-01-28 13:53:00.979786,-0.6011251832585457
2023-01-28 13:53:00.984786,-0.6042349338531494
2023-01-28 13:53:00.989786,-0.6007163831041246
2023-01-28 13:53:00.994786,-0.5941619873046874
2023-01-28 13:53:00.999786,-0.5866750074345551
2023-01-28 13:53:01.004786,-0.5790885686874387
2023-01-28 13:53:01.009786,-0.5717461556401188
2023-01-28 13:53:01.014786,-0.5648565292358398
2023-01-28 13:53:01.019786,-0.5585319815200253
2023-01-28 13:53:01.024786,-0.5529564619064331
2023-01-28 13:53:01.029786,-0.5484000494054574
2023-01-28 13:53:01.034786,-0.5447826981544492
2023-01-28 13:53:01.039786,-0.5414350706410133
2023-01-28 13:53:01.044786,-0.5376666784286498
2023-01-28 13:53:01.049786,-0.5334368619605431
2023-01-28 13:53:01.054786,-0.5291323065757751
2023-01-28 13:53:01.059786,-0.5248987408153661
2023-01-28 13:53:01.064786,-0.5206700563430787
2023-01-28 13:53:01.069786,-0.5166749642457122
2023-01-28 13:53:01.074786,-0.5131934285163879
2023-01-28 13:53:01.079786,-0.5096228535940938
2023-01-28 13:53:01.084786,-0.5043705701828001
2023-01-28 13:53:01.089786,-0.49609913895051216
2023-01-28 13:53:01.094786,-0.4848736524581909
2023-01-28 13:53:01.099786,-0.471904017845308
2023-01-28 13:53:01.104786,-0.4584771394729613
2023-01-28 13:53:01.109786,-0.4453770344063112
2023-01-28 13:53:01.114786,-0.4329460859298706
2023-01-28 13:53:01.119786,-0.4211378079333
2023-01-28 13:53:01.124786,-0.40948253870010365
2023-01-28 13:53:01.129786,-0.3973914630756905
2023-01-28 13:53:01.134786,-0.38469672203063965
2023-01-28 13:53:01.139786,-0.37181665515608503
2023-01-28 13:53:01.144786,-0.35938203334808333
2023-01-28 13:53:01.149786,-0.34782037527389925
2023-01-28 13:53:01.154786,-0.33731281757354736
2023-01-28 13:53:01.159786,-0.32803274459605924
2023-01-28 13:53:01.164786,-0.3204123377799986
2023-01-28 13:53:01.169786,-0.31533078586341035
2023-01-28 13:53:01.174786,-0.3141377568244934
2023-01-28 13:53:01.179786,-0.31835877801862394
2023-01-28 13:53:01.184786,-0.32909095287322987
2023-01-28 13:53:01.189786,-0.3464085491308592
2023-01-28 13:53:01.194786,-0.36916655302047696
2023-01-28 13:53:01.199786,-0.3953008996395544
2023-01-28 13:53:01.204786,-0.42239230871200567
2023-01-28 13:53:01.209786,-0.4482054306257919
2023-01-28 13:53:01.214786,-0.4710744023323059
2023-01-28 13:53:01.219786,-0.49009612183154033
2023-01-28 13:53:01.224786,-0.5050677061080933
2023-01-28 13:53:01.229786,-0.5161928974244309
2023-01-28 13:53:01.234786,-0.5237953066825864
2023-01-28 13:53:01.239786,-0.5282708335863564
2023-01-28 13:53:01.244786,-0.530190110206604
2023-01-28 13:53:01.249786,-0.5302718149612276
2023-01-28 13:53:01.254786,-0.5291804075241088
2023-01-28 13:53:01.259786,-0.5273623168390774
2023-01-28 13:53:01.264786,-0.5250213742256166
2023-01-28 13:53:01.269786,-0.5221374111229617
2023-01-28 13:53:01.274786,-0.5185304284095764
2023-01-28 13:53:01.279786,-0.5140833789393527
2023-01-28 13:53:01.284786,-0.5090103745460508
2023-01-28 13:53:01.289786,-0.5038666496732318
2023-01-28 13:53:01.294786,-0.49927395582199097
2023-01-28 13:53:01.299786,-0.4956733967697253
2023-01-28 13:53:01.304786,-0.49326381087303145
2023-01-28 13:53:01.309786,-0.49197282258964253
2023-01-28 13:53:01.314786,-0.49141269922256453
2023-01-28 13:53:01.319786,-0.49100085113810227
2023-01-28 13:53:01.324786,-0.4902347028255461
2023-01-28 13:53:01.329786,-0.48884007161491366
2023-01-28 13:53:01.334786,-0.4867247939109802
2023-01-28 13:53:01.339786,-0.48398204470716727
2023-01-28 13:53:01.344786,-0.48097908496856656
2023-01-28 13:53:01.349786,-0.47824465421673207
2023-01-28 13:53:01.354786,-0.4761229157447813
2023-01-28 13:53:01.359786,-0.4745784452698096
2023-01-28 13:53:01.364786,-0.4733341932296751
2023-01-28 13:53:01.369786,-0.47206318831942595
2023-01-28 13:53:01.374786,-0.4704493284225462
2023-01-28 13:53:01.379786,-0.46828461286909806
2023-01-28 13:53:01.384786,-0.46561717987060547
2023-01-28 13:53:01.389786,-0.46265561437056674
2023-01-28 13:53:01.394786,-0.459438771009445
2023-01-28 13:53:01.399786,-0.4557436920094986
2023-01-28 13:53:01.404786,-0.4514092206954955
2023-01-28 13:53:01.409786,-0.4466255339717855
2023-01-28 13:53:01.414786,-0.4418410956859587
2023-01-28 13:53:01.419786,-0.4375129002191986
2023-01-28 13:53:01.424786,-0.4339557886123656
2023-01-28 13:53:01.429786,-0.4311886697752339
2023-01-28 13:53:01.434786,-0.42878708243370034
2023-01-28 13:53:01.439786,-0.4260575549100355
2023-01-28 13:53:01.444786,-0.422512501478195
2023-01-28 13:53:01.449786,-0.4180940232954215
2023-01-28 13:53:01.454786,-0.4128962755203247
2023-01-28 13:53:01.459786,-0.4068439616070283
2023-01-28 13:53:01.464786,-0.39972206950187683
2023-01-28 13:53:01.469786,-0.3913686132194616
2023-01-28 13:53:01.474786,-0.3818359076976776
2023-01-28 13:53:01.479786,-0.3716782538650625
2023-01-28 13:53:01.484786,-0.3622668981552123
2023-01-28 13:53:01.489786,-0.3555794301405079
2023-01-28 13:53:01.494786,-0.3533478677272795
2023-01-28 13:53:01.499786,-0.35626566972392437
2023-01-28 13:53:01.504786,-0.3638055026531218
2023-01-28 13:53:01.509786,-0.3744178890609138
2023-01-28 13:53:01.514786,-0.3858266472816466
2023-01-28 13:53:01.519786,-0.39560977706819705
2023-01-28 13:53:01.524786,-0.4020299613475798
2023-01-28 13:53:01.529786,-0.40448033167177133
2023-01-28 13:53:01.534786,-0.4032319784164427
2023-01-28 13:53:01.539786,-0.399019963904516
2023-01-28 13:53:01.544786,-0.39291858673095703
2023-01-28 13:53:01.549786,-0.3862044454247131
2023-01-28 13:53:01.554786,-0.3799607455730439
2023-01-28 13:53:01.559786,-0.37481986749188567
2023-01-28 13:53:01.564786,-0.3710417151451109
2023-01-28 13:53:01.569786,-0.3683886818589494
2023-01-28 13:53:01.574786,-0.3655364215373993
2023-01-28 13:53:01.579786,-0.35974874946519503
2023-01-28 13:53:01.584786,-0.3475060164928435
2023-01-28 13:53:01.589786,-0.32578682265037673
2023-01-28 13:53:01.594786,-0.2934148013591765
2023-01-28 13:53:01.599786,-0.2523072599025159
2023-01-28 13:53:01.604786,-0.20819108188152308
2023-01-28 13:53:01.609786,-0.16973386617212496
2023-01-28 13:53:01.614786,-0.1457818448543549
2023-01-28 13:53:01.619786,-0.14207334981379602
2023-01-28 13:53:01.624786,-0.15917241573333735
2023-01-28 13:53:01.629786,-0.19222684234109577
2023-01-28 13:53:01.634786,-0.2323999106884001
2023-01-28 13:53:01.639786,-0.26978890006325507
2023-01-28 13:53:01.644786,-0.2969247102737425
2023-01-28 13:53:01.649786,-0.31094475516456005
2023-01-28 13:53:01.654786,-0.3132722973823546
2023-01-28 13:53:01.659786,-0.3077317135130927
2023-01-28 13:53:01.664786,-0.29872775077819813
2023-01-28 13:53:01.669786,-0.28992970601555434
2023-01-28 13:53:01.674786,-0.2832697033882141
2023-01-28 13:53:01.679786,-0.2787490509760527
2023-01-28 13:53:01.684786,-0.27545651793479903
2023-01-28 13:53:01.689786,-0.2727961535518833
2023-01-28 13:53:01.694786,-0.2706003189086914
2023-01-28 13:53:01.699786,-0.26843878001693533
2023-01-28 13:53:01.704786,-0.2654796838760375
2023-01-28 13:53:01.709786,-0.26113294180399416
2023-01-28 13:53:01.714786,-0.25545477867126454
2023-01-28 13:53:01.719786,-0.24884912070683654
2023-01-28 13:53:01.724786,-0.24167954921722404
2023-01-28 13:53:01.729786,-0.23423119292135147
2023-01-28 13:53:01.734786,-0.22675037384033195
2023-01-28 13:53:01.739786,-0.219365918491324
2023-01-28 13:53:01.744786,-0.21208564937114707
2023-01-28 13:53:01.749786,-0.20490134129026258
2023-01-28 13:53:01.754786,-0.19780556857585901
2023-01-28 13:53:01.759786,-0.19075350806741553
2023-01-28 13:53:01.764786,-0.1837178170680998
2023-01-28 13:53:01.769786,-0.17669105987677658
2023-01-28 13:53:01.774786,-0.1694858074188232
2023-01-28 13:53:01.779786,-0.16159324463673236
2023-01-28 13:53:01.784786,-0.15234491229057304
2023-01-28 13:53:01.789786,-0.14114577659587826
2023-01-28 13:53:01.794786,-0.12755911052227029
2023-01-28 13:53:01.799786,-0.11147717521552408
2023-01-28 13:53:01.804786,-0.09346961975097647
2023-01-28 13:53:01.809786,-0.07482962606684224
2023-01-28 13:53:01.814786,-0.057048201560974204
2023-01-28 13:53:01.819786,-0.04124592624541256
2023-01-28 13:53:01.824786,-0.028079351410269723
2023-01-28 13:53:01.829786,-0.01788940561673253
2023-01-28 13:53:01.834786,-0.010770162567496237
2023-01-28 13:53:01.839786,-0.006771189525554271
2023-01-28 13:53:01.844786,-0.006298621650785198
2023-01-28 13:53:01.849786,-0.010160607917631338
2023-01-28 13:53:01.854786,-0.019016068428754883
2023-01-28 13:53:01.859786,-0.03288302978482399
2023-01-28 13:53:01.864786,-0.051206350326538135
2023-01-28 13:53:01.869786,-0.07305466182281377
2023-01-28 13:53:01.874786,-0.09705166518688205
2023-01-28 13:53:01.879786,-0.12144905190819315
2023-01-28 13:53:01.884786,-0.14460384845733637
2023-01-28 13:53:01.889786,-0.16529300556356077
2023-01-28 13:53:01.894786,-0.18253982067108154
2023-01-28 13:53:01.899786,-0.19557251760844216
2023-01-28 13:53:01.904786,-0.20427247881889343
2023-01-28 13:53:01.909786,-0.20939560579823835
2023-01-28 13:53:01.914786,-0.21206161379814137
2023-01-28 13:53:01.919786,-0.21318150249710757
2023-01-28 13:53:01.924786,-0.21343192458152763
2023-01-28 13:53:01.929786,-0.2133037015741883
2023-01-28 13:53:01.934786,-0.21283090114593498
2023-01-28 13:53:01.939786,-0.2116039622187118
2023-01-28 13:53:01.944786,-0.20939311385154707
2023-01-28 13:53:01.949786,-0.2065266307657354
2023-01-28 13:53:01.954786,-0.20345509052276606
2023-01-28 13:53:01.959786,-0.20030494799581317
2023-01-28 13:53:01.964786,-0.19710838794708244
2023-01-28 13:53:01.969786,-0.1940566392907834
2023-01-28 13:53:01.974786,-0.1911944150924681
2023-01-28 13:53:01.979786,-0.18824547151281934
2023-01-28 13:53:01.984786,-0.18508812785148612
2023-01-28 13:53:01.989786,-0.18205209861514351
2023-01-28 13:53:01.994786,-0.1794385910034179
2023-01-28 13:53:01.999786,-0.1771550837319089
2023-01-28 13:53:02.004786,-0.17515937983989707
2023-01-28 13:53:02.009786,-0.17380841041235073
2023-01-28 13:53:02.014786,-0.1733323037624359
2023-01-28 13:53:02.019786,-0.17332434471953093
2023-01-28 13:53:02.024786,-0.17311593890190125
2023-01-28 13:53:02.029786,-0.17226166719481478
2023-01-28 13:53:02.034786,-0.17035126686096186
2023-01-28 13:53:02.039786,-0.16693265484755185
2023-01-28 13:53:02.044786,-0.16217748820781697
2023-01-28 13:53:02.049786,-0.15721075094593726
2023-01-28 13:53:02.054786,-0.1532584428787231
2023-01-28 13:53:02.059786,-0.15076588062699028
2023-01-28 13:53:02.064786,-0.1496283262968063
2023-01-28 13:53:02.069786,-0.14966586987961947
2023-01-28 13:53:02.074786,-0.15034954249858848
2023-01-28 13:53:02.079786,-0.15065119252166884
2023-01-28 13:53:02.084786,-0.14984469115734098
2023-01-28 13:53:02.089786,-0.1480897992536936
2023-01-28 13:53:02.094786,-0.14575779438018788
2023-01-28 13:53:02.099786,-0.14271293500868173
2023-01-28 13:53:02.104786,-0.13878604769706726
2023-01-28 13:53:02.109786,-0.1343485904813202
2023-01-28 13:53:02.114786,-0.12977084517478943
2023-01-28 13:53:02.119786,-0.12485809201335389
2023-01-28 13:53:02.124786,-0.11943340301513668
2023-01-28 13:53:02.129786,-0.11384873679458656
2023-01-28 13:53:02.134786,-0.10823051631450648
2023-01-28 13:53:02.139786,-0.10188374308743914
2023-01-28 13:53:02.144786,-0.09426295757293703
2023-01-28 13:53:02.149786,-0.08601099075363679
2023-01-28 13:53:02.154786,-0.07837216556072228
2023-01-28 13:53:02.159786,-0.0722706633689572
2023-01-28 13:53:02.164786,-0.06865978240966791
2023-01-28 13:53:02.169786,-0.0688062301439946
2023-01-28 13:53:02.174786,-0.0730592012405395
2023-01-28 13:53:02.179786,-0.07992123352835617
2023-01-28 13:53:02.184786,-0.08731524646282193
2023-01-28 13:53:02.189786,-0.09417123775943474
2023-01-28 13:53:02.194786,-0.10000865161418915
2023-01-28 13:53:02.199786,-0.10406934994757151
2023-01-28 13:53:02.204786,-0.10616302490234372
2023-01-28 13:53:02.209786,-0.1074554983230577
2023-01-28 13:53:02.214786,-0.10899981111288072
2023-01-28 13:53:02.219786,-0.11026117324595537
2023-01-28 13:53:02.224786,-0.1104182004928588
2023-01-28 13:53:02.229786,-0.11013138438318794
2023-01-28 13:53:02.234786,-0.11046628654003143
2023-01-28 13:53:02.239786,-0.11106046862053606
2023-01-28 13:53:02.244786,-0.1109230518341064
2023-01-28 13:53:02.249786,-0.10957255807109095
2023-01-28 13:53:02.254786,-0.10505716502666469
2023-01-28 13:53:02.259786,-0.09220437217222678
2023-01-28 13:53:02.264786,-0.06603936851024621
2023-01-28 13:53:02.269786,-0.02688606413697351
2023-01-28 13:53:02.274786,0.01976132392883298
2023-01-28 13:53:02.279786,0.06669645620980222
2023-01-28 13:53:02.284786,0.10508120059967037
2023-01-28 13:53:02.289786,0.12355222588607233
2023-01-28 13:53:02.294786,0.11416852474212635
2023-01-28 13:53:02.299786,0.08122320243820128
2023-01-28 13:53:02.304786,0.03942648693919176
2023-01-28 13:53:02.309786,0.0010109445082289643
2023-01-28 13:53:02.314786,-0.031613312661647734
2023-01-28 13:53:02.319786,-0.05909143801383889
2023-01-28 13:53:02.324786,-0.07726629823446271
2023-01-28 13:53:02.329786,-0.08125297851142771
2023-01-28 13:53:02.334786,-0.07368426024913781
2023-01-28 13:53:02.339786,-0.06285999615116163
2023-01-28 13:53:02.344786,-0.053754650056362124
2023-01-28 13:53:02.349786,-0.04558521467747431
2023-01-28 13:53:02.354786,-0.03743112087249753
2023-01-28 13:53:02.359786,-0.03114491077837089
2023-01-28 13:53:02.364786,-0.028007229790091494
2023-01-28 13:53:02.369786,-0.02666340423567438
2023-01-28 13:53:02.374786,-0.025771459564566657
2023-01-28 13:53:02.379786,-0.02566987059823801
2023-01-28 13:53:02.384786,-0.02618014812469483
2023-01-28 13:53:02.389786,-0.02537287276980632
2023-01-28 13:53:02.394786,-0.021900933235883758
2023-01-28 13:53:02.399786,-0.016578723301978248
2023-01-28 13:53:02.404786,-0.010553797706961568
2023-01-28 13:53:02.409786,-0.003725992989880244
2023-01-28 13:53:02.414786,0.00401477050036182
2023-01-28 13:53:02.419786,0.011727442378541406
2023-01-28 13:53:02.424786,0.018751621246337825
2023-01-28 13:53:02.429786,0.02572667838700578
2023-01-28 13:53:02.434786,0.03329614922404276
2023-01-28 13:53:02.439786,0.0410384175592532
2023-01-28 13:53:02.444786,0.04858593270182602
2023-01-28 13:53:02.449786,0.05663955917393709
2023-01-28 13:53:02.454786,0.06596724689006796
2023-01-28 13:53:02.459786,0.0763940429827137
2023-01-28 13:53:02.464786,0.08755564689636222
2023-01-28 13:53:02.469786,0.09964378559834892
2023-01-28 13:53:02.474786,0.11260589212179176
2023-01-28 13:53:02.479786,0.12554377358665625
2023-01-28 13:53:02.484786,0.13775229454040513
2023-01-28 13:53:02.489786,0.14960719293219998
2023-01-28 13:53:02.494786,0.16169667243957503
2023-01-28 13:53:02.499786,0.1737322822195787
2023-01-28 13:53:02.504786,0.1848477125167845
2023-01-28 13:53:02.509786,0.19412726217585174
2023-01-28 13:53:02.514786,0.20016154646873466
2023-01-28 13:53:02.519786,0.20090765497762572
2023-01-28 13:53:02.524786,0.1949207037687301
2023-01-28 13:53:02.529786,0.18240473791781137
2023-01-28 13:53:02.534786,0.16462962329387654
2023-01-28 13:53:02.539786,0.14293128505224778
2023-01-28 13:53:02.544786,0.118760272860527
2023-01-28 13:53:02.549786,0.09393936974309715
2023-01-28 13:53:02.554786,0.07005413621664042
2023-01-28 13:53:02.559786,0.047927136249776785
2023-01-28 13:53:02.564786,0.02815147303044795
2023-01-28 13:53:02.569786,0.011599492660276847
2023-01-28 13:53:02.574786,-0.001177986501715935
2023-01-28 13:53:02.579786,-0.010615377882875804
2023-01-28 13:53:02.584786,-0.017645757645368444
2023-01-28 13:53:02.589786,-0.0228816906283391
2023-01-28 13:53:02.594786,-0.026612877845764056
2023-01-28 13:53:02.599786,-0.029043673910073578
2023-01-28 13:53:02.604786,-0.029978554695844574
2023-01-28 13:53:02.609786,-0.02872431914726985
2023-01-28 13:53:02.614786,-0.024930041283369005
2023-01-28 13:53:02.619786,-0.01932734626255916
2023-01-28 13:53:02.624786,-0.013294419273733989
2023-01-28 13:53:02.629786,-0.008009511634652957
2023-01-28 13:53:02.634786,-0.004279216285794916
