2023-01-29 15:38:10.076929,-0.07894913852214812
2023-01-29 15:38:10.081929,-0.14090909895438472
2023-01-29 15:38:10.086929,-0.0737082958221435
2023-01-29 15:38:10.091929,-0.035716987814457014
2023-01-29 15:38:10.096929,-0.0698137283325195
2023-01-29 15:38:10.101929,-0.09387832884707002
2023-01-29 15:38:10.106929,-0.07053494453430174
2023-01-29 15:38:10.111929,-0.05426337583426332
2023-01-29 15:38:10.116929,-0.07587194442749022
2023-01-29 15:38:10.121929,-0.09459065439473385
2023-01-29 15:38:10.126929,-0.08387744426727292
2023-01-29 15:38:10.131929,-0.07506269726531836
2023-01-29 15:38:10.136929,-0.089623138308525
2023-01-29 15:38:10.141929,-0.10021767128619094
2023-01-29 15:38:10.146929,-0.08671423047780995
2023-01-29 15:38:10.151929,-0.07150675867207688
2023-01-29 15:38:10.156929,-0.07228990644216529
2023-01-29 15:38:10.161929,-0.0703381268655093
2023-01-29 15:38:10.166929,-0.051470797508955016
2023-01-29 15:38:10.171929,-0.03474154980668341
2023-01-29 15:38:10.176929,-0.03591656684875483
2023-01-29 15:38:10.181929,-0.0405979561678224
2023-01-29 15:38:10.186929,-0.036205053329467635
2023-01-29 15:38:10.191929,-0.036204519994133565
2023-01-29 15:38:10.196929,-0.05103806778788556
2023-01-29 15:38:10.201929,-0.066000156104329
2023-01-29 15:38:10.206929,-0.06851553916931157
2023-01-29 15:38:10.211929,-0.0696162157627123
2023-01-29 15:38:10.216929,-0.07945398986339566
2023-01-29 15:38:10.221929,-0.08731762791828931
2023-01-29 15:38:10.226929,-0.08399765193462375
2023-01-29 15:38:10.231929,-0.08013131196859584
2023-01-29 15:38:10.236929,-0.08510351181030265
2023-01-29 15:38:10.241929,-0.08971788788087341
2023-01-29 15:38:10.246929,-0.08606513589620586
2023-01-29 15:38:10.251929,-0.08395480872821853
2023-01-29 15:38:10.256929,-0.09188294410705558
2023-01-29 15:38:10.261929,-0.10052024042042118
2023-01-29 15:38:10.266929,-0.09940763562917691
2023-01-29 15:38:10.271929,-0.09170275250853763
2023-01-29 15:38:10.276929,-0.0785644873976707
2023-01-29 15:38:10.281929,-0.04709628278295376
2023-01-29 15:38:10.286929,0.010962486267089795
2023-01-29 15:38:10.291929,0.08300427370784182
2023-01-29 15:38:10.296929,0.14989277720451338
2023-01-29 15:38:10.301929,0.20159202098493725
2023-01-29 15:38:10.306929,0.2283130139112472
2023-01-29 15:38:10.311929,0.21411812534106137
2023-01-29 15:38:10.316929,0.15462875366210935
2023-01-29 15:38:10.321929,0.06909985977889373
2023-01-29 15:38:10.326929,-0.016900500282645167
2023-01-29 15:38:10.331929,-0.08993846644705945
2023-01-29 15:38:10.336929,-0.14258444309234605
2023-01-29 15:38:10.341929,-0.1653597365779723
2023-01-29 15:38:10.346929,-0.15770594775676708
2023-01-29 15:38:10.351929,-0.1348423099458804
2023-01-29 15:38:10.356929,-0.11176447570323936
2023-01-29 15:38:10.361929,-0.08983757225742628
2023-01-29 15:38:10.366929,-0.06714522838592524
2023-01-29 15:38:10.371929,-0.04952131859920615
2023-01-29 15:38:10.376929,-0.04139780998229981
2023-01-29 15:38:10.381929,-0.037198742357628815
2023-01-29 15:38:10.386929,-0.031877756118774414
2023-01-29 15:38:10.391929,-0.029807830839166577
2023-01-29 15:38:10.396929,-0.034402012825012186
2023-01-29 15:38:10.401929,-0.03951791037822443
2023-01-29 15:38:10.406929,-0.04005154222249988
2023-01-29 15:38:10.411929,-0.040651291717733615
2023-01-29 15:38:10.416929,-0.045051973313093144
2023-01-29 15:38:10.421929,-0.04702758581013095
2023-01-29 15:38:10.426929,-0.041061244904994874
2023-01-29 15:38:10.431929,-0.032285237289024216
2023-01-29 15:38:10.436929,-0.026684999465942306
2023-01-29 15:38:10.441929,-0.020575076473866905
2023-01-29 15:38:10.446929,-0.00887095928192132
2023-01-29 15:38:10.451929,0.004713138027432876
2023-01-29 15:38:10.456929,0.014568567276000853
2023-01-29 15:38:10.461929,0.022414247143824166
2023-01-29 15:38:10.466929,0.031348865479230784
2023-01-29 15:38:10.471929,0.03831336162345697
2023-01-29 15:38:10.476929,0.04053235054016114
2023-01-29 15:38:10.481929,0.042337972049972375
2023-01-29 15:38:10.486929,0.04798492044210431
2023-01-29 15:38:10.491929,0.05440168854736709
2023-01-29 15:38:10.496929,0.05788962170481679
2023-01-29 15:38:10.501929,0.060960081799476644
2023-01-29 15:38:10.506929,0.06577491760253901
2023-01-29 15:38:10.511929,0.06789904688758652
2023-01-29 15:38:10.516929,0.06344299018383016
2023-01-29 15:38:10.521929,0.05578130475324413
2023-01-29 15:38:10.526929,0.048778258264064664
2023-01-29 15:38:10.531929,0.040022842047965905
2023-01-29 15:38:10.536929,0.026997527107596207
2023-01-29 15:38:10.541929,0.01317548446639762
2023-01-29 15:38:10.546929,0.0016587972640990452
2023-01-29 15:38:10.551929,-0.010718573609613997
2023-01-29 15:38:10.556929,-0.026757121086120578
2023-01-29 15:38:10.561929,-0.042691827037393125
2023-01-29 15:38:10.566929,-0.05454798787832263
2023-01-29 15:38:10.571929,-0.06442683635899184
2023-01-29 15:38:10.576929,-0.07469396293163286
2023-01-29 15:38:10.581929,-0.08221741617194811
2023-01-29 15:38:10.586929,-0.08426209539175034
2023-01-29 15:38:10.591929,-0.08407153181279255
2023-01-29 15:38:10.596929,-0.0848631113767623
2023-01-29 15:38:10.601929,-0.08418448778424863
2023-01-29 15:38:10.606929,-0.07981459796428678
2023-01-29 15:38:10.611929,-0.0754001745524742
2023-01-29 15:38:10.616929,-0.07464587688446046
2023-01-29 15:38:10.621929,-0.07552597410285226
2023-01-29 15:38:10.626929,-0.07555942237377158
2023-01-29 15:38:10.631929,-0.07708506506415845
2023-01-29 15:38:10.636929,-0.08190612494945515
2023-01-29 15:38:10.641929,-0.08629244891475983
2023-01-29 15:38:10.646929,-0.08673827350139607
2023-01-29 15:38:10.651929,-0.08547179834236265
2023-01-29 15:38:10.656929,-0.08524775505065908
2023-01-29 15:38:10.661929,-0.08407916363370037
2023-01-29 15:38:10.666929,-0.08017520606517785
2023-01-29 15:38:10.671929,-0.07669010109731624
2023-01-29 15:38:10.676929,-0.07635276019573203
2023-01-29 15:38:10.681929,-0.0764174850526318
2023-01-29 15:38:10.686929,-0.07387658208608627
2023-01-29 15:38:10.691929,-0.07069225669928723
2023-01-29 15:38:10.696929,-0.06914059817790985
2023-01-29 15:38:10.701929,-0.06713538305992245
2023-01-29 15:38:10.706929,-0.06305833905935285
2023-01-29 15:38:10.711929,-0.06022695310649649
2023-01-29 15:38:10.716929,-0.06163994595408435
2023-01-29 15:38:10.721929,-0.06494906267919553
2023-01-29 15:38:10.726929,-0.06719331443309781
2023-01-29 15:38:10.731929,-0.0697035216337307
2023-01-29 15:38:10.736929,-0.07378041744232167
2023-01-29 15:38:10.741929,-0.07642688932271732
2023-01-29 15:38:10.746929,-0.07515072822570802
2023-01-29 15:38:10.751929,-0.0724754171654125
2023-01-29 15:38:10.756929,-0.07118403911590579
2023-01-29 15:38:10.761929,-0.06960619000678729
2023-01-29 15:38:10.766929,-0.06596724689006804
2023-01-29 15:38:10.771929,-0.0627630703111389
2023-01-29 15:38:10.776929,-0.06233712285757061
2023-01-29 15:38:10.781929,-0.06258396463591195
2023-01-29 15:38:10.786929,-0.06142358109354968
2023-01-29 15:38:10.791929,-0.061126184621769275
2023-01-29 15:38:10.796929,-0.06387571990489936
2023-01-29 15:38:10.801929,-0.0674017813523556
2023-01-29 15:38:10.806929,-0.06926079839467998
2023-01-29 15:38:10.811929,-0.07108875539847577
2023-01-29 15:38:10.816929,-0.0743573904037475
2023-01-29 15:38:10.821929,-0.07623428571060269
2023-01-29 15:38:10.826929,-0.07394870370626441
2023-01-29 15:38:10.831929,-0.06915216233147051
2023-01-29 15:38:10.836929,-0.0639237985014914
2023-01-29 15:38:10.841929,-0.05679268827882367
2023-01-29 15:38:10.846929,-0.04695117473602298
2023-01-29 15:38:10.851929,-0.03820949639691105
2023-01-29 15:38:10.856929,-0.034450095146894434
2023-01-29 15:38:10.861929,-0.03496803524249073
2023-01-29 15:38:10.866929,-0.03808021545410158
2023-01-29 15:38:10.871929,-0.04499915242134095
2023-01-29 15:38:10.876929,-0.05594233796000478
2023-01-29 15:38:10.881929,-0.06659744871060225
2023-01-29 15:38:10.886929,-0.0728909224271774
2023-01-29 15:38:10.891929,-0.07570591936989127
2023-01-29 15:38:10.896929,-0.07719417661428452
2023-01-29 15:38:10.901929,-0.07659706120764849
2023-01-29 15:38:10.906929,-0.07373233884572973
2023-01-29 15:38:10.911929,-0.07234976863685684
2023-01-29 15:38:10.916929,-0.07551133632659908
2023-01-29 15:38:10.921929,-0.0812078304301752
2023-01-29 15:38:10.926929,-0.0864497870206833
2023-01-29 15:38:10.931929,-0.09171012772721075
2023-01-29 15:38:10.936929,-0.09714782238006589
2023-01-29 15:38:10.941929,-0.09833495361991322
2023-01-29 15:38:10.946929,-0.0900318250060081
2023-01-29 15:38:10.951929,-0.0706733023907841
2023-01-29 15:38:10.956929,-0.03959476947784412
2023-01-29 15:38:10.961929,0.005191195781520927
2023-01-29 15:38:10.966929,0.06091872975230204
2023-01-29 15:38:10.971929,0.11504374254922176
2023-01-29 15:38:10.976929,0.15133520960807803
2023-01-29 15:38:10.981929,0.15899650621985437
2023-01-29 15:38:10.986929,0.13373753428459156
2023-01-29 15:38:10.991929,0.07628593189196697
2023-01-29 15:38:10.996929,-0.0034618377685546402
2023-01-29 15:38:11.001929,-0.0847811625421443
2023-01-29 15:38:11.006929,-0.14664730429649342
2023-01-29 15:38:11.011929,-0.18046414743841924
2023-01-29 15:38:11.016929,-0.18953561782836914
2023-01-29 15:38:11.021929,-0.17961151209898574
2023-01-29 15:38:11.026929,-0.15563845634460444
2023-01-29 15:38:11.031929,-0.12517142332964057
2023-01-29 15:38:11.036929,-0.0974843949079513
2023-01-29 15:38:11.041929,-0.07775110917164191
2023-01-29 15:38:11.046929,-0.06541430950164787
2023-01-29 15:38:11.051929,-0.057950586649233846
2023-01-29 15:38:11.056929,-0.05312959477305414
2023-01-29 15:38:11.061929,-0.048603747150444486
2023-01-29 15:38:11.066929,-0.04298448562622074
2023-01-29 15:38:11.071929,-0.03733240824781545
2023-01-29 15:38:11.076929,-0.033320188522338826
2023-01-29 15:38:11.081929,-0.03071221395675774
2023-01-29 15:38:11.086929,-0.02853612229228015
2023-01-29 15:38:11.091929,-0.02712517608960036
2023-01-29 15:38:11.096929,-0.02673308178782461
2023-01-29 15:38:11.101929,-0.025793115981561705
2023-01-29 15:38:11.106929,-0.022886594757437696
2023-01-29 15:38:11.111929,-0.018827930745025204
2023-01-29 15:38:11.116929,-0.014664730057120323
2023-01-29 15:38:11.121929,-0.009443371992243405
2023-01-29 15:38:11.126929,-0.0021155676804481705
2023-01-29 15:38:11.131929,0.006283169313712525
2023-01-29 15:38:11.136929,0.01454452704638236
2023-01-29 15:38:11.141929,0.023369859824180706
2023-01-29 15:38:11.146929,0.03334423154592516
2023-01-29 15:38:11.151929,0.04287265105239724
2023-01-29 15:38:11.156929,0.05038897320628161
2023-01-29 15:38:11.161929,0.056667964408918615
2023-01-29 15:38:11.166929,0.06281793117523178
2023-01-29 15:38:11.171929,0.06802370195991392
2023-01-29 15:38:11.176929,0.07137636840343456
2023-01-29 15:38:11.181929,0.07374090947865018
2023-01-29 15:38:11.186929,0.07551133632659902
2023-01-29 15:38:11.191929,0.07455406565791263
2023-01-29 15:38:11.196929,0.06865978240966794
2023-01-29 15:38:11.201929,0.05820795639279413
2023-01-29 15:38:11.206929,0.04452308267354946
2023-01-29 15:38:11.211929,0.027846034667310143
2023-01-29 15:38:11.216929,0.009087324142455921
2023-01-29 15:38:11.221929,-0.008663502175356134
2023-01-29 15:38:11.226929,-0.022838514298200607
2023-01-29 15:38:11.231929,-0.03390654892317869
2023-01-29 15:38:11.236929,-0.04334509372711176
2023-01-29 15:38:11.241929,-0.05118005452911736
2023-01-29 15:38:11.246929,-0.0574328526854516
2023-01-29 15:38:11.251929,-0.06367123801940021
2023-01-29 15:38:11.256929,-0.07077535241842264
2023-01-29 15:38:11.261929,-0.07704606001150709
2023-01-29 15:38:11.266929,-0.08063197135925283
2023-01-29 15:38:11.271929,-0.08203289006961689
2023-01-29 15:38:11.276929,-0.08241097629070274
2023-01-29 15:38:11.281929,-0.08156436258762426
2023-01-29 15:38:11.286929,-0.0795741900801659
2023-01-29 15:38:11.291929,-0.07832094244961521
2023-01-29 15:38:11.296929,-0.07914146035909644
2023-01-29 15:38:11.301929,-0.08074646716767993
2023-01-29 15:38:11.306929,-0.08137723058462142
2023-01-29 15:38:11.311929,-0.0812031373951669
2023-01-29 15:38:11.316929,-0.0808483362197875
2023-01-29 15:38:11.321929,-0.07965697782977167
2023-01-29 15:38:11.326929,-0.0774345844984055
2023-01-29 15:38:11.331929,-0.07596360928040337
2023-01-29 15:38:11.336929,-0.07671336829662341
2023-01-29 15:38:11.341929,-0.07868003607525614
2023-01-29 15:38:11.346929,-0.08019924163818352
2023-01-29 15:38:11.351929,-0.08105767605735749
2023-01-29 15:38:11.356929,-0.08113682270050043
2023-01-29 15:38:11.361929,-0.07903002435355734
2023-01-29 15:38:11.366929,-0.07404486835002903
2023-01-29 15:38:11.371929,-0.06792798242892709
2023-01-29 15:38:11.376929,-0.06281793117523189
2023-01-29 15:38:11.381929,-0.05906279258042415
2023-01-29 15:38:11.386929,-0.05651931092143049
2023-01-29 15:38:11.391929,-0.0560371777931637
2023-01-29 15:38:11.396929,-0.05784153938293455
2023-01-29 15:38:11.401929,-0.06016652757732325
2023-01-29 15:38:11.406929,-0.06127933785319326
2023-01-29 15:38:11.411929,-0.06139810201587226
2023-01-29 15:38:11.416929,-0.061207216233014894
2023-01-29 15:38:11.421929,-0.06023019309357002
2023-01-29 15:38:11.426929,-0.05822619050741188
2023-01-29 15:38:11.431929,-0.05649989208125146
2023-01-29 15:38:11.436929,-0.05618274211883541
2023-01-29 15:38:11.441929,-0.05662260839598193
2023-01-29 15:38:11.446929,-0.056783758103847594
2023-01-29 15:38:11.451929,-0.05666646142247224
2023-01-29 15:38:11.456929,-0.05603849887847904
2023-01-29 15:38:11.461929,-0.053432992377044186
2023-01-29 15:38:11.466929,-0.04796087741851801
2023-01-29 15:38:11.471929,-0.04092514984104234
2023-01-29 15:38:11.476929,-0.0345462560653686
2023-01-29 15:38:11.481929,-0.030372629465958804
2023-01-29 15:38:11.486929,-0.029738148674368838
2023-01-29 15:38:11.491929,-0.034016126212505916
2023-01-29 15:38:11.496929,-0.04303256794810293
2023-01-29 15:38:11.501929,-0.05431962388847368
2023-01-29 15:38:11.506929,-0.06490945816040032
2023-01-29 15:38:11.511929,-0.07303856667729888
2023-01-29 15:38:11.516929,-0.07789134979248044
2023-01-29 15:38:11.521929,-0.07920908109895797
2023-01-29 15:38:11.526929,-0.07779519259929656
2023-01-29 15:38:11.531929,-0.07526199276659999
2023-01-29 15:38:11.536929,-0.07286687940359113
2023-01-29 15:38:11.541929,-0.07134723770730998
2023-01-29 15:38:11.546929,-0.07147252559661864
2023-01-29 15:38:11.551929,-0.07357399195574622
2023-01-29 15:38:11.556929,-0.07709801197051999
2023-01-29 15:38:11.561929,-0.08158736206071497
2023-01-29 15:38:11.566929,-0.08656998723745342
2023-01-29 15:38:11.571929,-0.08898984472791249
2023-01-29 15:38:11.576929,-0.08320431411266314
2023-01-29 15:38:11.581929,-0.06636494211869376
2023-01-29 15:38:11.586929,-0.041542053222656174
2023-01-29 15:38:11.591929,-0.012283184371305073
2023-01-29 15:38:11.596929,0.02262214943766591
2023-01-29 15:38:11.601929,0.06317792106865149
2023-01-29 15:38:11.606929,0.09880661964416496
2023-01-29 15:38:11.611929,0.11206974640313459
2023-01-29 15:38:11.616929,0.09301285445690159
2023-01-29 15:38:11.621929,0.04546944639109084
2023-01-29 15:38:11.626929,-0.019737284630536995
2023-01-29 15:38:11.631929,-0.09077313699851765
2023-01-29 15:38:11.636929,-0.1534748077392579
2023-01-29 15:38:11.641929,-0.1929678114354876
2023-01-29 15:38:11.646929,-0.2024934738874435
2023-01-29 15:38:11.651929,-0.18765783858275162
2023-01-29 15:38:11.656929,-0.1594849526882171
2023-01-29 15:38:11.661929,-0.12673656584051426
2023-01-29 15:38:11.666929,-0.09604196250438696
2023-01-29 15:38:11.671929,-0.07324682549877452
2023-01-29 15:38:11.676929,-0.06000518798828115
2023-01-29 15:38:11.681929,-0.052344098189497146
2023-01-29 15:38:11.686929,-0.0461337976157665
2023-01-29 15:38:11.691929,-0.04148215368369211
2023-01-29 15:38:11.696929,-0.03969093412160875
2023-01-29 15:38:11.701929,-0.03962983251816662
2023-01-29 15:38:11.706929,-0.03997942060232161
2023-01-29 15:38:11.711929,-0.041638070291776186
2023-01-29 15:38:11.716929,-0.04483560845255854
2023-01-29 15:38:11.721929,-0.0468191837104436
2023-01-29 15:38:11.726929,-0.04529237747192373
2023-01-29 15:38:11.731929,-0.041443590882266526
2023-01-29 15:38:11.736929,-0.03699839115142821
2023-01-29 15:38:11.741929,-0.031101407351867522
2023-01-29 15:38:11.746929,-0.02269427105784401
2023-01-29 15:38:11.751929,-0.013134053950578628
2023-01-29 15:38:11.756929,-0.0037743649445474243
2023-01-29 15:38:11.761929,0.006365507128438404
2023-01-29 15:38:11.766929,0.017910202965140135
2023-01-29 15:38:11.771929,0.028735137951245802
2023-01-29 15:38:11.776929,0.036854147911071604
2023-01-29 15:38:11.781929,0.04323915531391534
2023-01-29 15:38:11.786929,0.04937927052378645
2023-01-29 15:38:11.791929,0.05460269688826967
2023-01-29 15:38:11.796929,0.05822619050741175
2023-01-29 15:38:11.801929,0.06170695721715043
2023-01-29 15:38:11.806929,0.0660153254866599
2023-01-29 15:38:11.811929,0.0692032028843157
2023-01-29 15:38:11.816929,0.06902039051055887
2023-01-29 15:38:11.821929,0.0656597360731494
2023-01-29 15:38:11.826929,0.05971670150756824
2023-01-29 15:38:11.831929,0.05005313375757249
2023-01-29 15:38:11.836929,0.03622909635305395
2023-01-29 15:38:11.841929,0.020674992693524113
2023-01-29 15:38:11.846929,0.005913972854614106
2023-01-29 15:38:11.851929,-0.008240264970921582
2023-01-29 15:38:11.856929,-0.022550027817487772
2023-01-29 15:38:11.861929,-0.035877361521218974
2023-01-29 15:38:11.866929,-0.047191582620143835
2023-01-29 15:38:11.871929,-0.05763688196591943
2023-01-29 15:38:11.876929,-0.06813089549541473
2023-01-29 15:38:11.881929,-0.07712820585899276
2023-01-29 15:38:11.886929,-0.083132192492485
2023-01-29 15:38:11.891929,-0.08722862042125545
2023-01-29 15:38:11.896929,-0.09084920585155472
2023-01-29 15:38:11.901929,-0.09329120993147925
2023-01-29 15:38:11.906929,-0.09375810623168924
2023-01-29 15:38:11.911929,-0.09355960409605044
2023-01-29 15:38:11.916929,-0.09390234947204575
2023-01-29 15:38:11.921929,-0.09371537771032706
2023-01-29 15:38:11.926929,-0.09202718734741216
2023-01-29 15:38:11.931929,-0.09031100689865251
2023-01-29 15:38:11.936929,-0.09012798964977255
2023-01-29 15:38:11.941929,-0.09059594758052207
2023-01-29 15:38:11.946929,-0.09046455472707744
2023-01-29 15:38:11.951929,-0.09046840727040126
2023-01-29 15:38:11.956929,-0.09130597114562988
2023-01-29 15:38:11.961929,-0.09155372720807656
2023-01-29 15:38:11.966929,-0.09003182500600819
2023-01-29 15:38:11.971929,-0.08812967561961606
2023-01-29 15:38:11.976929,-0.0874354466795922
2023-01-29 15:38:11.981929,-0.08716004364041169
2023-01-29 15:38:11.986929,-0.08616130053997031
2023-01-29 15:38:11.991929,-0.08526924726757594
2023-01-29 15:38:11.996929,-0.08522371947765348
2023-01-29 15:38:12.001929,-0.08453360940117276
2023-01-29 15:38:12.006929,-0.08185803890228271
2023-01-29 15:38:12.011929,-0.07843919672543878
2023-01-29 15:38:12.016929,-0.07584790885448442
2023-01-29 15:38:12.021929,-0.07349884033308486
2023-01-29 15:38:12.026929,-0.07075130939483645
2023-01-29 15:38:12.031929,-0.06918516842957562
2023-01-29 15:38:12.036929,-0.0702464580535888
2023-01-29 15:38:12.041929,-0.0727380605728841
2023-01-29 15:38:12.046929,-0.07505457103252408
2023-01-29 15:38:12.051929,-0.07770107811340639
2023-01-29 15:38:12.056929,-0.08116086572408668
2023-01-29 15:38:12.061929,-0.08358529632837595
2023-01-29 15:38:12.066929,-0.08322834968566885
2023-01-29 15:38:12.071929,-0.08099962369592413
2023-01-29 15:38:12.076929,-0.07808367908000939
2023-01-29 15:38:12.081929,-0.07338092099903797
2023-01-29 15:38:12.086929,-0.06603936851024622
2023-01-29 15:38:12.091929,-0.058250955479044075
2023-01-29 15:38:12.096929,-0.05274494737386698
2023-01-29 15:38:12.101929,-0.04968608485595442
2023-01-29 15:38:12.106929,-0.04865805432200432
2023-01-29 15:38:12.111929,-0.051103301933223745
2023-01-29 15:38:12.116929,-0.057673256844282095
2023-01-29 15:38:12.121929,-0.06557931868521676
2023-01-29 15:38:12.126929,-0.07188121974468231
2023-01-29 15:38:12.131929,-0.07722966396538354
2023-01-29 15:38:12.136929,-0.08325239270925525
2023-01-29 15:38:12.141929,-0.08881605863366189
2023-01-29 15:38:12.146929,-0.0924599170684814
2023-01-29 15:38:12.151929,-0.09593454176648167
2023-01-29 15:38:12.156929,-0.10121067613363258
2023-01-29 15:38:12.161929,-0.10631517244867737
2023-01-29 15:38:12.166929,-0.1085911244153976
2023-01-29 15:38:12.171929,-0.10986594276980707
2023-01-29 15:38:12.176929,-0.11320690810680378
2023-01-29 15:38:12.181929,-0.11609876962600693
2023-01-29 15:38:12.186929,-0.11243760585784908
2023-01-29 15:38:12.191929,-0.1005432004238716
2023-01-29 15:38:12.196929,-0.08332451432943344
2023-01-29 15:38:12.201929,-0.060371562274847954
2023-01-29 15:38:12.206929,-0.026396512985229464
2023-01-29 15:38:12.211929,0.01966183162885891
2023-01-29 15:38:12.216929,0.06798665225505825
2023-01-29 15:38:12.221929,0.10285611081583745
2023-01-29 15:38:12.226929,0.11186063289642331
2023-01-29 15:38:12.231929,0.08976654226140177
2023-01-29 15:38:12.236929,0.03841678425669671
2023-01-29 15:38:12.241929,-0.03275198431626319
2023-01-29 15:38:12.246929,-0.10760545730590827
2023-01-29 15:38:12.251929,-0.1687987845171039
2023-01-29 15:38:12.256929,-0.2047052085399626
2023-01-29 15:38:12.261929,-0.21265237008043558
2023-01-29 15:38:12.266929,-0.1979017257690429
2023-01-29 15:38:12.271929,-0.17046999744861682
2023-01-29 15:38:12.276929,-0.14087757468223572
2023-01-29 15:38:12.281929,-0.11618489648437853
2023-01-29 15:38:12.286929,-0.09863834083080283
2023-01-29 15:38:12.291929,-0.08717520491350997
2023-01-29 15:38:12.296929,-0.07950206845998758
2023-01-29 15:38:12.301929,-0.07342978661791652
2023-01-29 15:38:12.306929,-0.06789048761129374
2023-01-29 15:38:12.311929,-0.06327475928029704
2023-01-29 15:38:12.316929,-0.06031771749258042
2023-01-29 15:38:12.321929,-0.05880660453896333
2023-01-29 15:38:12.326929,-0.057889621704816804
2023-01-29 15:38:12.331929,-0.05708346678228531
2023-01-29 15:38:12.336929,-0.056134663522243396
2023-01-29 15:38:12.341929,-0.05444817414213466
2023-01-29 15:38:12.346929,-0.051615040749311406
2023-01-29 15:38:12.351929,-0.04801878760633283
2023-01-29 15:38:12.356929,-0.044018231332302094
2023-01-29 15:38:12.361929,-0.03907531332176053
2023-01-29 15:38:12.366929,-0.032574933022260645
2023-01-29 15:38:12.371929,-0.024890307138062912
2023-01-29 15:38:12.376929,-0.01675625704228861
2023-01-29 15:38:12.381929,-0.008293736564606158
2023-01-29 15:38:12.386929,0.00043272972106937855
2023-01-29 15:38:12.391929,0.008687089516732555
2023-01-29 15:38:12.396929,0.015914838761091222
2023-01-29 15:38:12.401929,0.02258446890981857
2023-01-29 15:38:12.406929,0.029185216873884277
2023-01-29 15:38:12.411929,0.03513366678420308
2023-01-29 15:38:12.416929,0.03961881250143047
2023-01-29 15:38:12.421929,0.042682886633116326
2023-01-29 15:38:12.426929,0.044450961053371374
2023-01-29 15:38:12.431929,0.044146235201678645
2023-01-29 15:38:12.436929,0.04091700166463845
2023-01-29 15:38:12.441929,0.03480955926715509
2023-01-29 15:38:12.446929,0.02593974396586409
2023-01-29 15:38:12.451929,0.013677787543033192
2023-01-29 15:38:12.456929,-0.002163648605346625
2023-01-29 15:38:12.461929,-0.020112415012404183
2023-01-29 15:38:12.466929,-0.03803213685750963
2023-01-29 15:38:12.471929,-0.05453107903534831
2023-01-29 15:38:12.476929,-0.06856362521648403
2023-01-29 15:38:12.481929,-0.07886874233924394
2023-01-29 15:38:12.486929,-0.08515159785747518
2023-01-29 15:38:12.491929,-0.0890096015874007
2023-01-29 15:38:12.496929,-0.09250800311565388
2023-01-29 15:38:12.501929,-0.09649366748361433
2023-01-29 15:38:12.506929,-0.1010423898696899
2023-01-29 15:38:12.511929,-0.10632283230323625
2023-01-29 15:38:12.516929,-0.1118125542998313
2023-01-29 15:38:12.521929,-0.1157528818337419
2023-01-29 15:38:12.526929,-0.11678894609212861
2023-01-29 15:38:12.531929,-0.11550246690818573
2023-01-29 15:38:12.536929,-0.1133992299437521
2023-01-29 15:38:12.541929,-0.11133477516660642
2023-01-29 15:38:12.546929,-0.10984122753143305
2023-01-29 15:38:12.551929,-0.10971095110229218
2023-01-29 15:38:12.556929,-0.11087497323751434
2023-01-29 15:38:12.561929,-0.11163758286260093
2023-01-29 15:38:12.566929,-0.1103220432996749
2023-01-29 15:38:12.571929,-0.10696932713255367
2023-01-29 15:38:12.576929,-0.1025329083204269
2023-01-29 15:38:12.581929,-0.09751804301767111
2023-01-29 15:38:12.586929,-0.09250800311565388
2023-01-29 15:38:12.591929,-0.08882866540040045
2023-01-29 15:38:12.596929,-0.0872912034392356
2023-01-29 15:38:12.601929,-0.0871116765439009
2023-01-29 15:38:12.606929,-0.08719503879547111
2023-01-29 15:38:12.611929,-0.0875529185129393
2023-01-29 15:38:12.616929,-0.0884211063385009
2023-01-29 15:38:12.621929,-0.08912740183120627
2023-01-29 15:38:12.626929,-0.08909424394369117
2023-01-29 15:38:12.631929,-0.08895840661105277
2023-01-29 15:38:12.636929,-0.08947889506816858
2023-01-29 15:38:12.641929,-0.09029462215103672
2023-01-29 15:38:12.646929,-0.09087324142456055
2023-01-29 15:38:12.651929,-0.09159077833999782
2023-01-29 15:38:12.656929,-0.0926522463560104
2023-01-29 15:38:12.661929,-0.09302267897675971
2023-01-29 15:38:12.666929,-0.0917146652936935
2023-01-29 15:38:12.671929,-0.0891594611268666
2023-01-29 15:38:12.676929,-0.08611321449279781
2023-01-29 15:38:12.681929,-0.08225465125762273
2023-01-29 15:38:12.686929,-0.07709801197051999
2023-01-29 15:38:12.691929,-0.07126929889988841
2023-01-29 15:38:12.696929,-0.06570279598236076
2023-01-29 15:38:12.701929,-0.06071230620812845
2023-01-29 15:38:12.706929,-0.057120323181152316
2023-01-29 15:38:12.711929,-0.05708358484981757
2023-01-29 15:38:12.716929,-0.06221691891551003
2023-01-29 15:38:12.721929,-0.0716385015259364
2023-01-29 15:38:12.726929,-0.08296390622854237
2023-01-29 15:38:12.731929,-0.09418809232809616
2023-01-29 15:38:12.736929,-0.10356664657592768
2023-01-29 15:38:12.741929,-0.10921428293474975
2023-01-29 15:38:12.746929,-0.11063456535339347
2023-01-29 15:38:12.751929,-0.10975749160436415
2023-01-29 15:38:12.756929,-0.10897576808929435
2023-01-29 15:38:12.761929,-0.10897887403487425
2023-01-29 15:38:12.766929,-0.10962486267089838
2023-01-29 15:38:12.771929,-0.11149596870981338
2023-01-29 15:38:12.776929,-0.11484166234731669
2023-01-29 15:38:12.781929,-0.11805284755719253
2023-01-29 15:38:12.786929,-0.11883239448070518
2023-01-29 15:38:12.791929,-0.11572688472763976
2023-01-29 15:38:12.796929,-0.1067399978637695
2023-01-29 15:38:12.801929,-0.08789032165056256
2023-01-29 15:38:12.806929,-0.05603849887847908
2023-01-29 15:38:12.811929,-0.013319331917965669
2023-01-29 15:38:12.816929,0.032767258584499276
2023-01-29 15:38:12.821929,0.07316375369711253
2023-01-29 15:38:12.826929,0.09957592189311973
2023-01-29 15:38:12.831929,0.10432843678300936
2023-01-29 15:38:12.836929,0.08176188170909875
2023-01-29 15:38:12.841929,0.03212863165824693
2023-01-29 15:38:12.846929,-0.0360608100891113
2023-01-29 15:38:12.851929,-0.10805172007867442
2023-01-29 15:38:12.856929,-0.1678029745817183
2023-01-29 15:38:12.861929,-0.2033955705751295
2023-01-29 15:38:12.866929,-0.21105191111564628
2023-01-29 15:38:12.871929,-0.19570840681965265
2023-01-29 15:38:12.876929,-0.1674423664808272
2023-01-29 15:38:12.881929,-0.1364736762001
2023-01-29 15:38:12.886929,-0.11012971401214586
2023-01-29 15:38:12.891929,-0.09200640877605462
2023-01-29 15:38:12.896929,-0.08195420354604722
2023-01-29 15:38:12.901929,-0.0771316966625307
2023-01-29 15:38:12.906929,-0.074453555047512
2023-01-29 15:38:12.911929,-0.07242359784198099
2023-01-29 15:38:12.916929,-0.07065515220165251
2023-01-29 15:38:12.921929,-0.06869343394940339
2023-01-29 15:38:12.926929,-0.06620764732360826
2023-01-29 15:38:12.931929,-0.06354893662808697
2023-01-29 15:38:12.936929,-0.061087012290954444
2023-01-29 15:38:12.941929,-0.05851357210272156
2023-01-29 15:38:12.946929,-0.055581729859113665
2023-01-29 15:38:12.951929,-0.05284620372575291
2023-01-29 15:38:12.956929,-0.050797663629054995
2023-01-29 15:38:12.961929,-0.04888427905083923
2023-01-29 15:38:12.966929,-0.046181879937648704
2023-01-29 15:38:12.971929,-0.042357951832599564
2023-01-29 15:38:12.976929,-0.03723879903554911
2023-01-29 15:38:12.981929,-0.03028597213312084
2023-01-29 15:38:12.986929,-0.021468203514814262
2023-01-29 15:38:12.991929,-0.011954240817676473
2023-01-29 15:38:12.996929,-0.003005067585036177
2023-01-29 15:38:13.001929,0.005244661776126482
2023-01-29 15:38:13.006929,0.013198256492614689
2023-01-29 15:38:13.011929,0.02079043341243901
2023-01-29 15:38:13.016929,0.02783894538879384
2023-01-29 15:38:13.021929,0.03447914518780294
2023-01-29 15:38:13.026929,0.04024386405944814
2023-01-29 15:38:13.031929,0.04343811414298117
2023-01-29 15:38:13.036929,0.04240751266479488
2023-01-29 15:38:13.041929,0.03689184680913185
2023-01-29 15:38:13.046929,0.02750237844884384
2023-01-29 15:38:13.051929,0.014787661888116957
2023-01-29 15:38:13.056929,-0.0003125270304735939
2023-01-29 15:38:13.061929,-0.016024261689711966
2023-01-29 15:38:13.066929,-0.03086805343627916
2023-01-29 15:38:13.071929,-0.04467276653628592
2023-01-29 15:38:13.076929,-0.05772133916616434
2023-01-29 15:38:13.081929,-0.06968783140967265
2023-01-29 15:38:13.086929,-0.08022328466176984
2023-01-29 15:38:13.091929,-0.08967996141181683
2023-01-29 15:38:13.096929,-0.0982536897063256
2023-01-29 15:38:13.101929,-0.10515883485211722
2023-01-29 15:38:13.106929,-0.10960082709789272
2023-01-29 15:38:13.111929,-0.11188122697041322
2023-01-29 15:38:13.116929,-0.11272609233856203
2023-01-29 15:38:13.121929,-0.11233262502686246
2023-01-29 15:38:13.126929,-0.11094709485769269
2023-01-29 15:38:13.131929,-0.10951728645127377
2023-01-29 15:38:13.136929,-0.10875940322875961
2023-01-29 15:38:13.141929,-0.10827823023129256
2023-01-29 15:38:13.146929,-0.10750930011272422
2023-01-29 15:38:13.151929,-0.10681275421630927
2023-01-29 15:38:13.156929,-0.10678808391094194
2023-01-29 15:38:13.161929,-0.1072841171164164
2023-01-29 15:38:13.166929,-0.1079420298337936
2023-01-29 15:38:13.171929,-0.10888763954468171
2023-01-29 15:38:13.176929,-0.10996143519878376
2023-01-29 15:38:13.181929,-0.1100790355582766
2023-01-29 15:38:13.186929,-0.10837475955486289
2023-01-29 15:38:13.191929,-0.10536353488467676
2023-01-29 15:38:13.196929,-0.10217230021953579
2023-01-29 15:38:13.201929,-0.0993602956118069
2023-01-29 15:38:13.206929,-0.09724398702383044
2023-01-29 15:38:13.211929,-0.096428198904423
2023-01-29 15:38:13.216929,-0.09697954356670375
2023-01-29 15:38:13.221929,-0.0978056312388331
2023-01-29 15:38:13.226929,-0.09782095998525608
2023-01-29 15:38:13.231929,-0.09711163109724981
2023-01-29 15:38:13.236929,-0.09621024131774898
2023-01-29 15:38:13.241929,-0.09506752704039036
2023-01-29 15:38:13.246929,-0.09361386299133297
2023-01-29 15:38:13.251929,-0.09249516396855641
2023-01-29 15:38:13.256929,-0.0922916382551193
2023-01-29 15:38:13.261929,-0.09272946909032612
2023-01-29 15:38:13.266929,-0.09351770579814907
2023-01-29 15:38:13.271929,-0.09515708822931272
2023-01-29 15:38:13.276929,-0.09798924624919889
2023-01-29 15:38:13.281929,-0.10117044221878192
2023-01-29 15:38:13.286929,-0.10344644635915759
2023-01-29 15:38:13.291929,-0.104206405524469
2023-01-29 15:38:13.296929,-0.10301371663808823
2023-01-29 15:38:13.301929,-0.09907420344300415
2023-01-29 15:38:13.306929,-0.09226759523153302
2023-01-29 15:38:13.311929,-0.08406359630516623
2023-01-29 15:38:13.316929,-0.0765210390090943
2023-01-29 15:38:13.321929,-0.07098314061373659
2023-01-29 15:38:13.326929,-0.06834726035594951
2023-01-29 15:38:13.331929,-0.06951213335219766
2023-01-29 15:38:13.336929,-0.0744295120239257
2023-01-29 15:38:13.341929,-0.08143869888672896
2023-01-29 15:38:13.346929,-0.08856534957885746
2023-01-29 15:38:13.351929,-0.09495518869912953
2023-01-29 15:38:13.356929,-0.10041733831167217
2023-01-29 15:38:13.361929,-0.10455440909313556
2023-01-29 15:38:13.366929,-0.10731697082519522
2023-01-29 15:38:13.371929,-0.10955241708838293
2023-01-29 15:38:13.376929,-0.11195679754018775
2023-01-29 15:38:13.381929,-0.11417289160885047
2023-01-29 15:38:13.386929,-0.11580328643321991
2023-01-29 15:38:13.391929,-0.11749482959772857
2023-01-29 15:38:13.396929,-0.12003441900014872
2023-01-29 15:38:13.401929,-0.12308187000012624
2023-01-29 15:38:13.406929,-0.1256118267774581
2023-01-29 15:38:13.411929,-0.12658837860867275
2023-01-29 15:38:13.416929,-0.1239770650863647
2023-01-29 15:38:13.421929,-0.11387658952217208
2023-01-29 15:38:13.426929,-0.09219547361135479
2023-01-29 15:38:13.431929,-0.05752997048434732
2023-01-29 15:38:13.436929,-0.012549161911010704
2023-01-29 15:38:13.441929,0.03600116266428446
2023-01-29 15:38:13.446929,0.0776509493589401
2023-01-29 15:38:13.451929,0.10017814372049941
2023-01-29 15:38:13.456929,0.09416680037975311
2023-01-29 15:38:13.461929,0.05750499752277018
2023-01-29 15:38:13.466929,-0.0034618377685546116
2023-01-29 15:38:13.471929,-0.07593111669384711
2023-01-29 15:38:13.476929,-0.14400283992290488
2023-01-29 15:38:13.481929,-0.19317849626716704
2023-01-29 15:38:13.486929,-0.21540324389934523
2023-01-29 15:38:13.491929,-0.21154735926821827
2023-01-29 15:38:13.496929,-0.18927118182182306
2023-01-29 15:38:13.501929,-0.15861719829378965
2023-01-29 15:38:13.506929,-0.12871305644512165
2023-01-29 15:38:13.511929,-0.10584243832518965
2023-01-29 15:38:13.516929,-0.09205123037099829
2023-01-29 15:38:13.521929,-0.08540421244204272
2023-01-29 15:38:13.526929,-0.08253117650747288
2023-01-29 15:38:13.531929,-0.08104195906687058
2023-01-29 15:38:13.536929,-0.07964631170034397
2023-01-29 15:38:13.541929,-0.07740191248525663
2023-01-29 15:38:13.546929,-0.0740448683500289
2023-01-29 15:38:13.551929,-0.07035918176518392
2023-01-29 15:38:13.556929,-0.06719331443309776
2023-01-29 15:38:13.561929,-0.06456096115674861
2023-01-29 15:38:13.566929,-0.062313079833984285
2023-01-29 15:38:13.571929,-0.06084621240979037
2023-01-29 15:38:13.576929,-0.06026963517069815
2023-01-29 15:38:13.581929,-0.05959724245910536
2023-01-29 15:38:13.586929,-0.05764921754598602
2023-01-29 15:38:13.591929,-0.05415402677497658
2023-01-29 15:38:13.596929,-0.04928310960531238
2023-01-29 15:38:13.601929,-0.04292364454458369
2023-01-29 15:38:13.606929,-0.035243432968854925
2023-01-29 15:38:13.611929,-0.027164050582511094
2023-01-29 15:38:13.616929,-0.01932859420776371
2023-01-29 15:38:13.621929,-0.011248157124184198
2023-01-29 15:38:13.626929,-0.002307891845703106
2023-01-29 15:38:13.631929,0.007015928183518687
2023-01-29 15:38:13.636929,0.01565039157867425
2023-01-29 15:38:13.641929,0.02284643186719462
2023-01-29 15:38:13.646929,0.027838945388793813
2023-01-29 15:38:13.651929,0.02947871697820641
2023-01-29 15:38:13.656929,0.027213891968131
2023-01-29 15:38:13.661929,0.02182816168066616
2023-01-29 15:38:13.666929,0.014376243576407403
2023-01-29 15:38:13.671929,0.005010512595122331
2023-01-29 15:38:13.676929,-0.006442864891141634
2023-01-29 15:38:13.681929,-0.01955754538234544
2023-01-29 15:38:13.686929,-0.03377696126699442
2023-01-29 15:38:13.691929,-0.04900012701748241
2023-01-29 15:38:13.696929,-0.06478925794363025
2023-01-29 15:38:13.701929,-0.07969760010472564
2023-01-29 15:38:13.706929,-0.092267595231533
2023-01-29 15:38:13.711929,-0.10209176470655464
2023-01-29 15:38:13.716929,-0.10921617597341526
2023-01-29 15:38:13.721929,-0.11337102475956332
2023-01-29 15:38:13.726929,-0.11469741910696025
2023-01-29 15:38:13.731929,-0.11446997426434154
2023-01-29 15:38:13.736929,-0.11414448916912073
2023-01-29 15:38:13.741929,-0.11426224633364943
2023-01-29 15:38:13.746929,-0.11496186256408683
2023-01-29 15:38:13.751929,-0.116683008640131
2023-01-29 15:38:13.756929,-0.11943340301513672
2023-01-29 15:38:13.761929,-0.12212534827853645
2023-01-29 15:38:13.766929,-0.12361645698547359
2023-01-29 15:38:13.771929,-0.12383478859100887
2023-01-29 15:38:13.776929,-0.12315969169139865
2023-01-29 15:38:13.781929,-0.12151108619629172
2023-01-29 15:38:13.786929,-0.11892855167388901
2023-01-29 15:38:13.791929,-0.11626682225949674
2023-01-29 15:38:13.796929,-0.1143608540296553
2023-01-29 15:38:13.801929,-0.11313181851087821
2023-01-29 15:38:13.806929,-0.11229336261749263
2023-01-29 15:38:13.811929,-0.11214675677927581
2023-01-29 15:38:13.816929,-0.1127982139587403
2023-01-29 15:38:13.821929,-0.11337356317766047
2023-01-29 15:38:13.826929,-0.11296650022268293
2023-01-29 15:38:13.831929,-0.11172590646628638
2023-01-29 15:38:13.836929,-0.11022587865591035
2023-01-29 15:38:13.841929,-0.10856061270423485
2023-01-29 15:38:13.846929,-0.1069082841277123
2023-01-29 15:38:13.851929,-0.10610826460870659
2023-01-29 15:38:13.856929,-0.10664384067058559
2023-01-29 15:38:13.861929,-0.10773896321333294
2023-01-29 15:38:13.866929,-0.10837475955486287
2023-01-29 15:38:13.871929,-0.10849351740970709
2023-01-29 15:38:13.876929,-0.10837475955486293
2023-01-29 15:38:13.881929,-0.10771023402105197
2023-01-29 15:38:13.886929,-0.10630726814270017
2023-01-29 15:38:13.891929,-0.1049059613349934
2023-01-29 15:38:13.896929,-0.1042638272047041
2023-01-29 15:38:13.901929,-0.10416119228899488
2023-01-29 15:38:13.906929,-0.10426382720470419
2023-01-29 15:38:13.911929,-0.10512243396719528
2023-01-29 15:38:13.916929,-0.10724484920501698
2023-01-29 15:38:13.921929,-0.109978998114787
2023-01-29 15:38:13.926929,-0.11241357028484333
2023-01-29 15:38:13.931929,-0.11459735869163433
2023-01-29 15:38:13.936929,-0.11676490306854237
2023-01-29 15:38:13.941929,-0.11822341634922016
2023-01-29 15:38:13.946929,-0.11825542151927933
2023-01-29 15:38:13.951929,-0.11728060078638103
2023-01-29 15:38:13.956929,-0.11573116481304149
2023-01-29 15:38:13.961929,-0.11256231314061438
2023-01-29 15:38:13.966929,-0.1064995974302291
2023-01-29 15:38:13.971929,-0.09828800863202682
2023-01-29 15:38:13.976929,-0.09015202522277832
2023-01-29 15:38:13.981929,-0.08339898347655096
2023-01-29 15:38:13.986929,-0.07815580070018767
2023-01-29 15:38:13.991929,-0.07525074988361463
2023-01-29 15:38:13.996929,-0.07654508203268041
2023-01-29 15:38:14.001929,-0.08291731654628651
2023-01-29 15:38:14.006929,-0.09301285445690147
2023-01-29 15:38:14.011929,-0.10427142990960238
2023-01-29 15:38:14.016929,-0.114336811006069
2023-01-29 15:38:14.021929,-0.12147439020433828
2023-01-29 15:38:14.026929,-0.12479444593191127
2023-01-29 15:38:14.031929,-0.12464012984765298
2023-01-29 15:38:14.036929,-0.12229423224925984
2023-01-29 15:38:14.041929,-0.11910925332774021
2023-01-29 15:38:14.046929,-0.11616389453411102
2023-01-29 15:38:14.051929,-0.11442147378458868
2023-01-29 15:38:14.056929,-0.11450509727001182
2023-01-29 15:38:14.061929,-0.11631974261641141
2023-01-29 15:38:14.066929,-0.11926512420177449
2023-01-29 15:38:14.071929,-0.12245065619286072
2023-01-29 15:38:14.076929,-0.12404918670654283
2023-01-29 15:38:14.081929,-0.12067750543928837
2023-01-29 15:38:14.086929,-0.10818243026733379
2023-01-29 15:38:14.091929,-0.08341495122963193
2023-01-29 15:38:14.096929,-0.045797228813171255
2023-01-29 15:38:14.101929,0.0013375729890309932
2023-01-29 15:38:14.106929,0.049691796302795396
2023-01-29 15:38:14.111929,0.08690569554919587
2023-01-29 15:38:14.116929,0.1005375385284423
2023-01-29 15:38:14.121929,0.08320950605999555
2023-01-29 15:38:14.126929,0.035868488252162864
2023-01-29 15:38:14.131929,-0.03192134032930657
2023-01-29 15:38:14.136929,-0.10433594882488233
2023-01-29 15:38:14.141929,-0.16420897598873838
2023-01-29 15:38:14.146929,-0.19929608702659596
2023-01-29 15:38:14.151929,-0.20646063515875288
2023-01-29 15:38:14.156929,-0.1911944150924681
2023-01-29 15:38:14.161929,-0.1637109371900473
2023-01-29 15:38:14.166929,-0.1346270292997359
2023-01-29 15:38:14.171929,-0.11164959910926817
2023-01-29 15:38:14.176929,-0.09762863814830769
2023-01-29 15:38:14.181929,-0.09092634883006431
2023-01-29 15:38:14.186929,-0.08810858428478235
2023-01-29 15:38:14.191929,-0.0866068240650047
2023-01-29 15:38:14.196929,-0.08529584109783159
2023-01-29 15:38:14.201929,-0.08382910616781293
2023-01-29 15:38:14.206929,-0.08238693326711646
2023-01-29 15:38:14.211929,-0.08153249840742016
2023-01-29 15:38:14.216929,-0.08140127360820765
2023-01-29 15:38:14.221929,-0.08118400509696833
2023-01-29 15:38:14.226929,-0.07986267656087861
2023-01-29 15:38:14.231929,-0.07705902003591582
2023-01-29 15:38:14.236929,-0.07274667918682089
2023-01-29 15:38:14.241929,-0.06675378000576779
2023-01-29 15:38:14.246929,-0.05921185016632079
2023-01-29 15:38:14.251929,-0.05102156218411161
2023-01-29 15:38:14.256929,-0.043224893510341665
2023-01-29 15:38:14.261929,-0.03627100133342642
2023-01-29 15:38:14.266929,-0.03033916279673571
2023-01-29 15:38:14.271929,-0.025791465925128387
2023-01-29 15:38:14.276929,-0.02267022989690299
2023-01-29 15:38:14.281929,-0.02023648829114432
2023-01-29 15:38:14.286929,-0.017645757645368496
2023-01-29 15:38:14.291929,-0.014704622871019597
2023-01-29 15:38:14.296929,-0.011515418998897018
2023-01-29 15:38:14.301929,-0.007975024880816018
2023-01-29 15:38:14.306929,-0.004255175590515127
2023-01-29 15:38:14.311929,-0.001264803316259505
2023-01-29 15:38:14.316929,2.404054066578709e-05
2023-01-29 15:38:14.321929,-0.0006704697850929383
2023-01-29 15:38:14.326929,-0.003317594528198195
2023-01-29 15:38:14.331929,-0.008116659465869949
2023-01-29 15:38:14.336929,-0.0150493783876299
2023-01-29 15:38:14.341929,-0.023413003532081967
2023-01-29 15:38:14.346929,-0.03245472908020004
2023-01-29 15:38:14.351929,-0.042073813411615577
2023-01-29 15:38:14.356929,-0.05238433927297582
2023-01-29 15:38:14.361929,-0.06307906451597087
2023-01-29 15:38:14.366929,-0.07375638186931605
2023-01-29 15:38:14.371929,-0.08432886314693883
2023-01-29 15:38:14.376929,-0.09450336545705781
2023-01-29 15:38:14.381929,-0.10336649969422979
2023-01-29 15:38:14.386929,-0.11012971401214575
2023-01-29 15:38:14.391929,-0.11489445968356447
2023-01-29 15:38:14.396929,-0.11818329989910116
2023-01-29 15:38:14.401929,-0.12020629752403461
2023-01-29 15:38:14.406929,-0.1210922002792358
2023-01-29 15:38:14.411929,-0.12125769851456812
2023-01-29 15:38:14.416929,-0.12089987844228736
2023-01-29 15:38:14.421929,-0.11959095432939075
2023-01-29 15:38:14.426929,-0.11700531095266338
2023-01-29 15:38:14.431929,-0.11368153778585958
2023-01-29 15:38:14.436929,-0.1105864867568015
2023-01-29 15:38:14.441929,-0.10837927532497849
2023-01-29 15:38:14.446929,-0.10753333568572987
2023-01-29 15:38:14.451929,-0.10853935273909449
2023-01-29 15:38:14.456929,-0.11128365993499745
2023-01-29 15:38:14.461929,-0.11461544246285582
2023-01-29 15:38:14.466929,-0.1171255111694334
2023-01-29 15:38:14.471929,-0.11809572760492645
2023-01-29 15:38:14.476929,-0.11741399765014628
2023-01-29 15:38:14.481929,-0.11518798985504548
2023-01-29 15:38:14.486929,-0.11198084056377407
2023-01-29 15:38:14.491929,-0.10887849983080491
2023-01-29 15:38:14.496929,-0.10666787624359125
2023-01-29 15:38:14.501929,-0.10521233945643231
2023-01-29 15:38:14.506929,-0.1039753407239912
2023-01-29 15:38:14.511929,-0.1027298088392785
2023-01-29 15:38:14.516929,-0.10147511959075912
2023-01-29 15:38:14.521929,-0.10025601353651985
2023-01-29 15:38:14.526929,-0.09945571422576902
2023-01-29 15:38:14.531929,-0.09969430820446343
2023-01-29 15:38:14.536929,-0.10104238986968979
2023-01-29 15:38:14.541929,-0.10286186955061388
2023-01-29 15:38:14.546929,-0.1046725139021872
2023-01-29 15:38:14.551929,-0.10647357743153278
2023-01-29 15:38:14.556929,-0.10794202983379356
2023-01-29 15:38:14.561929,-0.10821767923196998
2023-01-29 15:38:14.566929,-0.10700444877147669
2023-01-29 15:38:14.571929,-0.10510225131542808
2023-01-29 15:38:14.576929,-0.10332624614238724
2023-01-29 15:38:14.581929,-0.10167990809052181
2023-01-29 15:38:14.586929,-0.10012885183095929
2023-01-29 15:38:14.591929,-0.09933755294683021
2023-01-29 15:38:14.596929,-0.09993652999401079
2023-01-29 15:38:14.601929,-0.10175528682597743
2023-01-29 15:38:14.606929,-0.1044080704450607
2023-01-29 15:38:14.611929,-0.10790519638248167
2023-01-29 15:38:14.616929,-0.11200487613677967
2023-01-29 15:38:14.621929,-0.115673361819284
2023-01-29 15:38:14.626929,-0.11794289201498023
2023-01-29 15:38:14.631929,-0.11873790338173942
2023-01-29 15:38:14.636929,-0.11823137849569305
2023-01-29 15:38:14.641929,-0.11603876671552893
2023-01-29 15:38:14.646929,-0.11174043267965299
2023-01-29 15:38:14.651929,-0.10562890664149865
2023-01-29 15:38:14.656929,-0.09834985435008989
2023-01-29 15:38:14.661929,-0.09049447257068594
2023-01-29 15:38:14.666929,-0.08322834968566879
2023-01-29 15:38:14.671929,-0.07859787228655216
2023-01-29 15:38:14.676929,-0.07827600091695772
2023-01-29 15:38:14.681929,-0.08226844402740782
2023-01-29 15:38:14.686929,-0.08928656578063955
2023-01-29 15:38:14.691929,-0.09778135804731487
2023-01-29 15:38:14.696929,-0.10613898932933784
2023-01-29 15:38:14.701929,-0.11277618253788281
2023-01-29 15:38:14.706929,-0.11705338954925518
2023-01-29 15:38:14.711929,-0.11972757919218573
2023-01-29 15:38:14.716929,-0.12183745950460428
2023-01-29 15:38:14.721929,-0.1235490756500428
2023-01-29 15:38:14.726929,-0.12457808107137676
2023-01-29 15:38:14.731929,-0.1250828696726027
2023-01-29 15:38:14.736929,-0.12546758353710158
2023-01-29 15:38:14.741929,-0.12588528731137413
2023-01-29 15:38:14.746929,-0.12657344341278068
2023-01-29 15:38:14.751929,-0.12798465441571635
2023-01-29 15:38:14.756929,-0.12965063750743847
2023-01-29 15:38:14.761929,-0.12916230208704083
2023-01-29 15:38:14.766929,-0.12282311916351303
2023-01-29 15:38:14.771929,-0.10707915975751638
2023-01-29 15:38:14.776929,-0.07945398986339558
2023-01-29 15:38:14.781929,-0.03975503441738676
2023-01-29 15:38:14.786929,0.00788529776036737
2023-01-29 15:38:14.791929,0.05415358226800184
2023-01-29 15:38:14.796929,0.08685847371816635
2023-01-29 15:38:14.801929,0.09520703482433354
2023-01-29 15:38:14.806929,0.07358809560537327
2023-01-29 15:38:14.811929,0.02401714188517702
2023-01-29 15:38:14.816929,-0.04317681118845928
2023-01-29 15:38:14.821929,-0.11193465223007527
2023-01-29 15:38:14.826929,-0.1663845777511595
2023-01-29 15:38:14.831929,-0.19670619679617704
2023-01-29 15:38:14.836929,-0.20141164958477015
2023-01-29 15:38:14.841929,-0.18605372829100186
2023-01-29 15:38:14.846929,-0.16027829051017756
2023-01-29 15:38:14.851929,-0.13407842562059671
2023-01-29 15:38:14.856929,-0.11404832452535608
2023-01-29 15:38:14.861929,-0.10180170864800951
2023-01-29 15:38:14.866929,-0.0955851897597311
2023-01-29 15:38:14.871929,-0.09291274619204015
2023-01-29 15:38:14.876929,-0.09176274389028534
2023-01-29 15:38:14.881929,-0.0907107112853915
2023-01-29 15:38:14.886929,-0.08926253020763389
2023-01-29 15:38:14.891929,-0.08783241039784555
2023-01-29 15:38:14.896929,-0.08669018745422359
2023-01-29 15:38:14.901929,-0.08521694262037867
2023-01-29 15:38:14.906929,-0.08262734115123743
2023-01-29 15:38:14.911929,-0.07884899340330308
2023-01-29 15:38:14.916929,-0.07414102554321272
2023-01-29 15:38:14.921929,-0.06848082178395838
2023-01-29 15:38:14.926929,-0.062000554054975544
2023-01-29 15:38:14.931929,-0.05546333148960528
2023-01-29 15:38:14.936929,-0.04959563538432121
2023-01-29 15:38:14.941929,-0.0443839332187095
2023-01-29 15:38:14.946929,-0.039570730179548194
2023-01-29 15:38:14.951929,-0.035251744498846105
2023-01-29 15:38:14.956929,-0.03134886547923075
2023-01-29 15:38:14.961929,-0.02709927468600846
2023-01-29 15:38:14.966929,-0.02182881161570545
2023-01-29 15:38:14.971929,-0.015836511601731548
2023-01-29 15:38:14.976929,-0.009976824745535788
2023-01-29 15:38:14.981929,-0.004910416458384868
2023-01-29 15:38:14.986929,-0.001298189163208048
2023-01-29 15:38:14.991929,-1.6282909344885373e-06
2023-01-29 15:38:14.996929,-0.0012501081218942148
2023-01-29 15:38:15.001929,-0.004052283437578642
2023-01-29 15:38:15.006929,-0.007140040397643978
2023-01-29 15:38:15.011929,-0.01015116847833191
2023-01-29 15:38:15.016929,-0.01346270274370899
2023-01-29 15:38:15.021929,-0.017547070908018693
2023-01-29 15:38:15.026929,-0.023127000778913335
2023-01-29 15:38:15.031929,-0.031230755609813636
2023-01-29 15:38:15.036929,-0.0421671085059642
2023-01-29 15:38:15.041929,-0.05478798890148964
2023-01-29 15:38:15.046929,-0.06738563627004623
2023-01-29 15:38:15.051929,-0.07890081722418459
2023-01-29 15:38:15.056929,-0.08882980048656461
2023-01-29 15:38:15.061929,-0.09677220546887463
2023-01-29 15:38:15.066929,-0.10291755199432376
2023-01-29 15:38:15.071929,-0.10837285354247274
2023-01-29 15:38:15.076929,-0.1140964031219481
2023-01-29 15:38:15.081929,-0.11982477918897559
2023-01-29 15:38:15.086929,-0.12460212409496307
2023-01-29 15:38:15.091929,-0.1277613630615994
2023-01-29 15:38:15.096929,-0.12876114249229426
2023-01-29 15:38:15.101929,-0.126894224308969
2023-01-29 15:38:15.106929,-0.12222211062908168
2023-01-29 15:38:15.111929,-0.11635174467155966
2023-01-29 15:38:15.116929,-0.11135578155517559
2023-01-29 15:38:15.121929,-0.10822209383290103
2023-01-29 15:38:15.126929,-0.10695636272430412
2023-01-29 15:38:15.131929,-0.10744603524196861
2023-01-29 15:38:15.136929,-0.10916809737682337
2023-01-29 15:38:15.141929,-0.11060827531984879
2023-01-29 15:38:15.146929,-0.11024992167949672
2023-01-29 15:38:15.151929,-0.10806651502099168
2023-01-29 15:38:15.156929,-0.1051773652434349
2023-01-29 15:38:15.161929,-0.10230954074327883
2023-01-29 15:38:15.166929,-0.09957592189311983
2023-01-29 15:38:15.171929,-0.09755246320299002
2023-01-29 15:38:15.176929,-0.09743630886077871
2023-01-29 15:38:15.181929,-0.09990548645947989
2023-01-29 15:38:15.186929,-0.10445614904165247
2023-01-29 15:38:15.191929,-0.10983527516310461
2023-01-29 15:38:15.196929,-0.11448105424642559
2023-01-29 15:38:15.201929,-0.1166651461657533
2023-01-29 15:38:15.206929,-0.11508207023143754
2023-01-29 15:38:15.211929,-0.10967646530208829
2023-01-29 15:38:15.216929,-0.10169148445129392
2023-01-29 15:38:15.221929,-0.09301429788343765
2023-01-29 15:38:15.226929,-0.08568048477172853
2023-01-29 15:38:15.231929,-0.08147995799180924
2023-01-29 15:38:15.236929,-0.0812089443206786
2023-01-29 15:38:15.241929,-0.08421624658434632
2023-01-29 15:38:15.246929,-0.08904616534709926
2023-01-29 15:38:15.251929,-0.09445237369702619
2023-01-29 15:38:15.256929,-0.09962400048971166
2023-01-29 15:38:15.261929,-0.10393286001588489
2023-01-29 15:38:15.266929,-0.10705252736806858
2023-01-29 15:38:15.271929,-0.10908764129388034
2023-01-29 15:38:15.276929,-0.11010567843914024
2023-01-29 15:38:15.281929,-0.10978832742290558
2023-01-29 15:38:15.286929,-0.1079901084303855
2023-01-29 15:38:15.291929,-0.10536854235454565
2023-01-29 15:38:15.296929,-0.10301371663808818
2023-01-29 15:38:15.301929,-0.10169184908663499
2023-01-29 15:38:15.306929,-0.10176360607147214
2023-01-29 15:38:15.311929,-0.10336329944113172
2023-01-29 15:38:15.316929,-0.10606686770915981
2023-01-29 15:38:15.321929,-0.10865916692016352
2023-01-29 15:38:15.326929,-0.10976910591125484
2023-01-29 15:38:15.331929,-0.10860667087675539
2023-01-29 15:38:15.336929,-0.10486483573913566
2023-01-29 15:38:15.341929,-0.09845493801144702
2023-01-29 15:38:15.346929,-0.08995970338582984
2023-01-29 15:38:15.351929,-0.08105888669496933
2023-01-29 15:38:15.356929,-0.0739246606826782
2023-01-29 15:38:15.361929,-0.07023712353878692
2023-01-29 15:38:15.366929,-0.07087151706218708
2023-01-29 15:38:15.371929,-0.07587706008694893
2023-01-29 15:38:15.376929,-0.08411785215139382
2023-01-29 15:38:15.381929,-0.09330708760889345
2023-01-29 15:38:15.386929,-0.10111451148986812
2023-01-29 15:38:15.391929,-0.10630696267071232
2023-01-29 15:38:15.396929,-0.1087353676557539
2023-01-29 15:38:15.401929,-0.10877602708310255
2023-01-29 15:38:15.406929,-0.10726889222860325
2023-01-29 15:38:15.411929,-0.10552354297886624
2023-01-29 15:38:15.416929,-0.10469655692577365
2023-01-29 15:38:15.421929,-0.10525621950074045
2023-01-29 15:38:15.426929,-0.10731697082519527
2023-01-29 15:38:15.431929,-0.11102869247652437
2023-01-29 15:38:15.436929,-0.11606772989034649
2023-01-29 15:38:15.441929,-0.12092621431336421
2023-01-29 15:38:15.446929,-0.12299140542745593
2023-01-29 15:38:15.451929,-0.11898197047983201
2023-01-29 15:38:15.456929,-0.10520140826702107
2023-01-29 15:38:15.461929,-0.07847331113434806
2023-01-29 15:38:15.466929,-0.03836870193481444
2023-01-29 15:38:15.471929,0.010726070971859004
2023-01-29 15:38:15.476929,0.05957245826721189
2023-01-29 15:38:15.481929,0.09613808610227177
2023-01-29 15:38:15.486929,0.10885556787252411
2023-01-29 15:38:15.491929,0.09065493350358804
2023-01-29 15:38:15.496929,0.04269599914550783
2023-01-29 15:38:15.501929,-0.024715039853069547
2023-01-29 15:38:15.506929,-0.09548902511596669
2023-01-29 15:38:15.511929,-0.1535861471656556
2023-01-29 15:38:15.516929,-0.18811723589897145
2023-01-29 15:38:15.521929,-0.19604617680674416
2023-01-29 15:38:15.526929,-0.18217921257019035
2023-01-29 15:38:15.531929,-0.156319094168963
2023-01-29 15:38:15.536929,-0.1286168992519377
2023-01-29 15:38:15.541929,-0.10586748454226966
2023-01-29 15:38:15.546929,-0.09070496261119838
2023-01-29 15:38:15.551929,-0.08279564029910502
2023-01-29 15:38:15.556929,-0.08012712001800516
2023-01-29 15:38:15.561929,-0.08000920743243364
2023-01-29 15:38:15.566929,-0.08012712001800529
2023-01-29 15:38:15.571929,-0.07910642667204991
2023-01-29 15:38:15.576929,-0.07618447393178925
2023-01-29 15:38:15.581929,-0.07092348140387304
2023-01-29 15:38:15.586929,-0.06368339061737066
2023-01-29 15:38:15.591929,-0.05591008764123491
2023-01-29 15:38:15.596929,-0.0493311882019042
2023-01-29 15:38:15.601929,-0.044929923060905444
2023-01-29 15:38:15.606929,-0.04281620308756823
2023-01-29 15:38:15.611929,-0.04253148600471935
2023-01-29 15:38:15.616929,-0.043008528649806956
2023-01-29 15:38:15.621929,-0.04270360423418969
2023-01-29 15:38:15.626929,-0.04043618962168684
2023-01-29 15:38:15.631929,-0.03604565024118875
2023-01-29 15:38:15.636929,-0.03002663515508162
2023-01-29 15:38:15.641929,-0.022914648279826953
2023-01-29 15:38:15.646929,-0.015337864868342705
2023-01-29 15:38:15.651929,-0.00816600281676555
2023-01-29 15:38:15.656929,-0.0020434460602699834
2023-01-29 15:38:15.661929,0.0030172292024860307
2023-01-29 15:38:15.666929,0.0072602434083819814
2023-01-29 15:38:15.671929,0.010734342012332239
2023-01-29 15:38:15.676929,0.013510784134268589
2023-01-29 15:38:15.681929,0.015901495949038676
2023-01-29 15:38:15.686929,0.017982324585318524
2023-01-29 15:38:15.691929,0.0191595872337414
2023-01-29 15:38:15.696929,0.018559297546744312
2023-01-29 15:38:15.701929,0.015577358947569132
2023-01-29 15:38:15.706929,0.009808540344238111
2023-01-29 15:38:15.711929,0.0008972351233160936
2023-01-29 15:38:15.716929,-0.011058649048209001
2023-01-29 15:38:15.721929,-0.025163365029915098
2023-01-29 15:38:15.726929,-0.04007558152079585
2023-01-29 15:38:15.731929,-0.054485940271111435
2023-01-29 15:38:15.736929,-0.06714522838592518
2023-01-29 15:38:15.741929,-0.07696906677406112
2023-01-29 15:38:15.746929,-0.08361300081014633
2023-01-29 15:38:15.751929,-0.08779314600212336
2023-01-29 15:38:15.756929,-0.09080111980438228
2023-01-29 15:38:15.761929,-0.09379253101901486
2023-01-29 15:38:15.766929,-0.0973882302641868
2023-01-29 15:38:15.771929,-0.1013833229461265
2023-01-29 15:38:15.776929,-0.10469655692577354
2023-01-29 15:38:15.781929,-0.10613067711788635
2023-01-29 15:38:15.786929,-0.10541777312755576
2023-01-29 15:38:15.791929,-0.10320752211289508
2023-01-29 15:38:15.796929,-0.10017693042755124
2023-01-29 15:38:15.801929,-0.0968601251486297
2023-01-29 15:38:15.806929,-0.0942870005965232
2023-01-29 15:38:15.811929,-0.09371703245247175
2023-01-29 15:38:15.816929,-0.09527266025543202
2023-01-29 15:38:15.821929,-0.09756356335788836
2023-01-29 15:38:15.826929,-0.0990710705518721
2023-01-29 15:38:15.831929,-0.09926902907635747
2023-01-29 15:38:15.836929,-0.098157525062561
2023-01-29 15:38:15.841929,-0.0956602008093982
2023-01-29 15:38:15.846929,-0.09209930896759029
2023-01-29 15:38:15.851929,-0.08850571885822252
2023-01-29 15:38:15.856929,-0.08572857081890095
2023-01-29 15:38:15.861929,-0.08369922565868224
2023-01-29 15:38:15.866929,-0.08205036818981172
2023-01-29 15:38:15.871929,-0.08087613285921155
2023-01-29 15:38:15.876929,-0.08036752790212627
2023-01-29 15:38:15.881929,-0.08030622054917211
2023-01-29 15:38:15.886929,-0.0805117711424827
2023-01-29 15:38:15.891929,-0.08126308451810685
2023-01-29 15:38:15.896929,-0.08269946277141564
2023-01-29 15:38:15.901929,-0.08428530065671877
2023-01-29 15:38:15.906929,-0.08541604131460179
2023-01-29 15:38:15.911929,-0.08610282642526508
2023-01-29 15:38:15.916929,-0.08656998723745335
2023-01-29 15:38:15.921929,-0.08668289655241221
2023-01-29 15:38:15.926929,-0.08630554378032676
2023-01-29 15:38:15.931929,-0.0857375401360288
2023-01-29 15:38:15.936929,-0.08524775505065903
2023-01-29 15:38:15.941929,-0.08461719594259909
2023-01-29 15:38:15.946929,-0.08366107940673817
2023-01-29 15:38:15.951929,-0.08276239266135803
2023-01-29 15:38:15.956929,-0.08238693326711644
2023-01-29 15:38:15.961929,-0.08252311647576763
2023-01-29 15:38:15.966929,-0.08310814946889877
2023-01-29 15:38:15.971929,-0.08453955562623014
2023-01-29 15:38:15.976929,-0.08719503879547105
2023-01-29 15:38:15.981929,-0.09080595241634229
2023-01-29 15:38:15.986929,-0.09476780891418449
2023-01-29 15:38:15.991929,-0.09865751138802563
2023-01-29 15:38:15.996929,-0.10200401395559311
2023-01-29 15:38:16.001929,-0.10405291369447388
2023-01-29 15:38:16.006929,-0.10433594882488252
2023-01-29 15:38:16.011929,-0.10310286252932951
2023-01-29 15:38:16.016929,-0.10068178176879869
2023-01-29 15:38:16.021929,-0.09676941311850971
2023-01-29 15:38:16.026929,-0.09082516282796844
2023-01-29 15:38:16.031929,-0.08284658518930148
2023-01-29 15:38:16.036929,-0.07344385236501678
2023-01-29 15:38:16.041929,-0.06370604641649825
2023-01-29 15:38:16.046929,-0.055485568940639364
2023-01-29 15:38:16.051929,-0.05121108386158653
2023-01-29 15:38:16.056929,-0.05255262181162819
2023-01-29 15:38:16.061929,-0.05922544151365202
2023-01-29 15:38:16.066929,-0.06928484141826625
2023-01-29 15:38:16.071929,-0.08021170926026684
2023-01-29 15:38:16.076929,-0.08957505226135243
2023-01-29 15:38:16.081929,-0.09555281110601853
2023-01-29 15:38:16.086929,-0.09777288138866413
2023-01-29 15:38:16.091929,-0.09751972714624611
2023-01-29 15:38:16.096929,-0.09659489244222642
2023-01-29 15:38:16.101929,-0.0960592621103347
2023-01-29 15:38:16.106929,-0.09618620574474325
2023-01-29 15:38:16.111929,-0.09700107372332763
2023-01-29 15:38:16.116929,-0.0983258113265037
2023-01-29 15:38:16.121929,-0.09972692210897645
2023-01-29 15:38:16.126929,-0.10092218965291969
2023-01-29 15:38:16.131929,-0.10177122672405212
2023-01-29 15:38:16.136929,-0.1011866331100462
2023-01-29 15:38:16.141929,-0.09623826785766544
2023-01-29 15:38:16.146929,-0.08289178460836404
2023-01-29 15:38:16.151929,-0.05787739984213403
2023-01-29 15:38:16.156929,-0.020482540130615207
2023-01-29 15:38:16.161929,0.025904221350370533
2023-01-29 15:38:16.166929,0.07281880080699925
2023-01-29 15:38:16.171929,0.10792267868022118
2023-01-29 15:38:16.176929,0.11914491653442379
2023-01-29 15:38:16.181929,0.09971958671491271
2023-01-29 15:38:16.186929,0.051206350326538065
2023-01-29 15:38:16.191929,-0.01653389055775642
2023-01-29 15:38:16.196929,-0.08801241964101782
2023-01-29 15:38:16.201929,-0.14698109905504386
2023-01-29 15:38:16.206929,-0.18208305537700642
2023-01-29 15:38:16.211929,-0.1903543062688692
2023-01-29 15:38:16.216929,-0.17664989829063407
2023-01-29 15:38:16.221929,-0.15020744602081476
2023-01-29 15:38:16.226929,-0.12087583541870107
2023-01-29 15:38:16.231929,-0.09619570433080674
2023-01-29 15:38:16.236929,-0.07962226867675776
2023-01-29 15:38:16.241929,-0.07057058001343826
2023-01-29 15:38:16.246929,-0.06630381196737284
2023-01-29 15:38:16.251929,-0.06403759155712352
2023-01-29 15:38:16.256929,-0.06180822849273682
2023-01-29 15:38:16.261929,-0.05854401460822214
2023-01-29 15:38:16.266929,-0.05423545837402335
2023-01-29 15:38:16.271929,-0.04983141553319827
2023-01-29 15:38:16.276929,-0.04637420177459711
2023-01-29 15:38:16.281929,-0.044197782407188566
2023-01-29 15:38:16.286929,-0.04303256794810291
2023-01-29 15:38:16.291929,-0.04243550065964978
2023-01-29 15:38:16.296929,-0.04178246110677702
2023-01-29 15:38:16.301929,-0.04026608256581291
2023-01-29 15:38:16.306929,-0.037383042275905554
2023-01-29 15:38:16.311929,-0.03323994850414695
2023-01-29 15:38:16.316929,-0.02812743186950675
2023-01-29 15:38:16.321929,-0.022088421577343937
2023-01-29 15:38:16.326929,-0.015145540237426706
2023-01-29 15:38:16.331929,-0.0076052559948522
2023-01-29 15:38:16.336929,0.00014424324035642398
2023-01-29 15:38:16.341929,0.007846752275003631
2023-01-29 15:38:16.346929,0.015193621627986454
2023-01-29 15:38:16.351929,0.021752279738733876
2023-01-29 15:38:16.356929,0.027237933129072103
2023-01-29 15:38:16.361929,0.031524468993089735
2023-01-29 15:38:16.366929,0.0343298912048338
2023-01-29 15:38:16.371929,0.03533588258128322
2023-01-29 15:38:16.376929,0.03464242070913308
2023-01-29 15:38:16.381929,0.03252425183534546
2023-01-29 15:38:16.386929,0.02868036553263658
2023-01-29 15:38:16.391929,0.022433249635287193
2023-01-29 15:38:16.396929,0.013847351074218797
2023-01-29 15:38:16.401929,0.003918214652140873
2023-01-29 15:38:16.406929,-0.0065871081314979275
2023-01-29 15:38:16.411929,-0.0177080217139732
2023-01-29 15:38:16.416929,-0.02940158173441881
2023-01-29 15:38:16.421929,-0.040895570490179445
2023-01-29 15:38:16.426929,-0.051398675888776606
2023-01-29 15:38:16.431929,-0.06073887188622861
2023-01-29 15:38:16.436929,-0.06880402565002433
2023-01-29 15:38:16.441929,-0.07505448187544755
2023-01-29 15:38:16.446929,-0.07918953895568838
2023-01-29 15:38:16.451929,-0.08173769253201996
2023-01-29 15:38:16.456929,-0.08344471454620356
2023-01-29 15:38:16.461929,-0.08459120520520401
2023-01-29 15:38:16.466929,-0.08536796271800984
2023-01-29 15:38:16.471929,-0.08629086621418165
2023-01-29 15:38:16.476929,-0.08762776851654042
2023-01-29 15:38:16.481929,-0.08889788710136595
2023-01-29 15:38:16.486929,-0.08950293064117426
2023-01-29 15:38:16.491929,-0.08944191104889959
2023-01-29 15:38:16.496929,-0.0889740437269209
2023-01-29 15:38:16.501929,-0.08812477468630059
2023-01-29 15:38:16.506929,-0.08705079555511465
2023-01-29 15:38:16.511929,-0.08635663868541894
2023-01-29 15:38:16.516929,-0.0864257439970969
2023-01-29 15:38:16.521929,-0.08680597798023537
2023-01-29 15:38:16.526929,-0.0867382735013961
2023-01-29 15:38:16.531929,-0.08588343131055387
2023-01-29 15:38:16.536929,-0.08411785215139371
2023-01-29 15:38:16.541929,-0.08118794383652497
2023-01-29 15:38:16.546929,-0.07719417661428449
2023-01-29 15:38:16.551929,-0.0730283438960025
2023-01-29 15:38:16.556929,-0.06976564973592737
2023-01-29 15:38:16.561929,-0.06790346177740225
2023-01-29 15:38:16.566929,-0.06752987951040262
2023-01-29 15:38:16.571929,-0.06868787171958907
2023-01-29 15:38:16.576929,-0.07101576030254356
2023-01-29 15:38:16.581929,-0.07348769118971407
2023-01-29 15:38:16.586929,-0.07515072822570791
2023-01-29 15:38:16.591929,-0.07589576589207586
2023-01-29 15:38:16.596929,-0.07613639533519731
2023-01-29 15:38:16.601929,-0.07613837215077428
2023-01-29 15:38:16.606929,-0.07606427371501927
2023-01-29 15:38:16.611929,-0.07616072320521662
2023-01-29 15:38:16.616929,-0.07632871717214572
2023-01-29 15:38:16.621929,-0.07589257551951321
2023-01-29 15:38:16.626929,-0.07435739040374745
2023-01-29 15:38:16.631929,-0.07214065995388227
2023-01-29 15:38:16.636929,-0.07017433643341059
2023-01-29 15:38:16.641929,-0.06915052332751731
2023-01-29 15:38:16.646929,-0.06950120627880092
2023-01-29 15:38:16.651929,-0.07156056238492976
2023-01-29 15:38:16.656929,-0.0751266926527023
2023-01-29 15:38:16.661929,-0.07918488378408267
2023-01-29 15:38:16.666929,-0.0826032981276512
2023-01-29 15:38:16.671929,-0.0849057319530203
2023-01-29 15:38:16.676929,-0.08608917891979209
2023-01-29 15:38:16.681929,-0.08616318974976106
2023-01-29 15:38:16.686929,-0.08531987667083736
2023-01-29 15:38:16.691929,-0.08407939941835958
2023-01-29 15:38:16.696929,-0.08265137672424303
2023-01-29 15:38:16.701929,-0.08038923309515728
2023-01-29 15:38:16.706929,-0.07632871717214589
2023-01-29 15:38:16.711929,-0.07008087088113259
2023-01-29 15:38:16.716929,-0.06202459335327141
2023-01-29 15:38:16.721929,-0.053196659598106294
2023-01-29 15:38:16.726929,-0.04546066373586657
2023-01-29 15:38:16.731929,-0.041220545077017515
2023-01-29 15:38:16.736929,-0.042143069207668304
2023-01-29 15:38:16.741929,-0.04808425709445157
2023-01-29 15:38:16.746929,-0.05740880966186524
2023-01-29 15:38:16.751929,-0.0679922900133709
2023-01-29 15:38:16.756929,-0.07774710655212387
2023-01-29 15:38:16.761929,-0.08494337211692712
2023-01-29 15:38:16.766929,-0.08885383605957031
2023-01-29 15:38:16.771929,-0.09000334179991372
2023-01-29 15:38:16.776929,-0.08943080902099594
2023-01-29 15:38:16.781929,-0.08794086576306005
2023-01-29 15:38:16.786929,-0.0862815007567404
2023-01-29 15:38:16.791929,-0.08547636966894576
2023-01-29 15:38:16.796929,-0.08635362237691864
2023-01-29 15:38:16.801929,-0.08887560693692671
2023-01-29 15:38:16.806929,-0.09209930896759033
2023-01-29 15:38:16.811929,-0.09422593009063292
2023-01-29 15:38:16.816929,-0.09219547361135483
2023-01-29 15:38:16.821929,-0.0818002751520659
2023-01-29 15:38:16.826929,-0.05928397178649898
2023-01-29 15:38:16.831929,-0.02360432668978369
2023-01-29 15:38:16.836929,0.0220451764762401
2023-01-29 15:38:16.841929,0.06980750294956628
2023-01-29 15:38:16.846929,0.10801415145397175
2023-01-29 15:38:16.851929,0.12418038855756543
2023-01-29 15:38:16.856929,0.10991334915161129
2023-01-29 15:38:16.861929,0.06514765637690711
2023-01-29 15:38:16.866929,-0.0010097026824950604
2023-01-29 15:38:16.871929,-0.0731102152631881
2023-01-29 15:38:16.876929,-0.13436257839202875
2023-01-29 15:38:16.881929,-0.1721620621379271
2023-01-29 15:38:16.886929,-0.1822272986173629
2023-01-29 15:38:16.891929,-0.169166031874367
2023-01-29 15:38:16.896929,-0.1430892944335937
2023-01-29 15:38:16.901929,-0.11468266011682336
2023-01-29 15:38:16.906929,-0.09157042205333701
2023-01-29 15:38:16.911929,-0.07687104347079926
2023-01-29 15:38:16.916929,-0.06957332789897906
2023-01-29 15:38:16.921929,-0.06637084925306125
2023-01-29 15:38:16.926929,-0.0640680417418479
2023-01-29 15:38:16.931929,-0.06099809701139215
2023-01-29 15:38:16.936929,-0.05690395832061757
2023-01-29 15:38:16.941929,-0.05230927696833947
2023-01-29 15:38:16.946929,-0.04810512065887449
2023-01-29 15:38:16.951929,-0.04495511581093556
2023-01-29 15:38:16.956929,-0.04264792054891583
2023-01-29 15:38:16.961929,-0.04042756086102789
2023-01-29 15:38:16.966929,-0.03810425847768782
2023-01-29 15:38:16.971929,-0.036234918274393006
2023-01-29 15:38:16.976929,-0.03500302881002418
2023-01-29 15:38:16.981929,-0.033616376723225705
2023-01-29 15:38:16.986929,-0.031132500618696216
2023-01-29 15:38:16.991929,-0.0272099340290673
2023-01-29 15:38:16.996929,-0.021732648834586032
2023-01-29 15:38:17.001929,-0.014514311882517374
2023-01-29 15:38:17.006929,-0.005962054245173976
2023-01-29 15:38:17.011929,0.002608104859080427
2023-01-29 15:38:17.016929,0.009976824745535804
2023-01-29 15:38:17.021929,0.015966820777131484
2023-01-29 15:38:17.026929,0.02101143263280385
2023-01-29 15:38:17.031929,0.025343347920426713
2023-01-29 15:38:17.036929,0.029040973633527707
2023-01-29 15:38:17.041929,0.032219127103173185
2023-01-29 15:38:17.046929,0.03452221676707247
2023-01-29 15:38:17.051929,0.03488348841398092
2023-01-29 15:38:17.056929,0.03240665048360804
2023-01-29 15:38:17.061929,0.027206426989936795
2023-01-29 15:38:17.066929,0.020025771111249847
2023-01-29 15:38:17.071929,0.011515421683284302
2023-01-29 15:38:17.076929,0.0023078918457031367
2023-01-29 15:38:17.081929,-0.006798997983538006
2023-01-29 15:38:17.086929,-0.015385946258902501
2023-01-29 15:38:17.091929,-0.02379203185343677
2023-01-29 15:38:17.096929,-0.03245472908020015
2023-01-29 15:38:17.101929,-0.04121014576287539
2023-01-29 15:38:17.106929,-0.04961967468261716
2023-01-29 15:38:17.111929,-0.057503016357570345
2023-01-29 15:38:17.116929,-0.06469309329986564
2023-01-29 15:38:17.121929,-0.07078328073697468
2023-01-29 15:38:17.126929,-0.07570366561412803
2023-01-29 15:38:17.131929,-0.08017393809938153
2023-01-29 15:38:17.136929,-0.08505543321371074
2023-01-29 15:38:17.141929,-0.09053747232923567
2023-01-29 15:38:17.146929,-0.09628236293792734
2023-01-29 15:38:17.151929,-0.10184161367731968
2023-01-29 15:38:17.156929,-0.10642747581005088
2023-01-29 15:38:17.161929,-0.10878918638322117
2023-01-29 15:38:17.166929,-0.10801415145397186
2023-01-29 15:38:17.171929,-0.10430119234402466
2023-01-29 15:38:17.176929,-0.09863834083080299
2023-01-29 15:38:17.181929,-0.09212978759056888
2023-01-29 15:38:17.186929,-0.08596897125244145
2023-01-29 15:38:17.191929,-0.0814356022723136
2023-01-29 15:38:17.196929,-0.07918953895568837
2023-01-29 15:38:17.201929,-0.07877439566442267
2023-01-29 15:38:17.206929,-0.07923762500286105
2023-01-29 15:38:17.211929,-0.07995177048516237
2023-01-29 15:38:17.216929,-0.0805598497390747
2023-01-29 15:38:17.221929,-0.08070748246818704
2023-01-29 15:38:17.226929,-0.08041560649871826
2023-01-29 15:38:17.231929,-0.08032382129839732
2023-01-29 15:38:17.236929,-0.08099257946014396
2023-01-29 15:38:17.241929,-0.08220425652380574
2023-01-29 15:38:17.246929,-0.08330047130584708
2023-01-29 15:38:17.251929,-0.08379256706990348
2023-01-29 15:38:17.256929,-0.0832523927092552
2023-01-29 15:38:17.261929,-0.08114579387650382
2023-01-29 15:38:17.266929,-0.07741054147481903
2023-01-29 15:38:17.271929,-0.07291383993458125
2023-01-29 15:38:17.276929,-0.06885211169719688
2023-01-29 15:38:17.281929,-0.06595705259740171
2023-01-29 15:38:17.286929,-0.06459693610668184
2023-01-29 15:38:17.291929,-0.06513587381853504
2023-01-29 15:38:17.296929,-0.06762604415416709
2023-01-29 15:38:17.301929,-0.0714861169562371
2023-01-29 15:38:17.306929,-0.07599215209484102
2023-01-29 15:38:17.311929,-0.0808111754511083
2023-01-29 15:38:17.316929,-0.08568048477172852
2023-01-29 15:38:17.321929,-0.08998314414593053
2023-01-29 15:38:17.326929,-0.0931330546736717
2023-01-29 15:38:17.331929,-0.09505499855024635
2023-01-29 15:38:17.336929,-0.09587367624044403
2023-01-29 15:38:17.341929,-0.09551409561314883
2023-01-29 15:38:17.346929,-0.09404659271240226
2023-01-29 15:38:17.351929,-0.09201965788259624
2023-01-29 15:38:17.356929,-0.08993566036224354
2023-01-29 15:38:17.361929,-0.08767520229722917
2023-01-29 15:38:17.366929,-0.08481502532958982
2023-01-29 15:38:17.371929,-0.0811571196789171
2023-01-29 15:38:17.376929,-0.0766172036528587
2023-01-29 15:38:17.381929,-0.07114011071281034
2023-01-29 15:38:17.386929,-0.06531815230846406
2023-01-29 15:38:17.391929,-0.060750774886658164
2023-01-29 15:38:17.396929,-0.05921185016632075
2023-01-29 15:38:17.401929,-0.061550830452523006
2023-01-29 15:38:17.406929,-0.0675298795104026
2023-01-29 15:38:17.411929,-0.07613678793557345
2023-01-29 15:38:17.416929,-0.0855843275785445
2023-01-29 15:38:17.421929,-0.09357716798794809
2023-01-29 15:38:17.426929,-0.09839793294668188
2023-01-29 15:38:17.431929,-0.09977494931372068
2023-01-29 15:38:17.436929,-0.09854217618703828
2023-01-29 15:38:17.441929,-0.09589622815972455
2023-01-29 15:38:17.446929,-0.09327729791402807
2023-01-29 15:38:17.451929,-0.09231801165014629
2023-01-29 15:38:17.456929,-0.09414275735616684
2023-01-29 15:38:17.461929,-0.09877859167803316
2023-01-29 15:38:17.466929,-0.10544180870056148
2023-01-29 15:38:17.471929,-0.11291049400999618
2023-01-29 15:38:17.476929,-0.11919300258159626
2023-01-29 15:38:17.481929,-0.12123678151479436
2023-01-29 15:38:17.486929,-0.11544267833232869
2023-01-29 15:38:17.491929,-0.09846105834178362
2023-01-29 15:38:17.496929,-0.06803473085165017
2023-01-29 15:38:17.501929,-0.024692375957801858
2023-01-29 15:38:17.506929,0.02625226974487301
2023-01-29 15:38:17.511929,0.07494636265619173
2023-01-29 15:38:17.516929,0.11029800027608871
2023-01-29 15:38:17.521929,0.1234839820529576
2023-01-29 15:38:17.526929,0.10931234061717976
2023-01-29 15:38:17.531929,0.06700519799264944
2023-01-29 15:38:17.536929,0.002259810920804649
2023-01-29 15:38:17.541929,-0.07175164927101275
2023-01-29 15:38:17.546929,-0.13799270987510676
2023-01-29 15:38:17.551929,-0.18254802967723807
2023-01-29 15:38:17.556929,-0.19977688789367665
2023-01-29 15:38:17.561929,-0.1926494709649497
2023-01-29 15:38:17.566929,-0.1697021722793578
2023-01-29 15:38:17.571929,-0.1411109840190861
2023-01-29 15:38:17.576929,-0.11515419185161586
2023-01-29 15:38:17.581929,-0.09605521513994555
2023-01-29 15:38:17.586929,-0.08409380912780756
2023-01-29 15:38:17.591929,-0.07737811649860396
2023-01-29 15:38:17.596929,-0.07356405258178705
2023-01-29 15:38:17.601929,-0.07074752051897759
2023-01-29 15:38:17.606929,-0.06791453063487998
2023-01-29 15:38:17.611929,-0.06503297171659367
2023-01-29 15:38:17.616929,-0.06252944469451904
2023-01-29 15:38:17.621929,-0.06061739034447593
2023-01-29 15:38:17.626929,-0.05918781086802484
2023-01-29 15:38:17.631929,-0.058013037847223184
2023-01-29 15:38:17.636929,-0.05666355416178701
2023-01-29 15:38:17.641929,-0.05443587786057606
2023-01-29 15:38:17.646929,-0.050797663629054995
2023-01-29 15:38:17.651929,-0.045834987677273537
2023-01-29 15:38:17.656929,-0.040003459900617606
2023-01-29 15:38:17.661929,-0.03363443251476619
2023-01-29 15:38:17.666929,-0.026949446648359188
2023-01-29 15:38:17.671929,-0.02025989844916824
2023-01-29 15:38:17.676929,-0.013751189224421837
2023-01-29 15:38:17.681929,-0.007268357332245668
2023-01-29 15:38:17.686929,-0.0006731351604685613
2023-01-29 15:38:17.691929,0.005761882071072842
2023-01-29 15:38:17.696929,0.011587540619075208
2023-01-29 15:38:17.701929,0.016530202739920927
2023-01-29 15:38:17.706929,0.020290216431021562
2023-01-29 15:38:17.711929,0.022306889746464127
2023-01-29 15:38:17.716929,0.022165378555655355
2023-01-29 15:38:17.721929,0.020075689542712015
2023-01-29 15:38:17.726929,0.016636054962873424
2023-01-29 15:38:17.731929,0.012326977343201392
2023-01-29 15:38:17.736929,0.007476608268916562
2023-01-29 15:38:17.741929,0.0023480973169696753
2023-01-29 15:38:17.746929,-0.0031733512878417093
2023-01-29 15:38:17.751929,-0.009734395815529472
2023-01-29 15:38:17.756929,-0.017934244126081404
2023-01-29 15:38:17.761929,-0.027720584041213345
2023-01-29 15:38:17.766929,-0.03858506679534908
2023-01-29 15:38:17.771929,-0.05004153926043177
2023-01-29 15:38:17.776929,-0.06159186363220213
2023-01-29 15:38:17.781929,-0.0725684182930972
2023-01-29 15:38:17.786929,-0.08245905488729476
2023-01-29 15:38:17.791929,-0.09119377041142199
2023-01-29 15:38:17.796929,-0.09878258407115932
2023-01-29 15:38:17.801929,-0.10492479325220141
2023-01-29 15:38:17.806929,-0.10931234061717982
2023-01-29 15:38:17.811929,-0.11204660411132535
2023-01-29 15:38:17.816929,-0.11339922994375229
2023-01-29 15:38:17.821929,-0.11342551297367019
2023-01-29 15:38:17.826929,-0.11217316240072246
2023-01-29 15:38:17.831929,-0.11001175806837722
2023-01-29 15:38:17.836929,-0.10738909244537342
2023-01-29 15:38:17.841929,-0.10450495210197414
2023-01-29 15:38:17.846929,-0.10157128423452366
2023-01-29 15:38:17.851929,-0.09912401489947197
2023-01-29 15:38:17.856929,-0.09767671674489964
2023-01-29 15:38:17.861929,-0.09723923970075742
2023-01-29 15:38:17.866929,-0.09746035188436497
2023-01-29 15:38:17.871929,-0.09798149361120519
2023-01-29 15:38:17.876929,-0.09834985435008997
2023-01-29 15:38:17.881929,-0.09792129432978947
2023-01-29 15:38:17.886929,-0.09630640596151353
2023-01-29 15:38:17.891929,-0.09377258252922845
2023-01-29 15:38:17.896929,-0.09092132747173304
2023-01-29 15:38:17.901929,-0.08818713591681572
2023-01-29 15:38:17.906929,-0.08589684963226303
2023-01-29 15:38:17.911929,-0.08446929443004653
2023-01-29 15:38:17.916929,-0.08414189517498014
2023-01-29 15:38:17.921929,-0.08469853406419543
2023-01-29 15:38:17.926929,-0.08577664941549297
2023-01-29 15:38:17.931929,-0.08720555555867027
2023-01-29 15:38:17.936929,-0.08875767886638641
2023-01-29 15:38:17.941929,-0.08988402313420363
2023-01-29 15:38:17.946929,-0.09010394662618629
2023-01-29 15:38:17.951929,-0.08948599129924148
2023-01-29 15:38:17.956929,-0.08846919238567348
2023-01-29 15:38:17.961929,-0.08745740494459073
2023-01-29 15:38:17.966929,-0.08685847371816625
2023-01-29 15:38:17.971929,-0.0871788640324803
2023-01-29 15:38:17.976929,-0.08863747119903559
2023-01-29 15:38:17.981929,-0.09083138062072725
2023-01-29 15:38:17.986929,-0.09308497607707969
2023-01-29 15:38:17.991929,-0.09497511238939368
2023-01-29 15:38:17.996929,-0.09633044898509953
2023-01-29 15:38:18.001929,-0.09703942480229429
2023-01-29 15:38:18.006929,-0.09717186540365208
2023-01-29 15:38:18.011929,-0.09699425895088215
2023-01-29 15:38:18.016929,-0.09647469222545614
2023-01-29 15:38:18.021929,-0.09493699637079529
2023-01-29 15:38:18.026929,-0.09152233600616451
2023-01-29 15:38:18.031929,-0.08592874662692762
2023-01-29 15:38:18.036929,-0.07866065204143513
2023-01-29 15:38:18.041929,-0.07095582549548592
2023-01-29 15:38:18.046929,-0.06471713632345183
2023-01-29 15:38:18.051929,-0.0620502608236472
2023-01-29 15:38:18.056929,-0.06423632800579065
2023-01-29 15:38:18.061929,-0.07100950347765338
2023-01-29 15:38:18.066929,-0.08084833621978751
2023-01-29 15:38:18.071929,-0.091749833669431
2023-01-29 15:38:18.076929,-0.10173957049846638
2023-01-29 15:38:18.081929,-0.10923773492628906
2023-01-29 15:38:18.086929,-0.11349539458751663
2023-01-29 15:38:18.091929,-0.11468225246949161
2023-01-29 15:38:18.096929,-0.11347135156393058
2023-01-29 15:38:18.101929,-0.11073690688763266
2023-01-29 15:38:18.106929,-0.10760545730590812
2023-01-29 15:38:18.111929,-0.10526309684428928
2023-01-29 15:38:18.116929,-0.10440807044506073
2023-01-29 15:38:18.121929,-0.10511084721200177
2023-01-29 15:38:18.126929,-0.10712464898824692
2023-01-29 15:38:18.131929,-0.10960123476799863
2023-01-29 15:38:18.136929,-0.11010567843914039
2023-01-29 15:38:18.141929,-0.10446126433524011
2023-01-29 15:38:18.146929,-0.0883009061217308
2023-01-29 15:38:18.151929,-0.05921069981319101
2023-01-29 15:38:18.156929,-0.018246769905090204
2023-01-29 15:38:18.161929,0.029105942324435516
2023-01-29 15:38:18.166929,0.07274667918682082
2023-01-29 15:38:18.171929,0.09996073310394632
2023-01-29 15:38:18.176929,0.09996056556701649
2023-01-29 15:38:18.181929,0.06863081231299312
2023-01-29 15:38:18.186929,0.010673999786376958
2023-01-29 15:38:18.191929,-0.06151370531123641
2023-01-29 15:38:18.196929,-0.13142964243888852
2023-01-29 15:38:18.201929,-0.1836683062667017
2023-01-29 15:38:18.206929,-0.20915269851684554
2023-01-29 15:38:18.211929,-0.20770319269398826
2023-01-29 15:38:18.216929,-0.1865065097808837
2023-01-29 15:38:18.221929,-0.15606225833593926
2023-01-29 15:38:18.226929,-0.12626092135906208
2023-01-29 15:38:18.231929,-0.10376031303209711
2023-01-29 15:38:18.236929,-0.09077708423137662
2023-01-29 15:38:18.241929,-0.08565105340323377
2023-01-29 15:38:18.246929,-0.08495926856994616
2023-01-29 15:38:18.251929,-0.08557327537517061
2023-01-29 15:38:18.256929,-0.08536796271800992
2023-01-29 15:38:18.261929,-0.08313609752857594
2023-01-29 15:38:18.266929,-0.07868468761444089
2023-01-29 15:38:18.271929,-0.07280428223323826
2023-01-29 15:38:18.276929,-0.06656825542449948
2023-01-29 15:38:18.281929,-0.060624643828973125
2023-01-29 15:38:18.286929,-0.05524516105651851
2023-01-29 15:38:18.291929,-0.05060730550429367
2023-01-29 15:38:18.296929,-0.046614609658718116
2023-01-29 15:38:18.301929,-0.042755913375660176
2023-01-29 15:38:18.306929,-0.03858506679534914
2023-01-29 15:38:18.311929,-0.03416238992659951
2023-01-29 15:38:18.316929,-0.029738148674368706
2023-01-29 15:38:18.321929,-0.025280398872488476
2023-01-29 15:38:18.326929,-0.02062678337097153
2023-01-29 15:38:18.331929,-0.01579604437568377
2023-01-29 15:38:18.336929,-0.010794202797114783
2023-01-29 15:38:18.341929,-0.005392677193829426
2023-01-29 15:38:18.346929,0.0005288919201119443
2023-01-29 15:38:18.351929,0.0066340000004042705
2023-01-29 15:38:18.356929,0.012404918670654212
2023-01-29 15:38:18.361929,0.01747589978290518
2023-01-29 15:38:18.366929,0.02137204073369489
2023-01-29 15:38:18.371929,0.02322486102548415
2023-01-29 15:38:18.376929,0.022165378555655382
2023-01-29 15:38:18.381929,0.017874269461245346
2023-01-29 15:38:18.386929,0.010553797706961547
2023-01-29 15:38:18.391929,0.0006876383605773269
2023-01-29 15:38:18.396929,-0.010866324417293098
2023-01-29 15:38:18.401929,-0.02290317816637156
2023-01-29 15:38:18.406929,-0.03447413444519052
2023-01-29 15:38:18.411929,-0.0453891074378072
2023-01-29 15:38:18.416929,-0.05591829866170884
2023-01-29 15:38:18.421929,-0.06623154999699554
2023-01-29 15:38:18.426929,-0.07632871717214584
2023-01-29 15:38:18.431929,-0.0861433753065186
2023-01-29 15:38:18.436929,-0.09532074630260458
2023-01-29 15:38:18.441929,-0.10312351192785718
2023-01-29 15:38:18.446929,-0.1089276894927024
2023-01-29 15:38:18.451929,-0.1126977582745723
2023-01-29 15:38:18.456929,-0.1147935837507246
2023-01-29 15:38:18.461929,-0.11559005663774928
2023-01-29 15:38:18.466929,-0.1155388355255127
2023-01-29 15:38:18.471929,-0.11528265678495297
2023-01-29 15:38:18.476929,-0.11532247066497787
2023-01-29 15:38:18.481929,-0.11571574013870001
2023-01-29 15:38:18.486929,-0.1163321733474731
2023-01-29 15:38:18.491929,-0.11717291211913532
2023-01-29 15:38:18.496929,-0.11818329989910112
2023-01-29 15:38:18.501929,-0.11900088194415288
2023-01-29 15:38:18.506929,-0.11919300258159639
2023-01-29 15:38:18.511929,-0.1185830776866375
2023-01-29 15:38:18.516929,-0.11714955419301978
2023-01-29 15:38:18.521929,-0.11486272225149204
2023-01-29 15:38:18.526929,-0.11188467592000964
2023-01-29 15:38:18.531929,-0.10871079322525962
2023-01-29 15:38:18.536929,-0.1058505028486251
2023-01-29 15:38:18.541929,-0.10353732392838769
2023-01-29 15:38:18.546929,-0.10193189233541475
2023-01-29 15:38:18.551929,-0.10134873410757825
2023-01-29 15:38:18.556929,-0.10200401395559311
2023-01-29 15:38:18.561929,-0.1036833315989392
2023-01-29 15:38:18.566929,-0.10582645982503894
2023-01-29 15:38:18.571929,-0.10775365985626108
2023-01-29 15:38:18.576929,-0.10871132463216782
2023-01-29 15:38:18.581929,-0.10807009230885681
2023-01-29 15:38:18.586929,-0.10585050284862509
2023-01-29 15:38:18.591929,-0.10295028314961344
2023-01-29 15:38:18.596929,-0.10060966014862052
2023-01-29 15:38:18.601929,-0.0996421026749507
2023-01-29 15:38:18.606929,-0.10012885183095929
2023-01-29 15:38:18.611929,-0.1015482035722339
2023-01-29 15:38:18.616929,-0.10306179523468015
2023-01-29 15:38:18.621929,-0.10398900290257143
2023-01-29 15:38:18.626929,-0.10433594882488256
2023-01-29 15:38:18.631929,-0.10484221125039918
2023-01-29 15:38:18.636929,-0.10637938976287843
2023-01-29 15:38:18.641929,-0.10926752455151009
2023-01-29 15:38:18.646929,-0.11303862184286113
2023-01-29 15:38:18.651929,-0.11662505108856695
2023-01-29 15:38:18.656929,-0.11878430843353271
2023-01-29 15:38:18.661929,-0.1186083212258675
2023-01-29 15:38:18.666929,-0.11580328643321987
2023-01-29 15:38:18.671929,-0.11056885263365143
2023-01-29 15:38:18.676929,-0.10342240333557118
2023-01-29 15:38:18.681929,-0.09524416954274892
2023-01-29 15:38:18.686929,-0.08721908181905746
2023-01-29 15:38:18.691929,-0.08052159554819366
2023-01-29 15:38:18.696929,-0.0762565955519676
2023-01-29 15:38:18.701929,-0.07565634954099407
2023-01-29 15:38:18.706929,-0.07955014705657945
2023-01-29 15:38:18.711929,-0.08712959979744134
2023-01-29 15:38:18.716929,-0.09592175483703609
2023-01-29 15:38:18.721929,-0.10377333068917001
2023-01-29 15:38:18.726929,-0.11039416491985313
2023-01-29 15:38:18.731929,-0.11621286829154535
2023-01-29 15:38:18.736929,-0.12046714872121807
2023-01-29 15:38:18.741929,-0.12180061305047599
2023-01-29 15:38:18.746929,-0.12051522731781
2023-01-29 15:38:18.751929,-0.11883100927032633
2023-01-29 15:38:18.756929,-0.11878430843353263
2023-01-29 15:38:18.761929,-0.12102063753680863
2023-01-29 15:38:18.766929,-0.12561182677745814
2023-01-29 15:38:18.771929,-0.13236981170638507
2023-01-29 15:38:18.776929,-0.13948321342468256
2023-01-29 15:38:18.781929,-0.14279133433255956
2023-01-29 15:38:18.786929,-0.13719937205314628
2023-01-29 15:38:18.791929,-0.1185135133024706
2023-01-29 15:38:18.796929,-0.08435826003551479
2023-01-29 15:38:18.801929,-0.03547121881125911
2023-01-29 15:38:18.806929,0.022117298096418225
2023-01-29 15:38:18.811929,0.07653879085753539
2023-01-29 15:38:18.816929,0.11315882205963126
2023-01-29 15:38:18.821929,0.11965357330591754
2023-01-29 15:38:18.826929,0.09036839008331288
2023-01-29 15:38:18.831929,0.028968346948572237
2023-01-29 15:38:18.836929,-0.05130251497030243
2023-01-29 15:38:18.841929,-0.13126060854075725
2023-01-29 15:38:18.846929,-0.19282917678356173
2023-01-29 15:38:18.851929,-0.22549697493341378
2023-01-29 15:38:18.856929,-0.2285053431987762
2023-01-29 15:38:18.861929,-0.20894479328103063
2023-01-29 15:38:18.866929,-0.17797212302684776
2023-01-29 15:38:18.871929,-0.14645588082266545
2023-01-29 15:38:18.876929,-0.12121240794658657
2023-01-29 15:38:18.881929,-0.10385092615870796
2023-01-29 15:38:18.886929,-0.09277244657278057
2023-01-29 15:38:18.891929,-0.08591349709855725
2023-01-29 15:38:18.896929,-0.08185803890228273
2023-01-29 15:38:18.901929,-0.07972941163122309
2023-01-29 15:38:18.906929,-0.07916550338268277
2023-01-29 15:38:18.911929,-0.08010335502970947
2023-01-29 15:38:18.916929,-0.08193016052246085
2023-01-29 15:38:18.921929,-0.08313376235810296
2023-01-29 15:38:18.926929,-0.08229076862335195
2023-01-29 15:38:18.931929,-0.07910639515851016
2023-01-29 15:38:18.936929,-0.07416506856679905
2023-01-29 15:38:18.941929,-0.06817422384168616
2023-01-29 15:38:18.946929,-0.06185631081461902
2023-01-29 15:38:18.951929,-0.055925001831295416
2023-01-29 15:38:18.956929,-0.05043705552816382
2023-01-29 15:38:18.961929,-0.044487431949800794
2023-01-29 15:38:18.966929,-0.037118595093488624
2023-01-29 15:38:18.971929,-0.02832115240445897
2023-01-29 15:38:18.976929,-0.01884778402745721
2023-01-29 15:38:18.981929,-0.00953059587848433
2023-01-29 15:38:18.986929,-0.0012020270805805377
2023-01-29 15:38:18.991929,0.005279463997380564
2023-01-29 15:38:18.996929,0.009592175483703648
2023-01-29 15:38:19.001929,0.012262128159713528
2023-01-29 15:38:19.006929,0.013943513855338003
2023-01-29 15:38:19.011929,0.014687549059063722
2023-01-29 15:38:19.016929,0.01428008079528791
2023-01-29 15:38:19.021929,0.012846130783157762
2023-01-29 15:38:19.026929,0.010625919327139816
2023-01-29 15:38:19.031929,0.007514994327804229
2023-01-29 15:38:19.036929,0.0032695136032997426
2023-01-29 15:38:19.041929,-0.002208147931073346
2023-01-29 15:38:19.046929,-0.009207527153193937
2023-01-29 15:38:19.051929,-0.018388439854423552
2023-01-29 15:38:19.056929,-0.030074715614318827
2023-01-29 15:38:19.061929,-0.04363145424494801
2023-01-29 15:38:19.066929,-0.05791366100311275
2023-01-29 15:38:19.071929,-0.07197921768925294
2023-01-29 15:38:19.076929,-0.0850313901901244
2023-01-29 15:38:19.081929,-0.09618498123471257
2023-01-29 15:38:19.086929,-0.10486483573913565
2023-01-29 15:38:19.091929,-0.11114416766901115
2023-01-29 15:38:19.096929,-0.11527439206838593
2023-01-29 15:38:19.101929,-0.11724072825323027
2023-01-29 15:38:19.106929,-0.11719763278961182
2023-01-29 15:38:19.111929,-0.11593882879015234
2023-01-29 15:38:19.116929,-0.11443297564983357
2023-01-29 15:38:19.121929,-0.11316126614567305
2023-01-29 15:38:19.126929,-0.11224528402090078
2023-01-29 15:38:19.131929,-0.11179295573984183
2023-01-29 15:38:19.136929,-0.11166831105947486
2023-01-29 15:38:19.141929,-0.11133723181367879
2023-01-29 15:38:19.146929,-0.11049032211303703
2023-01-29 15:38:19.151929,-0.10957244316238413
2023-01-29 15:38:19.156929,-0.10928829759359354
2023-01-29 15:38:19.161929,-0.10984837151674588
2023-01-29 15:38:19.166929,-0.11099517345428464
2023-01-29 15:38:19.171929,-0.11233542122093185
2023-01-29 15:38:19.176929,-0.11323094367980951
2023-01-29 15:38:19.181929,-0.11281526906569646
2023-01-29 15:38:19.186929,-0.11070668697357157
2023-01-29 15:38:19.191929,-0.10751617929754381
2023-01-29 15:38:19.196929,-0.10428786277770985
2023-01-29 15:38:19.201929,-0.10169202528132593
2023-01-29 15:38:19.206929,-0.1000086516141891
2023-01-29 15:38:19.211929,-0.09940892756671003
2023-01-29 15:38:19.216929,-0.0997682437300682
2023-01-29 15:38:19.221929,-0.10054786684143062
2023-01-29 15:38:19.226929,-0.10133087635040275
2023-01-29 15:38:19.231929,-0.10223034181043389
2023-01-29 15:38:19.236929,-0.1034464463591575
2023-01-29 15:38:19.241929,-0.10477668809314437
2023-01-29 15:38:19.246929,-0.10592262446880346
2023-01-29 15:38:19.251929,-0.10690967426952701
2023-01-29 15:38:19.256929,-0.10782182216644283
2023-01-29 15:38:19.261929,-0.10848250551662164
2023-01-29 15:38:19.266929,-0.10878344625234596
2023-01-29 15:38:19.271929,-0.10898353957140032
2023-01-29 15:38:19.276929,-0.10931234061717979
2023-01-29 15:38:19.281929,-0.10960040924557675
2023-01-29 15:38:19.286929,-0.10957678407430639
2023-01-29 15:38:19.291929,-0.10907065873234849
2023-01-29 15:38:19.296929,-0.10755737870931616
2023-01-29 15:38:19.301929,-0.10402687684159433
2023-01-29 15:38:19.306929,-0.09789308160543436
2023-01-29 15:38:19.311929,-0.08985564098906841
2023-01-29 15:38:19.316929,-0.08161763846874229
2023-01-29 15:38:19.321929,-0.0751283023067623
2023-01-29 15:38:19.326929,-0.07224182784557344
2023-01-29 15:38:19.331929,-0.07426446245674848
2023-01-29 15:38:19.336929,-0.08096854388713826
2023-01-29 15:38:19.341929,-0.09023544875999742
2023-01-29 15:38:19.346929,-0.09923934936523414
2023-01-29 15:38:19.351929,-0.10602802824755544
2023-01-29 15:38:19.356929,-0.11003355681896186
2023-01-29 15:38:19.361929,-0.11180157060574458
2023-01-29 15:38:19.366929,-0.11275013536214815
2023-01-29 15:38:19.371929,-0.11459478551509016
2023-01-29 15:38:19.376929,-0.11815925687551485
2023-01-29 15:38:19.381929,-0.12274727090680844
2023-01-29 15:38:19.386929,-0.12698213756084434
2023-01-29 15:38:19.391929,-0.1300254617491539
2023-01-29 15:38:19.396929,-0.1317662000656127
2023-01-29 15:38:19.401929,-0.13227207870951957
2023-01-29 15:38:19.406929,-0.1313094347715376
2023-01-29 15:38:19.411929,-0.12765376396233805
2023-01-29 15:38:19.416929,-0.11813521385192871
2023-01-29 15:38:19.421929,-0.09788700305102073
2023-01-29 15:38:19.426929,-0.06284197419881812
2023-01-29 15:38:19.431929,-0.01308326617428016
2023-01-29 15:38:19.436929,0.04522025585174555
2023-01-29 15:38:19.441929,0.10013035522709335
2023-01-29 15:38:19.446929,0.13647815585136402
2023-01-29 15:38:19.451929,0.140735871473942
2023-01-29 15:38:19.456929,0.10700444877147663
2023-01-29 15:38:19.461929,0.040723376480336
2023-01-29 15:38:19.466929,-0.04262387752532942
2023-01-29 15:38:19.471929,-0.123012291204791
2023-01-29 15:38:19.476929,-0.18258790671825387
2023-01-29 15:38:19.481929,-0.2111767613581522
2023-01-29 15:38:19.486929,-0.20896038413047782
2023-01-29 15:38:19.491929,-0.18498019056280887
2023-01-29 15:38:19.496929,-0.1520083397626876
2023-01-29 15:38:19.501929,-0.12100609585626595
2023-01-29 15:38:19.506929,-0.09825368970632538
2023-01-29 15:38:19.511929,-0.08530225027788278
2023-01-29 15:38:19.516929,-0.08022328466176978
2023-01-29 15:38:19.521929,-0.07942191315479548
2023-01-29 15:38:19.526929,-0.07967035472393025
2023-01-29 15:38:19.531929,-0.07923616539527616
2023-01-29 15:38:19.536929,-0.07748266309499745
2023-01-29 15:38:19.541929,-0.07410060913329768
2023-01-29 15:38:19.546929,-0.06916463375091543
2023-01-29 15:38:19.551929,-0.06340605978916627
2023-01-29 15:38:19.556929,-0.05774537846446032
2023-01-29 15:38:19.561929,-0.05265832958681013
2023-01-29 15:38:19.566929,-0.04824936389923089
2023-01-29 15:38:19.571929,-0.04450594006028881
2023-01-29 15:38:19.576929,-0.041037201881408636
2023-01-29 15:38:19.581929,-0.0369762665377663
2023-01-29 15:38:19.586929,-0.03170947358012194
2023-01-29 15:38:19.591929,-0.02551143771602949
2023-01-29 15:38:19.596929,-0.019112229347228997
2023-01-29 15:38:19.601929,-0.012938082458168125
2023-01-29 15:38:19.606929,-0.007067918777465886
2023-01-29 15:38:19.611929,-0.001446682183992743
2023-01-29 15:38:19.616929,0.004351337905973039
2023-01-29 15:38:19.621929,0.011157027009552603
2023-01-29 15:38:19.626929,0.019400715827941856
2023-01-29 15:38:19.631929,0.028416742757526703
2023-01-29 15:38:19.636929,0.03685414791107175
2023-01-29 15:38:19.641929,0.043458466515162594
2023-01-29 15:38:19.646929,0.04719158262014367
2023-01-29 15:38:19.651929,0.047167558639639014
2023-01-29 15:38:19.656929,0.04310468956828098
2023-01-29 15:38:19.661929,0.03558508208567722
2023-01-29 15:38:19.666929,0.025410851463675395
2023-01-29 15:38:19.671929,0.012962067276350521
2023-01-29 15:38:19.676929,-0.001466472982428865
2023-01-29 15:38:19.681929,-0.017085930225903295
2023-01-29 15:38:19.686929,-0.03279129788279537
2023-01-29 15:38:19.691929,-0.0475582121995565
2023-01-29 15:38:19.696929,-0.06031771749258042
2023-01-29 15:38:19.701929,-0.06998816938518095
2023-01-29 15:38:19.706929,-0.07628063857555378
2023-01-29 15:38:19.711929,-0.08023175915223203
2023-01-29 15:38:19.716929,-0.08346875756978978
2023-01-29 15:38:19.721929,-0.08713307821754239
2023-01-29 15:38:19.726929,-0.09169062227010723
2023-01-29 15:38:19.731929,-0.09715176605467449
2023-01-29 15:38:19.736929,-0.10289351642131801
2023-01-29 15:38:19.741929,-0.10772511153450659
2023-01-29 15:38:19.746929,-0.11080285161733623
2023-01-29 15:38:19.751929,-0.1122881063936791
2023-01-29 15:38:19.756929,-0.11272609233856197
2023-01-29 15:38:19.761929,-0.11217620373297722
2023-01-29 15:38:19.766929,-0.11039416491985321
2023-01-29 15:38:19.771929,-0.10740886757498337
2023-01-29 15:38:19.776929,-0.10339836776256557
2023-01-29 15:38:19.781929,-0.09846439818868824
2023-01-29 15:38:19.786929,-0.0931330546736717
2023-01-29 15:38:19.791929,-0.08865888893914041
2023-01-29 15:38:19.796929,-0.08616130053997026
2023-01-29 15:38:19.801929,-0.08570601123000296
2023-01-29 15:38:19.806929,-0.08669018745422367
2023-01-29 15:38:19.811929,-0.0886760883841284
2023-01-29 15:38:19.816929,-0.0912819355726242
2023-01-29 15:38:19.821929,-0.09378253934919352
2023-01-29 15:38:19.826929,-0.09558518975973115
2023-01-29 15:38:19.831929,-0.09672328041278588
2023-01-29 15:38:19.836929,-0.09714782238006592
2023-01-29 15:38:19.841929,-0.09596543353330042
2023-01-29 15:38:19.846929,-0.09231567382812504
2023-01-29 15:38:19.851929,-0.08681131450236296
2023-01-29 15:38:19.856929,-0.0812570303678512
2023-01-29 15:38:19.861929,-0.0770709340585031
2023-01-29 15:38:19.866929,-0.07476608455181119
2023-01-29 15:38:19.871929,-0.07473865322324058
2023-01-29 15:38:19.876929,-0.07741054147481907
2023-01-29 15:38:19.881929,-0.08228114597746851
2023-01-29 15:38:19.886929,-0.08765181154012676
2023-01-29 15:38:19.891929,-0.09177281003060533
2023-01-29 15:38:19.896929,-0.09395043551921833
2023-01-29 15:38:19.901929,-0.09445173498688264
2023-01-29 15:38:19.906929,-0.09380619227886185
2023-01-29 15:38:19.911929,-0.09233431413884
2023-01-29 15:38:19.916929,-0.08988758176565166
2023-01-29 15:38:19.921929,-0.08581812867500817
2023-01-29 15:38:19.926929,-0.07952611148357391
2023-01-29 15:38:19.931929,-0.0712917563853489
2023-01-29 15:38:19.936929,-0.06252944469451899
2023-01-29 15:38:19.941929,-0.0552724358234059
2023-01-29 15:38:19.946929,-0.05144675821065895
2023-01-29 15:38:19.951929,-0.05221618251915659
2023-01-29 15:38:19.956929,-0.05740880966186516
2023-01-29 15:38:19.961929,-0.06546831557410879
2023-01-29 15:38:19.966929,-0.07428526878356938
2023-01-29 15:38:19.971929,-0.08225753906330753
2023-01-29 15:38:19.976929,-0.08866151422262188
2023-01-29 15:38:19.981929,-0.09343231920492083
2023-01-29 15:38:19.986929,-0.09697954356670362
2023-01-29 15:38:19.991929,-0.10000128980581735
2023-01-29 15:38:19.996929,-0.10301371663808817
2023-01-29 15:38:20.001929,-0.10602872156358936
2023-01-29 15:38:20.006929,-0.10885556787252423
2023-01-29 15:38:20.011929,-0.11150561412493419
2023-01-29 15:38:20.016929,-0.11397620290517796
2023-01-29 15:38:20.021929,-0.11570030335097757
2023-01-29 15:38:20.026929,-0.1152984350919722
2023-01-29 15:38:20.031929,-0.11051333201204885
2023-01-29 15:38:20.036929,-0.09815752506256095
2023-01-29 15:38:20.041929,-0.07481534371157691
2023-01-29 15:38:20.046929,-0.03887355327606206
2023-01-29 15:38:20.051929,0.007109731338900407
2023-01-29 15:38:20.056929,0.055389404296875014
2023-01-29 15:38:20.061929,0.0941116861566202
2023-01-29 15:38:20.066929,0.11034607887268057
2023-01-29 15:38:20.071929,0.0946496651011047
2023-01-29 15:38:20.076929,0.04572510719299309
2023-01-29 15:38:20.081929,-0.02753317681329719
2023-01-29 15:38:20.086929,-0.10842283815145493
2023-01-29 15:38:20.091929,-0.1781661177280301
2023-01-29 15:38:20.096929,-0.22211055457591994
2023-01-29 15:38:20.101929,-0.23406530907681755
2023-01-29 15:38:20.106929,-0.21749477088451377
2023-01-29 15:38:20.111929,-0.18303121753784005
2023-01-29 15:38:20.116929,-0.14335374534130088
2023-01-29 15:38:20.121929,-0.10831271866645621
2023-01-29 15:38:20.126929,-0.08277158439159402
2023-01-29 15:38:20.131929,-0.06713573315619588
2023-01-29 15:38:20.136929,-0.05904356762766834
2023-01-29 15:38:20.141929,-0.05525934540387918
2023-01-29 15:38:20.146929,-0.05332192033529283
2023-01-29 15:38:20.151929,-0.052180944883584914
2023-01-29 15:38:20.156929,-0.051542919129133224
2023-01-29 15:38:20.161929,-0.05098994397700711
2023-01-29 15:38:20.166929,-0.049932204186916275
2023-01-29 15:38:20.171929,-0.04799498226107106
2023-01-29 15:38:20.176929,-0.04500389099121083
2023-01-29 15:38:20.181929,-0.04080676441109362
2023-01-29 15:38:20.186929,-0.03548383712768542
2023-01-29 15:38:20.191929,-0.029533511708793942
2023-01-29 15:38:20.196929,-0.023487608879804677
2023-01-29 15:38:20.201929,-0.017479181335898337
2023-01-29 15:38:20.206929,-0.011419257149100285
2023-01-29 15:38:20.211929,-0.0053211424937744025
2023-01-29 15:38:20.216929,0.0008654594421385771
2023-01-29 15:38:20.221929,0.007461505681575621
2023-01-29 15:38:20.226929,0.014712810516357403
2023-01-29 15:38:20.231929,0.02241074626871665
2023-01-29 15:38:20.236929,0.030146837234496956
2023-01-29 15:38:20.241929,0.03772294112101438
2023-01-29 15:38:20.246929,0.045027934014797134
2023-01-29 15:38:20.251929,0.05177084688221841
2023-01-29 15:38:20.256929,0.05764921754598608
2023-01-29 15:38:20.261929,0.06251317364719948
2023-01-29 15:38:20.266929,0.06601532548666003
2023-01-29 15:38:20.271929,0.06734060727503154
2023-01-29 15:38:20.276929,0.06565471738576874
2023-01-29 15:38:20.281929,0.06067720354305436
2023-01-29 15:38:20.286929,0.052600704133510354
2023-01-29 15:38:20.291929,0.04175660229885502
2023-01-29 15:38:20.296929,0.02868036553263668
2023-01-29 15:38:20.301929,0.014198596417484614
2023-01-29 15:38:20.306929,-0.0009616216411813524
2023-01-29 15:38:20.311929,-0.016479744384331547
2023-01-29 15:38:20.316929,-0.03207008168101306
2023-01-29 15:38:20.321929,-0.04703581904812111
2023-01-29 15:38:20.326929,-0.06048600003123289
2023-01-29 15:38:20.331929,-0.07176261393568303
2023-01-29 15:38:20.336929,-0.08041560649871816
2023-01-29 15:38:20.341929,-0.08612863613959673
2023-01-29 15:38:20.346929,-0.08909424394369125
2023-01-29 15:38:20.351929,-0.09024101759640359
2023-01-29 15:38:20.356929,-0.09070496261119844
2023-01-29 15:38:20.361929,-0.0911879365790651
2023-01-29 15:38:20.366929,-0.09197910875082012
2023-01-29 15:38:20.371929,-0.09318886319779426
2023-01-29 15:38:20.376929,-0.09455144405364979
2023-01-29 15:38:20.381929,-0.09529012865498028
2023-01-29 15:38:20.386929,-0.09464760869741425
2023-01-29 15:38:20.391929,-0.09247491515527864
2023-01-29 15:38:20.396929,-0.08911828696727743
2023-01-29 15:38:20.401929,-0.08506040519778171
2023-01-29 15:38:20.406929,-0.08099257946014399
2023-01-29 15:38:20.411929,-0.07787374061810143
2023-01-29 15:38:20.416929,-0.07640083879232393
2023-01-29 15:38:20.421929,-0.0764953027802973
2023-01-29 15:38:20.426929,-0.07755478471517555
2023-01-29 15:38:20.431929,-0.07898394940143291
2023-01-29 15:38:20.436929,-0.080247327685356
2023-01-29 15:38:20.441929,-0.08078230876343909
2023-01-29 15:38:20.446929,-0.08031944930553435
2023-01-29 15:38:20.451929,-0.0791247147978884
2023-01-29 15:38:20.456929,-0.07760286331176744
2023-01-29 15:38:20.461929,-0.07584103977813564
2023-01-29 15:38:20.466929,-0.07378041744232171
2023-01-29 15:38:20.471929,-0.07154343571025182
2023-01-29 15:38:20.476929,-0.06928484141826624
2023-01-29 15:38:20.481929,-0.06700971464240786
2023-01-29 15:38:20.486929,-0.06486137956380848
2023-01-29 15:38:20.491929,-0.06327679708405869
2023-01-29 15:38:20.496929,-0.062457323074340744
2023-01-29 15:38:20.501929,-0.06190321466572851
2023-01-29 15:38:20.506929,-0.060822568833827854
2023-01-29 15:38:20.511929,-0.05883242051662404
2023-01-29 15:38:20.516929,-0.056062541902065256
2023-01-29 15:38:20.521929,-0.05295268138126431
2023-01-29 15:38:20.526929,-0.050316851586103425
2023-01-29 15:38:20.531929,-0.04924709822268503
2023-01-29 15:38:20.536929,-0.05041301250457756
2023-01-29 15:38:20.541929,-0.05350883806394753
2023-01-29 15:38:20.546929,-0.05762517452239993
2023-01-29 15:38:20.551929,-0.06194660904394195
2023-01-29 15:38:20.556929,-0.0658951252698898
2023-01-29 15:38:20.561929,-0.06904019592137305
2023-01-29 15:38:20.566929,-0.0713763684034348
2023-01-29 15:38:20.571929,-0.07350675416974004
2023-01-29 15:38:20.576929,-0.07616043090820299
2023-01-29 15:38:20.581929,-0.07964283451276488
2023-01-29 15:38:20.586929,-0.08394956588745119
2023-01-29 15:38:20.591929,-0.08905497149933607
2023-01-29 15:38:20.596929,-0.09467165172100063
2023-01-29 15:38:20.601929,-0.09991579264201762
2023-01-29 15:38:20.606929,-0.10349452495574958
2023-01-29 15:38:20.611929,-0.1039350607461381
2023-01-29 15:38:20.616929,-0.09931147098541245
2023-01-29 15:38:20.621929,-0.08717286336841215
2023-01-29 15:38:20.626929,-0.06553451716899861
2023-01-29 15:38:20.631929,-0.03444734841760635
2023-01-29 15:38:20.636929,0.002884864807128887
2023-01-29 15:38:20.641929,0.03971830391493895
2023-01-29 15:38:20.646929,0.06630381196737274
2023-01-29 15:38:20.651929,0.07217351972528817
2023-01-29 15:38:20.656929,0.05019664764404298
2023-01-29 15:38:20.661929,0.0003837768751522124
2023-01-29 15:38:20.666929,-0.06894826889038078
2023-01-29 15:38:20.671929,-0.1431876899339259
2023-01-29 15:38:20.676929,-0.20564278960227958
2023-01-29 15:38:20.681929,-0.24276327047018723
2023-01-29 15:38:20.686929,-0.24867534637451164
2023-01-29 15:38:20.691929,-0.2267246489867097
2023-01-29 15:38:20.696929,-0.1870594471693038
2023-01-29 15:38:20.701929,-0.14201170796182339
2023-01-29 15:38:20.706929,-0.10195593535900112
2023-01-29 15:38:20.711929,-0.07286889377268291
2023-01-29 15:38:20.716929,-0.05565385147929193
2023-01-29 15:38:20.721929,-0.04733251247428026
2023-01-29 15:38:20.726929,-0.04363358020782476
2023-01-29 15:38:20.731929,-0.04128188902338779
2023-01-29 15:38:20.736929,-0.038657188415527226
2023-01-29 15:38:20.741929,-0.035346880506663306
2023-01-29 15:38:20.746929,-0.03170947358012184
2023-01-29 15:38:20.751929,-0.028460229389178977
2023-01-29 15:38:20.756929,-0.02596378326416006
2023-01-29 15:38:20.761929,-0.023848068341066484
2023-01-29 15:38:20.766929,-0.021492242813110435
2023-01-29 15:38:20.771929,-0.018649472205018346
2023-01-29 15:38:20.776929,-0.015337864868342828
2023-01-29 15:38:20.781929,-0.011446023289919812
2023-01-29 15:38:20.786929,-0.006803472992032785
2023-01-29 15:38:20.791929,-0.0013653093906532186
2023-01-29 15:38:20.796929,0.005024473182856998
2023-01-29 15:38:20.801929,0.012769450434186182
2023-01-29 15:38:20.806929,0.02202113531529892
2023-01-29 15:38:20.811929,0.03223941134261107
2023-01-29 15:38:20.816929,0.04257579892873751
2023-01-29 15:38:20.821929,0.05249593470017047
2023-01-29 15:38:20.826929,0.061784189194440786
2023-01-29 15:38:20.831929,0.07026542750451725
2023-01-29 15:38:20.836929,0.07786731421947447
2023-01-29 15:38:20.841929,0.08464026442280215
2023-01-29 15:38:20.846929,0.09029626846313463
2023-01-29 15:38:20.851929,0.0939459163403701
2023-01-29 15:38:20.856929,0.09467165172100056
2023-01-29 15:38:20.861929,0.0922127147210003
2023-01-29 15:38:20.866929,0.0868584737181663
2023-01-29 15:38:20.871929,0.07897243722710118
2023-01-29 15:38:20.876929,0.06892423331737513
2023-01-29 15:38:20.881929,0.05714737338345232
2023-01-29 15:38:20.886929,0.04384994506835918
2023-01-29 15:38:20.891929,0.02890786369194122
2023-01-29 15:38:20.896929,0.012428959831595515
2023-01-29 15:38:20.901929,-0.004756329263983066
2023-01-29 15:38:20.906929,-0.021444162353873177
2023-01-29 15:38:20.911929,-0.03665276976660766
2023-01-29 15:38:20.916929,-0.04964371770620337
2023-01-29 15:38:20.921929,-0.0597709357975963
2023-01-29 15:38:20.926929,-0.06678462028503411
2023-01-29 15:38:20.931929,-0.07109811758189974
2023-01-29 15:38:20.936929,-0.07341980934143064
2023-01-29 15:38:20.941929,-0.07432325476676402
2023-01-29 15:38:20.946929,-0.0744054764509201
2023-01-29 15:38:20.951929,-0.07446419328676146
2023-01-29 15:38:20.956929,-0.07505457103252407
2023-01-29 15:38:20.961929,-0.07606155790257428
2023-01-29 15:38:20.966929,-0.07702589035034177
2023-01-29 15:38:20.971929,-0.07764613579424576
2023-01-29 15:38:20.976929,-0.07769902795553199
2023-01-29 15:38:20.981929,-0.0768754741985585
2023-01-29 15:38:20.986929,-0.07517477124929425
2023-01-29 15:38:20.991929,-0.07322767241039806
2023-01-29 15:38:20.996929,-0.07180909812450409
2023-01-29 15:38:21.001929,-0.07119081633123309
2023-01-29 15:38:21.006929,-0.07123212516307832
2023-01-29 15:38:21.011929,-0.07175528318970073
2023-01-29 15:38:21.016929,-0.0724101066589355
2023-01-29 15:38:21.021929,-0.07245670589302956
2023-01-29 15:38:21.026929,-0.07118403911590573
2023-01-29 15:38:21.031929,-0.0684642054462141
2023-01-29 15:38:21.036929,-0.06464501470327373
2023-01-29 15:38:21.041929,-0.06017017447323228
2023-01-29 15:38:21.046929,-0.05562981218099593
2023-01-29 15:38:21.051929,-0.051850479339545036
2023-01-29 15:38:21.056929,-0.04942735284566866
2023-01-29 15:38:21.061929,-0.04823704588906384
2023-01-29 15:38:21.066929,-0.04764835163950917
2023-01-29 15:38:21.071929,-0.0469668879904133
2023-01-29 15:38:21.076929,-0.04543662071228026
2023-01-29 15:38:21.081929,-0.04225851890038399
2023-01-29 15:38:21.086929,-0.03721475601196277
2023-01-29 15:38:21.091929,-0.03123728792058699
2023-01-29 15:38:21.096929,-0.026059946045279378
2023-01-29 15:38:21.101929,-0.02339449653777017
2023-01-29 15:38:21.106929,-0.024473270401358556
2023-01-29 15:38:21.111929,-0.029776907899684107
2023-01-29 15:38:21.116929,-0.038561027497053174
2023-01-29 15:38:21.121929,-0.0488013941801723
2023-01-29 15:38:21.126929,-0.058130025863647475
2023-01-29 15:38:21.131929,-0.06496550766122444
2023-01-29 15:38:21.136929,-0.06880402565002436
2023-01-29 15:38:21.141929,-0.06995094443292504
2023-01-29 15:38:21.146929,-0.06940504163503644
2023-01-29 15:38:21.151929,-0.06862942128702902
2023-01-29 15:38:21.156929,-0.06880402565002457
2023-01-29 15:38:21.161929,-0.07023416330776572
2023-01-29 15:38:21.166929,-0.0726024359464646
2023-01-29 15:38:21.171929,-0.07541525947118802
2023-01-29 15:38:21.176929,-0.07777114957571016
2023-01-29 15:38:21.181929,-0.07790161027114759
2023-01-29 15:38:21.186929,-0.07337173074483867
2023-01-29 15:38:21.191929,-0.06179670101766343
2023-01-29 15:38:21.196929,-0.04161417484283447
2023-01-29 15:38:21.201929,-0.013226248812734506
2023-01-29 15:38:21.206929,0.01947283744812004
2023-01-29 15:38:21.211929,0.04859785889973563
2023-01-29 15:38:21.216929,0.06414016336202626
2023-01-29 15:38:21.221929,0.05754867200157114
2023-01-29 15:38:21.226929,0.025194486603140755
2023-01-29 15:38:21.231929,-0.029488340880947872
2023-01-29 15:38:21.236929,-0.09589771926403035
2023-01-29 15:38:21.241929,-0.1589774923033426
2023-01-29 15:38:21.246929,-0.2043446004390717
2023-01-29 15:38:21.251929,-0.22330838720317084
2023-01-29 15:38:21.256929,-0.2151147574186325
2023-01-29 15:38:21.261929,-0.18598335689283196
2023-01-29 15:38:21.266929,-0.1461905241012573
2023-01-29 15:38:21.271929,-0.10634961125396826
2023-01-29 15:38:21.276929,-0.07397274672985071
2023-01-29 15:38:21.281929,-0.051851173526003734
2023-01-29 15:38:21.286929,-0.038945674896240234
2023-01-29 15:38:21.291929,-0.0324949529761379
2023-01-29 15:38:21.296929,-0.029593905434012413
2023-01-29 15:38:21.301929,-0.02796992453233315
2023-01-29 15:38:21.306929,-0.026468634605407694
2023-01-29 15:38:21.311929,-0.025053045036336583
2023-01-29 15:38:21.316929,-0.024040540680289307
2023-01-29 15:38:21.321929,-0.02334403681849229
2023-01-29 15:38:21.326929,-0.022525986656546593
2023-01-29 15:38:21.331929,-0.021197256655675952
2023-01-29 15:38:21.336929,-0.018992027267813683
2023-01-29 15:38:21.341929,-0.01544298679872753
2023-01-29 15:38:21.346929,-0.01031339168548582
2023-01-29 15:38:21.351929,-0.0038946646981731685
2023-01-29 15:38:21.356929,0.0033416352234778893
2023-01-29 15:38:21.361929,0.011193758019676162
2023-01-29 15:38:21.366929,0.019569000229239217
2023-01-29 15:38:21.371929,0.02816997832996615
2023-01-29 15:38:21.376929,0.03670990467071529
2023-01-29 15:38:21.381929,0.045227814034375514
2023-01-29 15:38:21.386929,0.05387485027313228
2023-01-29 15:38:21.391929,0.06261935742889584
2023-01-29 15:38:21.396929,0.07144849002361284
2023-01-29 15:38:21.401929,0.08053224159831839
2023-01-29 15:38:21.406929,0.08974333852529505
2023-01-29 15:38:21.411929,0.09816701353346545
2023-01-29 15:38:21.416929,0.10440807044506065
2023-01-29 15:38:21.421929,0.10723888947657896
2023-01-29 15:38:21.426929,0.10580241680145258
2023-01-29 15:38:21.431929,0.0996487931412432
2023-01-29 15:38:21.436929,0.0890942439436911
2023-01-29 15:38:21.441929,0.07535947102676148
2023-01-29 15:38:21.446929,0.059909027069806935
2023-01-29 15:38:21.451929,0.04367668757529613
2023-01-29 15:38:21.456929,0.02706964872777462
2023-01-29 15:38:21.461929,0.010389124097242623
2023-01-29 15:38:21.466929,-0.006082256790250615
2023-01-29 15:38:21.471929,-0.02208934062695823
2023-01-29 15:38:21.476929,-0.03707051277160648
2023-01-29 15:38:21.481929,-0.05000923960041723
2023-01-29 15:38:21.486929,-0.06000518798828123
2023-01-29 15:38:21.491929,-0.06689772585202614
2023-01-29 15:38:21.496929,-0.07113596051931385
2023-01-29 15:38:21.501929,-0.07331751223600921
2023-01-29 15:38:21.506929,-0.07411698997020717
2023-01-29 15:38:21.511929,-0.0743012246531724
2023-01-29 15:38:21.516929,-0.07435739040374748
2023-01-29 15:38:21.521929,-0.07425279503184358
2023-01-29 15:38:21.526929,-0.0738525390625
2023-01-29 15:38:21.531929,-0.07335771148426225
2023-01-29 15:38:21.536929,-0.07305920124053945
2023-01-29 15:38:21.541929,-0.07293574362161204
2023-01-29 15:38:21.546929,-0.0728188008069991
2023-01-29 15:38:21.551929,-0.07269984457876853
2023-01-29 15:38:21.556929,-0.07255434989929191
2023-01-29 15:38:21.561929,-0.07212226053160369
2023-01-29 15:38:21.566929,-0.07120808213949203
2023-01-29 15:38:21.571929,-0.0699905158895503
2023-01-29 15:38:21.576929,-0.06875594705343242
2023-01-29 15:38:21.581929,-0.06757650221745519
2023-01-29 15:38:21.586929,-0.06652017682790747
2023-01-29 15:38:21.591929,-0.06586814782817406
2023-01-29 15:38:21.596929,-0.06577491760253898
2023-01-29 15:38:21.601929,-0.06593940786602748
2023-01-29 15:38:21.606929,-0.06587108224630356
2023-01-29 15:38:21.611929,-0.06518090206811321
2023-01-29 15:38:21.616929,-0.06334682554006561
2023-01-29 15:38:21.621929,-0.059603515860549634
2023-01-29 15:38:21.626929,-0.05353828519582729
2023-01-29 15:38:21.631929,-0.04563734269189757
2023-01-29 15:38:21.636929,-0.036998391151428243
2023-01-29 15:38:21.641929,-0.028807094385374134
2023-01-29 15:38:21.646929,-0.022333662956953142
2023-01-29 15:38:21.651929,-0.018932598903127616
2023-01-29 15:38:21.656929,-0.01942475698888302
2023-01-29 15:38:21.661929,-0.023549350491423447
2023-01-29 15:38:21.666929,-0.030291080474853495
2023-01-29 15:38:21.671929,-0.038522487169445105
2023-01-29 15:38:21.676929,-0.04714350029826162
2023-01-29 15:38:21.681929,-0.05510115329389178
2023-01-29 15:38:21.686929,-0.06183227151632294
2023-01-29 15:38:21.691929,-0.06750115372244407
2023-01-29 15:38:21.696929,-0.07241010665893535
2023-01-29 15:38:21.701929,-0.07636172838734735
2023-01-29 15:38:21.706929,-0.07890105247497539
2023-01-29 15:38:21.711929,-0.07992234097911845
2023-01-29 15:38:21.716929,-0.07974247634410839
2023-01-29 15:38:21.721929,-0.0789087686306478
2023-01-29 15:38:21.726929,-0.07825195789337135
2023-01-29 15:38:21.731929,-0.07862337341307163
2023-01-29 15:38:21.736929,-0.0798145979642867
2023-01-29 15:38:21.741929,-0.07961959654719393
2023-01-29 15:38:21.746929,-0.07423719018697719
2023-01-29 15:38:21.751929,-0.059763422120312645
2023-01-29 15:38:21.756929,-0.03389716148376476
2023-01-29 15:38:21.761929,0.002301812186880587
2023-01-29 15:38:21.766929,0.04293640702962868
2023-01-29 15:38:21.771929,0.07756909028567842
2023-01-29 15:38:21.776929,0.0943110436201096
2023-01-29 15:38:21.781929,0.0844314073254418
2023-01-29 15:38:21.786929,0.0460857152938842
2023-01-29 15:38:21.791929,-0.014242586715014681
2023-01-29 15:38:21.796929,-0.08303602784872056
2023-01-29 15:38:21.801929,-0.1439177909909468
2023-01-29 15:38:21.806929,-0.18352548778057082
2023-01-29 15:38:21.811929,-0.1960869757978705
2023-01-29 15:38:21.816929,-0.18424670398235304
2023-01-29 15:38:21.821929,-0.15651642349689207
2023-01-29 15:38:21.826929,-0.123424135148525
2023-01-29 15:38:21.831929,-0.0938684768882634
2023-01-29 15:38:21.836929,-0.07260243594646439
2023-01-29 15:38:21.841929,-0.05987534699489796
2023-01-29 15:38:21.846929,-0.05327383801341045
2023-01-29 15:38:21.851929,-0.050019168043364856
2023-01-29 15:38:21.856929,-0.04805704206228233
2023-01-29 15:38:21.861929,-0.04617167135476218
2023-01-29 15:38:21.866929,-0.044042270630597874
2023-01-29 15:38:21.871929,-0.04208492471249485
2023-01-29 15:38:21.876929,-0.040700636804103775
2023-01-29 15:38:21.881929,-0.039661603529279395
2023-01-29 15:38:21.886929,-0.03836870193481445
2023-01-29 15:38:21.891929,-0.03634875793582534
2023-01-29 15:38:21.896929,-0.03319998830556851
2023-01-29 15:38:21.901929,-0.028482809856921865
2023-01-29 15:38:21.906929,-0.022165378555655212
2023-01-29 15:38:21.911929,-0.014930973253675423
2023-01-29 15:38:21.916929,-0.007620851509273014
2023-01-29 15:38:21.921929,-0.0005570169495299524
2023-01-29 15:38:21.926929,0.006322662346064968
2023-01-29 15:38:21.931929,0.013027774905362737
2023-01-29 15:38:21.936929,0.019593041390180473
2023-01-29 15:38:21.941929,0.026225905164671076
2023-01-29 15:38:21.946929,0.032911501824855804
2023-01-29 15:38:21.951929,0.03912784033912404
2023-01-29 15:38:21.956929,0.044354796409606934
2023-01-29 15:38:21.961929,0.04860969487967039
2023-01-29 15:38:21.966929,0.05211989209055889
2023-01-29 15:38:21.971929,0.054762060599983405
2023-01-29 15:38:21.976929,0.056182742118835526
2023-01-29 15:38:21.981929,0.056126898299786676
2023-01-29 15:38:21.986929,0.054235458374023514
2023-01-29 15:38:21.991929,0.04986481242789978
2023-01-29 15:38:21.996929,0.0425998382270335
2023-01-29 15:38:22.001929,0.03274289755761625
2023-01-29 15:38:22.006929,0.020963352173566856
2023-01-29 15:38:22.011929,0.007785051769803848
2023-01-29 15:38:22.016929,-0.006226500030606833
2023-01-29 15:38:22.021929,-0.020186473282166502
2023-01-29 15:38:22.026929,-0.03332018852233868
2023-01-29 15:38:22.031929,-0.04542524510980911
2023-01-29 15:38:22.036929,-0.05651931092143051
2023-01-29 15:38:22.041929,-0.0663431448038951
2023-01-29 15:38:22.046929,-0.07459779828786846
2023-01-29 15:38:22.051929,-0.08129123102267613
2023-01-29 15:38:22.056929,-0.08637766540050504
2023-01-29 15:38:22.061929,-0.08939484592109215
2023-01-29 15:38:22.066929,-0.08995970338582993
2023-01-29 15:38:22.071929,-0.0883676196121917
2023-01-29 15:38:22.076929,-0.08531987667083747
2023-01-29 15:38:22.081929,-0.08143159954002921
2023-01-29 15:38:22.086929,-0.07743458449840541
2023-01-29 15:38:22.091929,-0.0743986183053416
2023-01-29 15:38:22.096929,-0.07310728728771197
2023-01-29 15:38:22.101929,-0.07342055845320732
2023-01-29 15:38:22.106929,-0.07466991990804674
2023-01-29 15:38:22.111929,-0.07633447215698995
2023-01-29 15:38:22.116929,-0.07791539281606669
2023-01-29 15:38:22.121929,-0.07867832549195762
2023-01-29 15:38:22.126929,-0.07822792232036593
2023-01-29 15:38:22.131929,-0.07706251955074382
2023-01-29 15:38:22.136929,-0.075992152094841
2023-01-29 15:38:22.141929,-0.07529940811122196
2023-01-29 15:38:22.146929,-0.07493436336517326
2023-01-29 15:38:22.151929,-0.07500690678700078
2023-01-29 15:38:22.156929,-0.07536709308624259
2023-01-29 15:38:22.161929,-0.07514320377236129
2023-01-29 15:38:22.166929,-0.0735400170087814
2023-01-29 15:38:22.171929,-0.07081277353711508
2023-01-29 15:38:22.176929,-0.06767412275075906
2023-01-29 15:38:22.181929,-0.06408013574076799
2023-01-29 15:38:22.186929,-0.05952437967061979
2023-01-29 15:38:22.191929,-0.05426644892506319
2023-01-29 15:38:22.196929,-0.049186944961547734
2023-01-29 15:38:22.201929,-0.04446893613526023
2023-01-29 15:38:22.206929,-0.03957073017954832
2023-01-29 15:38:22.211929,-0.0348146488149839
2023-01-29 15:38:22.216929,-0.032070081681013114
2023-01-29 15:38:22.221929,-0.03333510450281338
2023-01-29 15:38:22.226929,-0.03911396116018287
2023-01-29 15:38:22.231929,-0.04835290172219591
2023-01-29 15:38:22.236929,-0.059259932488203
2023-01-29 15:38:22.241929,-0.06981474243620155
2023-01-29 15:38:22.246929,-0.07815580070018768
2023-01-29 15:38:22.251929,-0.08325696404771474
2023-01-29 15:38:22.256929,-0.08531987667083739
2023-01-29 15:38:22.261929,-0.08537954561089799
2023-01-29 15:38:22.266929,-0.08462270349264142
2023-01-29 15:38:22.271929,-0.08399947135748159
2023-01-29 15:38:22.276929,-0.08404573053121561
2023-01-29 15:38:22.281929,-0.0848245026180032
2023-01-29 15:38:22.286929,-0.08618533611297602
2023-01-29 15:38:22.291929,-0.08812213992709879
2023-01-29 15:38:22.296929,-0.09060879796743389
2023-01-29 15:38:22.301929,-0.09288229877403802
2023-01-29 15:38:22.306929,-0.09284456819295875
2023-01-29 15:38:22.311929,-0.08705808924497946
2023-01-29 15:38:22.316929,-0.07144849002361285
2023-01-29 15:38:22.321929,-0.042932762679282116
2023-01-29 15:38:22.326929,-0.0018270810833200337
2023-01-29 15:38:22.331929,0.04626087197588882
2023-01-29 15:38:22.336929,0.09070496261119847
2023-01-29 15:38:22.341929,0.1186871495688083
2023-01-29 15:38:22.346929,0.11952956765890124
2023-01-29 15:38:22.351929,0.08900737104311164
2023-01-29 15:38:22.356929,0.031949877738952616
2023-01-29 15:38:22.361929,-0.03855150759565936
2023-01-29 15:38:22.366929,-0.10563413798809047
2023-01-29 15:38:22.371929,-0.15475317487662543
2023-01-29 15:38:22.376929,-0.17828464508056632
2023-01-29 15:38:22.381929,-0.17693451408485703
2023-01-29 15:38:22.386929,-0.15806655585765825
2023-01-29 15:38:22.391929,-0.13192737163105314
2023-01-29 15:38:22.396929,-0.10736505687236782
2023-01-29 15:38:22.401929,-0.08912111384167136
2023-01-29 15:38:22.406929,-0.0778192281723023
2023-01-29 15:38:22.411929,-0.07170326530220142
2023-01-29 15:38:22.416929,-0.06837129592895498
2023-01-29 15:38:22.421929,-0.06582941817626754
2023-01-29 15:38:22.426929,-0.06305833905935294
2023-01-29 15:38:22.431929,-0.05999453852713258
2023-01-29 15:38:22.436929,-0.05685587972402574
2023-01-29 15:38:22.441929,-0.053541644644551654
2023-01-29 15:38:22.446929,-0.04978796094655999
2023-01-29 15:38:22.451929,-0.04561971284959578
2023-01-29 15:38:22.456929,-0.04134973138570776
2023-01-29 15:38:22.461929,-0.037350324447803764
2023-01-29 15:38:22.466929,-0.03411352634429929
2023-01-29 15:38:22.471929,-0.03224952953528888
2023-01-29 15:38:22.476929,-0.03194987773895267
2023-01-29 15:38:22.481929,-0.03247344926591269
2023-01-29 15:38:22.486929,-0.03240665048360822
2023-01-29 15:38:22.491929,-0.030343155338405207
2023-01-29 15:38:22.496929,-0.025242567062377905
2023-01-29 15:38:22.501929,-0.016607424736505453
2023-01-29 15:38:22.506929,-0.00485618924722066
2023-01-29 15:38:22.511929,0.00857965710239434
2023-01-29 15:38:22.516929,0.021924972534179556
2023-01-29 15:38:22.521929,0.033852786886469484
2023-01-29 15:38:22.526929,0.04356145858764628
2023-01-29 15:38:22.531929,0.05046023352616917
2023-01-29 15:38:22.536929,0.05416333675384516
2023-01-29 15:38:22.541929,0.05456389931224777
2023-01-29 15:38:22.546929,0.051542919129133204
2023-01-29 15:38:22.551929,0.04479820981071928
2023-01-29 15:38:22.556929,0.03432989120483381
2023-01-29 15:38:22.561929,0.020968880303252894
2023-01-29 15:38:22.566929,0.006154378410428611
2023-01-29 15:38:22.571929,-0.008654478612217237
2023-01-29 15:38:22.576929,-0.02221345901489246
2023-01-29 15:38:22.581929,-0.033626753618431565
2023-01-29 15:38:22.586929,-0.042792163789272364
2023-01-29 15:38:22.591929,-0.05057088011520929
2023-01-29 15:38:22.596929,-0.05810598656535138
