2023-01-30 09:24:50.013102,-0.09546498954296109
2023-01-30 09:24:50.018102,-0.07989034970969389
2023-01-30 09:24:50.023102,-0.08483906835317613
2023-01-30 09:24:50.028102,-0.08874368171792255
2023-01-30 09:24:50.033102,-0.08563240617513652
2023-01-30 09:24:50.038102,-0.08737385889470602
2023-01-30 09:24:50.043102,-0.09837388992309572
2023-01-30 09:24:50.048102,-0.10864346652745602
2023-01-30 09:24:50.053102,-0.11186063289642328
2023-01-30 09:24:50.058102,-0.1132100084118631
2023-01-30 09:24:50.063102,-0.11652450263500208
2023-01-30 09:24:50.068102,-0.11750748586042603
2023-01-30 09:24:50.073102,-0.11373579502105713
2023-01-30 09:24:50.078102,-0.11020157888383085
2023-01-30 09:24:50.083102,-0.11051436513662324
2023-01-30 09:24:50.088102,-0.11152293173748451
2023-01-30 09:24:50.093102,-0.11051436513662323
2023-01-30 09:24:50.098102,-0.10975649259362562
2023-01-30 09:24:50.103102,-0.10988931357860557
2023-01-30 09:24:50.108102,-0.10561003095487319
2023-01-30 09:24:50.113102,-0.09195506572723383
2023-01-30 09:24:50.118102,-0.0697278271864105
2023-01-30 09:24:50.123102,-0.04228731244802468
2023-01-30 09:24:50.128102,-0.012995578955461955
2023-01-30 09:24:50.133102,0.010938446037471261
2023-01-30 09:24:50.138102,0.017814123888848364
2023-01-30 09:24:50.143102,-0.0005769729614256865
2023-01-30 09:24:50.148102,-0.04250490246227579
2023-01-30 09:24:50.153102,-0.09895086288452139
2023-01-30 09:24:50.158102,-0.15839746898211365
2023-01-30 09:24:50.163102,-0.20768623054027538
2023-01-30 09:24:50.168102,-0.23426946203477284
2023-01-30 09:24:50.173102,-0.2328326404094696
2023-01-30 09:24:50.178102,-0.20833546421716326
2023-01-30 09:24:50.183102,-0.17078399658203117
2023-01-30 09:24:50.188102,-0.12919894065554305
2023-01-30 09:24:50.193102,-0.09096940606832504
2023-01-30 09:24:50.198102,-0.06209484102626222
2023-01-30 09:24:50.203102,-0.04445096105337135
2023-01-30 09:24:50.208102,-0.03496100488806541
2023-01-30 09:24:50.213102,-0.029714107513427686
2023-01-30 09:24:50.218102,-0.02719289328398769
2023-01-30 09:24:50.223102,-0.026564797386527
2023-01-30 09:24:50.228102,-0.025883285911950216
2023-01-30 09:24:50.233102,-0.023968419060111053
2023-01-30 09:24:50.238102,-0.021761287524660885
2023-01-30 09:24:50.243102,-0.020049810409545794
2023-01-30 09:24:50.248102,-0.017812690922954306
2023-01-30 09:24:50.253102,-0.014159878715872655
2023-01-30 09:24:50.258102,-0.009817668537676827
2023-01-30 09:24:50.263102,-0.0053129596635698925
2023-01-30 09:24:50.268102,0.0003739207193881692
2023-01-30 09:24:50.273102,0.00807762145996082
2023-01-30 09:24:50.278102,0.017189743859272563
2023-01-30 09:24:50.283102,0.027261972427368136
2023-01-30 09:24:50.288102,0.039130571314711225
2023-01-30 09:24:50.293102,0.05339404195547102
2023-01-30 09:24:50.298102,0.06933089967496513
2023-01-30 09:24:50.303102,0.08613725751638408
2023-01-30 09:24:50.308102,0.10366361199571704
2023-01-30 09:24:50.313102,0.12121240794658651
2023-01-30 09:24:50.318102,0.13711879984704972
2023-01-30 09:24:50.323102,0.15015721321105943
2023-01-30 09:24:50.328102,0.16010334984208927
2023-01-30 09:24:50.333102,0.1667211502790451
2023-01-30 09:24:50.338102,0.1695772276170498
2023-01-30 09:24:50.343102,0.168764591217041
2023-01-30 09:24:50.348102,0.1643313154571571
2023-01-30 09:24:50.353102,0.15549421310424785
2023-01-30 09:24:50.358102,0.14227009107645033
2023-01-30 09:24:50.363102,0.1271023452281951
2023-01-30 09:24:50.368102,0.11239520340242927
2023-01-30 09:24:50.373102,0.09709974378347386
2023-01-30 09:24:50.378102,0.07870493540517932
2023-01-30 09:24:50.383102,0.05822619050741193
2023-01-30 09:24:50.388102,0.03986023805292209
2023-01-30 09:24:50.393102,0.02560317516326894
2023-01-30 09:24:50.398102,0.013699303135284256
2023-01-30 09:24:50.403102,0.0029089055024087308
2023-01-30 09:24:50.408102,-0.00533811814690083
2023-01-30 09:24:50.413102,-0.010169148445129271
2023-01-30 09:24:50.418102,-0.013262764199074979
2023-01-30 09:24:50.423102,-0.016035040840506463
2023-01-30 09:24:50.428102,-0.01768158315667488
2023-01-30 09:24:50.433102,-0.017621716484427483
2023-01-30 09:24:50.438102,-0.017303854965878267
2023-01-30 09:24:50.443102,-0.01791020296514027
2023-01-30 09:24:50.448102,-0.018544115363658586
2023-01-30 09:24:50.453102,-0.018270811066031345
2023-01-30 09:24:50.458102,-0.017823756959524383
2023-01-30 09:24:50.463102,-0.01776595972478377
2023-01-30 09:24:50.468102,-0.01701475811326217
2023-01-30 09:24:50.473102,-0.014760891906917043
2023-01-30 09:24:50.478102,-0.012002390677015341
2023-01-30 09:24:50.483102,-0.009712378494441447
2023-01-30 09:24:50.488102,-0.007255545057898719
2023-01-30 09:24:50.493102,-0.004014770500361952
2023-01-30 09:24:50.498102,-0.0008510342578839622
2023-01-30 09:24:50.503102,0.0014424324035642968
2023-01-30 09:24:50.508102,0.0034846040836312158
2023-01-30 09:24:50.513102,0.005769729614257736
2023-01-30 09:24:50.518102,0.007397822186225805
2023-01-30 09:24:50.523102,0.0076689324341714
2023-01-30 09:24:50.528102,0.007424030725798303
2023-01-30 09:24:50.533102,0.00752468919381486
2023-01-30 09:24:50.538102,0.007468391345394915
2023-01-30 09:24:50.543102,0.006731351371854463
2023-01-30 09:24:50.548102,0.00601861861283119
2023-01-30 09:24:50.553102,0.0059620542451738695
2023-01-30 09:24:50.558102,0.006007904691744455
2023-01-30 09:24:50.563102,0.005817811004817374
2023-01-30 09:24:50.568102,0.006411120065852887
2023-01-30 09:24:50.573102,0.00872671604156484
2023-01-30 09:24:50.578102,0.012335126398608565
2023-01-30 09:24:50.583102,0.016636054962873358
2023-01-30 09:24:50.588102,0.021930489817892203
2023-01-30 09:24:50.593102,0.02812743186950679
2023-01-30 09:24:50.598102,0.03368818335819696
2023-01-30 09:24:50.603102,0.03704647347331045
2023-01-30 09:24:50.608102,0.03796562733037513
2023-01-30 09:24:50.613102,0.036589704453945056
2023-01-30 09:24:50.618102,0.03255718849400019
2023-01-30 09:24:50.623102,0.0262041892856359
2023-01-30 09:24:50.628102,0.019381454250881017
2023-01-30 09:24:50.633102,0.013871392235159779
2023-01-30 09:24:50.638102,0.009983410969618868
2023-01-30 09:24:50.643102,0.00754872988909482
2023-01-30 09:24:50.648102,0.006982602546514556
2023-01-30 09:24:50.653102,0.008293986320495605
2023-01-30 09:24:50.658102,0.01025371986858397
2023-01-30 09:24:50.663102,0.01165966223925354
2023-01-30 09:24:50.668102,0.012444819600081775
2023-01-30 09:24:50.673102,0.012789567932486496
2023-01-30 09:24:50.678102,0.012576603569666474
2023-01-30 09:24:50.683102,0.012933811172842999
2023-01-30 09:24:50.688102,0.017168170175459067
2023-01-30 09:24:50.693102,0.028800567612051887
2023-01-30 09:24:50.698102,0.04900282763747771
2023-01-30 09:24:50.703102,0.07594406604766843
2023-01-30 09:24:50.708102,0.10477584322430902
2023-01-30 09:24:50.713102,0.12724658846855155
2023-01-30 09:24:50.718102,0.13339657493004362
2023-01-30 09:24:50.723102,0.11640429496765128
2023-01-30 09:24:50.728102,0.07672723500678494
2023-01-30 09:24:50.733102,0.022021135315298968
2023-01-30 09:24:50.738102,-0.03565710195691859
2023-01-30 09:24:50.743102,-0.08284370601177206
2023-01-30 09:24:50.748102,-0.1083801948201739
2023-01-30 09:24:50.753102,-0.10779778659343704
2023-01-30 09:24:50.758102,-0.08490773065274518
2023-01-30 09:24:50.763102,-0.04868209362030013
2023-01-30 09:24:50.768102,-0.008764816318696543
2023-01-30 09:24:50.773102,0.026853283867239924
2023-01-30 09:24:50.778102,0.0529132964616576
2023-01-30 09:24:50.783102,0.06822705268859858
2023-01-30 09:24:50.788102,0.07550758119462436
2023-01-30 09:24:50.793102,0.07858853042125696
2023-01-30 09:24:50.798102,0.07998324913033888
2023-01-30 09:24:50.803102,0.08116086572408672
2023-01-30 09:24:50.808102,0.08340684382022097
2023-01-30 09:24:50.813102,0.08707483857870094
2023-01-30 09:24:50.818102,0.09108707814970955
2023-01-30 09:24:50.823102,0.09443124383687967
2023-01-30 09:24:50.828102,0.09739590687145006
2023-01-30 09:24:50.833102,0.10056158155202857
2023-01-30 09:24:50.838102,0.10376684324583449
2023-01-30 09:24:50.843102,0.10710060596466062
2023-01-30 09:24:50.848102,0.11175552105792837
2023-01-30 09:24:50.853102,0.11873622983694068
2023-01-30 09:24:50.858102,0.1276992437131701
2023-01-30 09:24:50.863102,0.13806483149528503
2023-01-30 09:24:50.868102,0.1501538483764459
2023-01-30 09:24:50.873102,0.1641488075256347
2023-01-30 09:24:50.878102,0.1790960350878574
2023-01-30 09:24:50.883102,0.19412736594676963
2023-01-30 09:24:50.888102,0.2095629569932688
2023-01-30 09:24:50.893102,0.22559642791748039
2023-01-30 09:24:50.898102,0.24098875114554963
2023-01-30 09:24:50.903102,0.2542768120765685
2023-01-30 09:24:50.908102,0.2651084693020987
2023-01-30 09:24:50.913102,0.27310055494308466
2023-01-30 09:24:50.918102,0.27666494868126296
2023-01-30 09:24:50.923102,0.27454298734664906
2023-01-30 09:24:50.928102,0.2674369521357693
2023-01-30 09:24:50.933102,0.25663277506828297
2023-01-30 09:24:50.938102,0.24222738504089625
2023-01-30 09:24:50.943102,0.22441844642162315
2023-01-30 09:24:50.948102,0.20522891426472506
2023-01-30 09:24:50.953102,0.1867709606885909
2023-01-30 09:24:50.958102,0.16878326174959987
2023-01-30 09:24:50.963102,0.15022933483123763
2023-01-30 09:24:50.968102,0.13251913301337567
2023-01-30 09:24:50.973102,0.11839966475963593
2023-01-30 09:24:50.978102,0.1078942181596314
2023-01-30 09:24:50.983102,0.09820561110973354
2023-01-30 09:24:50.988102,0.08811010648099081
2023-01-30 09:24:50.993102,0.07986267656087873
2023-01-30 09:24:50.998102,0.07578674461095886
2023-01-30 09:24:51.003102,0.07515072822570802
2023-01-30 09:24:51.008102,0.07570044230319815
2023-01-30 09:24:51.013102,0.07654508203268053
2023-01-30 09:24:51.018102,0.07801576407211191
2023-01-30 09:24:51.023102,0.07988671958446512
2023-01-30 09:24:51.028102,0.08135907798180785
2023-01-30 09:24:51.033102,0.08229076862335195
2023-01-30 09:24:51.038102,0.08321137575571051
2023-01-30 09:24:51.043102,0.0843582600355148
2023-01-30 09:24:51.048102,0.0855834854468362
2023-01-30 09:24:51.053102,0.08702675998210899
2023-01-30 09:24:51.058102,0.0891277009881853
2023-01-30 09:24:51.063102,0.09197910875082013
2023-01-30 09:24:51.068102,0.09511828917257924
2023-01-30 09:24:51.073102,0.09789308160543433
2023-01-30 09:24:51.078102,0.0997142175362355
2023-01-30 09:24:51.083102,0.10008077323436733
2023-01-30 09:24:51.088102,0.09872993483950186
2023-01-30 09:24:51.093102,0.09584963321685788
2023-01-30 09:24:51.098102,0.09206905187241009
2023-01-30 09:24:51.103102,0.08825282752513881
2023-01-30 09:24:51.108102,0.08522523762089376
2023-01-30 09:24:51.113102,0.08344471454620359
2023-01-30 09:24:51.118102,0.08280366181968778
2023-01-30 09:24:51.123102,0.08277158439159395
2023-01-30 09:24:51.128102,0.08271290604403227
2023-01-30 09:24:51.133102,0.08207440376281726
2023-01-30 09:24:51.138102,0.08052327244240298
2023-01-30 09:24:51.143102,0.07817983627319328
2023-01-30 09:24:51.148102,0.0756560441588975
2023-01-30 09:24:51.153102,0.07368426024913777
2023-01-30 09:24:51.158102,0.07275440497984616
2023-01-30 09:24:51.163102,0.07315536588430402
2023-01-30 09:24:51.168102,0.07509777402221574
2023-01-30 09:24:51.173102,0.0785404443740844
2023-01-30 09:24:51.178102,0.08302453027858467
2023-01-30 09:24:51.183102,0.08784413337707504
2023-01-30 09:24:51.188102,0.09221909974294734
2023-01-30 09:24:51.193102,0.09520053863525382
2023-01-30 09:24:51.198102,0.09575283984763343
2023-01-30 09:24:51.203102,0.09330134093761436
2023-01-30 09:24:51.208102,0.0881610727710635
2023-01-30 09:24:51.213102,0.08132915198802936
2023-01-30 09:24:51.218102,0.07403437398212218
2023-01-30 09:24:51.223102,0.06750583648681635
2023-01-30 09:24:51.228102,0.06270742437111504
2023-01-30 09:24:51.233102,0.059884987771510925
2023-01-30 09:24:51.238102,0.058490343683803916
2023-01-30 09:24:51.243102,0.05774537846446028
2023-01-30 09:24:51.248102,0.05713799287448861
2023-01-30 09:24:51.253102,0.05632698535919178
2023-01-30 09:24:51.258102,0.05498187531852529
2023-01-30 09:24:51.263102,0.05308151245117183
2023-01-30 09:24:51.268102,0.05129467236720135
2023-01-30 09:24:51.273102,0.05103806778788568
2023-01-30 09:24:51.278102,0.05444158494975596
2023-01-30 09:24:51.283102,0.06414016336202621
2023-01-30 09:24:51.288102,0.08212284428716464
2023-01-30 09:24:51.293102,0.10765354335308065
2023-01-30 09:24:51.298102,0.1358079439871427
2023-01-30 09:24:51.303102,0.15806655585765833
2023-01-30 09:24:51.308102,0.16483590310937077
2023-01-30 09:24:51.313102,0.14890711009502405
2023-01-30 09:24:51.318102,0.10887349807361833
2023-01-30 09:24:51.323102,0.051062107086181585
2023-01-30 09:24:51.328102,-0.011707902903032428
2023-01-30 09:24:51.333102,-0.06454885005950918
2023-01-30 09:24:51.338102,-0.09574721751325074
2023-01-30 09:24:51.343102,-0.10022501647472377
2023-01-30 09:24:51.348102,-0.08033829120823857
2023-01-30 09:24:51.353102,-0.044306717813014866
2023-01-30 09:24:51.358102,-0.0028197606262536064
2023-01-30 09:24:51.363102,0.03488282486796366
2023-01-30 09:24:51.368102,0.06346854010332471
2023-01-30 09:24:51.373102,0.08161763846874229
2023-01-30 09:24:51.378102,0.09079614159153002
2023-01-30 09:24:51.383102,0.09395043551921839
2023-01-30 09:24:51.388102,0.09428048240752172
2023-01-30 09:24:51.393102,0.0940946787595748
2023-01-30 09:24:51.398102,0.0943917133035944
2023-01-30 09:24:51.403102,0.0953688248991966
2023-01-30 09:24:51.408102,0.09698771318571038
2023-01-30 09:24:51.413102,0.09902298450469978
2023-01-30 09:24:51.418102,0.10112571626961903
2023-01-30 09:24:51.423102,0.10325412452220914
2023-01-30 09:24:51.428102,0.10583835320579983
2023-01-30 09:24:51.433102,0.1093363761901855
2023-01-30 09:24:51.438102,0.11389903590330466
2023-01-30 09:24:51.443102,0.11960168927907944
2023-01-30 09:24:51.448102,0.1266279123725899
2023-01-30 09:24:51.453102,0.13501167297363284
2023-01-30 09:24:51.458102,0.14455310963147477
2023-01-30 09:24:51.463102,0.155229777097702
2023-01-30 09:24:51.468102,0.16737297066819687
2023-01-30 09:24:51.473102,0.18119356036186218
2023-01-30 09:24:51.478102,0.19637737696954624
2023-01-30 09:24:51.483102,0.2122539281845092
2023-01-30 09:24:51.488102,0.2279641995106922
2023-01-30 09:24:51.493102,0.2422565221786499
2023-01-30 09:24:51.498102,0.25354143422883463
2023-01-30 09:24:51.503102,0.26052734255790716
2023-01-30 09:24:51.508102,0.2626648666292539
2023-01-30 09:24:51.513102,0.25990229845046986
2023-01-30 09:24:51.518102,0.25239736681321656
2023-01-30 09:24:51.523102,0.24066984653472895
2023-01-30 09:24:51.528102,0.2256483189080172
2023-01-30 09:24:51.533102,0.20826320350170127
2023-01-30 09:24:51.538102,0.18922143739022174
2023-01-30 09:24:51.543102,0.16931752860546107
2023-01-30 09:24:51.548102,0.14959813363510374
2023-01-30 09:24:51.553102,0.13097286224365226
2023-01-30 09:24:51.558102,0.11393269701104937
2023-01-30 09:24:51.563102,0.09880661964416504
2023-01-30 09:24:51.568102,0.08595056486077264
2023-01-30 09:24:51.573102,0.0754873007535934
2023-01-30 09:24:51.578102,0.06720493378092655
2023-01-30 09:24:51.583102,0.060942769050598096
2023-01-30 09:24:51.588102,0.056785270595376705
2023-01-30 09:24:51.593102,0.05469223111867897
2023-01-30 09:24:51.598102,0.054252356649787406
2023-01-30 09:24:51.603102,0.054980717599391916
2023-01-30 09:24:51.608102,0.05653380388818008
2023-01-30 09:24:51.613102,0.058466594666242495
2023-01-30 09:24:51.618102,0.06016446478099355
2023-01-30 09:24:51.623102,0.06127933785319321
2023-01-30 09:24:51.628102,0.061945707541593585
2023-01-30 09:24:51.633102,0.06236116215586657
2023-01-30 09:24:51.638102,0.062452522323385835
2023-01-30 09:24:51.643102,0.06214479729533188
2023-01-30 09:24:51.648102,0.0616280291804987
2023-01-30 09:24:51.653102,0.06111105531454079
2023-01-30 09:24:51.658102,0.06056566356287778
2023-01-30 09:24:51.663102,0.059909027069807004
2023-01-30 09:24:51.668102,0.05919160562750009
2023-01-30 09:24:51.673102,0.058442555367946555
2023-01-30 09:24:51.678102,0.05757172575951392
2023-01-30 09:24:51.683102,0.056543350219726445
2023-01-30 09:24:51.688102,0.055398612014217634
2023-01-30 09:24:51.693102,0.054067175835370976
2023-01-30 09:24:51.698102,0.05250940109753052
2023-01-30 09:24:51.703102,0.05111018940806385
2023-01-30 09:24:51.708102,0.050496891830806495
2023-01-30 09:24:51.713102,0.050773620605468674
2023-01-30 09:24:51.718102,0.0512603656047141
2023-01-30 09:24:51.723102,0.05111018940806376
2023-01-30 09:24:51.728102,0.04984290961954972
2023-01-30 09:24:51.733102,0.047239661216735784
2023-01-30 09:24:51.738102,0.04327580738959488
2023-01-30 09:24:51.743102,0.03846486657857893
2023-01-30 09:24:51.748102,0.03388851412827209
2023-01-30 09:24:51.753102,0.030579566955566358
2023-01-30 09:24:51.758102,0.029088309466001636
2023-01-30 09:24:51.763102,0.029714107513427696
2023-01-30 09:24:51.768102,0.03268839653099318
2023-01-30 09:24:51.773102,0.03783981129527095
2023-01-30 09:24:51.778102,0.04438731988612561
2023-01-30 09:24:51.783102,0.05127847194671629
2023-01-30 09:24:51.788102,0.05745504124229245
2023-01-30 09:24:51.793102,0.061712067574262675
2023-01-30 09:24:51.798102,0.06282600134691427
2023-01-30 09:24:51.803102,0.06024559587240215
2023-01-30 09:24:51.808102,0.05450789858456404
2023-01-30 09:24:51.813102,0.04685501381754868
2023-01-30 09:24:51.818102,0.038709212659790486
2023-01-30 09:24:51.823102,0.03151714801788331
2023-01-30 09:24:51.828102,0.026485794722011274
2023-01-30 09:24:51.833102,0.023992460221052135
2023-01-30 09:24:51.838102,0.023418067066981213
2023-01-30 09:24:51.843102,0.023752054199576298
2023-01-30 09:24:51.848102,0.024152730845376176
2023-01-30 09:24:51.853102,0.023896297439932795
2023-01-30 09:24:51.858102,0.022309361564275022
2023-01-30 09:24:51.863102,0.01918435096740716
2023-01-30 09:24:51.868102,0.015188644871090597
2023-01-30 09:24:51.873102,0.011876027099788104
2023-01-30 09:24:51.878102,0.011667601903351055
2023-01-30 09:24:51.883102,0.017765959724783804
2023-01-30 09:24:51.888102,0.03311412942798437
2023-01-30 09:24:51.893102,0.058250229805707945
2023-01-30 09:24:51.898102,0.08948863599179056
2023-01-30 09:24:51.903102,0.11888047307729724
2023-01-30 09:24:51.908102,0.13608223203547548
2023-01-30 09:24:51.913102,0.13159792125225056
2023-01-30 09:24:51.918102,0.10074185204234165
2023-01-30 09:24:51.923102,0.04675885289907451
2023-01-30 09:24:51.928102,-0.019115375304851093
2023-01-30 09:24:51.933102,-0.08130510896444325
2023-01-30 09:24:51.938102,-0.12532021404851335
2023-01-30 09:24:51.943102,-0.14232000708580006
2023-01-30 09:24:51.948102,-0.13139213098966598
2023-01-30 09:24:51.953102,-0.09909510612487793
2023-01-30 09:24:51.958102,-0.056341522810785284
2023-01-30 09:24:51.963102,-0.013967554084956589
2023-01-30 09:24:51.968102,0.020612400805646663
2023-01-30 09:24:51.973102,0.04430671781301483
2023-01-30 09:24:51.978102,0.0575272481118569
2023-01-30 09:24:51.983102,0.06289005279541013
2023-01-30 09:24:51.988102,0.06379542445487374
2023-01-30 09:24:51.993102,0.06308238208293909
2023-01-30 09:24:51.998102,0.062434334495569635
2023-01-30 09:24:52.003102,0.06269773095846169
2023-01-30 09:24:52.008102,0.06427495033955373
2023-01-30 09:24:52.013102,0.06707310676574701
2023-01-30 09:24:52.018102,0.07054592083996838
2023-01-30 09:24:52.023102,0.07418911159038541
2023-01-30 09:24:52.028102,0.07789737281530666
2023-01-30 09:24:52.033102,0.08178591728210438
2023-01-30 09:24:52.038102,0.08601106661227484
2023-01-30 09:24:52.043102,0.09094536304473877
2023-01-30 09:24:52.048102,0.09720207301358683
2023-01-30 09:24:52.053102,0.10524948686361305
2023-01-30 09:24:52.058102,0.1152154094967822
2023-01-30 09:24:52.063102,0.12717446684837344
2023-01-30 09:24:52.068102,0.14128635052375157
2023-01-30 09:24:52.073102,0.15744149684905995
2023-01-30 09:24:52.078102,0.17502202146491
2023-01-30 09:24:52.083102,0.1931416988372801
2023-01-30 09:24:52.088102,0.21081095128061134
2023-01-30 09:24:52.093102,0.2267263382673262
2023-01-30 09:24:52.098102,0.23928591346998943
2023-01-30 09:24:52.103102,0.2471367567777633
2023-01-30 09:24:52.108102,0.24959511297467493
2023-01-30 09:24:52.113102,0.24651169776916496
2023-01-30 09:24:52.118102,0.2381029598698188
2023-01-30 09:24:52.123102,0.22509157657623285
2023-01-30 09:24:52.128102,0.2086519653224434
2023-01-30 09:24:52.133102,0.189920276403427
2023-01-30 09:24:52.138102,0.1697048303089904
2023-01-30 09:24:52.143102,0.148738831281662
2023-01-30 09:24:52.148102,0.12787235357501078
2023-01-30 09:24:52.153102,0.10782182216644276
2023-01-30 09:24:52.158102,0.08900413230770467
2023-01-30 09:24:52.163102,0.07178505510091773
2023-01-30 09:24:52.168102,0.056618082300286914
2023-01-30 09:24:52.173102,0.04377782344818105
2023-01-30 09:24:52.178102,0.03322836612231026
2023-01-30 09:24:52.183102,0.024906000122427913
2023-01-30 09:24:52.188102,0.018850880644281212
2023-01-30 09:24:52.193102,0.014905135147273483
2023-01-30 09:24:52.198102,0.01257028119689112
2023-01-30 09:24:52.203102,0.01134713552892196
2023-01-30 09:24:52.208102,0.0109837664836301
2023-01-30 09:24:52.213102,0.01127501390874374
2023-01-30 09:24:52.218102,0.011916419686727948
2023-01-30 09:24:52.223102,0.012717446312308318
2023-01-30 09:24:52.228102,0.01368543644441816
2023-01-30 09:24:52.233102,0.014736851677298464
2023-01-30 09:24:52.238102,0.015574943331675901
2023-01-30 09:24:52.243102,0.015986960381269417
2023-01-30 09:24:52.248102,0.01600451998040872
2023-01-30 09:24:52.253102,0.015650391578674334
2023-01-30 09:24:52.258102,0.014805659995172145
2023-01-30 09:24:52.263102,0.013462702743708968
2023-01-30 09:24:52.268102,0.011838571484592454
2023-01-30 09:24:52.273102,0.010097026824951102
2023-01-30 09:24:52.278102,0.008200266354081671
2023-01-30 09:24:52.283102,0.00613033771514893
2023-01-30 09:24:52.288102,0.003975147652979838
2023-01-30 09:24:52.293102,0.0016828378429635553
2023-01-30 09:24:52.298102,-0.0009834711439910488
2023-01-30 09:24:52.303102,-0.004110932350158618
2023-01-30 09:24:52.308102,-0.00749254004910721
2023-01-30 09:24:52.313102,-0.01089036464691159
2023-01-30 09:24:52.318102,-0.01417710109835425
2023-01-30 09:24:52.323102,-0.01716494560241684
2023-01-30 09:24:52.328102,-0.0196114739731863
2023-01-30 09:24:52.333102,-0.021492242813110327
2023-01-30 09:24:52.338102,-0.022991814366374864
2023-01-30 09:24:52.343102,-0.024184783920645648
2023-01-30 09:24:52.348102,-0.02505434239312572
2023-01-30 09:24:52.353102,-0.025867622345685855
2023-01-30 09:24:52.358102,-0.027147039717514664
2023-01-30 09:24:52.363102,-0.029161175712943018
2023-01-30 09:24:52.368102,-0.03177753588526393
2023-01-30 09:24:52.373102,-0.03485878556966776
2023-01-30 09:24:52.378102,-0.0383559970911546
2023-01-30 09:24:52.383102,-0.04185458272695542
2023-01-30 09:24:52.388102,-0.04444551165513574
2023-01-30 09:24:52.393102,-0.04529237747192378
2023-01-30 09:24:52.398102,-0.04409778931382734
2023-01-30 09:24:52.403102,-0.04101316258311263
2023-01-30 09:24:52.408102,-0.036591222173333715
2023-01-30 09:24:52.413102,-0.03204604238271711
2023-01-30 09:24:52.418102,-0.02910556016784007
2023-01-30 09:24:52.423102,-0.02918521687388422
2023-01-30 09:24:52.428102,-0.032740480166740714
2023-01-30 09:24:52.433102,-0.03935436531901349
2023-01-30 09:24:52.438102,-0.0480115853334917
2023-01-30 09:24:52.443102,-0.057168405503034495
2023-01-30 09:24:52.448102,-0.06509892597693956
2023-01-30 09:24:52.453102,-0.0706551522016525
2023-01-30 09:24:52.458102,-0.07365078512236684
2023-01-30 09:24:52.463102,-0.07450163364410403
2023-01-30 09:24:52.468102,-0.07384830566023974
2023-01-30 09:24:52.473102,-0.07262647151947021
2023-01-30 09:24:52.478102,-0.07202390791513628
2023-01-30 09:24:52.483102,-0.07296304404735554
2023-01-30 09:24:52.488102,-0.07565306466090024
2023-01-30 09:24:52.493102,-0.07950206845998765
2023-01-30 09:24:52.498102,-0.08288454288241753
2023-01-30 09:24:52.503102,-0.0827715843915939
2023-01-30 09:24:52.508102,-0.07526385691851474
2023-01-30 09:24:52.513102,-0.05750497430562966
2023-01-30 09:24:52.518102,-0.02990875164755936
2023-01-30 09:24:52.523102,0.0026444594841449885
2023-01-30 09:24:52.528102,0.031139917075241573
2023-01-30 09:24:52.533102,0.04449903964996334
2023-01-30 09:24:52.538102,0.03346955701754627
2023-01-30 09:24:52.543102,-0.004928310867398901
2023-01-30 09:24:52.548102,-0.0650070941602245
2023-01-30 09:24:52.553102,-0.13373753428459156
2023-01-30 09:24:52.558102,-0.19502830829936457
2023-01-30 09:24:52.563102,-0.23494820296764365
2023-01-30 09:24:52.568102,-0.24612770778431328
2023-01-30 09:24:52.573102,-0.2298035323619841
2023-01-30 09:24:52.578102,-0.19441792041790817
2023-01-30 09:24:52.583102,-0.15147945284843434
2023-01-30 09:24:52.588102,-0.11119822830199265
2023-01-30 09:24:52.593102,-0.07995884120464315
2023-01-30 09:24:52.598102,-0.05977769624263164
2023-01-30 09:24:52.603102,-0.04906674474477753
2023-01-30 09:24:52.608102,-0.04434767555952556
2023-01-30 09:24:52.613102,-0.04228731244802473
2023-01-30 09:24:52.618102,-0.04086530741586902
2023-01-30 09:24:52.623102,-0.03923416137695305
2023-01-30 09:24:52.628102,-0.03715405173993244
2023-01-30 09:24:52.633102,-0.03476262092590333
2023-01-30 09:24:52.638102,-0.032376511576216564
2023-01-30 09:24:52.643102,-0.030050676316022776
2023-01-30 09:24:52.648102,-0.027423500022492015
2023-01-30 09:24:52.653102,-0.02411266230046741
2023-01-30 09:24:52.658102,-0.0200075109354658
2023-01-30 09:24:52.663102,-0.015049378387629863
2023-01-30 09:24:52.668102,-0.009045324785577985
2023-01-30 09:24:52.673102,-0.0018751621246337368
2023-01-30 09:24:52.678102,0.006432302612246967
2023-01-30 09:24:52.683102,0.016035040840506488
2023-01-30 09:24:52.688102,0.027404261541920657
2023-01-30 09:24:52.693102,0.04089295864105218
2023-01-30 09:24:52.698102,0.056367102211826156
2023-01-30 09:24:52.703102,0.07332365214824668
2023-01-30 09:24:52.708102,0.09100373346132054
2023-01-30 09:24:52.713102,0.10820647329092016
2023-01-30 09:24:52.718102,0.12336087665691071
2023-01-30 09:24:52.723102,0.13510784506797788
2023-01-30 09:24:52.728102,0.1426943403089975
2023-01-30 09:24:52.733102,0.1457577943801878
2023-01-30 09:24:52.738102,0.14408940761108044
2023-01-30 09:24:52.743102,0.13780038058757776
2023-01-30 09:24:52.748102,0.1273959957615802
2023-01-30 09:24:52.753102,0.1134473085403442
2023-01-30 09:24:52.758102,0.09642146360535463
2023-01-30 09:24:52.763102,0.07697781175374976
2023-01-30 09:24:52.768102,0.05612434993274397
2023-01-30 09:24:52.773102,0.03488282486796363
2023-01-30 09:24:52.778102,0.01404530736202695
2023-01-30 09:24:52.783102,-0.005625486373901263
2023-01-30 09:24:52.788102,-0.023312455453850314
2023-01-30 09:24:52.793102,-0.03848890587687487
2023-01-30 09:24:52.798102,-0.051092984065086444
2023-01-30 09:24:52.803102,-0.061207216233014936
2023-01-30 09:24:52.808102,-0.06885339715679534
2023-01-30 09:24:52.813102,-0.0742371901869773
2023-01-30 09:24:52.818102,-0.07783454573748526
2023-01-30 09:24:52.823102,-0.08000691980123509
2023-01-30 09:24:52.828102,-0.0808048669280299
2023-01-30 09:24:52.833102,-0.08031944930553428
2023-01-30 09:24:52.838102,-0.07892307249677417
2023-01-30 09:24:52.843102,-0.0770018547773361
2023-01-30 09:24:52.848102,-0.07478934408673309
2023-01-30 09:24:52.853102,-0.0726505145430564
2023-01-30 09:24:52.858102,-0.07116393094791489
2023-01-30 09:24:52.863102,-0.0706551522016525
2023-01-30 09:24:52.868102,-0.07090938615597749
2023-01-30 09:24:52.873102,-0.07152061164379106
2023-01-30 09:24:52.878102,-0.07221444035711659
2023-01-30 09:24:52.883102,-0.07267455756664265
2023-01-30 09:24:52.888102,-0.07247079753440788
2023-01-30 09:24:52.893102,-0.07147252559661867
2023-01-30 09:24:52.898102,-0.07006109148832916
2023-01-30 09:24:52.903102,-0.06870786845684056
2023-01-30 09:24:52.908102,-0.0676266470679148
2023-01-30 09:24:52.913102,-0.06700098514556882
2023-01-30 09:24:52.918102,-0.06713343718387356
2023-01-30 09:24:52.923102,-0.06805877387523655
2023-01-30 09:24:52.928102,-0.06933424739050627
2023-01-30 09:24:52.933102,-0.07051090896129605
2023-01-30 09:24:52.938102,-0.07153673100279119
2023-01-30 09:24:52.943102,-0.07248222827911381
2023-01-30 09:24:52.948102,-0.07325140028916097
2023-01-30 09:24:52.953102,-0.07385253906250011
2023-01-30 09:24:52.958102,-0.0745539407080537
2023-01-30 09:24:52.963102,-0.07539113610982881
2023-01-30 09:24:52.968102,-0.0758503101371907
2023-01-30 09:24:52.973102,-0.07541517913341522
2023-01-30 09:24:52.978102,-0.07410555005940449
2023-01-30 09:24:52.983102,-0.07209758460521694
2023-01-30 09:24:52.988102,-0.06919920349909263
2023-01-30 09:24:52.993102,-0.0652460306882858
2023-01-30 09:24:52.998102,-0.060764308400437325
2023-01-30 09:24:53.003102,-0.05666355416178707
2023-01-30 09:24:53.008102,-0.053402037180455116
2023-01-30 09:24:53.013102,-0.0510140284895896
2023-01-30 09:24:53.018102,-0.049909415709874935
2023-01-30 09:24:53.023102,-0.051038067787885597
2023-01-30 09:24:53.028102,-0.05503622345875488
2023-01-30 09:24:53.033102,-0.06149570271372782
2023-01-30 09:24:53.038102,-0.06916142483457473
2023-01-30 09:24:53.043102,-0.07659316062927235
2023-01-30 09:24:53.048102,-0.08262370039826551
2023-01-30 09:24:53.053102,-0.0865699872374534
2023-01-30 09:24:53.058102,-0.08832956177855142
2023-01-30 09:24:53.063102,-0.08830090612173076
2023-01-30 09:24:53.068102,-0.08716691775261384
2023-01-30 09:24:53.073102,-0.08572857081890102
2023-01-30 09:24:53.078102,-0.08479333419356636
2023-01-30 09:24:53.083102,-0.08498331159353252
2023-01-30 09:24:53.088102,-0.08646116994736174
2023-01-30 09:24:53.093102,-0.08861343562602991
2023-01-30 09:24:53.098102,-0.08969952696770926
2023-01-30 09:24:53.103102,-0.08678635209798813
2023-01-30 09:24:53.108102,-0.07657640009696791
2023-01-30 09:24:53.113102,-0.05721648782491682
2023-01-30 09:24:53.118102,-0.030214617913347768
2023-01-30 09:24:53.123102,-0.0013222297420724752
2023-01-30 09:24:53.128102,0.020266169884052714
2023-01-30 09:24:53.133102,0.02452135086059573
2023-01-30 09:24:53.138102,0.004503954766617568
2023-01-30 09:24:53.143102,-0.039955377578735345
2023-01-30 09:24:53.148102,-0.10096061919889811
2023-01-30 09:24:53.153102,-0.16467770934104908
2023-01-30 09:24:53.158102,-0.21591466415448554
2023-01-30 09:24:53.163102,-0.2431219816207884
2023-01-30 09:24:53.168102,-0.24198080732829505
2023-01-30 09:24:53.173102,-0.21629273891448958
2023-01-30 09:24:53.178102,-0.17575021861765158
2023-01-30 09:24:53.183102,-0.1317181289196014
2023-01-30 09:24:53.188102,-0.09331003712683539
2023-01-30 09:24:53.193102,-0.0654143095016478
2023-01-30 09:24:53.198102,-0.04869019576129985
2023-01-30 09:24:53.203102,-0.040772758424282005
2023-01-30 09:24:53.208102,-0.03807578552297662
2023-01-30 09:24:53.213102,-0.037503242492675705
2023-01-30 09:24:53.218102,-0.03723550354798312
2023-01-30 09:24:53.223102,-0.03646950051188462
2023-01-30 09:24:53.228102,-0.03490568904183057
2023-01-30 09:24:53.233102,-0.032550893723964545
2023-01-30 09:24:53.238102,-0.029581717785910417
2023-01-30 09:24:53.243102,-0.026059946045279482
2023-01-30 09:24:53.248102,-0.021865361304310625
2023-01-30 09:24:53.253102,-0.016972621902823427
2023-01-30 09:24:53.258102,-0.011553703983803813
2023-01-30 09:24:53.263102,-0.005673567764461031
2023-01-30 09:24:53.268102,0.0009109166028356318
2023-01-30 09:24:53.273102,0.008558432571589909
2023-01-30 09:24:53.278102,0.017594804144474
2023-01-30 09:24:53.283102,0.02843995951116079
2023-01-30 09:24:53.288102,0.04154850529813981
2023-01-30 09:24:53.293102,0.056976079940795774
2023-01-30 09:24:53.298102,0.0741456591761464
2023-01-30 09:24:53.303102,0.09212335199117651
2023-01-30 09:24:53.308102,0.10988802521710206
2023-01-30 09:24:53.313102,0.12626092135906208
2023-01-30 09:24:53.318102,0.13993447258009983
2023-01-30 09:24:53.323102,0.1498446911573408
2023-01-30 09:24:53.328102,0.155380288271615
2023-01-30 09:24:53.333102,0.15616735816001875
2023-01-30 09:24:53.338102,0.15196617578123806
2023-01-30 09:24:53.343102,0.14296910166740395
2023-01-30 09:24:53.348102,0.1299465094731478
2023-01-30 09:24:53.353102,0.11390408128499976
2023-01-30 09:24:53.358102,0.09577420193471617
2023-01-30 09:24:53.363102,0.0764970034360884
2023-01-30 09:24:53.368102,0.05703760114934016
2023-01-30 09:24:53.373102,0.03808021545410148
2023-01-30 09:24:53.378102,0.019924410088189803
2023-01-30 09:24:53.383102,0.0028367838822305346
2023-01-30 09:24:53.388102,-0.012743088925267713
2023-01-30 09:24:53.393102,-0.02646863460540767
2023-01-30 09:24:53.398102,-0.038243096644406754
2023-01-30 09:24:53.403102,-0.04793683812022209
2023-01-30 09:24:53.408102,-0.05525657583018804
2023-01-30 09:24:53.413102,-0.06010135263204573
2023-01-30 09:24:53.418102,-0.06278004910576658
2023-01-30 09:24:53.423102,-0.06370743364095675
2023-01-30 09:24:53.428102,-0.06318098205601506
2023-01-30 09:24:53.433102,-0.06161590665578837
2023-01-30 09:24:53.438102,-0.059632622060649544
2023-01-30 09:24:53.443102,-0.0576492175459861
2023-01-30 09:24:53.448102,-0.05566617250353036
2023-01-30 09:24:53.453102,-0.0536584854125976
2023-01-30 09:24:53.458102,-0.05186906473865449
2023-01-30 09:24:53.463102,-0.05050917714834211
2023-01-30 09:24:53.468102,-0.049510815554968245
2023-01-30 09:24:53.473102,-0.048802297562360666
2023-01-30 09:24:53.478102,-0.0484665316251337
2023-01-30 09:24:53.483102,-0.048369567841291386
2023-01-30 09:24:53.488102,-0.0480119088739314
2023-01-30 09:24:53.493102,-0.047071378678083454
2023-01-30 09:24:53.498102,-0.04579534551490552
2023-01-30 09:24:53.503102,-0.04461924359202383
2023-01-30 09:24:53.508102,-0.04378026954258475
2023-01-30 09:24:53.513102,-0.043561458587646436
2023-01-30 09:24:53.518102,-0.04441905987843736
2023-01-30 09:24:53.523102,-0.04642228409647932
2023-01-30 09:24:53.528102,-0.048920301991967056
2023-01-30 09:24:53.533102,-0.05115827172994611
2023-01-30 09:24:53.538102,-0.05288089292605656
2023-01-30 09:24:53.543102,-0.05401909351348877
2023-01-30 09:24:53.548102,-0.05431877785735888
2023-01-30 09:24:53.553102,-0.05380272865295409
2023-01-30 09:24:53.558102,-0.05312766371173328
2023-01-30 09:24:53.563102,-0.05286514759063726
2023-01-30 09:24:53.568102,-0.05278824588515425
2023-01-30 09:24:53.573102,-0.05240837857127184
2023-01-30 09:24:53.578102,-0.05171772507159259
2023-01-30 09:24:53.583102,-0.050701498985290576
2023-01-30 09:24:53.588102,-0.048671725156158835
2023-01-30 09:24:53.593102,-0.04510005563497538
2023-01-30 09:24:53.598102,-0.04081519231541832
2023-01-30 09:24:53.603102,-0.03733495995402327
2023-01-30 09:24:53.608102,-0.03522434484673912
2023-01-30 09:24:53.613102,-0.03428181260824204
2023-01-30 09:24:53.618102,-0.035224313382094745
2023-01-30 09:24:53.623102,-0.039618812501430546
2023-01-30 09:24:53.628102,-0.04754041470373669
2023-01-30 09:24:53.633102,-0.056495271623134544
2023-01-30 09:24:53.638102,-0.06354519110378568
2023-01-30 09:24:53.643102,-0.06777028739452355
2023-01-30 09:24:53.648102,-0.06996882706740506
2023-01-30 09:24:53.653102,-0.07082343101501462
2023-01-30 09:24:53.658102,-0.07046473435831209
2023-01-30 09:24:53.663102,-0.06938099861145001
2023-01-30 09:24:53.668102,-0.06856745584745927
2023-01-30 09:24:53.673102,-0.06865978240966784
2023-01-30 09:24:53.678102,-0.06956500473802596
2023-01-30 09:24:53.683102,-0.07079939544200888
2023-01-30 09:24:53.688102,-0.07130358930203169
2023-01-30 09:24:53.693102,-0.06873190402984608
2023-01-30 09:24:53.698102,-0.05976838995471064
2023-01-30 09:24:53.703102,-0.04204690456390381
2023-01-30 09:24:53.708102,-0.01632931625419572
2023-01-30 09:24:53.713102,0.012501081451773567
2023-01-30 09:24:53.718102,0.035980205557276546
2023-01-30 09:24:53.723102,0.04416247457265847
2023-01-30 09:24:53.728102,0.029236614723272235
2023-01-30 09:24:53.733102,-0.010529756546020588
2023-01-30 09:24:53.738102,-0.06883074888272506
2023-01-30 09:24:53.743102,-0.1328239887952804
2023-01-30 09:24:53.748102,-0.18738087280177543
2023-01-30 09:24:53.753102,-0.22006711363792397
2023-01-30 09:24:53.758102,-0.22499220508516699
2023-01-30 09:24:53.763102,-0.2042484283447264
2023-01-30 09:24:53.768102,-0.16637642824748647
2023-01-30 09:24:53.773102,-0.12258271872997276
2023-01-30 09:24:53.778102,-0.08266409735069155
2023-01-30 09:24:53.783102,-0.052480500191450154
2023-01-30 09:24:53.788102,-0.033491261076908474
2023-01-30 09:24:53.793102,-0.02377609536051748
2023-01-30 09:24:53.798102,-0.01976666719662547
2023-01-30 09:24:53.803102,-0.01800636574625969
2023-01-30 09:24:53.808102,-0.016269316703420324
2023-01-30 09:24:53.813102,-0.013703107833862343
2023-01-30 09:24:53.818102,-0.01032283335511057
2023-01-30 09:24:53.823102,-0.006466905586421423
2023-01-30 09:24:53.828102,-0.002473223314639796
2023-01-30 09:24:53.833102,0.0015145540237426378
2023-01-30 09:24:53.838102,0.005623459491623123
2023-01-30 09:24:53.843102,0.010121067985892239
2023-01-30 09:24:53.848102,0.015196551378834897
2023-01-30 09:24:53.853102,0.020915269851684484
2023-01-30 09:24:53.858102,0.02736595902845865
2023-01-30 09:24:53.863102,0.03476262092590334
2023-01-30 09:24:53.868102,0.043395472149663245
2023-01-30 09:24:53.873102,0.05356232449412342
2023-01-30 09:24:53.878102,0.0655370357256916
2023-01-30 09:24:53.883102,0.07945398986339555
2023-01-30 09:24:53.888102,0.09510189503504879
2023-01-30 09:24:53.893102,0.11183659732341751
2023-01-30 09:24:53.898102,0.12872063147859433
2023-01-30 09:24:53.903102,0.14472405612468706
2023-01-30 09:24:53.908102,0.15882733951579472
2023-01-30 09:24:53.913102,0.17008683085441578
2023-01-30 09:24:53.918102,0.17773717142074819
2023-01-30 09:24:53.923102,0.18124163150787354
2023-01-30 09:24:53.928102,0.18023977017034454
2023-01-30 09:24:53.933102,0.17453432083129874
2023-01-30 09:24:53.938102,0.16421126826750224
2023-01-30 09:24:53.943102,0.14974853396415702
2023-01-30 09:24:53.948102,0.1319729002828992
2023-01-30 09:24:53.953102,0.1119567975401878
2023-01-30 09:24:53.958102,0.09096121889193279
2023-01-30 09:24:53.963102,0.07031857967376691
2023-01-30 09:24:53.968102,0.05116377687748797
2023-01-30 09:24:53.973102,0.034185647964477386
2023-01-30 09:24:53.978102,0.019600987340417663
2023-01-30 09:24:53.983102,0.007284283638000375
2023-01-30 09:24:53.988102,-0.00309963494675488
2023-01-30 09:24:53.993102,-0.011924108490347786
2023-01-30 09:24:53.998102,-0.019352361180921897
2023-01-30 09:24:54.003102,-0.025218527764081896
2023-01-30 09:24:54.008102,-0.029216659374804634
2023-01-30 09:24:54.013102,-0.031204622238874474
2023-01-30 09:24:54.018102,-0.03131435055180469
2023-01-30 09:24:54.023102,-0.029882391914725207
2023-01-30 09:24:54.028102,-0.02739456585087123
2023-01-30 09:24:54.033102,-0.024425189942121506
2023-01-30 09:24:54.038102,-0.021458018618885716
2023-01-30 09:24:54.043102,-0.018727581948041926
2023-01-30 09:24:54.048102,-0.016290685400791843
2023-01-30 09:24:54.053102,-0.014207959175109856
2023-01-30 09:24:54.058102,-0.012561684487901289
2023-01-30 09:24:54.063102,-0.011347135528922038
2023-01-30 09:24:54.068102,-0.010479387936331486
2023-01-30 09:24:54.073102,-0.009904703125357467
2023-01-30 09:24:54.078102,-0.009612556371417998
2023-01-30 09:24:54.083102,-0.00956813525408494
2023-01-30 09:24:54.088102,-0.009744070203825724
2023-01-30 09:24:54.093102,-0.010193189606070538
2023-01-30 09:24:54.098102,-0.010964578176015758
2023-01-30 09:24:54.103102,-0.01194814871996643
2023-01-30 09:24:54.108102,-0.012909289418299958
2023-01-30 09:24:54.113102,-0.013679067604243717
2023-01-30 09:24:54.118102,-0.014230621874741558
2023-01-30 09:24:54.123102,-0.01461664866656065
2023-01-30 09:24:54.128102,-0.014972760611098843
2023-01-30 09:24:54.133102,-0.01557826995849599
2023-01-30 09:24:54.138102,-0.016768852847238464
2023-01-30 09:24:54.143102,-0.018727581948041916
2023-01-30 09:24:54.148102,-0.021389178771949197
2023-01-30 09:24:54.153102,-0.024473270401358452
2023-01-30 09:24:54.158102,-0.027469137074971853
2023-01-30 09:24:54.163102,-0.0296179465949534
2023-01-30 09:24:54.168102,-0.030105172635192464
2023-01-30 09:24:54.173102,-0.02839187905192373
2023-01-30 09:24:54.178102,-0.02438557658133514
2023-01-30 09:24:54.183102,-0.018415054306387978
2023-01-30 09:24:54.188102,-0.011226233270952927
2023-01-30 09:24:54.193102,-0.003990729805082006
2023-01-30 09:24:54.198102,0.0019020909128898513
2023-01-30 09:24:54.203102,0.005240838043391628
2023-01-30 09:24:54.208102,0.005286774423920803
2023-01-30 09:24:54.213102,0.0018992027034983416
2023-01-30 09:24:54.218102,-0.004350405991448913
2023-01-30 09:24:54.223102,-0.012164513580501022
2023-01-30 09:24:54.228102,-0.01989434262505237
2023-01-30 09:24:54.233102,-0.02620418928563585
2023-01-30 09:24:54.238102,-0.03050720033439961
2023-01-30 09:24:54.243102,-0.03291150182485576
2023-01-30 09:24:54.248102,-0.033937000330686695
2023-01-30 09:24:54.253102,-0.03428181260824209
2023-01-30 09:24:54.258102,-0.03461568828692426
2023-01-30 09:24:54.263102,-0.03536363691091533
2023-01-30 09:24:54.268102,-0.03658962680905719
2023-01-30 09:24:54.273102,-0.037960015237331314
2023-01-30 09:24:54.278102,-0.03859310003650758
2023-01-30 09:24:54.283102,-0.03683010861277582
2023-01-30 09:24:54.288102,-0.030322955551674018
2023-01-30 09:24:54.293102,-0.01678029820322997
2023-01-30 09:24:54.298102,0.0046875612326020355
2023-01-30 09:24:54.303102,0.032070081681013066
2023-01-30 09:24:54.308102,0.059581276458836874
2023-01-30 09:24:54.313102,0.07834812253713602
2023-01-30 09:24:54.318102,0.07908562767966668
2023-01-30 09:24:54.323102,0.05594233796000474
2023-01-30 09:24:54.328102,0.009703453894785677
2023-01-30 09:24:54.333102,-0.051326554268598515
2023-01-30 09:24:54.338102,-0.11339040763102222
2023-01-30 09:24:54.343102,-0.16167263686656952
2023-01-30 09:24:54.348102,-0.1853290583655853
2023-01-30 09:24:54.353102,-0.18095314502716053
2023-01-30 09:24:54.358102,-0.1529497750867246
2023-01-30 09:24:54.363102,-0.11097113788127884
2023-01-30 09:24:54.368102,-0.06599599502227442
2023-01-30 09:24:54.373102,-0.026829242706298818
2023-01-30 09:24:54.378102,0.0018647571322383668
2023-01-30 09:24:54.383102,0.019641121849417627
2023-01-30 09:24:54.388102,0.02884712691559643
2023-01-30 09:24:54.393102,0.032719176262617146
2023-01-30 09:24:54.398102,0.03404828318751558
2023-01-30 09:24:54.403102,0.03471454232931133
2023-01-30 09:24:54.408102,0.03573224439979589
2023-01-30 09:24:54.413102,0.03747920319437986
2023-01-30 09:24:54.418102,0.040021153972106524
2023-01-30 09:24:54.423102,0.04336913675069801
2023-01-30 09:24:54.428102,0.04748351292236956
2023-01-30 09:24:54.433102,0.052167974412441254
2023-01-30 09:24:54.438102,0.05715825631551159
2023-01-30 09:24:54.443102,0.0623611621558667
2023-01-30 09:24:54.448102,0.06793970349753725
2023-01-30 09:24:54.453102,0.07421314716339107
2023-01-30 09:24:54.458102,0.08159377656363269
2023-01-30 09:24:54.463102,0.0905607193708419
2023-01-30 09:24:54.468102,0.10149279528309584
2023-01-30 09:24:54.473102,0.11445701122283938
2023-01-30 09:24:54.478102,0.12921894027215994
2023-01-30 09:24:54.483102,0.14539718627929676
2023-01-30 09:24:54.488102,0.1624453366644625
2023-01-30 09:24:54.493102,0.17948667705059043
2023-01-30 09:24:54.498102,0.19533052602187814
2023-01-30 09:24:54.503102,0.2087199687957764
2023-01-30 09:24:54.508102,0.21854958558825333
2023-01-30 09:24:54.513102,0.2239857167005538
2023-01-30 09:24:54.518102,0.224628483000898
2023-01-30 09:24:54.523102,0.2206200361251831
2023-01-30 09:24:54.528102,0.21246625533038138
2023-01-30 09:24:54.533102,0.2007144689559936
2023-01-30 09:24:54.538102,0.18587286413285614
2023-01-30 09:24:54.543102,0.16857227683067313
2023-01-30 09:24:54.548102,0.149622506470017
2023-01-30 09:24:54.553102,0.12989103794097911
2023-01-30 09:24:54.558102,0.11024264293228557
2023-01-30 09:24:54.563102,0.0915463790297509
2023-01-30 09:24:54.568102,0.07453365532961347
2023-01-30 09:24:54.573102,0.059596501290798146
2023-01-30 09:24:54.578102,0.04684314929786162
2023-01-30 09:24:54.583102,0.03634929656982431
2023-01-30 09:24:54.588102,0.028221213346560886
2023-01-30 09:24:54.593102,0.022429823875427263
2023-01-30 09:24:54.598102,0.018743756697047746
2023-01-30 09:24:54.603102,0.01682837866246706
2023-01-30 09:24:54.608102,0.016263626297488086
2023-01-30 09:24:54.613102,0.016491811722516937
2023-01-30 09:24:54.618102,0.016965518438722776
2023-01-30 09:24:54.623102,0.017429392784833936
2023-01-30 09:24:54.628102,0.017958843009191393
2023-01-30 09:24:54.633102,0.018727581948041944
2023-01-30 09:24:54.638102,0.019855691872813403
2023-01-30 09:24:54.643102,0.021420121192932132
2023-01-30 09:24:54.648102,0.02337906523535805
2023-01-30 09:24:54.653102,0.025434892624616585
2023-01-30 09:24:54.658102,0.0271438423513738
2023-01-30 09:24:54.663102,0.028223594650626117
2023-01-30 09:24:54.668102,0.028653630141552144
2023-01-30 09:24:54.673102,0.028512081131339052
2023-01-30 09:24:54.678102,0.027903460581183055
2023-01-30 09:24:54.683102,0.027045607566833343
2023-01-30 09:24:54.688102,0.026204429647267487
2023-01-30 09:24:54.693102,0.02545893192291252
2023-01-30 09:24:54.698102,0.024661650082316022
2023-01-30 09:24:54.703102,0.02365589141845705
2023-01-30 09:24:54.708102,0.02239494652154906
2023-01-30 09:24:54.713102,0.020867189392447565
2023-01-30 09:24:54.718102,0.019113525294621788
2023-01-30 09:24:54.723102,0.017357271164655626
2023-01-30 09:24:54.728102,0.01591379099108506
2023-01-30 09:24:54.733102,0.014881094917654991
2023-01-30 09:24:54.738102,0.014036686898786057
2023-01-30 09:24:54.743102,0.013054013252258339
2023-01-30 09:24:54.748102,0.011681880734049627
2023-01-30 09:24:54.753102,0.009760459885001144
2023-01-30 09:24:54.758102,0.007341365136843232
2023-01-30 09:24:54.763102,0.0049042701721191215
2023-01-30 09:24:54.768102,0.0032800792454768268
2023-01-30 09:24:54.773102,0.0032454729080200195
2023-01-30 09:24:54.778102,0.005242017666528018
2023-01-30 09:24:54.783102,0.009375810623168926
2023-01-30 09:24:54.788102,0.015354240171400267
2023-01-30 09:24:54.793102,0.022285580635070856
2023-01-30 09:24:54.798102,0.028755245006084427
2023-01-30 09:24:54.803102,0.033296149224042816
2023-01-30 09:24:54.808102,0.0348110720684115
2023-01-30 09:24:54.813102,0.0327191762626172
2023-01-30 09:24:54.818102,0.02710609828404686
2023-01-30 09:24:54.823102,0.01891990564763525
2023-01-30 09:24:54.828102,0.009770425524663702
2023-01-30 09:24:54.833102,0.0012501081218942432
2023-01-30 09:24:54.838102,-0.005613358517764577
2023-01-30 09:24:54.843102,-0.010385513305663986
2023-01-30 09:24:54.848102,-0.013097680563797382
2023-01-30 09:24:54.853102,-0.014280080795287914
2023-01-30 09:24:54.858102,-0.014845206178806289
2023-01-30 09:24:54.863102,-0.01560231111943718
2023-01-30 09:24:54.868102,-0.016867980861178012
2023-01-30 09:24:54.873102,-0.018583338707685405
2023-01-30 09:24:54.878102,-0.02053034684671589
2023-01-30 09:24:54.883102,-0.02204517647624007
2023-01-30 09:24:54.888102,-0.021428846357199972
2023-01-30 09:24:54.893102,-0.01586675643920887
2023-01-30 09:24:54.898102,-0.0023597739315664606
2023-01-30 09:24:54.903102,0.020506581291556338
2023-01-30 09:24:54.908102,0.050641619352998116
2023-01-30 09:24:54.913102,0.08144935220479962
2023-01-30 09:24:54.918102,0.1028187535119448
2023-01-30 09:24:54.923102,0.10431190580129625
2023-01-30 09:24:54.928102,0.07942043363929042
2023-01-30 09:24:54.933102,0.028992891311645525
2023-01-30 09:24:54.938102,-0.03783709432402435
2023-01-30 09:24:54.943102,-0.10597070306539533
2023-01-30 09:24:54.948102,-0.15928607621619667
2023-01-30 09:24:54.953102,-0.18614590167999245
2023-01-30 09:24:54.958102,-0.18295485186258553
2023-01-30 09:24:54.963102,-0.15438835322856898
2023-01-30 09:24:54.968102,-0.11072932355874293
2023-01-30 09:24:54.973102,-0.06382763385772695
2023-01-30 09:24:54.978102,-0.02330454411138919
2023-01-30 09:24:54.983102,0.005697607994079495
2023-01-30 09:24:54.988102,0.022628277134265507
2023-01-30 09:24:54.993102,0.03002663515508174
2023-01-30 09:24:54.998102,0.03163227095652504
2023-01-30 09:24:55.003102,0.03096421621739868
2023-01-30 09:24:55.008102,0.030474861133524208
2023-01-30 09:24:55.013102,0.031228661537170455
2023-01-30 09:24:55.018102,0.033179444473100395
2023-01-30 09:24:55.023102,0.03582040593028059
2023-01-30 09:24:55.028102,0.038674500623777315
2023-01-30 09:24:55.033102,0.041445892304182025
2023-01-30 09:24:55.038102,0.04411485247343434
2023-01-30 09:24:55.043102,0.04704733937978735
2023-01-30 09:24:55.048102,0.050840592899579345
2023-01-30 09:24:55.053102,0.0559423379600049
2023-01-30 09:24:55.058102,0.0624975040119503
2023-01-30 09:24:55.063102,0.07053494453430167
2023-01-30 09:24:55.068102,0.08009609560752252
2023-01-30 09:24:55.073102,0.0911617279052735
2023-01-30 09:24:55.078102,0.103691200905476
2023-01-30 09:24:55.083102,0.11779864877462379
2023-01-30 09:24:55.088102,0.1336351505537693
2023-01-30 09:24:55.093102,0.15092651546001423
2023-01-30 09:24:55.098102,0.1687187869704767
2023-01-30 09:24:55.103102,0.18559297919273368
2023-01-30 09:24:55.108102,0.19997208835958394
2023-01-30 09:24:55.113102,0.2103066444396973
2023-01-30 09:24:55.118102,0.21541017468700793
2023-01-30 09:24:55.123102,0.21492242813110343
2023-01-30 09:24:55.128102,0.20935258708046994
2023-01-30 09:24:55.133102,0.19956052303314198
2023-01-30 09:24:55.138102,0.18628491482409681
2023-01-30 09:24:55.143102,0.17011086642742146
2023-01-30 09:24:55.148102,0.1515524005617961
2023-01-30 09:24:55.153102,0.13102094829082478
2023-01-30 09:24:55.158102,0.10897514924296997
2023-01-30 09:24:55.163102,0.08628150075674049
2023-01-30 09:24:55.168102,0.06423836596938667
2023-01-30 09:24:55.173102,0.044090352952480295
2023-01-30 09:24:55.178102,0.02663203422491703
2023-01-30 09:24:55.183102,0.012260675430297794
2023-01-30 09:24:55.188102,0.001070609082569452
2023-01-30 09:24:55.193102,-0.007260243408381901
2023-01-30 09:24:55.198102,-0.01338226365258284
2023-01-30 09:24:55.203102,-0.0178380813449621
2023-01-30 09:24:55.208102,-0.02084459426686059
2023-01-30 09:24:55.213102,-0.022550027817487658
2023-01-30 09:24:55.218102,-0.02321008546842437
2023-01-30 09:24:55.223102,-0.022982757538556955
2023-01-30 09:24:55.228102,-0.02186113751370575
2023-01-30 09:24:55.233102,-0.020001729950308623
2023-01-30 09:24:55.238102,-0.01785831908097765
2023-01-30 09:24:55.243102,-0.01581867597997172
2023-01-30 09:24:55.248102,-0.013968467243132986
2023-01-30 09:24:55.253102,-0.012356838211417094
2023-01-30 09:24:55.258102,-0.011175458635205245
2023-01-30 09:24:55.263102,-0.010481676086783399
2023-01-30 09:24:55.268102,-0.010061442974522586
2023-01-30 09:24:55.273102,-0.009784500114619636
2023-01-30 09:24:55.278102,-0.009794351688213533
2023-01-30 09:24:55.283102,-0.010145108215510807
2023-01-30 09:24:55.288102,-0.010594975828311362
2023-01-30 09:24:55.293102,-0.011010567657649422
2023-01-30 09:24:55.298102,-0.011647064102133507
2023-01-30 09:24:55.303102,-0.012765526771545344
2023-01-30 09:24:55.308102,-0.014285123615160414
2023-01-30 09:24:55.313102,-0.01603504084050645
2023-01-30 09:24:55.318102,-0.01795509130726929
2023-01-30 09:24:55.323102,-0.01976132392883295
2023-01-30 09:24:55.328102,-0.020839226746535683
2023-01-30 09:24:55.333102,-0.020867189392447368
2023-01-30 09:24:55.338102,-0.020245718742092973
2023-01-30 09:24:55.343102,-0.019617080688476573
2023-01-30 09:24:55.348102,-0.019330485385218074
2023-01-30 09:24:55.353102,-0.019641121849417457
2023-01-30 09:24:55.358102,-0.020887847859781535
2023-01-30 09:24:55.363102,-0.022982757538557004
2023-01-30 09:24:55.368102,-0.025131323085930034
2023-01-30 09:24:55.373102,-0.02651671692728983
2023-01-30 09:24:55.378102,-0.0268823897092977
2023-01-30 09:24:55.383102,-0.0260839872062206
2023-01-30 09:24:55.388102,-0.02366443483681087
2023-01-30 09:24:55.393102,-0.019472837448120003
2023-01-30 09:24:55.398102,-0.014244175389909656
2023-01-30 09:24:55.403102,-0.009015202522277737
2023-01-30 09:24:55.408102,-0.004470819274785574
2023-01-30 09:24:55.413102,-0.001394351362250603
2023-01-30 09:24:55.418102,-0.0010308480611913448
2023-01-30 09:24:55.423102,-0.004110932350158634
2023-01-30 09:24:55.428102,-0.00994617944980078
2023-01-30 09:24:55.433102,-0.017188986763358026
2023-01-30 09:24:55.438102,-0.024894875912316133
2023-01-30 09:24:55.443102,-0.03211816400289536
2023-01-30 09:24:55.448102,-0.037372939195583474
2023-01-30 09:24:55.453102,-0.03973901271820054
2023-01-30 09:24:55.458102,-0.03995119901875481
2023-01-30 09:24:55.463102,-0.03928224369883528
2023-01-30 09:24:55.468102,-0.03802903898465918
2023-01-30 09:24:55.473102,-0.03630121797323203
2023-01-30 09:24:55.478102,-0.03533139602883678
2023-01-30 09:24:55.483102,-0.036205053329467614
2023-01-30 09:24:55.488102,-0.03788432839949636
2023-01-30 09:24:55.493102,-0.03820041939616193
2023-01-30 09:24:55.498102,-0.03589536421141495
2023-01-30 09:24:55.503102,-0.029473703354596915
2023-01-30 09:24:55.508102,-0.01531366481902325
2023-01-30 09:24:55.513102,0.009135405533015714
2023-01-30 09:24:55.518102,0.03968857293283114
2023-01-30 09:24:55.523102,0.06632785499095908
2023-01-30 09:24:55.528102,0.08078038241896911
2023-01-30 09:24:55.533102,0.08010308444499967
2023-01-30 09:24:55.538102,0.06222590242462025
2023-01-30 09:24:55.543102,0.023439526557922245
2023-01-30 09:24:55.548102,-0.03508051728108825
2023-01-30 09:24:55.553102,-0.10077794641256309
2023-01-30 09:24:55.558102,-0.15469200058105437
2023-01-30 09:24:55.563102,-0.1833091229200361
2023-01-30 09:24:55.568102,-0.18388243105763352
2023-01-30 09:24:55.573102,-0.16080717742443065
2023-01-30 09:24:55.578102,-0.1217330830430437
2023-01-30 09:24:55.583102,-0.07697781175374979
2023-01-30 09:24:55.588102,-0.037318436302772914
2023-01-30 09:24:55.593102,-0.008967122063040657
2023-01-30 09:24:55.598102,0.008337895649331125
2023-01-30 09:24:55.603102,0.0178380813449621
2023-01-30 09:24:55.608102,0.02226538383900994
2023-01-30 09:24:55.613102,0.023968419060110997
2023-01-30 09:24:55.618102,0.025486438749627267
2023-01-30 09:24:55.623102,0.02807935141026966
2023-01-30 09:24:55.628102,0.031029674610643203
2023-01-30 09:24:55.633102,0.033584635704755714
2023-01-30 09:24:55.638102,0.03641034514050214
2023-01-30 09:24:55.643102,0.04031598567962643
2023-01-30 09:24:55.648102,0.04495459281376537
2023-01-30 09:24:55.653102,0.04981200024485578
2023-01-30 09:24:55.658102,0.055289279381590006
2023-01-30 09:24:55.663102,0.06183227151632301
2023-01-30 09:24:55.668102,0.0690864646091957
2023-01-30 09:24:55.673102,0.07688164710998535
2023-01-30 09:24:55.678102,0.08607518076725561
2023-01-30 09:24:55.683102,0.09748439490795127
2023-01-30 09:24:55.688102,0.11082601989276179
2023-01-30 09:24:55.693102,0.1254916191101074
2023-01-30 09:24:55.698102,0.141440402681785
2023-01-30 09:24:55.703102,0.15845119953155504
2023-01-30 09:24:55.708102,0.17531631384925286
2023-01-30 09:24:55.713102,0.19064149260520935
2023-01-30 09:24:55.718102,0.20374436818137825
2023-01-30 09:24:55.723102,0.21405696868896476
2023-01-30 09:24:55.728102,0.2204809234751661
2023-01-30 09:24:55.733102,0.22220671176910392
2023-01-30 09:24:55.738102,0.21952040263141073
2023-01-30 09:24:55.743102,0.21304726600646956
2023-01-30 09:24:55.748102,0.20285433354221338
2023-01-30 09:24:55.753102,0.18900673091411585
2023-01-30 09:24:55.758102,0.17230330292777896
2023-01-30 09:24:55.763102,0.1536911725997923
2023-01-30 09:24:55.768102,0.13359298989062854
2023-01-30 09:24:55.773102,0.11255781352519983
2023-01-30 09:24:55.778102,0.09194135814926548
2023-01-30 09:24:55.783102,0.07315536588430402
2023-01-30 09:24:55.788102,0.05675186039453967
2023-01-30 09:24:55.793102,0.04286428540945056
2023-01-30 09:24:55.798102,0.0318846750311898
2023-01-30 09:24:55.803102,0.02396841906011096
2023-01-30 09:24:55.808102,0.01849098005665411
2023-01-30 09:24:55.813102,0.014784932136535601
2023-01-30 09:24:55.818102,0.012921665579240535
2023-01-30 09:24:55.823102,0.013102094642817879
2023-01-30 09:24:55.828102,0.014843183549990337
2023-01-30 09:24:55.833102,0.017453432083129806
2023-01-30 09:24:55.838102,0.020738722965880776
2023-01-30 09:24:55.843102,0.024545392021536803
2023-01-30 09:24:55.848102,0.02820659238094307
2023-01-30 09:24:55.853102,0.031204622238874453
2023-01-30 09:24:55.858102,0.033859381926606466
2023-01-30 09:24:55.863102,0.036637783050537116
2023-01-30 09:24:55.868102,0.039290699066028195
2023-01-30 09:24:55.873102,0.04134973138570777
2023-01-30 09:24:55.878102,0.042913786845507576
2023-01-30 09:24:55.883102,0.044234596192836706
2023-01-30 09:24:55.888102,0.04510138655639434
2023-01-30 09:24:55.893102,0.045388542115688324
2023-01-30 09:24:55.898102,0.045655962543429976
2023-01-30 09:24:55.903102,0.046422284096479395
2023-01-30 09:24:55.908102,0.04733052694164193
2023-01-30 09:24:55.913102,0.047744512557983294
2023-01-30 09:24:55.918102,0.04763713268179895
2023-01-30 09:24:55.923102,0.04719158262014373
2023-01-30 09:24:55.928102,0.046150114635482
2023-01-30 09:24:55.933102,0.04437883943319321
2023-01-30 09:24:55.938102,0.0425297092286527
2023-01-30 09:24:55.943102,0.04132568836212142
2023-01-30 09:24:55.948102,0.04068682291861027
2023-01-30 09:24:55.953102,0.040291946381330414
2023-01-30 09:24:55.958102,0.04039802722110868
2023-01-30 09:24:55.963102,0.04130164906382557
2023-01-30 09:24:55.968102,0.04261662634821359
2023-01-30 09:24:55.973102,0.043970149010419825
2023-01-30 09:24:55.978102,0.04585409583845202
2023-01-30 09:24:55.983102,0.04892250150442116
2023-01-30 09:24:55.988102,0.05298682086105312
2023-01-30 09:24:55.993102,0.05748093128204336
2023-01-30 09:24:55.998102,0.0622034635703607
2023-01-30 09:24:56.003102,0.06666442006826384
2023-01-30 09:24:56.008102,0.06941193489005318
2023-01-30 09:24:56.013102,0.06911655515432362
2023-01-30 09:24:56.018102,0.0658740037682753
2023-01-30 09:24:56.023102,0.06063024327158911
2023-01-30 09:24:56.028102,0.05406550601455977
2023-01-30 09:24:56.033102,0.04699925705790517
2023-01-30 09:24:56.038102,0.041007850417467615
2023-01-30 09:24:56.043102,0.03733495995402338
2023-01-30 09:24:56.048102,0.03572844518600259
2023-01-30 09:24:56.053102,0.0353876762092113
2023-01-30 09:24:56.058102,0.03629472568443392
2023-01-30 09:24:56.063102,0.03846486657857885
2023-01-30 09:24:56.068102,0.04078080472481925
2023-01-30 09:24:56.073102,0.04202286526560774
2023-01-30 09:24:56.078102,0.04247127946158967
2023-01-30 09:24:56.083102,0.04339317604899399
2023-01-30 09:24:56.088102,0.04601082852973324
2023-01-30 09:24:56.093102,0.05240837857127182
2023-01-30 09:24:56.098102,0.06607253755263
2023-01-30 09:24:56.103102,0.08902212232351293
2023-01-30 09:24:56.108102,0.11834334623186764
2023-01-30 09:24:56.113102,0.14669537544250477
2023-01-30 09:24:56.118102,0.1653742780326512
2023-01-30 09:24:56.123102,0.1660239696502684
2023-01-30 09:24:56.128102,0.14238084661313932
2023-01-30 09:24:56.133102,0.09481589496135698
2023-01-30 09:24:56.138102,0.033452196613324624
2023-01-30 09:24:56.143102,-0.026035904884338303
2023-01-30 09:24:56.148102,-0.0702861188952319
2023-01-30 09:24:56.153102,-0.0912819355726242
2023-01-30 09:24:56.158102,-0.08522506680287383
2023-01-30 09:24:56.163102,-0.05440374463796611
2023-01-30 09:24:56.168102,-0.010252649562792863
2023-01-30 09:24:56.173102,0.03166139125823971
2023-01-30 09:24:56.178102,0.06302189959275935
2023-01-30 09:24:56.183102,0.08632957935333246
2023-01-30 09:24:56.188102,0.10599545062746335
2023-01-30 09:24:56.193102,0.1205873489379882
2023-01-30 09:24:56.198102,0.12694485425649943
2023-01-30 09:24:56.203102,0.12753507494926453
2023-01-30 09:24:56.208102,0.12849163907448066
2023-01-30 09:24:56.213102,0.13215085864067072
2023-01-30 09:24:56.218102,0.13608103899773558
2023-01-30 09:24:56.223102,0.1386177539825438
2023-01-30 09:24:56.228102,0.14108784110465272
2023-01-30 09:24:56.233102,0.14455577731132493
2023-01-30 09:24:56.238102,0.14818784090877316
2023-01-30 09:24:56.243102,0.15167176723480214
2023-01-30 09:24:56.248102,0.1563820901858971
2023-01-30 09:24:56.253102,0.16318719089031214
2023-01-30 09:24:56.258102,0.1713057517790211
2023-01-30 09:24:56.263102,0.18015980720520003
2023-01-30 09:24:56.268102,0.19048386828950314
2023-01-30 09:24:56.273102,0.2028300464153288
2023-01-30 09:24:56.278102,0.21659264973583012
2023-01-30 09:24:56.283102,0.23122191429138184
2023-01-30 09:24:56.288102,0.24696492924863558
2023-01-30 09:24:56.293102,0.2637006938457488
2023-01-30 09:24:56.298102,0.280261760751816
2023-01-30 09:24:56.303102,0.29553037881851185
2023-01-30 09:24:56.308102,0.3091294616219162
2023-01-30 09:24:56.313102,0.3205084800720214
2023-01-30 09:24:56.318102,0.32840127579295697
2023-01-30 09:24:56.323102,0.3317835032939909
2023-01-30 09:24:56.328102,0.3305451440514634
2023-01-30 09:24:56.333102,0.32481175661087025
2023-01-30 09:24:56.338102,0.31447910163384635
2023-01-30 09:24:56.343102,0.29988169670104964
2023-01-30 09:24:56.348102,0.2821490543253023
2023-01-30 09:24:56.353102,0.26245057582855214
2023-01-30 09:24:56.358102,0.24152842186068707
2023-01-30 09:24:56.363102,0.22028347849845875
2023-01-30 09:24:56.368102,0.2000957840178547
2023-01-30 09:24:56.373102,0.1821311414241789
2023-01-30 09:24:56.378102,0.1668421481065901
2023-01-30 09:24:56.383102,0.15438835322856898
2023-01-30 09:24:56.388102,0.14492686916307704
2023-01-30 09:24:56.393102,0.1381850242614746
2023-01-30 09:24:56.398102,0.13332816054550106
2023-01-30 09:24:56.403102,0.12962660193443282
2023-01-30 09:24:56.408102,0.126885921435682
2023-01-30 09:24:56.413102,0.12508293986320485
2023-01-30 09:24:56.418102,0.12410319569266304
2023-01-30 09:24:56.423102,0.12404918670654282
2023-01-30 09:24:56.428102,0.12528891410737894
2023-01-30 09:24:56.433102,0.12789568305015553
2023-01-30 09:24:56.438102,0.1313807683760513
2023-01-30 09:24:56.443102,0.13513188064098342
2023-01-30 09:24:56.448102,0.13874093541229499
2023-01-30 09:24:56.453102,0.14181515574455258
2023-01-30 09:24:56.458102,0.14395958972601722
2023-01-30 09:24:56.463102,0.14518082141876215
2023-01-30 09:24:56.468102,0.14595558715576537
2023-01-30 09:24:56.473102,0.14671942591667164
2023-01-30 09:24:56.478102,0.14756700894945218
2023-01-30 09:24:56.483102,0.14849841594696034
2023-01-30 09:24:56.488102,0.14955254637986093
2023-01-30 09:24:56.493102,0.15056590735912312
2023-01-30 09:24:56.498102,0.1511689903098815
2023-01-30 09:24:56.503102,0.15119096636772136
2023-01-30 09:24:56.508102,0.15080752718378043
2023-01-30 09:24:56.513102,0.15022933483123768
2023-01-30 09:24:56.518102,0.14955502159440223
2023-01-30 09:24:56.523102,0.14897923171520222
2023-01-30 09:24:56.528102,0.14877939095160073
2023-01-30 09:24:56.533102,0.14895519614219654
2023-01-30 09:24:56.538102,0.14914037303484598
2023-01-30 09:24:56.543102,0.14895519614219654
2023-01-30 09:24:56.548102,0.14822051380424378
2023-01-30 09:24:56.553102,0.14683961868286133
2023-01-30 09:24:56.558102,0.14481616061187172
2023-01-30 09:24:56.563102,0.14248828589916218
2023-01-30 09:24:56.568102,0.14047814204146442
2023-01-30 09:24:56.573102,0.13931493461132044
2023-01-30 09:24:56.578102,0.1392946787001277
2023-01-30 09:24:56.583102,0.1406852453947066
2023-01-30 09:24:56.588102,0.14375649255208936
2023-01-30 09:24:56.593102,0.1484984159469604
2023-01-30 09:24:56.598102,0.1544700812809731
2023-01-30 09:24:56.603102,0.16090333461761464
2023-01-30 09:24:56.608102,0.16673817010753253
2023-01-30 09:24:56.613102,0.1706397533416747
2023-01-30 09:24:56.618102,0.1714047171136178
2023-01-30 09:24:56.623102,0.16862034797668438
2023-01-30 09:24:56.628102,0.1629191264018733
2023-01-30 09:24:56.633102,0.15563845634460444
2023-01-30 09:24:56.638102,0.14831653934152267
2023-01-30 09:24:56.643102,0.14227192103862757
2023-01-30 09:24:56.648102,0.1381870359874167
2023-01-30 09:24:56.653102,0.13587713241577132
2023-01-30 09:24:56.658102,0.1345724141521411
2023-01-30 09:24:56.663102,0.13349711894989008
2023-01-30 09:24:56.668102,0.13216554916313372
2023-01-30 09:24:56.673102,0.13029973208904258
2023-01-30 09:24:56.678102,0.1277807725763511
2023-01-30 09:24:56.683102,0.12484252452850336
2023-01-30 09:24:56.688102,0.12237574483839338
2023-01-30 09:24:56.693102,0.12222211062908167
2023-01-30 09:24:56.698102,0.12721693276752224
2023-01-30 09:24:56.703102,0.14042079448699946
2023-01-30 09:24:56.708102,0.1633131530452544
2023-01-30 09:24:56.713102,0.19376675784587855
2023-01-30 09:24:56.718102,0.22517722604998672
2023-01-30 09:24:56.723102,0.24759352207183827
2023-01-30 09:24:56.728102,0.2507843132016426
2023-01-30 09:24:56.733102,0.22836109995841963
2023-01-30 09:24:56.738102,0.18124308380714949
2023-01-30 09:24:56.743102,0.11847178637981401
2023-01-30 09:24:56.748102,0.054568222676716856
2023-01-30 09:24:56.753102,0.004615783691406174
2023-01-30 09:24:56.758102,-0.020701541460554494
2023-01-30 09:24:56.763102,-0.018222730606794385
2023-01-30 09:24:56.768102,0.007448802362634069
2023-01-30 09:24:56.773102,0.04659056663513177
2023-01-30 09:24:56.778102,0.08850400537078171
2023-01-30 09:24:56.783102,0.12498676776885968
2023-01-30 09:24:56.788102,0.15184304416545982
2023-01-30 09:24:56.793102,0.16866843402385712
2023-01-30 09:24:56.798102,0.17762853684601695
2023-01-30 09:24:56.803102,0.18172244727611542
2023-01-30 09:24:56.808102,0.18328693812983346
2023-01-30 09:24:56.813102,0.18362164497375477
2023-01-30 09:24:56.818102,0.18354811977034557
2023-01-30 09:24:56.823102,0.18376588821411122
2023-01-30 09:24:56.828102,0.18467542509539286
2023-01-30 09:24:56.833102,0.18645843863487238
2023-01-30 09:24:56.838102,0.18950688418401482
2023-01-30 09:24:56.843102,0.19419948756694785
2023-01-30 09:24:56.848102,0.2000393582178863
2023-01-30 09:24:56.853102,0.20571491122245772
2023-01-30 09:24:56.858102,0.21051841864539597
2023-01-30 09:24:56.863102,0.21521091461181632
2023-01-30 09:24:56.868102,0.22103032212913665
2023-01-30 09:24:56.873102,0.22840917110443107
2023-01-30 09:24:56.878102,0.23728229379965454
2023-01-30 09:24:56.883102,0.24809837341308583
2023-01-30 09:24:56.888102,0.26158410754567807
2023-01-30 09:24:56.893102,0.27762016654014576
2023-01-30 09:24:56.898102,0.2950847307311833
2023-01-30 09:24:56.903102,0.312767446041107
2023-01-30 09:24:56.908102,0.3297937901096098
2023-01-30 09:24:56.913102,0.3451740741729735
2023-01-30 09:24:56.918102,0.3576194435978242
2023-01-30 09:24:56.923102,0.36599320173263533
2023-01-30 09:24:56.928102,0.3695279196277018
2023-01-30 09:24:56.933102,0.36757987737655623
2023-01-30 09:24:56.938102,0.3597114483187682
2023-01-30 09:24:56.943102,0.34623187780380227
2023-01-30 09:24:56.948102,0.32833878802505434
2023-01-30 09:24:56.953102,0.3075987100601196
2023-01-30 09:24:56.958102,0.2854996502707855
2023-01-30 09:24:56.963102,0.2634122073650359
2023-01-30 09:24:56.968102,0.2424866218201023
2023-01-30 09:24:56.973102,0.22336065769195548
2023-01-30 09:24:56.978102,0.20617897132401264
2023-01-30 09:24:56.983102,0.1909780502319334
2023-01-30 09:24:56.988102,0.17786322785861958
2023-01-30 09:24:56.993102,0.1668413579463957
2023-01-30 09:24:56.998102,0.15779533196615614
2023-01-30 09:24:57.003102,0.15071015059947956
2023-01-30 09:24:57.008102,0.14570137405985478
2023-01-30 09:24:57.013102,0.14275273680686948
2023-01-30 09:24:57.018102,0.14158767275273568
2023-01-30 09:24:57.023102,0.14179110527038563
2023-01-30 09:24:57.028102,0.14286492357530114
2023-01-30 09:24:57.033102,0.1441951692104339
2023-01-30 09:24:57.038102,0.145229613827283
2023-01-30 09:24:57.043102,0.14578184485435475
2023-01-30 09:24:57.048102,0.1460480923193712
2023-01-30 09:24:57.053102,0.14633476734161363
2023-01-30 09:24:57.058102,0.14688109848601752
2023-01-30 09:24:57.063102,0.1478493213653564
2023-01-30 09:24:57.068102,0.14925024599824815
2023-01-30 09:24:57.073102,0.15085439383983604
2023-01-30 09:24:57.078102,0.15232606791126851
2023-01-30 09:24:57.083102,0.15345077216625197
2023-01-30 09:24:57.088102,0.15413942492336904
2023-01-30 09:24:57.093102,0.15429219603538505
2023-01-30 09:24:57.098102,0.1538192584194965
2023-01-30 09:24:57.103102,0.15275359153747547
2023-01-30 09:24:57.108102,0.15120777777216177
2023-01-30 09:24:57.113102,0.14926771819591514
2023-01-30 09:24:57.118102,0.14704418874853
2023-01-30 09:24:57.123102,0.1447480916976927
2023-01-30 09:24:57.128102,0.1425680887111953
2023-01-30 09:24:57.133102,0.14051696658134455
2023-01-30 09:24:57.138102,0.13849566712480352
2023-01-30 09:24:57.143102,0.1364300698041914
2023-01-30 09:24:57.148102,0.13425498883249612
2023-01-30 09:24:57.153102,0.1318864077329635
2023-01-30 09:24:57.158102,0.12935122796894355
2023-01-30 09:24:57.163102,0.12686192989349362
2023-01-30 09:24:57.168102,0.12463978045529539
2023-01-30 09:24:57.173102,0.1227269619703292
2023-01-30 09:24:57.178102,0.12103889001920726
2023-01-30 09:24:57.183102,0.11948148906230917
2023-01-30 09:24:57.188102,0.1179409190796097
2023-01-30 09:24:57.193102,0.11633217334747312
2023-01-30 09:24:57.198102,0.11483558653547328
2023-01-30 09:24:57.203102,0.11402428150177002
2023-01-30 09:24:57.208102,0.11464445768172415
2023-01-30 09:24:57.213102,0.11726975440979005
2023-01-30 09:24:57.218102,0.12206798031439939
2023-01-30 09:24:57.223102,0.12859284877777077
2023-01-30 09:24:57.228102,0.13561678702128416
2023-01-30 09:24:57.233102,0.1413343399763108
2023-01-30 09:24:57.238102,0.14399902426240738
2023-01-30 09:24:57.243102,0.14253637194633473
2023-01-30 09:24:57.248102,0.13679449594521798
2023-01-30 09:24:57.253102,0.1275591105222702
2023-01-30 09:24:57.258102,0.11641096268008728
2023-01-30 09:24:57.263102,0.10524948686361302
2023-01-30 09:24:57.268102,0.09561438514336926
2023-01-30 09:24:57.273102,0.08832494914531702
2023-01-30 09:24:57.278102,0.08358940636866333
2023-01-30 09:24:57.283102,0.08118490874767308
2023-01-30 09:24:57.288102,0.08051425404541233
2023-01-30 09:24:57.293102,0.08077621459960935
2023-01-30 09:24:57.298102,0.08124760463536053
2023-01-30 09:24:57.303102,0.08135318756103511
2023-01-30 09:24:57.308102,0.08062400217809357
2023-01-30 09:24:57.313102,0.07904529571533203
2023-01-30 09:24:57.318102,0.07773255496443837
2023-01-30 09:24:57.323102,0.0791895389556884
2023-01-30 09:24:57.328102,0.08669793696998544
2023-01-30 09:24:57.333102,0.10301371663808818
2023-01-30 09:24:57.338102,0.12860940846204635
2023-01-30 09:24:57.343102,0.15989363193511957
2023-01-30 09:24:57.348102,0.18864573035347396
2023-01-30 09:24:57.353102,0.2039359062910079
2023-01-30 09:24:57.358102,0.19617315598494275
2023-01-30 09:24:57.363102,0.16131202876567838
2023-01-30 09:24:57.368102,0.1033201620420583
2023-01-30 09:24:57.373102,0.03392120450735088
2023-01-30 09:24:57.378102,-0.030725263598650125
2023-01-30 09:24:57.383102,-0.07560750097036353
2023-01-30 09:24:57.388102,-0.09214590403594786
2023-01-30 09:24:57.393102,-0.08039157092571235
2023-01-30 09:24:57.398102,-0.04759989087857438
2023-01-30 09:24:57.403102,-0.004784067627042437
2023-01-30 09:24:57.408102,0.03715401812300979
2023-01-30 09:24:57.413102,0.07072727382183067
2023-01-30 09:24:57.418102,0.09336621102202164
2023-01-30 09:24:57.423102,0.10637938976287839
2023-01-30 09:24:57.428102,0.11263319893643821
2023-01-30 09:24:57.433102,0.11500994861125947
2023-01-30 09:24:57.438102,0.11591342185521664
2023-01-30 09:24:57.443102,0.11678894609212875
2023-01-30 09:24:57.448102,0.11780848584944106
2023-01-30 09:24:57.453102,0.11861602962017044
2023-01-30 09:24:57.458102,0.11936710834841359
2023-01-30 09:24:57.463102,0.12051522731780998
2023-01-30 09:24:57.468102,0.12197685410294601
2023-01-30 09:24:57.473102,0.12349625676870347
2023-01-30 09:24:57.478102,0.1256217310350551
2023-01-30 09:24:57.483102,0.1292179077863694
2023-01-30 09:24:57.488102,0.1342062167316709
2023-01-30 09:24:57.493102,0.14013230800628657
2023-01-30 09:24:57.498102,0.14785708401965109
2023-01-30 09:24:57.503102,0.15890797972679127
2023-01-30 09:24:57.508102,0.1728033421779562
2023-01-30 09:24:57.513102,0.18693923950195315
2023-01-30 09:24:57.518102,0.20001855230841528
2023-01-30 09:24:57.523102,0.21376848220825187
2023-01-30 09:24:57.528102,0.22986973695954108
2023-01-30 09:24:57.533102,0.24670402705669406
2023-01-30 09:24:57.538102,0.2608920501034571
2023-01-30 09:24:57.543102,0.27096092700958246
2023-01-30 09:24:57.548102,0.2775980079209423
2023-01-30 09:24:57.553102,0.28103393316268926
2023-01-30 09:24:57.558102,0.2803025250605515
2023-01-30 09:24:57.563102,0.2749997377395629
2023-01-30 09:24:57.568102,0.2659027388532001
2023-01-30 09:24:57.573102,0.25353154540061945
2023-01-30 09:24:57.578102,0.23755784561256688
2023-01-30 09:24:57.583102,0.21804770827293388
2023-01-30 09:24:57.588102,0.19613097327730064
2023-01-30 09:24:57.593102,0.1730678528547286
2023-01-30 09:24:57.598102,0.14964969016249308
2023-01-30 09:24:57.603102,0.12683789432048787
2023-01-30 09:24:57.608102,0.1059996411687136
2023-01-30 09:24:57.613102,0.08801241964101787
2023-01-30 09:24:57.618102,0.07280691299587265
2023-01-30 09:24:57.623102,0.06010135263204582
2023-01-30 09:24:57.628102,0.04992828609416021
2023-01-30 09:24:57.633102,0.04219114780426021
2023-01-30 09:24:57.638102,0.0364062529717534
2023-01-30 09:24:57.643102,0.032238364219665604
2023-01-30 09:24:57.648102,0.02974962441899125
2023-01-30 09:24:57.653102,0.028848648071288948
2023-01-30 09:24:57.658102,0.029004404916213956
2023-01-30 09:24:57.663102,0.029738148674368744
2023-01-30 09:24:57.668102,0.030906507977133058
2023-01-30 09:24:57.673102,0.032286446541547775
2023-01-30 09:24:57.678102,0.03337129844700738
2023-01-30 09:24:57.683102,0.03382503986358646
2023-01-30 09:24:57.688102,0.03373691350455586
2023-01-30 09:24:57.693102,0.03324806690216072
2023-01-30 09:24:57.698102,0.03232993979437424
2023-01-30 09:24:57.703102,0.031084418296813965
2023-01-30 09:24:57.708102,0.029833428453213476
2023-01-30 09:24:57.713102,0.028704404830932617
2023-01-30 09:24:57.718102,0.027471957744669453
2023-01-30 09:24:57.723102,0.025963783264160233
2023-01-30 09:24:57.728102,0.02429282796704168
2023-01-30 09:24:57.733102,0.022574067115783653
2023-01-30 09:24:57.738102,0.020763170519906754
2023-01-30 09:24:57.743102,0.01889586448669422
2023-01-30 09:24:57.748102,0.017132410745982457
2023-01-30 09:24:57.753102,0.015409986488521174
2023-01-30 09:24:57.758102,0.013349587149744971
2023-01-30 09:24:57.763102,0.010649959556758517
2023-01-30 09:24:57.768102,0.007344134582219491
2023-01-30 09:24:57.773102,0.0036301217041909313
2023-01-30 09:24:57.778102,-0.00024169091572700076
2023-01-30 09:24:57.783102,-0.003846486564725713
2023-01-30 09:24:57.788102,-0.006690146313387951
2023-01-30 09:24:57.793102,-0.008606513962149544
2023-01-30 09:24:57.798102,-0.009869478407317426
2023-01-30 09:24:57.803102,-0.010866324417292883
2023-01-30 09:24:57.808102,-0.011864316107798117
2023-01-30 09:24:57.813102,-0.013078054413199348
2023-01-30 09:24:57.818102,-0.014662385412785094
2023-01-30 09:24:57.823102,-0.01656393334269516
2023-01-30 09:24:57.828102,-0.01861061965207068
2023-01-30 09:24:57.833102,-0.020795067772269134
2023-01-30 09:24:57.838102,-0.023260438692624535
2023-01-30 09:24:57.843102,-0.025987824425101204
2023-01-30 09:24:57.848102,-0.02869752194356829
2023-01-30 09:24:57.853102,-0.031036337837576713
2023-01-30 09:24:57.858102,-0.03263032841682688
2023-01-30 09:24:57.863102,-0.032983623445033985
2023-01-30 09:24:57.868102,-0.03162477924071235
2023-01-30 09:24:57.873102,-0.028464000672101784
2023-01-30 09:24:57.878102,-0.02390765455534468
2023-01-30 09:24:57.883102,-0.01870354078710064
2023-01-30 09:24:57.888102,-0.013876554252245
2023-01-30 09:24:57.893102,-0.010698040947317924
2023-01-30 09:24:57.898102,-0.010320678238257944
2023-01-30 09:24:57.903102,-0.013222297653555832
2023-01-30 09:24:57.908102,-0.018995917855054206
2023-01-30 09:24:57.913102,-0.02656479738652687
2023-01-30 09:24:57.918102,-0.034474353098515584
2023-01-30 09:24:57.923102,-0.04120548814535126
2023-01-30 09:24:57.928102,-0.04566176654350628
2023-01-30 09:24:57.933102,-0.047576230019330784
2023-01-30 09:24:57.938102,-0.04743020870716225
2023-01-30 09:24:57.943102,-0.046037636697292175
2023-01-30 09:24:57.948102,-0.04427484508136687
2023-01-30 09:24:57.953102,-0.04300852864980678
2023-01-30 09:24:57.958102,-0.04295589582856345
2023-01-30 09:24:57.963102,-0.04447500035166736
2023-01-30 09:24:57.968102,-0.04740369525272793
2023-01-30 09:24:57.973102,-0.050797663629054905
2023-01-30 09:24:57.978102,-0.052541594368632365
2023-01-30 09:24:57.983102,-0.04937927052378643
2023-01-30 09:24:57.988102,-0.03791633380595715
2023-01-30 09:24:57.993102,-0.016395648941397438
2023-01-30 09:24:57.998102,0.013519966360173346
2023-01-30 09:24:58.003102,0.04577318951487549
2023-01-30 09:24:58.008102,0.0705705372908568
2023-01-30 09:24:58.013102,0.07719417661428453
2023-01-30 09:24:58.018102,0.058253634973957844
2023-01-30 09:24:58.023102,0.013342499732971039
2023-01-30 09:24:58.028102,-0.04982618924371318
2023-01-30 09:24:58.033102,-0.11736591905355438
2023-01-30 09:24:58.038102,-0.17355281529741926
2023-01-30 09:24:58.043102,-0.20605146884918196
2023-01-30 09:24:58.048102,-0.20987528337160286
2023-01-30 09:24:58.053102,-0.1882133930921553
2023-01-30 09:24:58.058102,-0.15007011378243948
2023-01-30 09:24:58.063102,-0.1064515113830566
2023-01-30 09:24:58.068102,-0.06686985440194348
2023-01-30 09:24:58.073102,-0.03702243417501434
2023-01-30 09:24:58.078102,-0.018157352176637193
2023-01-30 09:24:58.083102,-0.00829398632049553
2023-01-30 09:24:58.088102,-0.0042947479771474565
2023-01-30 09:24:58.093102,-0.0032454729080200573
2023-01-30 09:24:58.098102,-0.0028608251410098926
2023-01-30 09:24:58.103102,-0.0017549594631417447
2023-01-30 09:24:58.108102,0.0003393988993427304
2023-01-30 09:24:58.113102,0.0030771892052143812
2023-01-30 09:24:58.118102,0.006328056782811757
2023-01-30 09:24:58.123102,0.01014510821551073
2023-01-30 09:24:58.128102,0.014184859471737334
2023-01-30 09:24:58.133102,0.017982324585318527
2023-01-30 09:24:58.138102,0.021783811324891607
2023-01-30 09:24:58.143102,0.026276310905814112
2023-01-30 09:24:58.148102,0.03155058791556892
2023-01-30 09:24:58.153102,0.037383042275905665
2023-01-30 09:24:58.158102,0.04452578591942273
2023-01-30 09:24:58.163102,0.05425950139760969
2023-01-30 09:24:58.168102,0.06624164100053641
2023-01-30 09:24:58.173102,0.078348122537136
2023-01-30 09:24:58.178102,0.08953271020593642
2023-01-30 09:24:58.183102,0.10140299797058105
2023-01-30 09:24:58.188102,0.11568009759075376
2023-01-30 09:24:58.193102,0.13126134872436512
2023-01-30 09:24:58.198102,0.1453061567468323
2023-01-30 09:24:58.203102,0.15631160140037528
2023-01-30 09:24:58.208102,0.16437904896425806
2023-01-30 09:24:58.213102,0.16902904212474815
2023-01-30 09:24:58.218102,0.16874197755120257
2023-01-30 09:24:58.223102,0.1628025472164155
2023-01-30 09:24:58.228102,0.15207141647476932
2023-01-30 09:24:58.233102,0.13768017292022694
2023-01-30 09:24:58.238102,0.1202567156613919
2023-01-30 09:24:58.243102,0.1007058247923851
2023-01-30 09:24:58.248102,0.08048670837891847
2023-01-30 09:24:58.253102,0.06058216094970699
2023-01-30 09:24:58.258102,0.041064363761542835
2023-01-30 09:24:58.263102,0.022045176476240158
2023-01-30 09:24:58.268102,0.004245826404286125
2023-01-30 09:24:58.273102,-0.011683702468871881
2023-01-30 09:24:58.278102,-0.02561713615341076
2023-01-30 09:24:58.283102,-0.03740708157420143
2023-01-30 09:24:58.288102,-0.046649400258308674
2023-01-30 09:24:58.293102,-0.05336999893188461
2023-01-30 09:24:58.298102,-0.05831305186372371
2023-01-30 09:24:58.303102,-0.062192879617214085
2023-01-30 09:24:58.308102,-0.06516742151026217
2023-01-30 09:24:58.313102,-0.06724139302968964
2023-01-30 09:24:58.318102,-0.06855893814391197
2023-01-30 09:24:58.323102,-0.06902039051055885
2023-01-30 09:24:58.328102,-0.06820980072301616
2023-01-30 09:24:58.333102,-0.06606340408325176
2023-01-30 09:24:58.338102,-0.06318150733347276
2023-01-30 09:24:58.343102,-0.06024559587240196
2023-01-30 09:24:58.348102,-0.05755663480130857
2023-01-30 09:24:58.353102,-0.055293243378400726
2023-01-30 09:24:58.358102,-0.053677720566346274
2023-01-30 09:24:58.363102,-0.052624743431806544
2023-01-30 09:24:58.368102,-0.051698295455970614
2023-01-30 09:24:58.373102,-0.05070149898529045
2023-01-30 09:24:58.378102,-0.049949977536374014
2023-01-30 09:24:58.383102,-0.049787960946559864
2023-01-30 09:24:58.388102,-0.050230749495715904
2023-01-30 09:24:58.393102,-0.051230393350124165
2023-01-30 09:24:58.398102,-0.05283499826918099
2023-01-30 09:24:58.403102,-0.05486051365733135
2023-01-30 09:24:58.408102,-0.056801604658651056
2023-01-30 09:24:58.413102,-0.05829831212759003
2023-01-30 09:24:58.418102,-0.05937716851862899
2023-01-30 09:24:58.423102,-0.06010135263204559
2023-01-30 09:24:58.428102,-0.06036745634942128
2023-01-30 09:24:58.433102,-0.06022155284881571
2023-01-30 09:24:58.438102,-0.0600146820415583
2023-01-30 09:24:58.443102,-0.06005327031016327
2023-01-30 09:24:58.448102,-0.060388527606495226
2023-01-30 09:24:58.453102,-0.06106297299265852
2023-01-30 09:24:58.458102,-0.06221148153492606
2023-01-30 09:24:58.463102,-0.0637555122375487
2023-01-30 09:24:58.468102,-0.06529710416951647
2023-01-30 09:24:58.473102,-0.06644805520772919
2023-01-30 09:24:58.478102,-0.06698609288589981
2023-01-30 09:24:58.483102,-0.06661634147167196
2023-01-30 09:24:58.488102,-0.06494191680221902
2023-01-30 09:24:58.493102,-0.06185631081461896
2023-01-30 09:24:58.498102,-0.05775751691472085
2023-01-30 09:24:58.503102,-0.053345959633588666
2023-01-30 09:24:58.508102,-0.049506859404068466
2023-01-30 09:24:58.513102,-0.04738390445709209
2023-01-30 09:24:58.518102,-0.048085445731530986
2023-01-30 09:24:58.523102,-0.05199968814849846
2023-01-30 09:24:58.528102,-0.05849251091978995
2023-01-30 09:24:58.533102,-0.06627976894378654
2023-01-30 09:24:58.538102,-0.07389028404265689
2023-01-30 09:24:58.543102,-0.07991075515747062
2023-01-30 09:24:58.548102,-0.08335633228683427
2023-01-30 09:24:58.553102,-0.08414189517498
2023-01-30 09:24:58.558102,-0.08305334748137085
2023-01-30 09:24:58.563102,-0.08116086572408664
2023-01-30 09:24:58.568102,-0.079376705600497
2023-01-30 09:24:58.573102,-0.07844428718090055
2023-01-30 09:24:58.578102,-0.07887298899052193
2023-01-30 09:24:58.583102,-0.08058389276266081
2023-01-30 09:24:58.588102,-0.082639503370343
2023-01-30 09:24:58.593102,-0.08322834968566886
2023-01-30 09:24:58.598102,-0.07974003933289708
2023-01-30 09:24:58.603102,-0.06921271979808803
2023-01-30 09:24:58.608102,-0.04970244555704815
2023-01-30 09:24:58.613102,-0.02221345901489248
2023-01-30 09:24:58.618102,0.00813883700410966
2023-01-30 09:24:58.623102,0.032719176262617146
2023-01-30 09:24:58.628102,0.04170700715939578
2023-01-30 09:24:58.633102,0.02759854122996333
2023-01-30 09:24:58.638102,-0.01120445890887593
2023-01-30 09:24:58.643102,-0.0685155391693115
2023-01-30 09:24:58.648102,-0.13169999417437278
2023-01-30 09:24:58.653102,-0.1858814656734465
2023-01-30 09:24:58.658102,-0.21894797399445293
2023-01-30 09:24:58.663102,-0.22523581981658913
2023-01-30 09:24:58.668102,-0.2067305159751938
2023-01-30 09:24:58.673102,-0.1715052127838133
2023-01-30 09:24:58.678102,-0.13011337918179955
2023-01-30 09:24:58.683102,-0.09173870086669914
2023-01-30 09:24:58.688102,-0.06189919291992968
2023-01-30 09:24:58.693102,-0.04214306920766833
2023-01-30 09:24:58.698102,-0.031015700083506615
2023-01-30 09:24:58.703102,-0.025555094704031844
2023-01-30 09:24:58.708102,-0.0228015523454433
2023-01-30 09:24:58.713102,-0.020722946152091005
2023-01-30 09:24:58.718102,-0.018279927387704287
2023-01-30 09:24:58.723102,-0.015097459778189536
2023-01-30 09:24:58.728102,-0.011256596165497986
2023-01-30 09:24:58.733102,-0.007091959472745571
2023-01-30 09:24:58.738102,-0.0028391202537539186
2023-01-30 09:24:58.743102,0.0015145540237426426
2023-01-30 09:24:58.748102,0.006013017498757603
2023-01-30 09:24:58.753102,0.010625919327139856
2023-01-30 09:24:58.758102,0.015463133639089036
2023-01-30 09:24:58.763102,0.020819108933210283
2023-01-30 09:24:58.768102,0.026935270387870778
2023-01-30 09:24:58.773102,0.03408948704600326
2023-01-30 09:24:58.778102,0.04298531134032337
2023-01-30 09:24:58.783102,0.05452394485473631
2023-01-30 09:24:58.788102,0.06896993790644569
2023-01-30 09:24:58.793102,0.08577664941549296
2023-01-30 09:24:58.798102,0.10424333032477726
2023-01-30 09:24:58.803102,0.12352029979228969
2023-01-30 09:24:58.808102,0.14175316757138132
2023-01-30 09:24:58.813102,0.15638372302055337
2023-01-30 09:24:58.818102,0.1661580429362191
2023-01-30 09:24:58.823102,0.1720581501722334
2023-01-30 09:24:58.828102,0.1753546939090345
2023-01-30 09:24:58.833102,0.1754719018936156
2023-01-30 09:24:58.838102,0.17084457975382464
2023-01-30 09:24:58.843102,0.16123990714550007
2023-01-30 09:24:58.848102,0.14791004922178866
2023-01-30 09:24:58.853102,0.13181428611278517
2023-01-30 09:24:58.858102,0.11313839370551988
2023-01-30 09:24:58.863102,0.09258012473583217
2023-01-30 09:24:58.868102,0.07173401771289196
2023-01-30 09:24:58.873102,0.051831405609846025
2023-01-30 09:24:58.878102,0.03309104651723416
2023-01-30 09:24:58.883102,0.015602311119437174
2023-01-30 09:24:58.888102,-8.908040492929103e-05
2023-01-30 09:24:58.893102,-0.013606945984065566
2023-01-30 09:24:58.898102,-0.025093875846170788
2023-01-30 09:24:58.903102,-0.034546256065368555
2023-01-30 09:24:58.908102,-0.04153080359179904
2023-01-30 09:24:58.913102,-0.045941472053527777
2023-01-30 09:24:58.918102,-0.04840809873415972
2023-01-30 09:24:58.923102,-0.04961967468261711
2023-01-30 09:24:58.928102,-0.04980997098621962
2023-01-30 09:24:58.933102,-0.04916290566325178
2023-01-30 09:24:58.938102,-0.0480918091452531
2023-01-30 09:24:58.943102,-0.04678289219737037
2023-01-30 09:24:58.948102,-0.04501305584239841
2023-01-30 09:24:58.953102,-0.04274408146738998
2023-01-30 09:24:58.958102,-0.040413381353104266
2023-01-30 09:24:58.963102,-0.03836870193481432
2023-01-30 09:24:58.968102,-0.036492537709073396
2023-01-30 09:24:58.973102,-0.0346183776855468
2023-01-30 09:24:58.978102,-0.032815213176561914
2023-01-30 09:24:58.983102,-0.031012296676635694
2023-01-30 09:24:58.988102,-0.028852713436328666
2023-01-30 09:24:58.993102,-0.026228230446576982
2023-01-30 09:24:58.998102,-0.023555743153955602
2023-01-30 09:24:59.003102,-0.02129991911351689
2023-01-30 09:24:59.008102,-0.019639046149326836
2023-01-30 09:24:59.013102,-0.01877566240727895
2023-01-30 09:24:59.018102,-0.019067071601676
2023-01-30 09:24:59.023102,-0.02055466175079341
2023-01-30 09:24:59.028102,-0.02275816625688032
2023-01-30 09:24:59.033102,-0.025170445442199627
2023-01-30 09:24:59.038102,-0.027585688169073645
2023-01-30 09:24:59.043102,-0.029786229133605936
2023-01-30 09:24:59.048102,-0.0313809120599854
2023-01-30 09:24:59.053102,-0.032214324921369525
2023-01-30 09:24:59.058102,-0.032551797886326526
2023-01-30 09:24:59.063102,-0.03264705464243877
2023-01-30 09:24:59.068102,-0.03250782710394079
2023-01-30 09:24:59.073102,-0.032262407243251724
2023-01-30 09:24:59.078102,-0.03231302752922279
2023-01-30 09:24:59.083102,-0.03286341950297353
2023-01-30 09:24:59.088102,-0.03363595944537281
2023-01-30 09:24:59.093102,-0.034233730286359655
2023-01-30 09:24:59.098102,-0.03439722226853723
2023-01-30 09:24:59.103102,-0.03372887894511221
2023-01-30 09:24:59.108102,-0.03160947205550374
2023-01-30 09:24:59.113102,-0.027694702148437528
2023-01-30 09:24:59.118102,-0.022245428322589675
2023-01-30 09:24:59.123102,-0.015866756439208846
2023-01-30 09:24:59.128102,-0.00932237579734852
2023-01-30 09:24:59.133102,-0.0037503242492675365
2023-01-30 09:24:59.138102,-0.0005546537420923995
2023-01-30 09:24:59.143102,-0.0006731351604684879
2023-01-30 09:24:59.148102,-0.004080507207048801
2023-01-30 09:24:59.153102,-0.010048946365713926
2023-01-30 09:24:59.158102,-0.017523354580171496
2023-01-30 09:24:59.163102,-0.025170445442199707
2023-01-30 09:24:59.168102,-0.031623763524359576
2023-01-30 09:24:59.173102,-0.036108892410993465
2023-01-30 09:24:59.178102,-0.03867185098853735
2023-01-30 09:24:59.183102,-0.039690934121608616
2023-01-30 09:24:59.188102,-0.03948234032966631
2023-01-30 09:24:59.193102,-0.038488905876874924
2023-01-30 09:24:59.198102,-0.03742924087165878
2023-01-30 09:24:59.203102,-0.036974351853132206
2023-01-30 09:24:59.208102,-0.03744135714063885
2023-01-30 09:24:59.213102,-0.038729310035705594
2023-01-30 09:24:59.218102,-0.03995293390772131
2023-01-30 09:24:59.223102,-0.038825474679469965
2023-01-30 09:24:59.228102,-0.031915700737539694
2023-01-30 09:24:59.233102,-0.01632352732121945
2023-01-30 09:24:59.238102,0.00820621682360399
2023-01-30 09:24:59.243102,0.03796001523733122
2023-01-30 09:24:59.248102,0.06519961196591592
2023-01-30 09:24:59.253102,0.07974247634410847
2023-01-30 09:24:59.258102,0.07247499339683741
2023-01-30 09:24:59.263102,0.039666891098022385
2023-01-30 09:24:59.268102,-0.014452630153825708
2023-01-30 09:24:59.273102,-0.07851640880107871
2023-01-30 09:24:59.278102,-0.1376426251771749
2023-01-30 09:24:59.283102,-0.17818848788738245
2023-01-30 09:24:59.288102,-0.19211261617255768
2023-01-30 09:24:59.293102,-0.17936646938323966
2023-01-30 09:24:59.298102,-0.14703029365690481
2023-01-30 09:24:59.303102,-0.10570625960826859
2023-01-30 09:24:59.308102,-0.06546105735100749
2023-01-30 09:24:59.313102,-0.03319998830556852
2023-01-30 09:24:59.318102,-0.01172147913163126
2023-01-30 09:24:59.323102,-0.00012020270514763828
2023-01-30 09:24:59.328102,0.00465176103716963
2023-01-30 09:24:59.333102,0.005841851234436035
2023-01-30 09:24:59.338102,0.005805142575301299
2023-01-30 09:24:59.343102,0.005986094474792423
2023-01-30 09:24:59.348102,0.007106342417596039
2023-01-30 09:24:59.353102,0.00923156738281247
2023-01-30 09:24:59.358102,0.01216263836349978
2023-01-30 09:24:59.363102,0.01589079760015008
2023-01-30 09:24:59.368102,0.020315696120622173
2023-01-30 09:24:59.373102,0.02473771572113023
2023-01-30 09:24:59.378102,0.028482776113122468
2023-01-30 09:24:59.383102,0.0321422033011913
2023-01-30 09:24:59.388102,0.037252372946091496
2023-01-30 09:24:59.393102,0.04433075711131081
2023-01-30 09:24:59.398102,0.05212503013908796
2023-01-30 09:24:59.403102,0.05952437967061991
2023-01-30 09:24:59.408102,0.06753455948061643
2023-01-30 09:24:59.413102,0.07844428718090043
2023-01-30 09:24:59.418102,0.09334274882201449
2023-01-30 09:24:59.423102,0.11123558133840543
2023-01-30 09:24:59.428102,0.13034055166265154
2023-01-30 09:24:59.433102,0.1493158042430876
2023-01-30 09:24:59.438102,0.1671171998198549
2023-01-30 09:24:59.443102,0.18249174952507002
2023-01-30 09:24:59.448102,0.19415511592053486
2023-01-30 09:24:59.453102,0.2012674063444136
2023-01-30 09:24:59.458102,0.2035241363676268
2023-01-30 09:24:59.463102,0.2009548842906951
2023-01-30 09:24:59.468102,0.1937886103955027
2023-01-30 09:24:59.473102,0.1824196279048918
2023-01-30 09:24:59.478102,0.1674066425467927
2023-01-30 09:24:59.483102,0.14950811862945546
2023-01-30 09:24:59.488102,0.12966790504818626
2023-01-30 09:24:59.493102,0.10887961089611038
2023-01-30 09:24:59.498102,0.08805824392078333
2023-01-30 09:24:59.503102,0.06801068782806398
2023-01-30 09:24:59.508102,0.049380905368661555
2023-01-30 09:24:59.513102,0.03255089372396456
2023-01-30 09:24:59.518102,0.0177078516292967
2023-01-30 09:24:59.523102,0.005072554107755356
2023-01-30 09:24:59.528102,-0.005042026161502373
2023-01-30 09:24:59.533102,-0.012428959831595402
2023-01-30 09:24:59.538102,-0.017120069108836983
2023-01-30 09:24:59.543102,-0.019328594207763634
2023-01-30 09:24:59.548102,-0.019460572835842602
2023-01-30 09:24:59.553102,-0.018222730606794336
2023-01-30 09:24:59.558102,-0.016484983587432757
2023-01-30 09:24:59.563102,-0.01488109491765498
2023-01-30 09:24:59.568102,-0.013606094719530195
2023-01-30 09:24:59.573102,-0.012573203071951866
2023-01-30 09:24:59.578102,-0.011569466293854646
2023-01-30 09:24:59.583102,-0.010265311226248665
2023-01-30 09:24:59.588102,-0.008372558369536022
2023-01-30 09:24:59.593102,-0.005962054245173931
2023-01-30 09:24:59.598102,-0.0035009625706582215
2023-01-30 09:24:59.603102,-0.001514554023742543
2023-01-30 09:24:59.608102,-0.0003291086428418642
2023-01-30 09:24:59.613102,-9.616216266294941e-05
2023-01-30 09:24:59.618102,-0.000788762280663055
2023-01-30 09:24:59.623102,-0.002091526985168419
2023-01-30 09:24:59.628102,-0.003522678464947442
2023-01-30 09:24:59.633102,-0.004784067627042513
2023-01-30 09:24:59.638102,-0.005867792536929888
2023-01-30 09:24:59.643102,-0.006827513687312622
2023-01-30 09:24:59.648102,-0.007668190439771706
2023-01-30 09:24:59.653102,-0.008486310951411762
2023-01-30 09:24:59.658102,-0.009466122655733442
2023-01-30 09:24:59.663102,-0.010649959556758461
2023-01-30 09:24:59.668102,-0.01190011797941482
2023-01-30 09:24:59.673102,-0.013126134872436504
2023-01-30 09:24:59.678102,-0.014340017323196529
2023-01-30 09:24:59.683102,-0.015458067879080677
2023-01-30 09:24:59.688102,-0.016291755834805164
2023-01-30 09:24:59.693102,-0.01680433750152584
2023-01-30 09:24:59.698102,-0.017165692728628015
2023-01-30 09:24:59.703102,-0.01750151440501214
2023-01-30 09:24:59.708102,-0.017802512451724293
2023-01-30 09:24:59.713102,-0.01812656782567501
2023-01-30 09:24:59.718102,-0.01866429935429241
2023-01-30 09:24:59.723102,-0.019544959068298357
2023-01-30 09:24:59.728102,-0.02078195570237211
2023-01-30 09:24:59.733102,-0.022429823875427208
2023-01-30 09:24:59.738102,-0.02452097814243183
2023-01-30 09:24:59.743102,-0.026733081787824582
2023-01-30 09:24:59.748102,-0.028307284166636568
2023-01-30 09:24:59.753102,-0.028391879051923724
2023-01-30 09:24:59.758102,-0.02638312694610901
2023-01-30 09:24:59.763102,-0.022069215774536105
2023-01-30 09:24:59.768102,-0.01584751423008444
2023-01-30 09:24:59.773102,-0.008967122063040742
2023-01-30 09:24:59.778102,-0.0033074179958852406
2023-01-30 09:24:59.783102,-0.0006490945816040323
2023-01-30 09:24:59.788102,-0.002029977464426755
2023-01-30 09:24:59.793102,-0.007524689193814907
2023-01-30 09:24:59.798102,-0.016239413781688652
2023-01-30 09:24:59.803102,-0.02646863460540764
2023-01-30 09:24:59.808102,-0.03625439549484546
2023-01-30 09:24:59.813102,-0.04416247457265852
2023-01-30 09:24:59.818102,-0.049650870916152196
2023-01-30 09:24:59.823102,-0.05286514759063709
2023-01-30 09:24:59.828102,-0.054316599827327894
2023-01-30 09:24:59.833102,-0.05469223111867895
2023-01-30 09:24:59.838102,-0.05462140364656797
2023-01-30 09:24:59.843102,-0.05445182323455801
2023-01-30 09:24:59.848102,-0.05433858150274388
2023-01-30 09:24:59.853102,-0.05447586625814436
2023-01-30 09:24:59.858102,-0.05490050205565803
2023-01-30 09:24:59.863102,-0.054836474359035395
2023-01-30 09:24:59.868102,-0.052251373802594765
2023-01-30 09:24:59.873102,-0.0441624745726585
2023-01-30 09:24:59.878102,-0.027733345294778756
2023-01-30 09:24:59.883102,-0.0020194053649901776
2023-01-30 09:24:59.888102,0.030125004410225215
2023-01-30 09:24:59.893102,0.061207216233014984
2023-01-30 09:24:59.898102,0.08057339289047592
2023-01-30 09:24:59.903102,0.078107714653015
2023-01-30 09:24:59.908102,0.04856375002576781
2023-01-30 09:24:59.913102,-0.005433162208646555
2023-01-30 09:24:59.918102,-0.07315723406463871
2023-01-30 09:24:59.923102,-0.13885816931724537
2023-01-30 09:24:59.928102,-0.1871792270607641
2023-01-30 09:24:59.933102,-0.2084314823150634
2023-01-30 09:24:59.938102,-0.20123150829337205
2023-01-30 09:24:59.943102,-0.17174562811851493
2023-01-30 09:24:59.948102,-0.13051667180853813
2023-01-30 09:24:59.953102,-0.0884211063385009
2023-01-30 09:24:59.958102,-0.05329576692794812
2023-01-30 09:24:59.963102,-0.028512081131338938
2023-01-30 09:24:59.968102,-0.01369765650655619
2023-01-30 09:24:59.973102,-0.006442864891141586
2023-01-30 09:24:59.978102,-0.003737325037982221
2023-01-30 09:24:59.983102,-0.0029089055024087047
2023-01-30 09:24:59.988102,-0.0022310023999083813
2023-01-30 09:24:59.993102,-0.0009616216411814378
2023-01-30 09:24:59.998102,0.001155403090271875
2023-01-30 09:25:00.003102,0.004183053970336866
2023-01-30 09:25:00.008102,0.007814778717613251
2023-01-30 09:25:00.013102,0.011515418998897046
2023-01-30 09:25:00.018102,0.015207371301600024
2023-01-30 09:25:00.023102,0.019376676529645833
2023-01-30 09:25:00.028102,0.024181614112955295
2023-01-30 09:25:00.033102,0.029089054092764757
2023-01-30 09:25:00.038102,0.03398736388287862
2023-01-30 09:25:00.043102,0.04007558152079583
2023-01-30 09:25:00.048102,0.04881293125263528
2023-01-30 09:25:00.053102,0.06034175679087626
2023-01-30 09:25:00.058102,0.07377705714082333
2023-01-30 09:25:00.063102,0.08870959281921384
2023-01-30 09:25:00.068102,0.10537964539368247
2023-01-30 09:25:00.073102,0.12342413514852513
2023-01-30 09:25:00.078102,0.14146074312077597
2023-01-30 09:25:00.083102,0.1580665558576584
2023-01-30 09:25:00.088102,0.17233116246825428
2023-01-30 09:25:00.093102,0.18330912292003623
2023-01-30 09:25:00.098102,0.18984578218923634
2023-01-30 09:25:00.103102,0.1913627088069914
2023-01-30 09:25:00.108102,0.1882140370564247
2023-01-30 09:25:00.113102,0.18097719550132751
2023-01-30 09:25:00.118102,0.16994121704185572
2023-01-30 09:25:00.123102,0.155494213104248
2023-01-30 09:25:00.128102,0.1383780878563902
2023-01-30 09:25:00.133102,0.1192410811781883
2023-01-30 09:25:00.138102,0.09846024657970827
2023-01-30 09:25:00.143102,0.0766893252730369
2023-01-30 09:25:00.148102,0.05508446494630191
2023-01-30 09:25:00.153102,0.03469049930572495
2023-01-30 09:25:00.158102,0.01600917110243478
2023-01-30 09:25:00.163102,-0.0006490945816040229
2023-01-30 09:25:00.168102,-0.01489462945609578
2023-01-30 09:25:00.173102,-0.02658883854746809
2023-01-30 09:25:00.178102,-0.035967475422730766
2023-01-30 09:25:00.183102,-0.043152771890163324
2023-01-30 09:25:00.188102,-0.047946476136136916
2023-01-30 09:25:00.193102,-0.05034089088439936
2023-01-30 09:25:00.198102,-0.05083407308833125
2023-01-30 09:25:00.203102,-0.05002836510539045
2023-01-30 09:25:00.208102,-0.0483256867083431
2023-01-30 09:25:00.213102,-0.04620591923594467
2023-01-30 09:25:00.218102,-0.044328677365310286
2023-01-30 09:25:00.223102,-0.043056607246398905
2023-01-30 09:25:00.228102,-0.04222370278672925
2023-01-30 09:25:00.233102,-0.04159013554453838
2023-01-30 09:25:00.238102,-0.04117201453993634
2023-01-30 09:25:00.243102,-0.04096508026123039
2023-01-30 09:25:00.248102,-0.04078867019946995
2023-01-30 09:25:00.253102,-0.0406525544822216
2023-01-30 09:25:00.258102,-0.040894195534289586
2023-01-30 09:25:00.263102,-0.04171033948659894
2023-01-30 09:25:00.268102,-0.042892675087449976
2023-01-30 09:25:00.273102,-0.04421055316925039
2023-01-30 09:25:00.278102,-0.0456785785255441
2023-01-30 09:25:00.283102,-0.04726370424032209
2023-01-30 09:25:00.288102,-0.048741189738398416
2023-01-30 09:25:00.293102,-0.05007644742727274
2023-01-30 09:25:00.298102,-0.05157800112819829
2023-01-30 09:25:00.303102,-0.05344212055206289
2023-01-30 09:25:00.308102,-0.05548746885860491
2023-01-30 09:25:00.313102,-0.057529013603925684
2023-01-30 09:25:00.318102,-0.05964222097303868
2023-01-30 09:25:00.323102,-0.06185631081461901
2023-01-30 09:25:00.328102,-0.06396315439228287
2023-01-30 09:25:00.333102,-0.06584703922271726
2023-01-30 09:25:00.338102,-0.06764532458002681
2023-01-30 09:25:00.343102,-0.06938099861145008
2023-01-30 09:25:00.348102,-0.0708128219050737
2023-01-30 09:25:00.353102,-0.07188121974468228
2023-01-30 09:25:00.358102,-0.07296091500806891
2023-01-30 09:25:00.363102,-0.07445355504751189
2023-01-30 09:25:00.368102,-0.07643992917180414
2023-01-30 09:25:00.373102,-0.07887701690196991
2023-01-30 09:25:00.378102,-0.08173407728797359
2023-01-30 09:25:00.383102,-0.08471886813640585
2023-01-30 09:25:00.388102,-0.08726131279022828
2023-01-30 09:25:00.393102,-0.0890461653470993
2023-01-30 09:25:00.398102,-0.09028916066400958
2023-01-30 09:25:00.403102,-0.09133001416921602
2023-01-30 09:25:00.408102,-0.0922862146383585
2023-01-30 09:25:00.413102,-0.09322921931743612
2023-01-30 09:25:00.418102,-0.09424893548617946
2023-01-30 09:25:00.423102,-0.09508033841848369
2023-01-30 09:25:00.428102,-0.09502841011753821
2023-01-30 09:25:00.433102,-0.09354174137115459
2023-01-30 09:25:00.438102,-0.09063826731476517
2023-01-30 09:25:00.443102,-0.08671423047780977
2023-01-30 09:25:00.448102,-0.08238792154102234
2023-01-30 09:25:00.453102,-0.07870873063802705
2023-01-30 09:25:00.458102,-0.07700601688800897
2023-01-30 09:25:00.463102,-0.078107714653015
2023-01-30 09:25:00.468102,-0.0818603857546359
2023-01-30 09:25:00.473102,-0.08748352527618389
2023-01-30 09:25:00.478102,-0.09401256460186255
2023-01-30 09:25:00.483102,-0.10032117366790766
2023-01-30 09:25:00.488102,-0.10531916031732647
2023-01-30 09:25:00.493102,-0.10856708139181119
2023-01-30 09:25:00.498102,-0.11044243166942098
2023-01-30 09:25:00.503102,-0.11150002479553207
2023-01-30 09:25:00.508102,-0.1120026577583804
2023-01-30 09:25:00.513102,-0.11222124099731427
2023-01-30 09:25:00.518102,-0.11270208225629992
2023-01-30 09:25:00.523102,-0.11388003826141338
2023-01-30 09:25:00.528102,-0.11565768969909383
2023-01-30 09:25:00.533102,-0.11738996207714072
2023-01-30 09:25:00.538102,-0.11767534432401058
2023-01-30 09:25:00.543102,-0.11388003826141353
2023-01-30 09:25:00.548102,-0.1026265657453141
2023-01-30 09:25:00.553102,-0.08183400332927698
2023-01-30 09:25:00.558102,-0.052952622270317495
2023-01-30 09:25:00.563102,-0.021780729293823183
2023-01-30 09:25:00.568102,0.002404886636743953
2023-01-30 09:25:00.573102,0.009207527153193904
2023-01-30 09:25:00.578102,-0.009048396858065662
2023-01-30 09:25:00.583102,-0.05320171639323232
2023-01-30 09:25:00.588102,-0.11555630109436393
2023-01-30 09:25:00.593102,-0.18213114142417902
2023-01-30 09:25:00.598102,-0.23746159828504232
2023-01-30 09:25:00.603102,-0.26947042346000677
2023-01-30 09:25:00.608102,-0.2729863902532488
2023-01-30 09:25:00.613102,-0.2510313391685484
2023-01-30 09:25:00.618102,-0.21297093705566048
2023-01-30 09:25:00.623102,-0.1701589524745941
2023-01-30 09:25:00.628102,-0.13177849460944138
2023-01-30 09:25:00.633102,-0.10301371663808818
2023-01-30 09:25:00.638102,-0.08513815261926627
2023-01-30 09:25:00.643102,-0.07630467414855951
2023-01-30 09:25:00.648102,-0.07298537486726953
2023-01-30 09:25:00.653102,-0.07197737693786617
2023-01-30 09:25:00.658102,-0.07158985635976141
2023-01-30 09:25:00.663102,-0.07116000354289997
2023-01-30 09:25:00.668102,-0.07018385389144301
2023-01-30 09:25:00.673102,-0.0684193819761276
2023-01-30 09:25:00.678102,-0.06618731117007982
2023-01-30 09:25:00.683102,-0.06373147666454301
2023-01-30 09:25:00.688102,-0.06056107997932537
2023-01-30 09:25:00.693102,-0.05613466352224342
2023-01-30 09:25:00.698102,-0.05092303933945504
2023-01-30 09:25:00.703102,-0.045965515077114126
2023-01-30 09:25:00.708102,-0.04141121345397542
2023-01-30 09:25:00.713102,-0.036229096353054026
2023-01-30 09:25:00.718102,-0.02941313943134139
2023-01-30 09:25:00.723102,-0.020795067772269162
2023-01-30 09:25:00.728102,-0.010520219315640494
2023-01-30 09:25:00.733102,0.0016107162227853185
2023-01-30 09:25:00.738102,0.015870444092848043
2023-01-30 09:25:00.743102,0.03199796006083475
2023-01-30 09:25:00.748102,0.04914748442302122
2023-01-30 09:25:00.753102,0.06623169034719449
2023-01-30 09:25:00.758102,0.08210943656756291
2023-01-30 09:25:00.763102,0.09560923278331741
2023-01-30 09:25:00.768102,0.1056229781474589
2023-01-30 09:25:00.773102,0.11125962436199179
2023-01-30 09:25:00.778102,0.1119754292451495
2023-01-30 09:25:00.783102,0.10767757892608631
2023-01-30 09:25:00.788102,0.09873109100906777
2023-01-30 09:25:00.793102,0.08582472801208492
2023-01-30 09:25:00.798102,0.0698442814919196
2023-01-30 09:25:00.803102,0.05183140560984598
2023-01-30 09:25:00.808102,0.03285043201738055
2023-01-30 09:25:00.813102,0.01372714899480341
2023-01-30 09:25:00.818102,-0.005038317101462496
2023-01-30 09:25:00.823102,-0.023078918457031212
2023-01-30 09:25:00.828102,-0.04002760089999026
2023-01-30 09:25:00.833102,-0.0556057691574097
2023-01-30 09:25:00.838102,-0.06962407323825279
2023-01-30 09:25:00.843102,-0.08178591728210435
2023-01-30 09:25:00.848102,-0.09167816765002525
2023-01-30 09:25:00.853102,-0.09907107055187221
2023-01-30 09:25:00.858102,-0.10406548875620081
2023-01-30 09:25:00.863102,-0.10688424110412593
2023-01-30 09:25:00.868102,-0.10775156955709848
2023-01-30 09:25:00.873102,-0.10707657039165488
2023-01-30 09:25:00.878102,-0.10549606110647139
2023-01-30 09:25:00.883102,-0.1035666465759277
2023-01-30 09:25:00.888102,-0.10158352757325702
2023-01-30 09:25:00.893102,-0.09976824373006812
2023-01-30 09:25:00.898102,-0.09835739278169083
2023-01-30 09:25:00.903102,-0.09736418724060054
2023-01-30 09:25:00.908102,-0.09651315877762655
2023-01-30 09:25:00.913102,-0.09558518975973111
2023-01-30 09:25:00.918102,-0.09462567300976707
2023-01-30 09:25:00.923102,-0.09371002763509746
2023-01-30 09:25:00.928102,-0.09277655433043287
2023-01-30 09:25:00.933102,-0.09183486551046366
2023-01-30 09:25:00.938102,-0.0910644803901129
2023-01-30 09:25:00.943102,-0.09053667634725567
2023-01-30 09:25:00.948102,-0.09009093193866993
2023-01-30 09:25:00.953102,-0.08964717388153068
2023-01-30 09:25:00.958102,-0.08938785837876204
2023-01-30 09:25:00.963102,-0.08947889506816854
2023-01-30 09:25:00.968102,-0.08987310008762193
2023-01-30 09:25:00.973102,-0.09053667634725575
2023-01-30 09:25:00.978102,-0.0915803293434077
2023-01-30 09:25:00.983102,-0.09298881143331514
2023-01-30 09:25:00.988102,-0.09449758437929509
2023-01-30 09:25:00.993102,-0.09592175483703609
2023-01-30 09:25:00.998102,-0.09735246154391397
2023-01-30 09:25:01.003102,-0.09887874126434315
2023-01-30 09:25:01.008102,-0.10040596897982766
2023-01-30 09:25:01.013102,-0.10190784931182857
2023-01-30 09:25:01.018102,-0.10353639746616583
2023-01-30 09:25:01.023102,-0.10527352988719943
2023-01-30 09:25:01.028102,-0.10675233648880297
2023-01-30 09:25:01.033102,-0.10760545730590816
2023-01-30 09:25:01.038102,-0.10770565856857674
2023-01-30 09:25:01.043102,-0.10690828412771214
2023-01-30 09:25:01.048102,-0.10490885044002389
2023-01-30 09:25:01.053102,-0.10159532725810995
2023-01-30 09:25:01.058102,-0.09727041183293839
2023-01-30 09:25:01.063102,-0.09236375987529746
2023-01-30 09:25:01.068102,-0.08726737163861333
2023-01-30 09:25:01.073102,-0.08265137672424311
2023-01-30 09:25:01.078102,-0.07955731682471204
2023-01-30 09:25:01.083102,-0.07885297387838358
2023-01-30 09:25:01.088102,-0.0807719333607746
2023-01-30 09:25:01.093102,-0.08505543321371063
2023-01-30 09:25:01.098102,-0.09111777608753224
2023-01-30 09:25:01.103102,-0.09786903858184809
2023-01-30 09:25:01.108102,-0.10386558279964117
2023-01-30 09:25:01.113102,-0.10808627307414993
2023-01-30 09:25:01.118102,-0.11041659357526303
2023-01-30 09:25:01.123102,-0.11125962436199183
2023-01-30 09:25:01.128102,-0.11105983528933165
2023-01-30 09:25:01.133102,-0.11039416491985315
2023-01-30 09:25:01.138102,-0.11003052870489145
2023-01-30 09:25:01.143102,-0.11046628654003143
2023-01-30 09:25:01.148102,-0.1115899283073852
2023-01-30 09:25:01.153102,-0.1128463000059127
2023-01-30 09:25:01.158102,-0.11314302028741982
2023-01-30 09:25:01.163102,-0.11024992167949668
2023-01-30 09:25:01.168102,-0.1009450423403127
2023-01-30 09:25:01.173102,-0.08272349834442135
2023-01-30 09:25:01.178102,-0.05593864109453926
2023-01-30 09:25:01.183102,-0.024881958961486806
2023-01-30 09:25:01.188102,0.002451948838467359
2023-01-30 09:25:01.193102,0.015938878059387245
2023-01-30 09:25:01.198102,0.006735237212210203
2023-01-30 09:25:01.203102,-0.02829571627080445
2023-01-30 09:25:01.208102,-0.08399938941636563
2023-01-30 09:25:01.213102,-0.14823397994041437
2023-01-30 09:25:01.218102,-0.20601980423521865
2023-01-30 09:25:01.223102,-0.24420380592346175
2023-01-30 09:25:01.228102,-0.25537522051071004
2023-01-30 09:25:01.233102,-0.24009287357330314
2023-01-30 09:25:01.238102,-0.20597984731443078
2023-01-30 09:25:01.243102,-0.16376416385173787
2023-01-30 09:25:01.248102,-0.123008917770115
2023-01-30 09:25:01.253102,-0.09000778198242168
2023-01-30 09:25:01.258102,-0.06746801524589952
2023-01-30 09:25:01.263102,-0.054716270416974966
2023-01-30 09:25:01.268102,-0.04872740835284649
2023-01-30 09:25:01.273102,-0.046229958534240695
2023-01-30 09:25:01.278102,-0.04521821749545965
2023-01-30 09:25:01.283102,-0.04459520429372785
2023-01-30 09:25:01.288102,-0.043387272096298286
2023-01-30 09:25:01.293102,-0.0411333665251731
2023-01-30 09:25:01.298102,-0.038326791664214405
2023-01-30 09:25:01.303102,-0.035483837127685436
2023-01-30 09:25:01.308102,-0.03223815149209285
2023-01-30 09:25:01.313102,-0.028151473030447925
2023-01-30 09:25:01.318102,-0.02369549878610016
2023-01-30 09:25:01.323102,-0.019328594207763464
2023-01-30 09:25:01.328102,-0.014254631097344405
2023-01-30 09:25:01.333102,-0.007380445953458486
2023-01-30 09:25:01.338102,0.001125089811955983
2023-01-30 09:25:01.343102,0.010770162567496308
2023-01-30 09:25:01.348102,0.022634034851775814
2023-01-30 09:25:01.353102,0.03822445869445799
2023-01-30 09:25:01.358102,0.05646534838429555
2023-01-30 09:25:01.363102,0.07409294694662089
2023-01-30 09:25:01.368102,0.08968897934765793
2023-01-30 09:25:01.373102,0.10520140826702112
2023-01-30 09:25:01.378102,0.12228601038827609
2023-01-30 09:25:01.383102,0.1389543265104293
2023-01-30 09:25:01.388102,0.151476930464781
2023-01-30 09:25:01.393102,0.15830695629119856
2023-01-30 09:25:01.398102,0.16033169669070824
2023-01-30 09:25:01.403102,0.15816271305084217
2023-01-30 09:25:01.408102,0.15124023650603982
2023-01-30 09:25:01.413102,0.13945917785167689
2023-01-30 09:25:01.418102,0.12389674477311215
2023-01-30 09:25:01.423102,0.10561009496450416
2023-01-30 09:25:01.428102,0.0850112662806864
2023-01-30 09:25:01.433102,0.06281793117523188
2023-01-30 09:25:01.438102,0.040571439450167
2023-01-30 09:25:01.443102,0.019713243469595815
2023-01-30 09:25:01.448102,0.0008342503576995833
2023-01-30 09:25:01.453102,-0.015866756439208925
2023-01-30 09:25:01.458102,-0.03008916252949903
2023-01-30 09:25:01.463102,-0.04175841808319094
2023-01-30 09:25:01.468102,-0.05124167871477258
2023-01-30 09:25:01.473102,-0.058803163468837794
2023-01-30 09:25:01.478102,-0.06423148527191053
2023-01-30 09:25:01.483102,-0.06731351464986801
2023-01-30 09:25:01.488102,-0.06832403216348906
2023-01-30 09:25:01.493102,-0.06779432296752919
2023-01-30 09:25:01.498102,-0.06615563864118341
2023-01-30 09:25:01.503102,-0.06387571990489946
2023-01-30 09:25:01.508102,-0.061594490403386534
2023-01-30 09:25:01.513102,-0.059764783829450614
2023-01-30 09:25:01.518102,-0.05832580035081696
2023-01-30 09:25:01.523102,-0.05695204064249987
2023-01-30 09:25:01.528102,-0.05544010005067594
2023-01-30 09:25:01.533102,-0.053682528436183874
2023-01-30 09:25:01.538102,-0.051526182673337015
2023-01-30 09:25:01.543102,-0.04894654080271721
2023-01-30 09:25:01.548102,-0.04623002707545182
2023-01-30 09:25:01.553102,-0.0437537841498851
2023-01-30 09:25:01.558102,-0.04167668027542449
2023-01-30 09:25:01.563102,-0.04000345990061756
2023-01-30 09:25:01.568102,-0.03880336025677605
2023-01-30 09:25:01.573102,-0.03815233707427966
2023-01-30 09:25:01.578102,-0.03795560277804001
2023-01-30 09:25:01.583102,-0.038032136857509564
2023-01-30 09:25:01.588102,-0.038325222905677074
2023-01-30 09:25:01.593102,-0.03887355327606196
2023-01-30 09:25:01.598102,-0.039637512339330036
2023-01-30 09:25:01.603102,-0.04050831124186509
2023-01-30 09:25:01.608102,-0.04142754199823163
2023-01-30 09:25:01.613102,-0.04233539104461666
2023-01-30 09:25:01.618102,-0.043045461734347396
2023-01-30 09:25:01.623102,-0.043345093727111816
2023-01-30 09:25:01.628102,-0.04323113884793667
2023-01-30 09:25:01.633102,-0.04293640702962876
2023-01-30 09:25:01.638102,-0.042739546607743484
2023-01-30 09:25:01.643102,-0.04284024238586426
2023-01-30 09:25:01.648102,-0.04334234553631617
2023-01-30 09:25:01.653102,-0.044162474572658574
2023-01-30 09:25:01.658102,-0.044914295477390856
2023-01-30 09:25:01.663102,-0.04500389099121089
2023-01-30 09:25:01.668102,-0.04389037314966881
2023-01-30 09:25:01.673102,-0.041229527443647364
2023-01-30 09:25:01.678102,-0.036877088908466985
2023-01-30 09:25:01.683102,-0.030988257378339684
2023-01-30 09:25:01.688102,-0.024212633534559484
2023-01-30 09:25:01.693102,-0.01769383810460558
2023-01-30 09:25:01.698102,-0.012777843655883785
2023-01-30 09:25:01.703102,-0.010649959556758355
2023-01-30 09:25:01.708102,-0.012036397763753783
2023-01-30 09:25:01.713102,-0.016924541443586287
2023-01-30 09:25:01.718102,-0.02442023287148933
2023-01-30 09:25:01.723102,-0.03300766274332993
2023-01-30 09:25:01.728102,-0.04114417649262817
2023-01-30 09:25:01.733102,-0.04774451255798317
2023-01-30 09:25:01.738102,-0.05230111890203865
2023-01-30 09:25:01.743102,-0.05481243133544923
2023-01-30 09:25:01.748102,-0.05568674905358324
2023-01-30 09:25:01.753102,-0.05555769056081768
2023-01-30 09:25:01.758102,-0.05504401305813652
2023-01-30 09:25:01.763102,-0.05466818809509272
2023-01-30 09:25:01.768102,-0.05488641706969275
2023-01-30 09:25:01.773102,-0.05584617704153059
2023-01-30 09:25:01.778102,-0.05678204920759467
2023-01-30 09:25:01.783102,-0.05558172985911356
2023-01-30 09:25:01.788102,-0.04912185833923505
2023-01-30 09:25:01.793102,-0.034474134445190416
2023-01-30 09:25:01.798102,-0.010668391936854144
2023-01-30 09:25:01.803102,0.019569000229239474
2023-01-30 09:25:01.808102,0.049096516196703396
2023-01-30 09:25:01.813102,0.06772220134735098
2023-01-30 09:25:01.818102,0.0657197110169321
2023-01-30 09:25:01.823102,0.03805617615580536
2023-01-30 09:25:01.828102,-0.012737365185617496
2023-01-30 09:25:01.833102,-0.07647296041250222
2023-01-30 09:25:01.838102,-0.13822630098689767
2023-01-30 09:25:01.843102,-0.18330912292003626
2023-01-30 09:25:01.848102,-0.20226987471682267
2023-01-30 09:25:01.853102,-0.19364655017852786
2023-01-30 09:25:01.858102,-0.16338766533143798
2023-01-30 09:25:01.863102,-0.12171725928783413
2023-01-30 09:25:01.868102,-0.07921180519252603
2023-01-30 09:25:01.873102,-0.04363358020782481
2023-01-30 09:25:01.878102,-0.018440863003677813
2023-01-30 09:25:01.883102,-0.0032214324455707836
2023-01-30 09:25:01.888102,0.004597388405269967
2023-01-30 09:25:01.893102,0.008005499839782743
2023-01-30 09:25:01.898102,0.009446974928200593
2023-01-30 09:25:01.903102,0.010529756546020437
2023-01-30 09:25:01.908102,0.012041291717827566
2023-01-30 09:25:01.913102,0.014207959175109638
2023-01-30 09:25:01.918102,0.017090779759984853
2023-01-30 09:25:01.923102,0.02074698731303207
2023-01-30 09:25:01.928102,0.025085216653782754
2023-01-30 09:25:01.933102,0.029834311455488115
2023-01-30 09:25:01.938102,0.034805421067083286
2023-01-30 09:25:01.943102,0.04007558152079581
2023-01-30 09:25:01.948102,0.04590144897201979
2023-01-30 09:25:01.953102,0.05267282575368865
2023-01-30 09:25:01.958102,0.060984788751141
2023-01-30 09:25:01.963102,0.07144849002361284
2023-01-30 09:25:01.968102,0.08425808190010094
2023-01-30 09:25:01.973102,0.09909510612487793
2023-01-30 09:25:01.978102,0.11544924537431492
2023-01-30 09:25:01.983102,0.13272783160209647
2023-01-30 09:25:01.988102,0.15006508572256336
2023-01-30 09:25:01.993102,0.16650478541851044
2023-01-30 09:25:01.998102,0.18151654734837758
2023-01-30 09:25:02.003102,0.1948726177215575
2023-01-30 09:25:02.008102,0.20588996704675006
2023-01-30 09:25:02.013102,0.2134319245815277
2023-01-30 09:25:02.018102,0.21697952710136595
2023-01-30 09:25:02.023102,0.2170139551162719
2023-01-30 09:25:02.028102,0.21379199847199287
2023-01-30 09:25:02.033102,0.20638804137706748
2023-01-30 09:25:02.038102,0.19375957025004537
2023-01-30 09:25:02.043102,0.17638544738292686
2023-01-30 09:25:02.048102,0.1560588836844415
2023-01-30 09:25:02.053102,0.13436257839202878
2023-01-30 09:25:02.058102,0.11220819404171106
2023-01-30 09:25:02.063102,0.09065687656402577
2023-01-30 09:25:02.068102,0.07111850020799115
2023-01-30 09:25:02.073102,0.05449990555644022
2023-01-30 09:25:02.078102,0.040881268683347884
2023-01-30 09:25:02.083102,0.03021895885467519
2023-01-30 09:25:02.088102,0.022697890312099758
2023-01-30 09:25:02.093102,0.01817464828491209
2023-01-30 09:25:02.098102,0.015897456229734208
2023-01-30 09:25:02.103102,0.015073418617248525
2023-01-30 09:25:02.108102,0.015265218026875459
2023-01-30 09:25:02.113102,0.016083121299743527
2023-01-30 09:25:02.118102,0.01704492879907684
2023-01-30 09:25:02.123102,0.01800636574625956
2023-01-30 09:25:02.128102,0.019270927280067362
2023-01-30 09:25:02.133102,0.02101143263280396
2023-01-30 09:25:02.138102,0.02295504101653541
2023-01-30 09:25:02.143102,0.024809837341308528
2023-01-30 09:25:02.148102,0.02657754512360533
2023-01-30 09:25:02.153102,0.028247635811567254
2023-01-30 09:25:02.158102,0.029600128943773264
2023-01-30 09:25:02.163102,0.030531486496329346
2023-01-30 09:25:02.168102,0.03119516328025823
2023-01-30 09:25:02.173102,0.03161331266164767
2023-01-30 09:25:02.178102,0.031519963188812575
2023-01-30 09:25:02.183102,0.030795931816101036
2023-01-30 09:25:02.188102,0.02971288161933166
2023-01-30 09:25:02.193102,0.02856016159057606
2023-01-30 09:25:02.198102,0.027368259965542648
2023-01-30 09:25:02.203102,0.02615610882639877
2023-01-30 09:25:02.208102,0.025073989542604636
2023-01-30 09:25:02.213102,0.024112662300467387
2023-01-30 09:25:02.218102,0.023032637314256595
2023-01-30 09:25:02.223102,0.021780729293823235
2023-01-30 09:25:02.228102,0.020645815149396222
2023-01-30 09:25:02.233102,0.01983344554901115
2023-01-30 09:25:02.238102,0.019227870173508334
2023-01-30 09:25:02.243102,0.018727581948041902
2023-01-30 09:25:02.248102,0.018438319375856493
2023-01-30 09:25:02.253102,0.018342932686209592
2023-01-30 09:25:02.258102,0.01813560797750538
2023-01-30 09:25:02.263102,0.017573636025190277
2023-01-30 09:25:02.268102,0.01666018382881774
2023-01-30 09:25:02.273102,0.01533786486834278
2023-01-30 09:25:02.278102,0.01341522729992021
2023-01-30 09:25:02.283102,0.011034607887267976
2023-01-30 09:25:02.288102,0.008880193275260339
2023-01-30 09:25:02.293102,0.0077170133590698286
2023-01-30 09:25:02.298102,0.008011457204974268
2023-01-30 09:25:02.303102,0.01007298659533256
2023-01-30 09:25:02.308102,0.014058419834637233
2023-01-30 09:25:02.313102,0.019520919770002285
2023-01-30 09:25:02.318102,0.025280451564639074
2023-01-30 09:25:02.323102,0.03000259399414052
2023-01-30 09:25:02.328102,0.03269507752506551
2023-01-30 09:25:02.333102,0.03264705464243879
2023-01-30 09:25:02.338102,0.029469935447129916
2023-01-30 09:25:02.343102,0.023559730499982806
2023-01-30 09:25:02.348102,0.016176085034884637
2023-01-30 09:25:02.353102,0.008750757202505956
2023-01-30 09:25:02.358102,0.002298648926253312
2023-01-30 09:25:02.363102,-0.002500216243788472
2023-01-30 09:25:02.368102,-0.005211415920613253
2023-01-30 09:25:02.373102,-0.005962054245173912
2023-01-30 09:25:02.378102,-0.005455829785962735
2023-01-30 09:25:02.383102,-0.004375378601253018
2023-01-30 09:25:02.388102,-0.0030647725343525755
2023-01-30 09:25:02.393102,-0.0019232432823627571
2023-01-30 09:25:02.398102,-0.0015500154065562033
2023-01-30 09:25:02.403102,-0.002019405364990225
2023-01-30 09:25:02.408102,-0.002151011979875553
2023-01-30 09:25:02.413102,0.00040868920041242516
2023-01-30 09:25:02.418102,0.008643998205936924
2023-01-30 09:25:02.423102,0.025362771004438373
2023-01-30 09:25:02.428102,0.05149388451742526
2023-01-30 09:25:02.433102,0.0838293656706808
2023-01-30 09:25:02.438102,0.11427521122014683
2023-01-30 09:25:02.443102,0.13200661540031425
2023-01-30 09:25:02.448102,0.12746261001919654
2023-01-30 09:25:02.453102,0.09621024131774894
2023-01-30 09:25:02.458102,0.04153097627771101
2023-01-30 09:25:02.463102,-0.025290649384260126
2023-01-30 09:25:02.468102,-0.08812944244332283
2023-01-30 09:25:02.473102,-0.1318864077329635
2023-01-30 09:25:02.478102,-0.1477999183043467
2023-01-30 09:25:02.483102,-0.13544440269470204
2023-01-30 09:25:02.488102,-0.10153697856520413
2023-01-30 09:25:02.493102,-0.057000122964382144
2023-01-30 09:25:02.498102,-0.013104509552495628
2023-01-30 09:25:02.503102,0.02223750017583369
2023-01-30 09:25:02.508102,0.04609057374987904
2023-01-30 09:25:02.513102,0.05938013643026344
2023-01-30 09:25:02.518102,0.0648598170325597
2023-01-30 09:25:02.523102,0.06589512526988983
2023-01-30 09:25:02.528102,0.06566212389139053
2023-01-30 09:25:02.533102,0.0661114901304244
2023-01-30 09:25:02.538102,0.06760980483478213
2023-01-30 09:25:02.543102,0.069861814379692
2023-01-30 09:25:02.548102,0.07277958426680277
2023-01-30 09:25:02.553102,0.07623255252838124
2023-01-30 09:25:02.558102,0.07976732679094135
2023-01-30 09:25:02.563102,0.08327643573284138
2023-01-30 09:25:02.568102,0.08743191219398382
2023-01-30 09:25:02.573102,0.09286861121654502
2023-01-30 09:25:02.578102,0.09947561052367321
2023-01-30 09:25:02.583102,0.10705252736806854
2023-01-30 09:25:02.588102,0.11600676659890204
2023-01-30 09:25:02.593102,0.1267176866531371
2023-01-30 09:25:02.598102,0.138883566190685
2023-01-30 09:25:02.603102,0.1522727906703948
