-7.35
-12.45
-17.17
-21
-23.79
-25.72
-27.22
-28.79
-30.96
-34.07
-38.11
-42.47
-45.84
-46.36
-42.29
-32.61
-17.66
0.84
20.34
38.25
52.73
63.02
69.27
72.07
72
69.34
64.29
57.22
48.84
40.19
32.29
25.84
21.05
17.7
15.35
13.59
12.21
11.16
10.33
9.51
8.29
6.24
3.12
-0.93
-5.44
-9.74
-13.24
-15.59
-16.88
-17.53
-18.15
-19.26
-21.21
-23.98
-27.27
-30.49
-32.77
-33.24
-31.13
-26.11
-18.46
-9.09
0.72
9.61
16.6
21.21
23.46
23.76
22.59
20.43
17.65
14.63
11.8
9.61
8.46
8.56
9.82
11.87
14.2
16.28
17.86
18.9
19.46
19.49
18.69
16.61
12.91
7.7
1.59
-4.45
-9.44
-12.86
-14.73
-15.64
-16.41
-17.78
-20.2
-23.7
-27.89
-32.03
-35.07
-35.87
-33.54
-27.75
-18.97
-8.41
2.24
11.35
17.75
20.98
21.3
19.34
15.85
11.38
6.25
0.66
-5.12
-10.54
-14.88
-17.36
-17.52
-15.42
-11.69
-7.24
-3
0.44
2.89
4.46
5.3
5.51
5.12
4.15
2.81
1.49
0.67
0.72
1.69
3.21
4.53
4.82
3.49
0.52
-3.38
-6.95
-8.68
-7.37
-2.55
5.34
15.06
25.03
33.81
40.48
44.77
47.05
47.95
48.15
48.11
48.01
47.81
47.32
46.31
44.66
42.41
39.79
37.15
34.86
33.17
32.1
31.41
30.55
28.73
25.03
18.51
8.58
-4.82
-20.99
-38.58
-55.82
-71.16
-83.69
-93.32
-100.49
-105.75
-109.19
-110.39
-108.57
-103.28
-94.65
-83.65
-71.62
-59.86
-49.26
-40.16
-32.57
-26.52
-22.15
-19.75
-19.41
-20.84
-23.19
-25.33
-26.11
-24.76
-21.17
-15.81
-9.54
-3.3
2.17
6.42
9.28
10.78
11
10.12
8.39
6.07
3.47
0.82
-1.72
-4.06
-6.22
-8.26
-10.31
-12.49
-14.74
-16.77
-17.95
-17.47
-14.67
-9.35
-2.03
6.18
13.89
19.94
23.71
25.19
24.75
22.85
19.78
15.67
10.7
5.22
-0.12
-4.48
-7.14
-7.65
-6.12
-3.16
0.35
3.48
5.56
6.35
6
4.96
3.76
2.82
2.29
2.04
1.74
1.02
-0.41
-2.71
-5.84
-9.52
-13.23
-16.22
-17.61
-16.62
-12.78
-6.22
2.3
11.54
20.14
27
31.58
33.92
34.48
33.76
32.12
29.66
26.35
22.23
17.58
12.95
9
6.31
5.15
5.42
6.64
8.15
9.31
9.64
8.96
7.38
5.27
3.09
1.24
-0.09
-0.98
-1.7
-2.65
-4.18
-6.55
-9.78
-13.53
-17.14
-19.59
-19.91
-17.34
-11.82
-4.05
4.68
12.89
19.38
23.45
24.98
24.22
21.62
17.71
13.04
8.24
3.9
0.51
-1.62
-2.41
-2.02
-0.7
1.27
3.6
5.99
8.13
9.64
10.22
9.75
8.25
5.99
3.31
0.54
-2.1
-4.47
-6.57
-8.45
-10.25
-12.25
-14.75
-17.9
-21.45
-24.66
-26.38
-25.51
-21.45
-14.42
-5.49
3.84
12.1
18.3
22.13
23.74
23.52
21.85
19.08
15.58
11.85
8.55
6.32
5.55
6.23
7.95
10.11
12.16
13.82
15.04
15.95
16.54
16.66
16
14.25
11.26
7.16
2.36
-2.58
-7.11
-10.8
-13.52
-15.42
-16.89
-18.46
-20.63
-23.66
-27.53
-31.76
-35.56
-37.91
-37.89
-34.98
-29.25
-21.38
-12.48
-3.73
3.97
10.08
14.51
17.38
18.85
19
17.92
15.77
12.91
9.89
7.36
5.83
5.63
6.69
8.66
11
13.15
14.7
15.42
15.24
14.18
12.33
9.75
6.61
3.13
-0.41
-3.72
-6.52
-8.65
-10.1
-11
-11.62
-12.35
-13.5
-15.24
-17.4
-19.41
-20.49
-19.81
-16.81
-11.45
-4.26
3.9
11.97
19.04
24.53
28.13
29.86
29.87
28.4
25.73
22.26
18.47
14.98
12.42
11.26
11.64
13.22
15.35
17.23
18.22
18.03
16.67
14.43
11.56
8.25
4.55
0.58
-3.45
-7.24
-10.46
-12.96
-14.75
-16.12
-17.44
-19.07
-21.27
-24.05
-27.1
-29.86
-31.49
-31.15
-28.19
-22.52
-14.68
-5.75
2.93
10.23
15.43
18.35
19.25
18.57
16.73
14.14
11.11
8.02
5.37
3.63
3.11
3.86
5.58
7.69
9.6
10.82
11.21
10.88
10.15
9.36
8.63
7.85
6.72
4.92
2.33
-0.86
-4.17
-7.05
-9.1
-10.28
-10.88
-11.38
-12.23
-13.65
-15.7
-18.3
-21.27
-24.26
-26.72
-27.86
-26.83
-23.08
-16.64
-8.24
0.87
9.37
16.2
20.89
23.53
24.54
24.41
23.5
22.06
20.22
18.23
16.46
15.3
15.05
15.77
17.2
18.88
20.35
21.32
21.73
21.68
21.18
20.12
18.23
15.26
11.16
6.18
0.83
-4.26
-8.59
-11.91
-14.21
-15.66
-16.51
-16.97
-17.18
-17.28
-17.44
-17.84
-18.71
-20.24
-22.52
-25.53
-28.97
-32.22
-34.4
-34.55
-31.88
-26.18
-17.9
-8.12
1.85
10.81
17.99
23.06
26.06
27.17
26.64
24.85
22.31
19.61
17.37
16.01
15.66
16.16
17.17
18.34
19.45
20.4
21.19
21.8
22.17
22.14
21.5
20.01
17.49
13.96
9.63
4.92
0.44
-3.26
-5.73
-6.93
-7.14
-6.95
-6.97
-7.69
-9.24
-11.44
-13.94
-16.37
-18.51
-20.4
-22.22
-24.27
-26.84
-30.09
-34.05
-38.49
-42.92
-46.46
-48
-46.41
-40.96
-31.68
-19.48
-5.99
6.93
17.75
25.53
30.09
31.77
31.12
28.73
25.15
20.95
16.73
13.14
10.66
9.55
9.79
11.1
13.04
15.15
17.01
18.31
18.87
18.63
17.65
16.06
13.98
11.54
8.8
5.85
2.74
-0.39
-3.43
-6.22
-8.69
-10.89
-12.93
-15
-17.2
-19.57
-21.98
-24.33
-26.59
-28.88
-31.33
-33.94
-36.28
-37.56
-36.87
-33.54
-27.55
-19.61
-10.91
-2.84
3.56
7.77
9.78
9.93
8.63
6.17
2.75
-1.45
-6.02
-10.3
-13.48
-14.78
-13.69
-10.13
-4.36
3.12
11.72
20.85
29.84
37.89
44.14
47.86
48.71
46.83
42.84
37.53
31.61
25.51
19.39
13.19
6.94
0.78
-4.96
-9.96
-14.01
-17.19
-19.77
-22.12
-24.58
-27.35
-30.51
-33.96
-37.36
-40.1
-41.33
-40.11
-35.78
-28.28
-18.28
-7.09
3.71
12.76
19.26
23.03
24.35
23.78
21.86
19.1
15.92
12.75
9.98
7.98
6.97
6.99
7.87
9.28
10.83
12.21
13.23
13.81
13.96
13.64
12.74
11.2
8.98
6.21
3.1
-0.13
-3.32
-6.46
-9.56
-12.61
-15.47
-17.92
-19.78
-21.08
-22.03
-22.95
-24.16
-25.78
-27.82
-30.14
-32.55
-34.69
-35.97
-35.57
-32.66
-26.77
-18.07
-7.53
3.44
13.3
20.96
25.97
28.45
28.83
27.6
25.13
21.68
17.57
13.24
9.24
6.14
4.34
3.92
4.67
6.17
7.99
9.8
11.41
12.69
13.48
13.58
12.83
11.22
8.96
6.42
3.92
1.67
-0.4
-2.49
-4.84
-7.51
-10.44
-13.45
-16.35
-18.96
-21.18
-23.04
-24.69
-26.47
-28.79
-31.97
-35.99
-40.3
-43.8
-45.17
-43.29
-37.7
-28.84
-17.87
-6.37
4.2
12.77
18.82
22.32
23.53
22.92
20.98
18.25
15.27
12.53
10.46
9.3
9.14
9.88
11.26
12.96
14.66
16.09
17.08
17.55
17.42
16.65
15.26
13.3
10.85
8.06
5.08
2.06
-0.82
-3.41
-5.64
-7.5
-9.07
-10.51
-11.94
-13.46
-15.14
-17.02
-19.12
-21.34
-23.34
-24.54
-24.14
-21.45
-16.16
-8.58
0.34
9.34
17.15
22.94
26.38
27.61
27.04
25.11
22.2
18.72
15.08
11.8
9.36
8.12
8.15
9.19
10.69
12.05
12.83
12.86
12.29
11.4
10.37
9.17
7.52
5.12
1.84
-2.06
-5.99
-9.33
-11.62
-12.86
-13.44
-13.97
-14.96
-16.72
-19.28
-22.5
-26.07
-29.51
-32.19
-33.34
-32.23
-28.46
-22.16
-14.1
-5.48
2.41
8.5
12.29
13.82
13.57
12.17
10.2
8.05
5.97
4.13
2.75
2.05
2.19
3.2
4.82
6.69
8.44
9.85
10.91
11.72
12.29
12.47
11.91
10.23
7.27
3.21
-1.47
-6.09
-10.02
-12.89
-14.67
-15.66
-16.29
-17.06
-18.33
-20.35
-23.13
-26.37
-29.42
-31.34
-31.13
-28.1
-22.12
-13.85
-4.49
4.53
12.05
17.48
20.81
22.45
22.9
22.54
21.55
20.1
18.39
16.78
15.68
15.43
16.2
17.79
19.81
21.76
23.2
23.86
23.69
22.8
21.34
19.45
17.19
14.55
11.47
7.99
4.21
0.37
-3.27
-6.48
-9.18
-11.46
-13.55
-15.7
-18.08
-20.73
-23.57
-26.5
-29.37
-31.95
-33.79
-34.28
-32.76
-28.86
-22.66
-14.81
-6.35
1.67
8.45
13.61
17.12
19.12
19.77
19.22
17.66
15.39
12.84
10.5
8.81
8.06
8.28
9.3
10.8
12.43
13.93
15.17
16.13
16.8
17.2
17.28
17.02
16.38
15.35
13.89
11.89
9.24
5.9
1.96
-2.32
-6.58
-10.48
-13.78
-16.43
-18.45
-20.01
-21.32
-22.65
-24.19
-25.91
-27.44
-28.04
-26.81
-23.1
-16.73
-8.27
1.19
10.37
18.16
23.93
27.59
29.3
29.44
28.32
26.22
23.44
20.29
17.15
14.36
12.22
10.9
10.34
10.34
10.52
10.53
10.11
9.17
7.82
6.22
4.42
2.3
-0.42
-3.91
-8.13
-12.68
-16.9
-20.15
-21.97
-22.34
-21.58
-20.21
-18.78
-17.77
-17.55
-18.36
-20.27
-22.96
-25.76
-27.63
-27.5
-24.63
-18.91
-11.04
-2.25
6.03
12.65
16.97
18.92
18.8
17
13.82
9.49
4.3
-1.26
-6.4
-10.27
-12.2
-12.05
-10.26
-7.73
-5.43
-4.06
-3.75
-4.09
-4.39
-3.85
-1.92
1.65
6.82
13.28
20.59
28.2
35.54
42.03
47.13
50.41
51.49
50.06
45.89
38.92
29.38
18.05
6.23
-4.36
-12.04
-15.7
-15.16
-11.31
-5.77
-0.34
3.6
5.4
5.18
3.57
1.24
-1.45
-4.58
-8.61
-14.18
-21.89
-32.01
-44.39
-58.22
-72.11
-84.05
-91.9
-93.81
-88.81
-77.22
-60.62
-41.45
-22.36
-5.51
7.93
17.81
24.87
30.26
35.2
40.6
46.75
53.31
59.39
63.94
66.08
65.47
62.27
56.98
50.13
42.06
33.09
23.81
15.31
9.24
7.37
10.98
20.42
34.87
52.23
69.36
82.16
86.03
76.65
51.02
8.69
-47.66
-112.46
-178.58
-238.95
-287.99
-322.43
-341.31
-345.6
-337.57
-320.17
-296.4
-269.01
-240.32
-212.54
-188.2
-170.12
-160.76
-160.7
-167.54
-175.69
-177.92
-168.04
-143.51
-106.49
-62.75
-18.9
20.24
53.12
80.98
106.25
130.91
155.97
181.77
208.48
235.77
261.99
283.34
294.32
289.4
265.33
222.71
165.6
99.48
28.88
-43.59
-116.13
-185.4
-245.23
-287.33
-304.35
-293.31
-257.55
-205.56
-147.4
-90.81
-38.98
9.23
56.86
106.18
157.5
209.43
260.13
307.9
350.93
386.32
409.97
417.38
405.48
374.27
327.42
271.34
213.26
159.38
113.77
78.31
53.15
37.23
28.64
24.91
23.49
22.26
19.94
16.41
12.25
8.22
4.81
2.1
-0.26
-2.65
-5.27
-8.09
-10.79
-12.99
-14.37
-14.83
-14.5
-13.64
-12.58
-11.6
-10.92
-10.66
-10.81
-11.19
-11.55
-11.6
-11.13
-10.07
-8.56
-6.87
-5.31
-4.19
-3.62
-3.6
-3.98
-4.6
-5.4
-6.41
-7.76
-9.52
-11.66
-13.92
-15.85
-17.02
-17.11
-16.1
-14.26
-12.04
-9.91
-8.19
-6.96
-6.11
-5.46
-4.83
-4.21
-3.65
-3.29
-3.2
-3.41
-3.8
-4.23
-4.53
-4.56
-4.29
-3.83
-3.38
-3.16
-3.37
-4.05
-5.16
-6.56
-8.08
-9.45
-10.36
-10.49
-9.58
-7.68
-5.19
-2.82
-1.37
-1.35
-2.8
-5.28
-8.02
-10.28
-11.57
-11.67
-10.56
-8.34
-5.15
-1.23
3.06
7.21
10.69
13.01
13.88
13.26
11.31
8.32
4.66
0.61
-3.59
-7.79
-11.83
-15.45
-18.27
-19.85
-19.87
-18.26
-15.26
-11.3
-6.86
-2.35
1.95
5.81
9
11.28
12.5
12.61
11.8
10.32
8.44
6.38
4.3
2.33
0.66
-0.56
-1.33
-1.84
-2.46
-3.51
-5.11
-6.99
-8.62
-9.36
-8.78
-6.9
-4.16
-1.29
1.06
2.55
3.2
3.33
3.28
3.24
3.16
2.85
2.18
1.17
0.11
-0.58
-0.55
0.32
1.83
3.6
5.21
6.37
6.95
6.99
6.56
5.75
4.64
3.35
2.05
0.9
-0.03
-0.75
-1.37
-2.04
-2.86
-3.89
-5.09
-6.32
-7.39
-8.06
-8.05
-7.24
-5.71
-3.8
-2.01
-0.81
-0.39
-0.68
-1.37
-2.17
-2.98
-3.94
-5.28
-7.19
-9.64
-12.35
-14.91
-16.99
-18.51
-19.71
-21.11
-23.29
-26.64
-31.18
-36.45
-41.74
-46.36
-50.05
-53.18
-56.6
-61.26
-67.71
-75.81
-84.74
-93.34
-100.52
-105.42
-107.48
-106.29
-101.81
-94.71
-86.64
-79.98
-76.92
-78.16
-82.14
-85.51
-84.4
-76.5
-62.2
-44.57
-28.11
-16.95
-13.34
-17.03
-25.65
-35.3
-41.73
-41.29
-32.08
-14.75
7.63
30.51
49.96
64.12
73.72
80.77
86.94
92.34
96.07
97.62
97.67
97.76
98.24
96.82
89.22
72.33
47.58
21.82
4.73
3.46
18
40.89
61.67
73.18
76.1
78.76
92.24
124.11
173.77
232.35
286.71
325.23
342.27
339.17
322.22
298.7
273.57
247.63
218.66
184.03
143.33
99.48
57.2
20.54
-9.35
-34.54
-58.85
-85.13
-113.35
-140.72
-163.06
-176.84
-180.98
-177.47
-170.31
-163.87
-160.9
-161.45
-163.4
-163.49
-158.78
-147.8
-130.85
-109.51
-85.8
-61.41
-37.39
-14.42
6.95
26.12
42.23
54.25
61.24
62.6
58.23
48.75
35.49
20.44
5.96
-5.67
-12.66
-14.09
-10.07
-1.78
8.95
20.14
30.14
37.96
43.25
46.17
47.11
46.32
43.9
39.77
33.88
26.29
17.4
7.75
-2
-11.27
-19.69
-27.08
-33.41
-38.62
-42.64
-45.28
-46.29
-45.51
-42.95
-38.84
-33.6
-27.68
-21.56
-15.63
-10.29
-5.84
-2.5
-0.19
1.46
3.08
5.26
8.21
11.64
14.76
16.64
16.58
14.33
10.1
4.44
-2.05
-8.78
-15.16
-20.61
-24.58
-26.65
-26.71
-25.05
-22.27
-19.08
-16.16
-13.9
-12.46
-11.78
-11.76
-12.28
-13.25
-14.56
-16.11
-17.71
-19.14
-20.21
-20.69
-20.42
-19.34
-17.54
-15.19
-12.58
-9.96
-7.43
-4.97
-2.51
0.01
2.58
5.06
7.25
8.96
10.09
10.6
10.5
9.77
8.48
6.78
4.87
2.97
1.22
-0.37
-1.93
-3.55
-5.2
-6.73
-7.88
-8.47
-8.51
-8.17
-7.72
-7.35
-7.13
-7.02
-7.01
-7.16
-7.6
-8.38
-9.44
-10.62
-11.65
-12.28
-12.37
-11.91
-11
-9.77
-8.35
-6.85
-5.35
-3.9
-2.52
-1.2
0.08
1.31
2.44
3.37
4.04
4.43
4.62
4.71
4.81
4.97
5.14
5.27
5.25
5.05
4.68
4.21
3.73
3.32
3
2.72
2.42
2.05
1.6
1.08
0.52
-0.07
-0.67
-1.3
-1.99
-2.78
-3.68
-4.71
-5.77
-6.74
-7.43
-7.71
-7.49
-6.81
-5.79
-4.57
-3.27
-1.96
-0.69
0.47
1.45
2.16
2.59
2.73
2.67
2.46
2.14
1.7
1.13
0.42
-0.36
-1.13
-1.79
-2.26
-2.51
-2.54
-2.42
-2.25
-2.14
-2.23
-2.56
-3.1
-3.74
-4.3
-4.68
-4.86
-4.94
-5.04
-5.29
-5.71
-6.28
-6.94
-7.63
-8.34
-9.04
-9.63
-9.95
-9.82
-9.12
-7.85
-6.13
-4.1
-1.9
0.42
2.84
5.35
7.87
10.2
12.1
13.36
13.89
13.73
13.04
12.03
10.9
9.79
8.76
7.82
6.94
6.06
5.16
4.2
3.24
2.36
1.68
1.34
1.42
1.94
2.82
3.87
4.89
5.68
6.13
6.2
5.91
5.27
4.28
3
1.53
0.07
-1.13
-1.84
-2
-1.71
-1.27
-0.99
-1.07
-1.5
-2.09
-2.61
-2.9
-2.98
-2.99
-3.15
-3.55
-4.15
-4.77
-5.2
-5.3
-5.07
-4.61
-4.05
-3.51
-3.02
-2.56
-2.07
-1.53
-0.98
-0.52
-0.28
-0.28
-0.43
-0.58
-0.55
-0.26
0.23
0.75
1.04
0.89
0.19
-1.04
-2.68
-4.54
-6.43
-8.15
-9.52
-10.43
-10.83
-10.7
-10.14
-9.25
-8.18
-7.11
-6.2
-5.58
-5.34
-5.46
-5.89
-6.51
-7.2
-7.84
-8.39
-8.87
-9.29
-9.65
-9.91
-10.01
-9.93
-9.72
-9.46
-9.25
-9.12
-9.01
-8.79
-8.28
-7.39
-6.13
-4.65
-3.12
-1.73
-0.56
0.36
1.05
1.52
1.76
1.76
1.59
1.36
1.23
1.33
1.62
1.99
2.25
2.31
2.25
2.25
2.53
3.2
4.24
5.47
6.71
7.78
8.6
9.13
9.35
9.23
8.75
7.9
6.68
5.14
3.32
1.33
-0.7
-2.58
-4.12
-5.17
-5.66
-5.63
-5.21
-4.5
-3.62
-2.64
-1.63
-0.7
0.04
0.48
0.56
0.26
-0.35
-1.19
-2.13
-3.05
-3.83
-4.41
-4.72
-4.74
-4.47
-3.9
-3.08
-2.02
-0.73
0.76
2.43
4.21
6
7.69
9.16
10.3
11.09
11.57
11.86
12.07
12.24
12.38
12.38
12.18
11.72
11.01
10.15
9.23
8.33
7.46
6.59
5.66
4.65
3.59
2.58
1.75
1.18
0.92
0.9
0.95
0.88
0.49
-0.33
-1.62
-3.32
-5.32
-7.52
-9.79
-12.02
-14.08
-15.84
-17.16
-17.97
-18.25
-18.1
-17.68
-17.23
-17
-17.19
-17.92
-19.16
-20.78
-22.53
-24.15
-25.35
-25.98
-25.99
-25.45
-24.51
-23.25
-21.71
-19.82
-17.53
-14.84
-11.97
-9.26
-7.13
-5.96
-5.92
-6.96
-8.78
-10.92
-12.87
-14.27
-14.93
-14.83
-14.19
-13.3
-12.47
-11.86
-11.44
-11.01
-10.36
-9.34
-7.96
-6.39
-4.89
-3.66
-2.68
-1.72
-0.28
2.27
6.54
12.99
21.89
33.16
46.44
60.99
75.77
89.66
101.57
110.54
115.73
116.48
112.37
103.43
90.15
73.57
55.08
36.19
18.18
1.99
-11.73
-22.46
-29.74
-33.31
-33.25
-30.18
-25.17
-19.52
-14.34
-10.34
-7.77
-6.5
-6.19
-6.56
-7.35
-8.39
-9.52
-10.52
-11.18
-11.32
-10.85
-9.78
-8.32
-6.76
-5.44
-4.7
-4.71
-5.54
-7.05
-8.94
-10.82
-12.3
-13.08
-13.08
-12.4
-11.26
-9.97
-8.75
-7.7
-6.75
-5.75
-4.52
-3
-1.27
0.45
1.86
2.59
2.38
1.12
-1.01
-3.61
-6.15
-8.13
-9.28
-9.61
-9.43
-9.22
-9.43
-10.37
-12.17
-14.71
-17.74
-20.94
-24.03
-26.76
-28.92
-30.28
-30.56
-29.46
-26.76
-22.41
-16.58
-9.58
-1.72
6.74
15.57
24.55
33.37
41.59
48.66
54.1
57.49
58.55
57.1
53.04
46.47
37.74
27.55
16.88
6.78
-1.84
-8.36
-12.59
-14.65
-14.81
-13.4
-10.73
-7.21
-3.31
0.43
3.45
5.3
5.71
4.65
2.24
-1.26
-5.65
-10.73
-16.33
-22.21
-28.05
-33.39
-37.77
-40.82
-42.36
-42.44
-41.26
-39.11
-36.21
-32.76
-28.98
-25.1
-21.42
-18.23
-15.68
-13.82
-12.52
-11.63
-10.93
-10.28
-9.53
-8.58
-7.35
-5.79
-3.89
-1.7
0.7
3.25
5.88
8.48
10.88
12.87
14.24
14.9
14.88
14.34
13.44
12.28
10.87
9.21
7.34
5.44
3.72
2.32
1.24
0.31
-0.71
-1.96
-3.46
-5.03
-6.39
-7.28
-7.49
-6.96
-5.74
-4.03
-2.1
-0.27
1.15
1.92
1.9
1.14
-0.16
-1.7
-3.19
-4.38
-5.08
-5.24
-4.82
-3.95
-2.78
-1.57
-0.55
0.05
0.07
-0.52
-1.63
-3.09
-4.73
-6.42
-8.21
-10.32
-13.1
-16.92
-22.01
-28.37
-35.82
-44.1
-52.95
-62.2
-71.69
-81.18
-90.48
-99.61
-108.87
-118.7
-129.17
-139.46
-147.75
-151.7
-149.38
-140.13
-124.98
-106.27
-86.65
-68.19
-51.8
-37.48
-24.82
-13.53
-3.65
4.7
11.51
17.04
21.72
25.98
30.08
34.01
37.61
40.65
43.14
45.31
47.56
50.27
53.63
57.68
62.47
68.23
75.59
85.46
98.85
116.49
138.55
164.65
193.83
224.71
255.47
283.85
307.2
322.83
328.45
322.63
305.09
276.9
240.36
198.74
155.83
115.26
79.76
50.57
27.38
8.71
-7.18
-21.45
-34.31
-45.15
-53.24
-58.37
-61.2
-63.17
-66.11
-71.82
-81.75
-96.72
-116.65
-140.27
-165.15
-188.28
-207.02
-219.97
-227.49
-231.3
-233.63
-236.14
-239.13
-241.68
-242.1
-238.75
-230.55
-217.08
-198.33
-174.56
-146.19
-114
-79.35
-44.05
-10.17
20.33
46.05
66.27
80.95
90.45
95.28
95.87
92.73
86.44
77.77
67.64
56.99
46.65
37.23
29.08
22.3
16.82
12.52
9.32
7.38
7.02
8.79
13.23
20.83
31.88
46.41
64.16
84.61
107.03
130.53
154.18
177.1
198.53
217.61
233.23
243.89
247.94
244.09
231.97
212.5
187.73
160.26
132.48
106.14
82.27
61.48
44.26
31
21.75
15.93
12.28
9.26
5.58
0.68
-5.36
-12.15
-19.48
-27.67
-37.44
-49.46
-63.9
-80.16
-97.1
-113.36
-127.87
-140.3
-151.54
-164
-180.95
-205.16
-237.07
-273.44
-307.37
-330.17
-334.46
-317.09
-280.48
-231.52
-178.79
-129.49
-87.62
-53.95
-27.43
-6.84
8.4
18.5
24
26.45
28.24
31.81
38.57
48.35
59.46
69.67
77.39
82.44
86.26
91.31
100.07
114.05
133.19
155.92
179.78
202.06
220.37
232.81
237.73
233.62
219.01
192.84
155.03
106.99
51.69
-6.76
-63.83
-115.17
-157.22
-187.39
-204.22
-207.37
-197.48
-176.2
-146.21
-111.15
-75.47
-43.96
-20.97
-9.62
-11.03
-24.16
-46.32
-73.97
-103.69
-132.76
-159.14
-181.22
-197.73
-207.73
-210.98
-207.99
-199.76
-187.32
-171.33
-151.99
-129.21
-103.02
-73.9
-42.77
-10.89
20.51
50.44
78.16
103.25
125.71
145.89
164.28
181.1
195.86
207.41
214.29
215.53
211.18
202.5
191.44
179.93
169.12
159.2
149.56
139.24
127.34
113.27
96.79
78.05
57.65
36.46
15.54
-4.13
-21.83
-37.07
-49.47
-58.78
-65
-68.4
-69.53
-69.22
-68.24
-67.09
-65.86
-64.27
-61.98
-58.76
-54.59
-49.56
-43.69
-36.79
-28.53
-18.7
-7.34
5.11
17.95
30.36
41.62
51.23
59.03
65.01
69.29
72.09
73.63
74.24
74.25
73.97
73.6
73.12
72.35
70.94
68.61
65.33
61.44
57.63
54.72
53.47
54.25
57.02
61.21
65.9
69.91
72.06
71.45
67.69
61.03
52.22
42.28
32.06
22.08
12.42
2.91
-6.56
-15.91
-24.8
-32.75
-39.3
-44.1
-46.95
-47.85
-46.91
-44.38
-40.62
-36.13
-31.41
-26.88
-22.85
-19.51
-16.98
-15.31
-14.52
-14.65
-15.64
-17.36
-19.62
-22.21
-24.96
-27.67
-30.14
-32.11
-33.37
-33.85
-33.74
-33.57
-33.94
-35.31
-37.7
-40.65
-43.35
-45.03
-45.17
-43.71
-40.94
-37.31
-33.18
-28.8
-24.3
-19.82
-15.57
-11.79
-8.64
-6.15
-4.23
-2.73
-1.52
-0.51
0.35
1.13
1.9
2.75
3.67
4.57
5.27
5.65
5.69
5.52
5.37
5.42
5.78
6.43
7.25
8.12
8.87
9.39
9.56
9.31
8.6
7.52
6.2
4.79
3.39
2.04
0.73
-0.52
-1.66
-2.58
-3.2
-3.5
-3.6
-3.65
-3.79
-4.04
-4.29
-4.33
-3.93
-3.01
-1.64
-0.04
1.53
2.9
4.05
5.13
6.27
7.53
8.74
9.56
9.61
8.62
6.55
3.59
0.11
-3.46
-6.67
-9.19
-10.89
-11.83
-12.3
-12.73
-13.57
-15.11
-17.42
-20.25
-23.17
-25.67
-27.32
-27.9
-27.42
-26.14
-24.41
-22.54
-20.6
-18.43
-15.66
-11.87
-6.84
-0.62
6.5
14.17
22.17
30.53
39.36
48.65
58.1
67.05
74.66
80.19
83.18
83.47
81.12
76.23
68.87
59.12
47.28
33.96
20.12
6.87
-4.83
-14.41
-21.78
-27.27
-31.44
-34.88
-38.01
-41
-43.71
-45.77
-46.63
-45.84
-43.12
-38.59
-32.75
-26.3
-19.95
-14.17
-9.07
-4.48
0.02
4.88
10.51
17.15
24.82
33.08
40.96
47.05
49.73
47.74
40.74
29.55
16.1
2.78
-8.3
-15.94
-20.09
-21.57
-21.56
-21.03
-20.52
-20.15
-19.84
-19.58
-19.46
-19.59
-20
-20.56
-21.07
-21.48
-21.94
-22.76
-24.32
-26.79
-30.01
-33.65
-37.29
-40.75
-44.15
-47.86
-52.32
-57.69
-63.7
-69.61
-74.39
-77.04
-76.88
-73.76
-68.08
-60.59
-52.16
-43.54
-35.17
-27.27
-19.87
-12.97
-6.58
-0.72
4.65
9.66
14.49
19.3
24.14
28.88
33.23
36.84
39.45
41
41.71
42.01
42.37
43.18
44.6
46.45
48.3
49.57
49.76
48.61
46.17
42.8
39
35.28
31.95
29.14
26.77
24.63
22.49
20.14
17.4
14.16
10.36
5.93
0.88
-4.72
-10.75
-16.96
-23.04
-28.55
-33
-35.99
-37.29
-36.94
-35.23
-32.56
-29.24
-25.4
-21
-15.98
-10.39
-4.59
0.9
5.59
9.3
12.24
14.88
17.65
20.61
23.47
25.62
26.64
26.43
25.4
24.16
23.33
23.33
24.48
27.09
31.54
38.03
46.27
55.39
64.12
71.39
76.84
80.98
84.8
88.93
93.03
95.65
94.72
88.63
77.14
61.7
44.97
29.74
17.82
9.36
2.93
-3.72
-12.52
-24.39
-39.02
-55.26
-71.69
-87.01
-100.13
-110.08
-115.99
-117.41
-114.51
-108.29
-100.33
-92.17
-84.78
-78.29
-72.08
-65.2
-56.73
-46.16
-33.43
-18.97
-3.65
11.29
24.53
34.96
42.03
45.87
47.3
47.37
46.92
46.16
44.55
40.99
34.3
23.76
9.44
-7.66
-26.09
-44.4
-61.49
-76.69
-89.47
-99.2
-105.05
-106.23
-102.37
-93.78
-81.5
-66.96
-51.52
-36.22
-21.72
-8.45
3.3
13.39
21.91
29.05
35
39.62
42.41
42.83
40.55
35.88
29.73
23.28
17.62
13.34
10.52
9
8.69
9.61
11.82
15.26
19.64
24.54
29.66
34.78
39.85
44.7
48.96
51.99
53.08
51.64
47.36
40.26
30.58
18.66
5
-9.7
-24.45
-38.04
-49.29
-57.34
-61.94
-63.52
-62.93
-61.18
-59
-56.75
-54.45
-52.05
-49.6
-47.28
-45.21
-43.31
-41.17
-38.19
-33.79
-27.68
-19.96
-11.05
-1.54
8.09
17.54
26.8
36.05
45.54
55.42
65.62
75.76
85.25
93.41
99.77
104.19
106.99
108.81
110.36
112.22
114.59
117.25
119.64
121.06
120.96
119.13
115.86
111.84
107.98
105
103.22
102.38
101.79
100.61
98.1
93.82
87.56
79.21
68.63
55.57
39.78
21.13
-0.14
-23.42
-47.77
-72.03
-95.05
-115.83
-133.64
-148.01
-158.8
-166.06
-169.92
-170.55
-168.09
-162.77
-155.01
-145.4
-134.72
-123.73
-112.99
-102.79
-93.17
-84.12
-75.7
-68.15
-61.61
-56.09
-51.21
-46.37
-40.97
-34.66
-27.55
-20.14
-13.2
-7.41
-3.19
-0.52
0.98
1.91
2.88
4.26
6.11
8.14
9.71
10.15
8.75
5.03
-1.19
-9.71
-19.9
-30.74
-41.11
-50.16
-57.52
-63.43
-68.38
-72.78
-76.5
-78.74
-78.31
-74.12
-65.7
-53.53
-38.97
-23.84
-9.86
1.88
11.06
17.99
23.21
27.11
29.71
30.78
30.14
27.93
24.71
21.26
18.26
16.2
15.29
15.67
17.47
20.8
25.59
31.38
37.35
42.41
45.5
45.81
42.96
37.01
28.36
17.62
5.48
-7.41
-20.55
-33.68
-46.78
-60
-73.51
-87.32
-101.14
-114.46
-126.62
-137.13
-145.72
-152.4
-157.31
-160.51
-161.9
-161.22
-158.19
-152.65
-144.7
-134.61
-122.83
-109.88
-96.36
-82.9
-69.93
-57.35
-44.28
-29.07
-9.86
14.63
44.31
77.42
110.96
141.62
166.92
185.82
198.73
206.92
211.71
213.86
213.53
210.57
205.07
197.63
189.21
180.83
173.12
166.11
159.31
152.06
143.84
134.55
124.4
113.79
103.06
92.42
81.9
71.42
60.81
49.95
38.72
27.12
15.26
3.36
-8.27
-19.34
-29.51
-38.37
-45.43
-50.21
-52.32
-51.6
-48.27
-42.88
-36.16
-28.87
-21.61
-14.74
-8.39
-2.59
2.6
7.05
10.57
13.02
14.48
15.22
15.78
16.73
18.53
21.37
25.07
29.2
33.28
36.92
40.01
42.66
45.12
47.57
50.01
52.17
53.78
54.64
54.73
54.24
53.43
52.46
51.31
49.78
47.47
43.82
38.03
29.19
16.49
-0.48
-21.35
-44.81
-68.76
-90.82
-108.84
-121.45
-128.15
-129.17
-125.28
-117.45
-106.81
-94.59
-82.01
-70.12
-59.6
-50.57
-42.66
-35.26
-27.91
-20.52
-13.35
-6.9
-1.53
2.68
5.96
8.77
11.52
14.47
17.65
20.9
24
26.74
28.99
30.7
31.97
33
34.09
35.52
37.44
39.75
42.16
44.2
45.46
45.7
44.99
43.67
42.26
41.24
40.97
41.58
43.02
45.09
47.5
49.95
52.08
53.54
53.92
52.76
49.6
44.02
35.82
25.09
12.44
-1.07
-14.02
-25.01
-32.93
-37.21
-37.91
-35.63
-31.33
-26.17
-21.31
-17.75
-16.13
-16.63
-18.94
-22.39
-26.11
-29.36
-31.67
-32.9
-33.13
-32.54
-31.36
-29.8
-28.14
-26.71
-25.84
-25.78
-26.56
-27.93
-29.47
-30.71
-31.36
-31.43
-31.15
-30.86
-30.9
-31.4
-32.3
-33.31
-34.07
-34.24
-33.55
-31.95
-29.47
-26.33
-22.75
-18.98
-15.16
-11.37
-7.68
-4.13
-0.81
2.17
4.7
6.75
8.35
9.59
10.61
11.47
12.18
12.72
13.06
13.21
13.24
13.18
13
12.54
11.6
10
7.71
4.89
1.81
-1.21
-3.95
-6.31
-8.32
-10.03
-11.44
-12.46
-12.95
-12.82
-12.1
-10.96
-9.69
-8.53
-7.66
-7.12
-6.82
-6.7
-6.68
-6.67
-6.55
-6.08
-4.96
-3
-0.21
3.15
6.63
9.66
11.91
13.26
13.85
13.98
13.91
13.78
13.57
13.21
12.61
11.84
11.02
10.27
9.71
9.33
9.05
8.74
8.26
7.56
6.68
5.72
4.85
4.24
4.02
4.16
4.63
5.32
6.13
6.95
7.69
8.25
8.54
8.58
8.44
8.24
8.02
7.66
6.85
5.17
2.33
-1.65
-6.4
-11.24
-15.44
-18.42
-19.86
-19.69
-18
-14.99
-10.94
-6.26
-1.47
2.84
6.12
8.06
8.57
7.78
5.94
3.3
0.1
-3.41
-6.96
-10.21
-12.82
-14.61
-15.51
-15.63
-15.16
-14.28
-13.15
-11.8
-10.27
-8.57
-6.76
-4.96
-3.3
-1.86
-0.62
0.53
1.72
3.02
4.38
5.59
6.38
6.54
6.02
5
3.75
2.54
1.45
0.45
-0.6
-1.87
-3.43
-5.36
-7.57
-9.92
-12.16
-13.92
-14.85
-14.68
-13.38
-11.15
-8.43
-5.71
-3.44
-1.85
-0.9
-0.38
-0.02
0.41
1
1.69
2.32
2.74
2.88
2.81
2.69
2.8
3.38
4.65
6.7
9.43
12.6
15.86
18.83
21.19
22.72
23.37
23.19
22.41
21.31
20.2
19.37
18.97
19
19.37
19.93
20.56
21.21
21.86
22.54
23.22
23.88
24.45
24.88
25.13
25.17
25.06
24.92
25.01
25.66
27.23
30
34.08
39.35
45.5
51.95
57.89
62.38
64.52
63.68
59.64
52.71
43.48
32.69
20.93
8.64
-3.82
-16.03
-27.37
-37.16
-44.79
-49.96
-52.8
-53.71
-53.23
-51.83
-49.74
-47.09
-43.9
-40.29
-36.5
-32.91
-29.85
-27.53
-25.92
-24.81
-23.88
-22.85
-21.55
-19.96
-18.22
-16.53
-15.15
-14.39
-14.65
-16.29
-19.49
-24.11
-29.6
-35.12
-39.76
-42.87
-44.24
-44.05
-42.71
-40.6
-37.96
-34.89
-31.47
-27.82
-24.13
-20.55
-17.11
-13.77
-10.46
-7.19
-4.1
-1.35
0.91
2.71
4.18
5.55
6.91
8.27
9.51
10.44
10.96
11.04
10.78
10.29
9.7
9.06
8.36
7.53
6.48
5.16
3.58
1.78
-0.16
-2.19
-4.27
-6.46
-8.83
-11.46
-14.44
-17.76
-21.31
-24.8
-27.77
-29.64
-29.91
-28.28
-24.86
-20.1
-14.69
-9.32
-4.46
-0.34
3.04
5.77
7.91
9.51
10.52
10.98
10.96
10.65
10.27
10.02
10.01
10.26
10.72
11.31
11.96
12.67
13.4
14.08
14.57
14.73
14.45
13.76
12.8
11.74
10.69
9.65
8.59
7.49
6.34
5.19
4.06
2.92
1.65
0.17
-1.59
-3.62
-5.89
-8.37
-11.04
-13.79
-16.37
-18.47
-19.74
-19.9
-18.85
-16.72
-13.8
-10.52
-7.25
-4.3
-1.89
-0.09
1.16
2.05
2.81
3.72
4.95
6.52
8.32
10.1
11.55
12.48
12.79
12.52
11.81
10.8
9.57
8.1
6.34
4.19
1.61
-1.29
-4.39
-7.46
-10.34
-12.84
-14.79
-16.02
-16.45
-16.17
-15.5
-14.85
-14.68
-15.26
-16.58
-18.36
-20.16
-21.51
-22.08
-21.69
-20.31
-18
-14.95
-11.36
-7.48
-3.57
0.16
3.46
6.07
7.77
8.43
8.14
7.1
5.65
4.05
2.41
0.74
-0.93
-2.46
-3.59
-3.98
-3.41
-1.88
0.49
3.51
7
10.82
14.77
18.51
21.59
23.55
24.12
23.29
21.33
18.64
15.63
12.62
9.8
7.3
5.08
3.06
1.01
-1.29
-4.01
-7.19
-10.69
-14.24
-17.43
-19.84
-21.07
-20.87
-19.12
-15.92
-11.62
-6.72
-1.78
2.65
6.2
8.71
10.19
10.84
10.88
10.47
9.75
8.74
7.52
6.18
4.82
3.56
2.43
1.45
0.53
-0.41
-1.39
-2.42
-3.44
-4.4
-5.21
-5.86
-6.37
-6.86
-7.45
-8.13
-8.75
-9.11
-9.1
-8.86
-8.76
-9.24
-10.55
-12.6
-14.97
-17.24
-19.09
-20.52
-21.65
-22.54
-22.98
-22.5
-20.73
-17.54
-13.34
-8.79
-4.67
-1.5
0.63
1.98
3.01
4.03
5.04
5.72
5.67
4.6
2.48
-0.39
-3.58
-6.66
-9.37
-11.62
-13.43
-14.83
-15.77
-16.15
-15.78
-14.48
-12.15
-8.78
-4.48
0.54
6.01
11.63
17.13
22.24
26.69
30.25
32.7
33.95
34.05
33.17
31.53
29.31
26.52
23.02
18.7
13.59
8.01
2.55
-2.12
-5.42
-7.07
-7.17
-6.13
-4.56
-3.02
-1.95
-1.53
-1.7
-2.16
-2.55
-2.62
-2.37
-2.08
-2.23
-3.18
-4.97
-7.14
-8.91
-9.45
-8.31
-5.59
-1.98
1.62
4.45
6.18
6.92
7.03
6.83
6.38
5.58
4.31
2.7
1.17
0.33
0.64
2.2
4.65
7.31
9.43
10.48
10.32
9.1
7.22
5.08
3.02
1.28
-0.02
-0.82
-1.11
-0.94
-0.49
-0.03
0.14
-0.22
-1.13
-2.4
-3.64
-4.43
-4.45
-3.58
-1.86
0.54
3.35
6.25
8.85
10.76
11.63
11.35
9.94
7.66
4.77
1.46
-2.12
-5.88
-9.65
-13.23
-16.33
-18.69
-20.15
-20.7
-20.54
-20.06
-19.81
-20.37
-22.2
-25.47
-29.95
-35.15
-40.34
-44.83
-48.03
-49.56
-49.17
-46.73
-42.17
-35.55
-26.96
-16.63
-4.9
7.93
21.46
35.32
49.05
62.15
74.07
84.32
92.59
98.83
103.26
106.09
107.42
107.03
104.47
99.28
91.26
80.66
68.05
54.13
39.52
24.7
10.15
-3.46
-15.28
-24.52
-30.69
-33.95
-35.09
-35.24
-35.4
-36.23
-37.84
-40.02
-42.45
-44.83
-46.87
-48.25
-48.53
-47.3
-44.35
-39.82
-34.26
-28.45
-23.18
-19.03
-16.18
-14.48
-13.51
-12.8
-11.95
-10.74
-9.24
-7.63
-6.17
-5.03
-4.15
-3.31
-2.27
-0.89
0.77
2.51
4.16
5.62
7
8.45
10.04
11.72
13.31
14.64
15.59
16.2
16.62
17.01
17.43
17.76
17.72
17.02
15.38
12.74
9.17
4.9
0.26
-4.37
-8.57
-11.87
-13.77
-13.91
-12.19
-8.88
-4.58
-0.07
4.01
7.31
9.83
11.8
13.42
14.75
15.7
16.18
16.21
15.99
15.79
15.8
16.01
16.16
15.93
15.05
13.49
11.47
9.36
7.48
6.09
5.26
4.98
5.22
5.9
6.88
7.96
8.81
9.15
8.74
7.48
5.41
2.57
-1.01
-5.27
-10.07
-15.08
-19.82
-23.73
-26.44
-27.8
-27.96
-27.2
-25.83
-24.08
-22.2
-20.46
-19.23
-18.9
-19.73
-21.71
-24.49
-27.56
-30.39
-32.7
-34.6
-36.48
-38.79
-41.81
-45.45
-49.18
-52.34
-54.35
-55.1
-55.14
-55.6
-57.83
-62.75
-70.36
-79.54
-88.42
-94.94
-97.63
-95.96
-90.38
-81.88
-71.66
-60.79
-50.14
-40.09
-30.18
-18.9
-3.92
16.97
44.66
77.72
112.45
143.95
167.92
182.04
186.54
183.42
175.3
164.16
151.09
136.59
121.23
105.98
92.01
80.21
70.77
63.14
56.37
49.61
42.63
35.77
29.77
25.35
22.86
22.16
22.71
23.89
25.21
26.51
27.93
29.67
31.68
33.5
34.34
33.34
29.98
24.3
16.96
8.94
1.22
-5.51
-10.9
-14.86
-17.36
-18.38
-17.84
-15.65
-11.77
-6.28
0.6
8.37
16.12
22.65
26.71
27.36
24.4
18.36
10.35
1.57
-7.14
-15.55
-23.85
-32.27
-40.78
-48.87
-55.86
-61.09
-64.32
-65.69
-65.59
-64.35
-62.15
-59.02
-54.99
-50.24
-45.06
-39.81
-34.73
-29.86
-25.09
-20.26
-15.3
-10.19
-4.93
0.5
6.11
11.88
17.71
23.33
28.52
33.1
37.08
40.46
43.2
45
45.43
44.06
40.74
35.7
29.62
23.37
17.81
13.58
11.17
10.94
13.14
17.81
24.67
33.04
41.9
50.18
57.05
62.18
65.62
67.67
68.55
68.34
66.93
64.06
59.35
52.44
43.04
31.11
17.03
1.61
-13.96
-28.41
-40.73
-50.39
-57.36
-61.92
-64.43
-65.09
-64.02
-61.3
-57.27
-52.52
-47.85
-44.11
-41.92
-41.49
-42.54
-44.54
-46.86
-49.08
-51.1
-53.18
-55.83
-59.57
-64.74
-71.2
-78.29
-85
-90.24
-93.3
-94.03
-93.03
-91.49
-90.88
-92.53
-97.39
-105.74
-117.14
-130.35
-143.53
-154.77
-162.63
-166.74
-167.83
-167.14
-165.56
-162.73
-156.93
-145.6
-126.64
-99.46
-65.57
-28.11
9.22
43.19
71.82
94.27
110.52
120.87
125.68
125.41
120.78
112.88
103.09
92.86
83.3
74.94
67.68
60.97
54.03
46.23
37.24
27.11
16.23
5.15
-5.57
-15.56
-24.81
-33.69
-42.8
-52.66
-63.29
-74.03
-83.65
-90.85
-94.81
-95.43
-93.29
-89.19
-83.93
-78.21
-72.85
-68.8
-66.71
-66.16
-65.17
-60.46
-48.53
-27.39
2.36
37.5
73.35
105.56
131.36
149.9
161.58
167.14
167.04
161.73
152.05
139.66
126.82
115.61
107.29
101.86
98.39
95.6
92.58
89.12
85.56
82.41
79.93
77.96
76.05
73.63
70.29
65.95
60.8
55.28
49.99
45.43
41.97
39.62
38.1
36.87
35.36
33.24
30.54
27.69
25.28
23.84
23.54
24.16
25.15
25.84
25.75
24.72
22.93
20.85
19.05
18.03
18.12
19.35
21.52
24.29
27.3
30.31
33.19
35.94
38.56
41.02
43.31
45.42
47.47
49.62
51.98
54.48
56.81
58.45
58.91
57.86
55.23
51.17
45.94
39.77
32.76
24.94
16.29
6.75
-3.7
-15.06
-27.23
-39.97
-52.79
-65.04
-75.94
-84.79
-91.15
-94.9
-96.27
-95.7
-93.71
-90.7
-86.95
-82.59
-77.68
-72.35
-66.81
-61.36
-56.26
-51.66
-47.55
-43.81
-40.32
-37.11
-34.24
-31.79
-29.63
-27.4
-24.55
-20.55
-15.02
-7.91
0.59
10.08
20.15
30.41
40.53
50.29
59.67
68.86
78.23
88.16
98.71
109.54
119.8
128.35
134.15
136.52
135.27
130.69
123.39
114.09
103.49
92.14
80.39
68.38
56
42.95
28.86
13.35
-3.77
-22.44
-42.28
-62.58
-82.32
-100.38
-115.61
-127.1
-134.29
-137.05
-135.68
-130.82
-123.37
-114.31
-104.53
-94.67
-85.01
-75.49
-65.9
-56.15
-46.43
-37.33
-29.67
-24.22
-21.36
-20.96
-22.39
-24.69
-26.9
-28.24
-28.26
-26.92
-24.57
-21.89
-19.65
-18.55
-18.84
-20.18
-21.58
-21.76
-19.63
-14.78
-7.72
0.34
7.92
13.89
17.76
19.71
20.29
20.08
19.44
18.49
17.33
16.12
15.19
14.85
15.25
16.26
17.53
18.58
19
18.57
17.2
14.96
11.91
8.12
3.68
-1.26
-6.54
-11.91
-17.08
-21.78
-25.73
-28.74
-30.78
-32.09
-33.07
-34.15
-35.6
-37.31
-38.9
-39.74
-39.23
-37.09
-33.44
-28.81
-23.93
-19.6
-16.38
-14.54
-14.05
-14.65
-16.07
-18.16
-20.91
-24.37
-28.54
-33.21
-38.05
-42.57
-46.4
-49.47
-52.02
-54.65
-58.05
-62.72
-68.77
-75.84
-83.22
-90.05
-95.39
-98.24
-97.65
-92.88
-83.78
-71.05
-56.33
-41.67
-28.75
-18.23
-9.7
-2.27
4.63
10.82
15.51
18.07
18.7
18.58
19.25
21.76
25.97
30.58
33.96
34.93
33.44
30.42
27.22
24.94
24.02
24.35
25.58
27.48
30.19
34.03
39.24
45.73
53
60.25
66.68
71.7
75.04
76.76
77.13
76.46
74.94
72.68
69.68
65.96
61.62
56.8
51.68
46.37
40.88
35.18
29.32
23.52
18.2
13.83
10.73
9.03
8.52
8.72
9.12
9.32
9.1
8.48
7.57
6.48
5.25
3.86
2.24
0.39
-1.64
-3.77
-5.89
-7.97
-10.01
-11.96
-13.71
-15.01
-15.62
-15.4
-14.37
-12.75
-10.88
-9.08
-7.57
-6.41
-5.54
-4.84
-4.28
-3.9
-3.84
-4.28
-5.38
-7.22
-9.73
-12.74
-15.96
-18.98
-21.43
-22.97
-23.39
-22.63
-20.81
-18.08
-14.65
-10.64
-6.19
-1.44
3.38
8.02
12.22
15.9
19.13
22.12
25.1
28.16
31.17
33.78
35.58
36.18
35.34
33.05
29.45
24.79
19.36
13.43
7.24
1.06
-4.85
-10.21
-14.75
-18.32
-20.93
-22.7
-23.82
-24.35
-24.14
-22.95
-20.5
-16.69
-11.72
-6.02
-0.09
5.67
11.16
16.52
22.01
27.87
34.16
40.72
47.21
53.18
58.22
62
64.35
65.15
64.33
61.73
57.26
50.92
42.91
33.69
23.79
13.72
3.75
-6.11
-15.88
-25.49
-34.52
-42.15
-47.39
-49.34
-47.49
-41.85
-32.91
-21.54
-8.78
4.25
16.43
26.62
33.78
37.08
36.07
30.89
22.24
11.29
-0.61
-12.22
-22.6
-31.23
-37.87
-42.41
-44.77
-44.91
-42.9
-38.96
-33.54
-27.28
-20.82
-14.68
-9.24
-4.65
-0.92
2.03
4.31
6.02
7.2
7.93
8.27
8.37
8.49
8.88
9.76
11.13
12.83
14.54
15.95
16.88
17.27
17.13
16.45
15.21
13.36
10.95
8.17
5.32
2.73
0.62
-0.96
-2.08
-2.89
-3.49
-4
-4.51
-5.13
-5.97
-7.09
-8.43
-9.81
-10.97
-11.63
-11.6
-10.78
-9.16
-6.83
-3.86
-0.41
3.33
7.05
10.41
13.05
14.66
15.03
14.13
12.03
8.91
5.01
0.53
-4.32
-9.29
-14.1
-18.41
-21.86
-24.2
-25.35
-25.37
-24.51
-22.98
-20.94
-18.45
-15.56
-12.37
-9.12
-6.11
-3.62
-1.77
-0.53
0.3
0.93
1.5
2.05
2.55
2.96
3.34
3.8
4.51
5.57
6.99
8.7
10.61
12.66
14.83
17.11
19.45
21.73
23.75
25.41
26.67
27.66
28.54
29.43
30.24
30.73
30.63
29.69
27.9
25.4
22.51
19.59
16.84
14.35
12.03
9.71
7.25
4.63
1.99
-0.42
-2.23
-3.17
-3.08
-2.05
-0.44
1.21
2.35
2.65
2.17
1.4
1.04
1.81
4.05
7.61
11.89
16.15
19.8
22.6
24.67
26.34
27.94
29.62
31.36
32.87
33.57
32.46
28.23
19.64
6.2
-11.22
-30.31
-47.91
-61.07
-68.13
-69.17
-65.76
-60.03
-53.81
-48.1
-43.17
-38.96
-35.5
-33
-31.65
-31.38
-31.75
-32.09
-31.76
-30.43
-28.17
-25.45
-22.92
-21.14
-20.35
-20.38
-20.73
-20.75
-19.91
-18.02
-15.2
-11.84
-8.42
-5.28
-2.57
-0.26
1.83
3.87
5.92
7.95
9.83
11.48
12.92
14.3
15.77
17.42
19.16
20.74
21.83
22.1
21.38
19.67
17.17
14.22
11.16
8.3
5.86
3.88
2.33
1.07
0
-0.89
-1.51
-1.71
-1.42
-0.73
0.04
0.48
0.13
-1.24
-3.6
-6.66
-9.89
-12.63
-14.21
-14.09
-11.97
-8.01
-2.87
2.54
7.27
10.81
13.17
14.84
16.41
18.21
20.15
21.76
22.5
22.04
20.42
17.92
14.86
11.42
7.61
3.4
-1.04
-5.38
-9.11
-11.78
-13.21
-13.56
-13.23
-12.65
-12.09
-11.59
-11.02
-10.23
-9.21
-8.08
-7.07
-6.33
-5.91
-5.74
-5.7
-5.73
-5.86
-6.22
-6.91
-7.96
-9.27
-10.61
-11.76
-12.48
-12.71
-12.42
-11.76
-10.84
-9.81
-8.76
-7.79
-6.94
-6.24
-5.63
-4.95
-4.06
-2.82
-1.24
0.55
2.37
4.04
5.47
6.67
7.7
8.69
9.66
10.59
11.38
11.87
11.93
11.51
10.6
9.31
7.77
6.12
4.43
2.7
0.86
-1.19
-3.5
-6.09
-8.87
-11.71
-14.46
-16.94
-18.93
-20.23
-20.61
-19.9
-18.07
-15.22
-11.63
-7.62
-3.53
0.37
3.91
7.01
9.72
12.14
14.48
16.91
19.56
22.46
25.51
28.56
31.47
34.22
36.81
39.23
41.36
42.93
43.6
43.14
41.47
38.8
35.46
31.93
28.7
26.24
25.04
25.48
27.73
31.49
35.97
39.93
42.06
41.42
37.71
31.33
23.11
13.97
4.64
-4.44
-13.09
-21.29
-29.05
-36.55
-44.08
-52.06
-60.81
-70.28
-79.96
-88.97
-96.3
-101.16
-103.25
-102.79
-100.41
-96.89
-92.86
-88.77
-84.94
-81.7
-79.4
-78.17
-77.72
-77.16
-75.22
-70.65
-62.79
-51.85
-38.79
-24.95
-11.44
1.08
12.39
22.37
30.77
37.11
40.98
42.24
41.18
38.42
34.64
30.43
26.13
21.96
18.11
14.8
12.28
10.71
10.08
10.2
10.83
11.81
13.14
14.94
17.31
20.28
23.69
27.15
30.13
32.13
32.75
31.97
30.1
27.74
25.54
23.98
23.13
22.69
22.02
20.37
17.05
11.61
3.85
-6.14
-17.93
-30.82
-43.86
-55.96
-66.15
-73.67
-78.21
-79.87
-79.14
-76.71
-73.25
-69.27
-65.01
-60.55
-55.79
-50.63
-45.01
-38.9
-32.31
-25.22
-17.77
-10.25
-3.12
3.17
8.45
12.92
17.14
21.76
27.26
33.7
40.76
47.98
55.01
61.79
68.48
75.26
82.15
88.87
95.05
100.36
104.63
107.94
110.65
113.18
116.1
119.93
125.1
131.73
139.48
147.36
153.87
157.23
155.85
148.73
135.66
117.21
94.61
69.46
43.43
18.08
-5.34
-25.95
-43.23
-56.97
-67.16
-73.9
-77.41
-78.13
-76.65
-73.73
-70.17
-66.54
-63.11
-59.95
-57.1
-54.82
-53.65
-54.3
-57.39
-63.11
-70.95
-79.72
-87.79
-93.58
-96.11
-95.3
-92.04
-87.86
-84.34
-82.47
-82.29
-83.01
-83.57
-83.26
-82.21
-81.39
-82.17
-85.75
-92.74
-102.99
-115.64
-129
-140.57
-147.16
-145.62
-133.78
-111.56
-81.31
-47.11
-13.46
16.22
40.35
59.01
73.09
83.43
90.54
94.78
96.8
97.66
98.58
100.32
102.93
105.78
107.93
108.56
107.22
103.92
98.92
92.7
85.8
78.79
72.17
66.29
61.33
57.31
54.2
52.02
50.89
50.96
52.36
55.01
58.6
62.63
66.51
69.79
72.19
73.63
74.12
73.65
72.1
69.23
64.87
58.96
51.76
43.78
35.69
28.07
21.23
15.14
9.43
3.62
-2.75
-10.02
-18.46
-28.37
-40.12
-54.09
-70.34
-88.43
-107.27
-125.27
-140.77
-152.4
-159.47
-161.88
-160.02
-154.48
-145.86
-134.87
-122.4
-109.52
-97.29
-86.56
-77.55
-69.82
-62.49
-54.59
-45.5
-35.15
-24
-12.71
-1.88
8.15
17.25
25.31
32.08
37.2
40.3
41.29
40.45
38.41
35.89
33.47
31.37
29.6
28.07
26.81
25.96
25.69
26.07
26.97
28.15
29.28
30.16
30.69
30.8
30.46
29.58
28.06
25.83
22.89
19.29
15.19
10.84
6.58
2.81
-0.16
-2.22
-3.49
-4.32
-5.05
-5.93
-6.91
-7.74
-8.08
-7.72
-6.71
-5.27
-3.69
-2.1
-0.47
1.35
3.54
6.13
9.05
12.19
15.47
18.88
22.42
26
29.45
32.52
34.99
36.75
37.76
38.01
37.56
36.43
34.75
32.71
30.53
28.39
26.34
24.34
22.33
20.35
18.56
17.13
16.19
15.67
15.41
15.17
14.86
14.48
14.15
13.92
13.75
13.52
13.09
12.4
11.5
10.51
9.57
8.73
7.99
7.28
6.63
6.04
5.59
5.3
5.18
5.17
5.23
5.34
5.59
6.07
6.84
7.86
8.95
9.87
10.41
10.48
10.18
9.67
9.16
8.73
8.3
7.68
6.58
4.83
2.31
-0.93
-4.73
-8.88
-13.19
-17.52
-21.72
-25.75
-29.53
-33.06
-36.34
-39.41
-42.26
-44.78
-46.72
-47.71
-47.41
-45.62
-42.43
-38.24
-33.64
-29.24
-25.44
-22.43
-20.11
-18.27
-16.62
-14.94
-13.06
-10.89
-8.31
-5.29
-1.86
1.83
5.54
8.98
11.85
13.91
15.02
15.22
14.63
13.42
11.79
9.85
7.69
5.3
2.68
-0.09
-2.84
-5.3
-7.19
-8.32
-8.67
-8.37
-7.67
-6.75
-5.71
-4.46
-2.81
-0.46
2.81
7.04
12.05
17.36
22.35
26.36
28.97
30.12
30.12
29.5
28.7
27.86
26.69
24.64
21.15
15.95
9.19
1.38
-6.79
-14.67
-21.83
-27.98
-32.98
-36.73
-39.18
-40.42
-40.63
-40.09
-39.11
-37.86
-36.35
-34.48
-32.18
-29.5
-26.72
-24.21
-22.23
-20.83
-19.74
-18.6
-17.1
-15.2
-13.11
-11.22
-9.86
-9.16
-9.06
-9.32
-9.58
-9.43
-8.4
-6.08
-2.2
3.23
9.9
17.21
24.44
30.9
36.12
39.86
42.1
42.94
42.63
41.46
39.75
37.77
35.77
33.88
32.11
30.38
28.56
26.54
24.29
21.92
19.59
17.46
15.62
14
12.57
11.29
10.25
9.61
9.59
10.27
11.68
13.72
16.32
19.4
22.84
26.4
29.69
32.29
33.86
34.4
34.25
33.97
34.13
34.99
36.44
38.05
39.39
40.17
40.36
40.08
39.43
38.34
36.51
33.59
29.26
23.36
15.88
6.99
-3.02
-13.6
-23.99
-33.27
-40.52
-45.19
-47.24
-47.2
-45.95
-44.34
-42.92
-41.84
-40.98
-40.11
-39.11
-38.01
-36.86
-35.62
-34.01
-31.62
-28.1
-23.4
-17.83
-12.02
-6.66
-2.22
1.11
3.46
5.09
6.15
6.68
6.63
5.98
4.87
3.63
2.65
2.3
2.76
4.02
5.91
8.14
10.52
13.01
15.86
19.45
24.24
30.6
38.62
48.06
58.24
68.03
75.97
80.5
80.31
74.81
64.31
49.93
33.29
15.9
-1.08
-16.98
-31.46
-44.24
-55.03
-63.62
-70.02
-74.61
-78.05
-80.97
-83.73
-86.18
-87.8
-87.95
-86.23
-82.7
-77.84
-72.36
-66.96
-62.09
-57.97
-54.59
-51.79
-49.32
-46.85
-43.97
-40.27
-35.46
-29.44
-22.36
-14.55
-6.49
1.3
8.33
14.15
18.44
21.05
22.09
21.87
20.82
19.34
17.68
15.97
14.19
12.3
10.28
8.2
6.26
4.81
4.25
4.88
6.76
9.57
12.69
15.44
17.38
18.54
19.41
20.69
22.87
25.97
29.52
32.75
34.91
35.53
34.49
31.98
28.41
24.23
19.89
15.81
12.31
9.59
7.75
6.74
6.4
6.49
6.79
7.1
7.31
7.47
7.69
8.11
8.81
9.72
10.62
11.19
11.13
10.27
8.68
6.61
4.4
2.37
0.7
-0.59
-1.54
-2.23
-2.67
-2.88
-2.94
-3.07
-3.51
-4.48
-6.02
-7.95
-10
-11.93
-13.7
-15.4
-17.18
-19.06
-20.9
-22.36
-23.12
-22.98
-21.98
-20.33
-18.28
-16.09
-13.85
-11.62
-9.35
-7.08
-4.9
-3.01
-1.72
-1.31
-2.01
-3.84
-6.56
-9.75
-12.92
-15.67
-17.8
-19.37
-20.51
-21.41
-22.24
-23.05
-23.85
-24.58
-25.1
-25.28
-25.03
-24.38
-23.53
-22.78
-22.44
-22.69
-23.48
-24.55
-25.51
-25.93
-25.42
-23.74
-20.89
-17.21
-13.32
-10.01
-7.97
-7.49
-8.34
-9.92
-11.53
-12.74
-13.56
-14.34
-15.39
-16.71
-17.92
-18.43
-17.79
-15.86
-12.91
-9.31
-5.26
-0.72
4.52
10.48
16.85
22.9
27.85
31.17
32.9
33.66
34.28
35.42
37.23
39.41
41.36
42.67
43.17
43.08
42.73
42.43
42.29
42.27
42.19
41.77
40.71
38.68
35.39
30.78
25.08
18.83
12.77
7.56
3.57
0.86
-0.81
-1.77
-2.26
-2.4
-2.2
-1.66
-0.87
0.05
1.02
2.14
3.66
5.98
9.41
14.1
19.93
26.6
33.65
40.61
46.92
52.06
55.59
57.3
57.33
56.11
54.14
51.8
49.14
45.9
41.74
36.5
30.24
23.28
15.94
8.43
0.78
-7.01
-14.92
-22.74
-30.16
-36.85
-42.52
-46.99
-50.2
-52.13
-52.85
-52.48
-51.24
-49.42
-47.33
-45.26
-43.39
-41.81
-40.5
-39.39
-38.37
-37.3
-36.1
-34.73
-33.16
-31.43
-29.61
-27.81
-26.15
-24.83
-23.98
-23.67
-23.8
-24.1
-24.23
-23.97
-23.34
-22.63
-22.28
-22.61
-23.68
-25.18
-26.61
-27.43
-27.29
-26.07
-23.83
-20.84
-17.37
-13.69
-10
-6.35
-2.71
0.99
4.71
8.2
10.92
12.18
11.38
8.17
2.76
-4.16
-11.5
-18.07
-22.98
-25.88
-27.04
-27.11
-26.79
-26.45
-26.02
-25.17
-23.54
-21.08
-18.11
-15.1
-12.4
-10.03
-7.69
-4.94
-1.54
2.34
6.18
9.22
10.89
11.04
10.04
8.61
7.52
7.18
7.56
8.23
8.68
8.58
7.94
6.97
6
5.24
4.82
4.85
5.57
7.27
10.14
14.1
18.67
23.12
26.7
28.93
29.73
29.34
28.19
26.66
25.02
23.41
21.94
20.7
19.8
19.33
19.28
19.58
20.1
20.72
21.34
21.93
22.48
22.94
23.23
23.19
22.59
21.28
19.21
16.54
13.64
10.97
8.91
7.64
7.06
6.84
6.54
5.78
4.38
2.44
0.33
-1.41
-2.23
-1.86
-0.4
1.62
3.44
4.38
4.21
3.23
2.15
1.84
2.87
5.39
9.06
13.35
17.66
21.55
24.74
27.06
28.4
28.71
28.03
26.49
24.25
21.47
18.22
14.52
10.3
5.52
0.19
-5.6
-11.61
-17.42
-22.45
-26.06
-27.76
-27.47
-25.62
-23.04
-20.78
-19.65
-20.02
-21.73
-24.17
-26.6
-28.31
-28.85
-27.96
-25.64
-22
-17.18
-11.37
-4.84
2.1
9.06
15.69
21.71
26.99
31.54
35.48
38.86
41.64
43.67
44.7
44.63
43.47
41.46
38.95
36.23
33.45
30.58
27.46
23.97
20.09
15.94
11.7
7.48
3.3
-0.97
-5.41
-10.07
-14.9
-19.76
-24.52
-29.05
-33.28
-37.11
-40.41
-43.02
-44.81
-45.73
-45.85
-45.34
-44.41
-43.26
-42.03
-40.84
-39.71
-38.57
-37.15
-35
-31.48
-26.06
-18.52
-9.26
0.75
10.16
17.77
22.89
25.52
26.24
25.81
24.85
23.67
22.31
20.69
18.79
16.68
14.44
12.07
9.48
6.57
3.37
0.09
-2.93
-5.27
-6.64
-6.99
-6.47
-5.4
-4.04
-2.54
-0.82
1.33
4.14
7.68
11.81
16.17
20.25
23.58
25.85
27.02
27.25
26.88
26.18
25.28
24.16
22.66
20.64
18.05
15.03
11.74
8.42
5.19
2.12
-0.72
-3.22
-5.28
-6.82
-7.92
-8.8
-9.68
-10.68
-11.69
-12.37
-12.29
-11.13
-8.84
-5.63
-1.94
1.72
4.91
7.33
8.88
9.59
9.71
9.56
9.59
10.1
11.23
12.83
14.54
16.01
17.02
17.72
18.47
19.67
21.49
23.72
25.79
26.98
26.66
24.53
20.59
15.07
8.33
0.73
-7.36
-15.53
-23.39
-30.54
-36.65
-41.4
-44.49
-45.55
-44.27
-40.54
-34.56
-26.9
-18.34
-9.72
-1.7
5.25
10.83
14.82
16.99
17.2
15.48
12.08
7.49
2.3
-2.88
-7.49
-11.12
-13.47
-14.39
-13.86
-12.03
-9.19
-5.74
-2.05
1.54
4.78
7.49
9.48
10.49
10.3
8.77
5.96
2.24
-1.82
-5.57
-8.44
-10.05
-10.25
-9.13
-6.91
-3.99
-0.8
2.17
4.57
6.19
7.01
7.24
7.09
6.77
6.37
5.88
5.22
4.39
3.44
2.49
1.7
1.14
0.86
0.84
1.09
1.62
2.45
3.61
5.06
6.73
8.49
10.23
11.82
13.12
14.06
14.55
14.6
14.25
13.6
12.69
11.56
10.24
8.84
7.56
6.69
6.42
6.81
7.71
8.88
10.04
11.07
11.99
12.88
13.81
14.71
15.48
16
16.22
16.16
15.81
15.12
14
12.35
10.23
7.84
5.5
3.57
2.25
1.61
1.53
1.88
2.56
3.51
4.72
6.14
7.66
9.15
10.52
11.78
13.08
14.61
16.5
18.79
21.38
24.08
26.68
29.01
30.96
32.46
33.47
34.01
34.17
34.1
33.95
33.68
32.88
30.73
26.21
18.49
7.42
-6.23
-20.94
-35.01
-47.11
-56.8
-64.43
-70.72
-76.18
-80.75
-83.97
-85.32
-84.73
-82.62
-79.78
-76.96
-74.59
-72.73
-71.22
-69.94
-68.82
-67.79
-66.56
-64.63
-61.3
-56
-48.51
-39.07
-28.42
-17.47
-7.19
1.71
8.84
14.16
17.91
20.39
21.89
22.64
22.75
22.3
21.47
20.49
19.66
19.19
19.12
19.39
19.82
20.34
20.98
21.88
23.26
25.23
27.78
30.74
33.84
36.75
39.13
40.72
41.33
40.89
39.46
37.24
34.42
31.13
27.43
23.25
18.59
13.5
8.23
3.08
-1.57
-5.46
-8.38
-10.28
-11.23
-11.41
-11.09
-10.61
-10.24
-10.16
-10.34
-10.61
-10.67
-10.28
-9.28
-7.63
-5.33
-2.4
1.25
5.78
11.37
18.13
26.03
34.9
44.43
54.17
63.61
72.2
79.39
84.72
87.88
88.74
87.33
83.79
78.28
71
62.17
52.13
41.32
30.42
20.14
11.12
3.81
-1.7
-5.58
-8.2
-9.96
-11.15
-11.91
-12.34
-12.47
-12.44
-12.44
-12.69
-13.37
-14.63
-16.55
-19.18
-22.56
-26.65
-31.3
-36.24
-41.09
-45.47
-49.14
-52.04
-54.27
-56.08
-57.68
-59.29
-61.06
-63.1
-65.49
-68.17
-70.99
-73.64
-75.76
-77.01
-77.14
-76.01
-73.56
-69.76
-64.54
-57.94
-50.04
-41.06
-31.33
-21.18
-10.95
-0.9
8.77
17.83
25.99
32.85
37.89
40.66
40.87
38.61
34.3
28.58
22.09
15.33
8.56
1.84
-4.78
-11.22
-17.28
-22.73
-27.4
-31.26
-34.35
-36.72
-38.34
-39.1
-38.9
-37.78
-35.94
-33.74
-31.6
-29.82
-28.59
-27.9
-27.61
-27.47
-27.19
-26.43
-24.87
-22.31
-18.73
-14.31
-9.42
-4.52
-0.03
3.76
6.74
9.07
11.09
13.18
15.59
18.34
21.14
23.59
25.35
26.33
26.79
27.15
27.86
29.23
31.41
34.36
37.92
41.81
45.74
49.43
52.7
55.56
58.07
60.25
61.91
62.55
61.5
58.17
52.25
43.9
33.63
22.16
10.21
-1.59
-12.73
-22.74
-31.27
-38.07
-43.1
-46.43
-48.31
-48.94
-48.5
-47.11
-44.79
-41.54
-37.42
-32.57
-27.22
-21.75
-16.57
-12.1
-8.66
-6.3
-4.86
-4.07
-3.63
-3.42
-3.6
-4.57
-6.82
-10.68
-16.1
-22.54
-29.09
-34.75
-38.75
-40.85
-41.3
-40.62
-39.3
-37.52
-35.2
-32.14
-28.2
-23.46
-18.22
-12.8
-7.48
-2.46
2.16
6.37
10.12
13.44
16.35
18.9
21.13
23.07
24.69
25.93
26.67
26.75
26.06
24.55
22.33
19.66
16.91
14.39
12.31
10.79
9.86
9.56
9.92
10.83
12.05
13.15
13.67
13.31
12.01
10
7.59
5.08
2.6
0.24
-1.91
-3.66
-4.78
-5.09
-4.63
-3.62
-2.43
-1.39
-0.62
-0.1
0.32
0.76
1.27
1.87
2.58
3.48
4.67
6.15
7.74
9.11
9.88
9.86
9.13
8
6.94
6.32
6.35
7.01
8.18
9.69
11.4
13.17
14.88
16.38
17.53
18.22
18.42
18.14
17.47
16.48
15.25
13.83
12.27
10.54
8.65
6.6
4.44
2.32
0.43
-1.02
-1.96
-2.46
-2.79
-3.31
-4.33
-5.97
-8.11
-10.44
-12.62
-14.35
-15.46
-15.86
-15.53
-14.5
-12.82
-10.59
-7.91
-4.81
-1.26
2.85
7.61
12.97
18.77
24.71
30.51
35.94
40.91
45.37
49.25
52.31
54.21
54.56
53.06
49.65
44.58
38.43
31.87
25.6
20.15
15.92
13.17
12.03
12.46
14.06
16.06
17.36
16.91
14
8.58
1.23
-7.13
-15.59
-23.54
-30.78
-37.39
-43.51
-49.19
-54.39
-58.93
-62.7
-65.62
-67.66
-68.9
-69.44
-69.34
-68.59
-67.08
-64.66
-61.18
-56.72
-51.53
-46
-40.56
-35.57
-31.21
-27.51
-24.24
-21.01
-17.32
-12.74
-7.15
-0.82
5.58
11.21
15.23
17.09
16.53
13.48
7.97
0.08
-9.89
-21.33
-33.27
-44.62
-54.53
-62.54
-68.62
-72.86
-75.32
-75.8
-73.98
-69.53
-62.3
-52.39
-40.05
-25.71
-9.94
6.5
22.65
37.54
50.43
61
69.39
76
81.19
85.08
87.48
88.04
86.54
83.05
77.94
71.79
65.12
58.29
51.47
44.73
38.15
31.87
25.95
20.34
14.79
8.93
2.47
-4.72
-12.4
-20.06
-27.04
-32.64
-36.43
-38.27
-38.44
-37.53
-36.18
-34.95
-34.1
-33.61
-33.21
-32.6
-31.53
-29.84
-27.48
-24.47
-20.98
-17.29
-13.8
-10.89
-8.77
-7.36
-6.31
-5.15
-3.53
-1.32
1.31
4.06
6.65
9.01
11.25
13.55
16.02
18.59
20.98
22.83
23.87
24.02
23.41
22.33
21.07
19.85
18.78
17.83
16.95
16.06
15.1
14.01
12.76
11.32
9.71
8.01
6.36
5
4.19
4.1
4.76
5.99
7.43
8.69
9.39
9.31
8.42
6.79
4.49
1.61
-1.78
-5.51
-9.34
-12.91
-15.87
-18.02
-19.33
-19.96
-20.12
-19.96
-19.52
-18.77
-17.65
-16.24
-14.67
-13.14
-11.78
-10.59
-9.46
-8.28
-6.94
-5.36
-3.5
-1.33
1.1
3.63
6.05
8.12
9.74
11.03
12.34
14.08
16.55
19.76
23.46
27.17
30.4
32.78
34.11
34.35
33.59
31.87
29.24
25.79
21.67
17.2
12.79
8.89
5.79
3.54
1.95
0.67
-0.57
-1.88
-3.13
-4.12
-4.66
-4.74
-4.5
-4.18
-3.97
-4.03
-4.45
-5.23
-6.35
-7.68
-9.07
-10.33
-11.29
-11.95
-12.41
-12.87
-13.46
-14.1
-14.48
-14.1
-12.53
-9.56
-5.36
-0.44
4.57
9.09
12.79
15.57
17.51
18.71
19.19
18.97
18.15
16.93
15.61
14.49
13.73
13.4
13.41
13.62
13.92
14.19
14.3
14.07
13.3
11.9
9.89
7.41
4.72
2.07
-0.39
-2.64
-4.71
-6.67
-8.54
-10.29
-11.88
-13.27
-14.49
-15.67
-16.96
-18.49
-20.19
-21.77
-22.8
-22.85
-21.66
-19.3
-16.17
-12.79
-9.65
-7.07
-5.15
-3.91
-3.27
-3.22
-3.65
-4.36
-5.05
-5.4
-5.19
-4.39
-3.11
-1.52
0.24
2.08
3.95
5.7
7.15
8.07
8.41
8.28
8.01
7.97
8.38
9.23
10.32
11.34
12.13
12.73
13.39
14.43
16.08
18.37
21.2
24.42
27.96
31.78
35.86
40.06
44.05
47.48
49.97
51.38
51.67
50.92
49.14
46.3
42.35
37.3
31.4
25.02
18.59
12.52
7.06
2.32
-1.69
-5.09
-8.02
-10.67
-13.18
-15.64
-18.01
-20.18
-22.05
-23.54
-24.62
-25.37
-25.8
-26
-26.02
-25.91
-25.76
-25.61
-25.43
-25.12
-24.59
-23.74
-22.63
-21.41
-20.32
-19.62
-19.48
-19.87
-20.57
-21.19
-21.32
-20.69
-19.16
-16.84
-13.95
-10.78
-7.59
-4.58
-1.9
0.39
2.23
3.66
4.72
5.52
6.16
6.72
7.24
7.76
8.3
8.9
9.56
10.27
10.9
11.36
11.56
11.47
11.15
10.65
9.97
9.03
7.78
6.19
4.37
2.49
0.74
-0.78
-2.1
-3.32
-4.54
-5.76
-6.95
-8.08
-9.15
-10.21
-11.24
-12.03
-12.29
-11.64
-9.87
-7.06
-3.6
-0.03
3.09
5.48
7.09
8.07
8.65
8.97
9.06
8.89
8.47
7.84
7.14
6.49
5.98
5.64
5.44
5.35
5.3
5.23
5.09
4.8
4.3
3.54
2.47
1.09
-0.6
-2.53
-4.61
-6.69
-8.62
-10.28
-11.56
-12.48
-13.08
-13.46
-13.74
-14.04
-14.4
-14.77
-14.98
-14.79
-13.95
-12.29
-9.8
-6.66
-3.21
0.21
3.29
5.84
7.87
9.46
10.74
11.79
12.65
13.29
13.72
13.95
14.02
13.95
13.74
13.33
12.68
11.77
10.66
9.48
8.38
7.47
6.78
6.2
5.56
4.71
3.61
2.35
1.13
0.11
-0.61
-1.12
-1.6
-2.23
-3.11
-4.27
-5.63
-7.15
-8.75
-10.32
-11.68
-12.61
-12.9
-12.43
-11.19
-9.38
-7.25
-5.1
-3.17
-1.65
-0.68
-0.33
-0.63
-1.57
-3.12
-5.21
-7.68
-10.29
-12.71
-14.56
-15.5
-15.33
-14.05
-11.86
-9.14
-6.3
-3.69
-1.52
0.19
1.47
2.38
2.87
2.87
2.29
1.13
-0.52
-2.47
-4.63
-7.06
-9.96
-13.57
-17.96
-22.96
-28.15
-32.98
-36.94
-39.68
-41.01
-40.83
-39.05
-35.6
-30.51
-23.99
-16.43
-8.28
0.03
8.24
16.24
24.02
31.52
38.57
44.92
50.36
54.81
58.3
60.98
62.99
64.45
65.42
65.89
65.86
65.29
64.08
62.08
59.12
55.12
50.09
44.17
37.62
30.79
24.01
17.57
11.7
6.51
1.99
-2.05
-5.82
-9.5
-13.19
-16.84
-20.31
-23.41
-25.98
-27.92
-29.22
-29.91
-30.1
-29.9
-29.44
-28.88
-28.31
-27.86
-27.6
-27.6
-27.87
-28.37
-28.97
-29.5
-29.78
-29.7
-29.2
-28.31
-27.11
-25.66
-24.02
-22.23
-20.34
-18.41
-16.56
-14.85
-13.27
-11.71
-9.99
-7.96
-5.55
-2.9
-0.2
2.25
4.17
5.4
5.88
5.67
4.87
3.65
2.24
0.95
0.19
0.31
1.51
3.72
6.65
9.87
12.97
15.7
17.99
19.89
21.46
22.66
23.36
23.46
22.95
21.94
20.68
19.36
18.14
17.14
16.42
16.03
15.99
16.28
16.81
17.49
18.23
19
19.89
21.03
22.52
24.38
26.54
28.8
30.94
32.69
33.8
34.09
33.46
31.86
29.28
25.66
20.9
14.92
7.75
-0.36
-8.92
-17.34
-25.07
-31.73
-37.2
-41.43
-44.41
-46.04
-46.26
-45.16
-43.06
-40.37
-37.46
-34.46
-31.29
-27.81
-23.95
-19.9
-15.98
-12.48
-9.5
-6.91
-4.46
-2
0.41
2.5
3.96
4.56
4.27
3.28
1.85
0.17
-1.7
-3.83
-6.37
-9.32
-12.55
-15.71
-18.43
-20.41
-21.52
-21.77
-21.25
-20.01
-18.06
-15.43
-12.28
-8.84
-5.47
-2.42
0.18
2.37
4.25
5.86
7.13
7.92
8.11
7.71
6.89
5.95
5.12
4.51
4.02
3.48
2.7
1.61
0.31
-1.01
-2.15
-3.02
-3.68
-4.35
-5.2
-6.32
-7.64
-8.93
-9.98
-10.7
-11.21
-11.77
-12.63
-13.93
-15.54
-17.17
-18.42
-18.94
-18.52
-17.1
-14.7
-11.4
-7.35
-2.77
2.1
6.96
11.6
15.9
19.84
23.45
26.71
29.52
31.7
33.04
33.42
32.87
31.54
29.67
27.49
25.16
22.74
20.33
17.96
15.68
13.52
11.42
9.29
7.03
4.62
2.1
-0.44
-2.87
-5.12
-7.1
-8.77
-10.11
-11.17
-12.09
-13.06
-14.25
-15.76
-17.48
-19.11
-20.25
-20.5
-19.65
-17.7
-14.87
-11.52
-8.02
-4.65
-1.53
1.24
3.62
5.55
6.94
7.79
8.2
8.35
8.47
8.73
9.17
9.76
10.47
11.25
12.12
13.11
14.24
15.54
16.98
18.52
20.06
21.48
22.58
23.24
23.36
22.96
22.11
20.87
19.24
17.15
14.47
11.1
7.06
2.47
-2.48
-7.53
-12.46
-17.01
-20.94
-24.01
-26.08
-27.18
-27.48
-27.26
-26.78
-26.2
-25.54
-24.83
-24.12
-23.48
-23.04
-22.77
-22.49
-21.92
-20.77
-18.86
-16.14
-12.7
-8.66
-4.24
0.37
4.91
9.13
12.8
15.74
17.84
19.1
19.57
19.4
18.77
17.9
16.96
16.04
15.16
14.21
13.02
11.35
8.98
5.81
1.98
-2.04
-5.55
-7.86
-8.52
-7.61
-5.69
-3.6
-2.13
-1.73
-2.33
-3.56
-4.89
-5.95
-6.62
-7
-7.23
-7.33
-7.19
-6.62
-5.5
-3.96
-2.29
-0.89
-0.02
0.33
0.41
0.55
0.97
1.67
2.43
2.98
3.12
2.8
2.08
1.09
-0.09
-1.41
-2.85
-4.37
-5.97
-7.6
-9.25
-10.87
-12.41
-13.77
-14.77
-15.18
-14.82
-13.58
-11.47
-8.67
-5.46
-2.15
0.95
3.58
5.59
6.9
7.53
7.59
7.26
6.78
6.38
6.25
6.49
7.04
7.76
8.42
8.83
8.92
8.72
8.38
8.07
7.9
7.88
7.85
7.6
6.96
5.87
4.41
2.76
1.14
-0.26
-1.32
-2.05
-2.58
-3.14
-3.93
-5.07
-6.56
-8.24
-9.89
-11.3
-12.27
-12.68
-12.46
-11.49
-9.76
-7.33
-4.47
-1.52
1.14
3.27
4.85
6
6.9
7.64
8.16
8.37
8.18
7.63
6.9
6.19
5.64
5.23
4.85
4.41
3.9
3.42
3.1
3.04
3.15
3.22
3.01
2.34
1.22
-0.17
-1.52
-2.57
-3.17
-3.38
-3.41
-3.53
-3.96
-4.77
-5.92
-7.29
-8.69
-9.98
-10.98
-11.5
-11.38
-10.57
-9.13
-7.22
-5.06
-2.85
-0.75
1.16
2.82
4.15
5.1
5.65
5.86
5.8
5.59
5.31
5.06
4.91
4.91
5.08
5.4
5.77
6.08
6.2
6.11
5.79
5.29
4.62
3.8
2.81
1.66
0.44
-0.78
-1.86
-2.76
-3.48
-4.11
-4.75
-5.53
-6.48
-7.54
-8.56
-9.29
-9.49
-9.04
-7.9
-6.23
-4.26
-2.25
-0.4
1.19
2.49
3.53
4.31
4.83
5.03
4.89
4.41
3.67
2.87
2.25
1.97
2.1
2.52
3.01
3.37
3.48
3.36
3.15
2.95
2.75
2.45
1.91
1.08
0.01
-1.1
-2.07
-2.8
-3.32
-3.77
-4.3
-5.02
-5.94
-7.01
-8.14
-9.26
-10.26
-11.02
-11.34
-11.06
-10.08
-8.43
-6.3
-3.99
-1.83
-0.06
1.18
1.92
2.28
2.42
2.49
2.6
2.81
3.1
3.41
3.68
3.88
3.98
3.96
3.85
3.61
3.22
2.67
1.95
1.09
0.12
-0.89
-1.92
-2.91
-3.88
-4.84
-5.84
-6.92
-8.1
-9.34
-10.55
-11.72
-12.8
-13.82
-14.83
-15.81
-16.7
-17.37
-17.68
-17.51
-16.83
-15.68
-14.16
-12.43
-10.69
-9.17
-8.05
-7.43
-7.28
-7.47
-7.8
-8.09
-8.21
-8.09
-7.73
-7.14
-6.33
-5.29
-3.98
-2.38
-0.47
1.69
4.04
6.46
8.79
10.98
12.98
14.86
16.67
18.48
20.3
22.11
23.86
25.44
26.71
27.49
27.59
26.8
24.99
22.18
18.53
14.38
10.12
6.17
2.85
0.43
-1
-1.44
-1.06
-0.07
1.27
2.72
4.12
5.35
6.37
7.08
7.43
7.37
6.87
6.01
4.88
3.57
2.14
0.66
-0.82
-2.17
-3.26
-3.98
-4.31
-4.36
-4.33
-4.41
-4.69
-5.16
-5.7
-6.14
-6.4
-6.46
-6.44
-6.5
-6.85
-7.62
-8.79
-10.18
-11.5
-12.37
-12.5
-11.71
-10.02
-7.6
-4.74
-1.77
0.99
3.35
5.14
6.33
6.95
7.1
6.95
6.64
6.29
5.93
5.53
5.06
4.47
3.82
3.19
2.73
2.5
2.52
2.66
2.81
2.81
2.62
2.22
1.59
0.71
-0.47
-1.96
-3.71
-5.62
-7.53
-9.37
-11.13
-12.9
-14.78
-16.81
-18.89
-20.8
-22.23
-22.91
-22.65
-21.4
-19.26
-16.4
-13.06
-9.46
-5.72
-1.95
1.77
5.35
8.54
11.09
12.74
13.41
13.19
12.38
11.35
10.41
9.79
9.49
9.43
9.44
9.38
9.16
8.74
8.13
7.38
6.52
5.62
4.76
4
3.38
2.88
2.42
1.88
1.16
0.27
-0.7
-1.64
-2.49
-3.33
-4.31
-5.61
-7.21
-8.87
-10.18
-10.72
-10.21
-8.67
-6.38
-3.78
-1.25
0.95
2.75
4.23
5.5
6.69
7.84
8.99
10.15
11.38
12.73
14.25
15.93
17.65
19.24
20.55
21.45
21.87
21.83
21.32
20.32
18.78
16.7
14.1
11.09
7.83
4.51
1.26
-1.81
-4.62
-7.14
-9.4
-11.5
-13.57
-15.83
-18.47
-21.63
-25.34
-29.42
-33.49
-37.04
-39.51
-40.41
-39.51
-36.8
-32.52
-26.95
-20.4
-13.12
-5.36
2.57
10.3
17.32
23.12
27.25
29.46
29.74
28.41
26.02
23.18
20.45
18.06
16
14.09
12.1
9.97
7.75
5.57
3.56
1.76
0.15
-1.27
-2.49
-3.56
-4.57
-5.68
-7.04
-8.7
-10.59
-12.47
-14.08
-15.14
-15.5
-15.08
-13.87
-11.95
-9.46
-6.65
-3.8
-1.18
1.05
2.84
4.28
5.54
6.75
7.99
9.28
10.58
11.88
13.17
14.48
15.79
17.07
18.22
19.09
19.59
19.66
19.33
18.64
17.71
16.59
15.37
14.06
12.65
11.04
9.06
6.57
3.44
-0.26
-4.34
-8.53
-12.56
-16.21
-19.35
-21.92
-23.87
-25.17
-25.77
-25.7
-25
-23.71
-21.88
-19.51
-16.68
-13.56
-10.35
-7.28
-4.34
-1.29
2.39
7.36
14.17
23.09
33.91
45.9
57.94
68.68
76.82
81.35
81.68
77.71
69.74
58.43
44.76
29.89
15.08
1.56
-9.76
-18.46
-24.69
-29.05
-32.41
-35.54
-38.93
-42.7
-46.59
-50.15
-52.86
-54.29
-54.17
-52.47
-49.33
-45.05
-40.04
-34.69
-29.32
-24.13
-19.21
-14.55
-10.16
-6.05
-2.3
0.94
3.59
5.64
7.16
8.28
9.12
9.71
9.98
9.86
9.33
8.51
7.6
6.9
6.64
6.93
7.7
8.76
9.9
10.91
11.75
12.45
13.01
13.36
13.27
12.46
10.68
7.9
4.34
0.41
-3.34
-6.39
-8.37
-9.11
-8.66
-7.35
-5.61
-3.94
-2.79
-2.43
-2.94
-4.2
-5.96
-7.9
-9.73
-11.21
-12.2
-12.69
-12.73
-12.47
-12.01
-11.39
-10.61
-9.6
-8.32
-6.77
-5.05
-3.34
-1.9
-0.94
-0.58
-0.73
-1.16
-1.53
-1.57
-1.14
-0.27
0.91
2.23
3.56
4.81
5.99
7.16
8.4
9.87
11.69
13.92
16.51
19.27
21.91
24.1
25.55
26.07
25.56
24.05
21.72
18.86
15.82
13.06
10.93
9.65
9.26
9.56
10.24
10.95
11.45
11.64
11.6
11.42
11.14
10.7
9.93
8.67
6.83
4.4
1.47
-1.91
-5.76
-10.12
-14.93
-20.01
-25.14
-30.07
-34.69
-39
-43.07
-46.88
-50.24
-52.73
-53.91
-53.38
-50.96
-46.65
-40.62
-33.19
-24.76
-15.82
-6.91
1.45
8.78
14.76
19.29
22.43
24.39
25.34
25.38
24.58
22.9
20.39
17.21
13.74
10.5
8.1
6.98
7.29
8.85
11.14
13.5
15.34
16.27
16.23
15.36
13.94
12.18
10.25
8.2
6.16
4.29
2.82
1.91
1.62
1.85
2.3
2.7
2.81
2.63
2.3
2.09
2.2
2.72
3.63
4.85
6.29
7.9
9.61
11.29
12.73
13.74
14.16
14
13.34
12.27
10.78
8.79
6.25
3.2
-0.13
-3.4
-6.29
-8.65
-10.54
-12.14
-13.61
-15.03
-16.36
-17.54
-18.56
-19.45
-20.28
-21.04
-21.64
-21.9
-21.64
-20.8
-19.47
-17.91
-16.43
-15.3
-14.69
-14.55
-14.7
-14.92
-14.98
-14.75
-14.16
-13.2
-11.79
-9.84
-7.22
-3.95
-0.23
3.59
7.08
9.94
12.09
13.7
15.03
16.26
17.31
17.91
17.75
16.68
14.78
12.34
9.71
7.13
4.64
2.17
-0.4
-3.08
-5.75
-8.17
-10.08
-11.26
-11.65
-11.25
-10.13
-8.38
-6.03
-3.18
0.06
3.46
6.7
9.48
11.58
12.92
13.57
13.73
13.55
13.13
12.52
11.75
10.89
10.09
9.46
9.01
8.67
8.21
7.43
6.24
4.68
2.94
1.18
-0.44
-1.9
-3.17
-4.28
-5.22
-6
-6.69
-7.38
-8.2
-9.22
-10.39
-11.55
-12.47
-12.91
-12.68
-11.66
-9.91
-7.61
-5.01
-2.42
-0.09
1.84
3.32
4.32
4.77
4.59
3.69
2.13
0.11
-2.03
-3.95
-5.41
-6.35
-6.82
-6.85
-6.4
-5.36
-3.67
-1.45
1
3.26
4.94
5.83
5.9
5.27
4.08
2.46
0.5
-1.75
-4.21
-6.72
-9.15
-11.36
-13.26
-14.78
-15.86
-16.37
-16.14
-14.97
-12.77
-9.68
-6.01
-2.12
1.82
5.92
10.46
15.7
21.64
27.89
33.83
38.82
42.44
44.62
45.45
45.12
43.75
41.39
38.13
34.08
29.39
24.21
18.68
13.01
7.51
2.54
-1.6
-4.73
-6.89
-8.23
-8.85
-8.8
-7.99
-6.38
-4.11
-1.52
0.93
2.78
3.86
4.28
4.36
4.47
4.82
5.37
5.86
5.98
5.47
4.25
2.41
0.12
-2.46
-5.22
-8.07
-10.94
-13.68
-16.13
-18.1
-19.41
-19.97
-19.69
-18.56
-16.6
-13.95
-10.87
-7.74
-5.01
-3.05
-2.18
-2.51
-4.08
-6.76
-10.36
-14.61
-19.19
-23.71
-27.81
-31.23
-33.79
-35.42
-36.13
-35.99
-35.11
-33.69
-31.92
-30.02
-28.07
-26.05
-23.8
-21.18
-18.15
-14.8
-11.35
-7.97
-4.73
-1.59
1.58
4.85
8.16
11.34
14.22
16.71
18.83
20.71
22.43
24.06
25.47
26.52
27.1
27.21
26.92
26.37
25.7
24.95
24.12
23.14
21.89
20.29
18.31
16
13.53
11.15
9.19
7.97
7.74
8.59
10.4
12.88
15.56
17.95
19.61
20.2
19.63
18
15.56
12.62
9.42
6.14
2.89
-0.25
-3.19
-5.81
-7.94
-9.44
-10.23
-10.36
-9.97
-9.29
-8.57
-7.99
-7.69
-7.66
-7.9
-8.3
-8.83
-9.45
-10.12
-10.79
-11.39
-11.88
-12.23
-12.44
-12.49
-12.33
-11.93
-11.2
-10.1
-8.62
-6.81
-4.76
-2.6
-0.52
1.34
2.87
4.05
4.91
5.5
5.82
5.88
5.62
5.04
4.23
3.25
2.19
0.99
-0.45
-2.2
-4.2
-6.24
-8.02
-9.28
-9.93
-10.11
-10.11
-10.23
-10.63
-11.29
-12.1
-12.92
-13.7
-14.44
-15.19
-15.85
-16.28
-16.21
-15.45
-13.97
-11.9
-9.49
-6.99
-4.53
-2.11
0.37
3.05
5.96
8.99
11.89
14.39
16.2
17.2
17.48
17.24
16.8
16.42
16.23
16.24
16.36
16.55
16.79
17.17
17.69
18.24
18.6
18.46
17.58
15.9
13.62
11.09
8.73
6.81
5.33
4.11
2.82
1.22
-0.7
-2.74
-4.6
-5.97
-6.71
-6.88
-6.67
-6.34
-6.1
-6.04
-6.21
-6.59
-7.1
-7.65
-8.12
-8.44
-8.58
-8.58
-8.55
-8.55
-8.57
-8.51
-8.22
-7.59
-6.63
-5.53
-4.51
-3.8
-3.44
-3.33
-3.27
-3.09
-2.7
-2.17
-1.6
-1.1
-0.75
-0.51
-0.34
-0.19
-0.02
0.14
0.34
0.59
0.99
1.61
2.58
3.94
5.69
7.76
10.02
12.35
14.64
16.77
18.61
19.97
20.63
20.38
19.19
17.19
14.73
12.17
9.8
7.69
5.75
3.8
1.75
-0.4
-2.52
-4.44
-6.03
-7.22
-7.99
-8.41
-8.54
-8.49
-8.34
-8.21
-8.14
-8.14
-8.19
-8.26
-8.32
-8.41
-8.56
-8.78
-8.98
-9.04
-8.82
-8.29
-7.52
-6.7
-6.03
-5.64
-5.45
-5.26
-4.87
-4.19
-3.28
-2.35
-1.56
-0.96
-0.44
0.17
0.98
1.89
2.66
2.99
2.72
1.86
0.64
-0.68
-1.91
-3
-4.03
-5.13
-6.31
-7.48
-8.45
-9.08
-9.29
-9.16
-8.8
-8.34
-7.82
-7.2
-6.39
-5.32
-4.02
-2.64
-1.32
-0.18
0.77
1.61
2.42
3.23
3.95
4.45
4.55
4.23
3.53
2.61
1.6
0.54
-0.57
-1.76
-3
-4.23
-5.31
-6.15
-6.65
-6.77
-6.53
-6.01
-5.32
-4.64
-4.12
-3.84
-3.81
-3.92
-3.99
-3.85
-3.34
-2.35
-0.85
1.18
3.61
6.29
9
11.55
13.85
15.93
17.84
19.62
21.19
22.39
23.01
22.96
22.25
21.01
19.46
17.74
15.91
13.9
11.68
9.26
6.82
4.53
2.58
0.99
-0.32
-1.52
-2.78
-4.14
-5.54
-6.8
-7.82
-8.51
-8.93
-9.16
-9.27
-9.26
-9.06
-8.58
-7.76
-6.61
-5.26
-3.91
-2.81
-2.24
-2.38
-3.31
-4.99
-7.24
-9.76
-12.23
-14.38
-16.03
-17.18
-17.97
-18.53
-18.97
-19.17
-18.86
-17.74
-15.67
-12.78
-9.5
-6.36
-3.82
-2.12
-1.24
-1.03
-1.36
-2.15
-3.33
-4.85
-6.51
-8.05
-9.18
-9.68
-9.46
-8.55
-7.09
-5.3
-3.43
-1.72
-0.37
0.5
0.89
0.87
0.58
0.14
-0.32
-0.76
-1.11
-1.36
-1.49
-1.48
-1.28
-0.86
-0.2
0.66
1.68
2.78
3.89
5
6.2
7.64
9.42
11.57
13.91
16.14
17.84
18.58
18.06
16.18
13.15
9.41
5.51
1.98
-0.82
-2.74
-3.81
-4.16
-3.96
-3.36
-2.51
-1.56
-0.65
0.15
0.83
1.42
2
2.65
3.41
4.24
5.04
5.64
5.89
5.71
5.11
4.28
3.43
2.73
2.23
1.82
1.36
0.76
0.03
-0.67
-1.19
-1.4
-1.37
-1.19
-1.06
-1.11
-1.43
-2
-2.82
-3.83
-4.93
-5.97
-6.73
-6.95
-6.47
-5.27
-3.47
-1.34
0.86
2.88
4.61
6.02
7.11
7.9
8.4
8.61
8.56
8.35
8.07
7.83
7.73
7.78
7.96
8.16
8.29
8.26
8.06
7.72
7.26
6.69
6.01
5.19
4.19
3
1.59
-0.09
-2.1
-4.46
-7.16
-10.1
-13.17
-16.29
-19.41
-22.52
-25.55
-28.33
-30.63
-32.13
-32.63
-32
-30.27
-27.6
-24.22
-20.38
-16.32
-12.22
-8.21
-4.44
-1.03
1.94
4.43
6.49
8.25
9.88
11.47
13.05
14.53
15.78
16.72
17.36
17.71
17.77
17.45
16.6
15.1
12.9
10.12
6.96
3.68
0.42
-2.71
-5.66
-8.35
-10.64
-12.35
-13.29
-13.36
-12.53
-10.86
-8.45
-5.46
-2.1
1.35
4.55
7.14
8.82
9.38
8.8
7.21
4.92
2.28
-0.21
-2.18
-3.3
-3.48
-2.8
-1.5
0.11
1.77
3.36
4.86
6.32
7.71
8.98
9.96
10.56
10.76
10.63
10.27
9.77
9.11
8.29
7.27
6.06
4.72
3.28
1.79
0.27
-1.27
-2.75
-4.03
-4.94
-5.33
-5.16
-4.48
-3.42
-2.16
-0.85
0.37
1.45
2.35
3.09
3.68
4.16
4.58
4.94
5.23
5.42
5.51
5.52
5.51
5.57
5.74
6.06
6.47
6.94
7.39
7.77
8.03
8.11
7.93
7.42
6.57
5.43
4.15
2.88
1.69
0.59
-0.52
-1.8
-3.35
-5.16
-7.13
-9.06
-10.73
-11.93
-12.51
-12.32
-11.34
-9.63
-7.33
-4.72
-2.1
0.27
2.18
3.58
4.49
5.02
5.26
5.34
5.3
5.18
4.93
4.52
3.96
3.31
2.74
2.35
2.22
2.25
2.26
2.06
1.58
0.92
0.27
-0.16
-0.31
-0.29
-0.27
-0.42
-0.73
-1.09
-1.32
-1.25
-0.85
-0.13
0.89
2.19
3.65
5.07
6
6.03
4.89
2.76
0.15
-2.2
-3.77
-4.44
-4.61
-4.95
-6.05
-8.15
-11.05
-14.3
-17.44
-20.16
-22.39
-24.16
-25.55
-26.55
-27.03
-26.82
-25.7
-23.49
-20.07
-15.52
-10.03
-4.03
2.02
7.6
12.27
15.72
17.73
18.2
17.14
14.75
11.45
7.81
4.44
1.82
0.18
-0.6
-0.95
-1.48
-2.75
-5.12
-8.64
-12.98
-17.61
-21.96
-25.6
-28.3
-30.08
-31.02
-31.25
-30.75
-29.35
-26.75
-22.7
-17.12
-10.32
-2.94
4.23
10.54
15.74
20.07
24.04
28.15
32.58
37.21
41.7
45.67
48.7
50.35
50.13
47.6
42.62
35.56
27.3
18.96
11.59
5.81
1.76
-0.68
-1.76
-1.68
-0.61
1.1
2.96
4.38
4.9
4.33
2.84
0.74
-1.62
-4.07
-6.66
-9.51
-12.71
-16.2
-19.72
-22.9
-25.45
-27.19
-28.1
-28.29
-27.97
-27.37
-26.7
-26.11
-25.64
-25.22
-24.7
-23.91
-22.7
-20.95
-18.62
-15.78
-12.59
-9.26
-6.1
-3.33
-1.05
0.88
2.69
4.64
6.88
9.32
11.77
14.04
16.11
18.16
20.49
23.3
26.66
30.47
34.5
38.54
42.27
45.38
47.49
48.26
47.52
45.35
42.06
37.98
33.19
27.45
20.31
11.37
0.58
-11.58
-24.16
-35.92
-45.55
-51.89
-54.07
-51.66
-44.67
-33.69
-19.86
-4.7
10.13
23.22
33.71
41.42
46.7
50.17
52.36
53.43
53.12
50.85
45.98
38.06
27.08
13.58
-1.37
-16.32
-29.71
-40.28
-47.36
-51.05
-52.09
-51.44
-49.89
-47.77
-44.9
-40.86
-35.27
-28.07
-19.5
-10.07
-0.34
9.18
18.05
25.86
32.18
36.59
38.8
38.77
36.84
33.78
30.57
28.21
27.36
28.21
30.47
33.54
36.8
39.82
42.49
44.9
47.2
49.4
51.31
52.62
53.03
52.37
50.68
48.15
45.09
41.75
38.28
34.59
30.48
25.58
19.53
12.09
3.23
-6.72
-17.19
-27.43
-36.78
-44.85
-51.62
-57.35
-62.41
-67.05
-71.24
-74.7
-77.06
-78
-77.42
-75.39
-72.18
-68.05
-63.28
-58.06
-52.43
-46.32
-39.59
-32.16
-24.2
-16.11
-8.53
-2.08
2.77
5.91
7.51
7.91
7.42
6.25
4.6
2.64
0.63
-1.16
-2.53
-3.48
-4.13
-4.63
-5.04
-5.22
-4.92
-3.93
-2.17
0.18
2.81
5.38
7.74
9.86
11.88
13.89
15.87
17.59
18.75
18.99
18.09
16.02
12.96
9.34
5.7
2.6
0.43
-0.74
-1.13
-1.2
-1.39
-1.99
-3.03
-4.35
-5.68
-6.81
-7.57
-7.85
-7.6
-6.77
-5.42
-3.69
-1.79
0.06
1.74
3.3
4.86
6.58
8.55
10.73
12.99
15.06
16.62
17.29
16.7
14.56
10.71
5.3
-1.26
-8.37
-15.33
-21.59
-26.77
-30.69
-33.32
-34.64
-34.69
-33.61
-31.65
-29.11
-26.23
-23.03
-19.32
-14.86
-9.57
-3.66
2.4
8.06
12.95
16.99
20.26
22.91
25
26.48
27.29
27.46
27.11
26.4
25.42
24.15
22.5
20.42
17.88
14.98
11.82
8.57
5.43
2.65
0.48
-0.91
-1.51
-1.5
-1.13
-0.56
0.17
1.19
2.64
4.52
6.64
8.64
10.13
10.82
10.62
9.67
8.2
6.45
4.56
2.61
0.6
-1.45
-3.5
-5.47
-7.21
-8.63
-9.65
-10.25
-10.43
-10.19
-9.55
-8.56
-7.28
-5.86
-4.42
-3.09
-1.99
-1.18
-0.75
-0.69
-1
-1.6
-2.32
-3.06
-3.73
-4.37
-5.19
-6.38
-8.07
-10.19
-12.5
-14.58
-16.07
-16.72
-16.44
-15.34
-13.59
-11.41
-9.02
-6.63
-4.38
-2.41
-0.74
0.65
1.85
2.89
3.76
4.42
4.86
5.19
5.5
5.96
6.68
7.71
8.99
10.44
11.94
13.38
14.69
15.8
16.67
17.23
17.43
17.24
16.65
15.7
14.44
13.01
11.49
9.97
8.47
6.91
5.24
3.37
1.28
-1
-3.33
-5.44
-7.06
-7.9
-7.83
-6.9
-5.32
-3.42
-1.47
0.38
2.09
3.71
5.28
6.79
8.14
9.22
9.94
10.26
10.24
10.03
9.86
9.95
10.44
11.32
12.4
13.34
13.87
13.96
13.88
14.15
15.29
17.56
20.78
24.38
27.61
29.74
30.29
29.08
26.22
21.96
16.59
10.35
3.24
-5.06
-15.29
-28.35
-45.01
-65.42
-88.71
-112.82
-134.59
-150.42
-157.3
-153.82
-140.7
-120.54
-96.89
-72.96
-50.81
-31.16
-14
0.52
11.73
18.69
20.95
19.16
15.09
10.9
8.2
7.51
8.42
10.29
12.82
16.29
21.16
27.66
35.38
43.35
50.47
55.95
59.7
62.18
64.11
66.07
68.17
69.97
70.7
69.59
66.17
60.42
52.67
43.37
32.88
21.5
9.54
-2.48
-13.8
-23.64
-31.42
-37.1
-41.13
-44.22
-46.96
-49.62
-52.11
-54.13
-55.37
-55.62
-54.75
-52.51
-48.6
-42.81
-35.17
-26.1
-16.19
-5.95
4.51
15.41
27.03
39.23
51.16
61.37
68.24
70.56
67.94
60.92
50.63
38.42
25.51
12.9
1.31
-8.79
-17.16
-23.83
-28.96
-32.67
-34.9
-35.32
-33.51
-29.18
-22.51
-14.14
-5.06
3.71
11.47
17.93
23.15
27.27
30.45
32.63
33.77
33.81
32.84
31.01
28.5
25.46
21.94
17.98
13.61
9.01
4.45
0.22
-3.39
-6.23
-8.29
-9.68
-10.59
-11.25
-11.83
-12.44
-13.16
-13.98
-14.88
-15.85
-16.86
-17.93
-19.01
-19.99
-20.71
-20.98
-20.65
-19.61
-17.8
-15.15
-11.61
-7.26
-2.4
2.45
6.64
9.64
11.2
11.36
10.41
8.53
5.68
1.54
-4.26
-11.83
-20.87
-30.66
-40.3
-48.98
-56.13
-61.35
-64.27
-64.38
-61.12
-54.19
-43.76
-30.68
-16.22
-1.69
12.07
24.77
36.55
47.6
57.83
66.82
74.05
79.11
81.94
82.74
81.75
79.14
74.91
69.05
61.72
53.23
43.97
34.32
24.46
14.43
4.27
-5.81
-15.36
-23.77
-30.45
-35.05
-37.56
-38.37
-38.02
-36.99
-35.53
-33.6
-31.01
-27.6
-23.38
-18.56
-13.47
-8.44
-3.74
0.45
4.03
6.98
9.32
11.18
12.74
14.24
15.85
17.67
19.68
21.78
23.82
25.67
27.2
28.3
28.87
28.79
27.98
26.33
23.79
20.42
16.4
11.97
7.44
3.06
-0.99
-4.63
-7.86
-10.7
-13.15
-15.27
-17.12
-18.83
-20.52
-22.26
-23.99
-25.55
-26.79
-27.59
-27.93
-27.82
-27.22
-25.99
-23.85
-20.59
-16.09
-10.56
-4.51
1.39
6.44
10.18
12.42
13.27
13.03
12.05
10.63
8.93
7.1
5.29
3.69
2.49
1.8
1.56
1.6
1.66
1.56
1.3
0.98
0.77
0.75
0.86
0.89
0.67
0.09
-0.75
-1.69
-2.53
-3.22
-3.88
-4.74
-6.06
-7.96
-10.38
-13.09
-15.72
-17.93
-19.43
-20.06
-19.76
-18.58
-16.64
-14.11
-11.18
-8.08
-5.06
-2.35
-0.14
1.47
2.54
3.2
3.6
3.89
4.17
4.54
5.11
6.02
7.34
9.01
10.84
12.54
13.88
14.7
15
14.82
14.16
12.98
11.25
9.06
6.64
4.34
2.42
0.99
-0.06
-1.04
-2.21
-3.76
-5.63
-7.65
-9.61
-11.38
-12.98
-14.5
-16.05
-17.63
-19.13
-20.38
-21.21
-21.51
-21.27
-20.5
-19.23
-17.42
-15.09
-12.29
-9.14
-5.9
-2.83
-0.17
1.95
3.58
4.9
6.24
7.9
10.05
12.64
15.42
18.01
20.08
21.45
22.19
22.48
22.62
22.83
23.23
23.84
24.61
25.44
26.2
26.76
27.02
26.86
26.25
25.12
23.42
21.06
17.99
14.27
10.07
5.66
1.36
-2.53
-5.81
-8.31
-9.97
-10.76
-10.72
-9.91
-8.49
-6.61
-4.41
-2.04
0.38
2.62
4.46
5.64
6.01
5.61
4.74
3.78
3.17
3.07
3.33
3.51
3.01
1.26
-2.07
-7.03
-13.44
-20.92
-28.95
-36.96
-44.42
-51.03
-56.79
-61.94
-66.67
-70.86
-73.9
-74.79
-72.64
-67.15
-58.84
-48.87
-38.65
-29.21
-21.02
-14.01
-7.87
-2.39
2.47
6.69
10.33
13.66
17.01
20.6
24.41
28.17
31.49
34.08
35.91
37.13
37.92
38.38
38.36
37.62
35.96
33.36
29.96
26.07
21.97
17.95
14.18
10.85
8.13
6.15
4.94
4.36
4.2
4.22
4.27
4.26
4.18
4.03
3.73
3.25
2.55
1.68
0.74
-0.14
-0.88
-1.47
-1.9
-2.25
-2.61
-3.05
-3.63
-4.35
-5.08
-5.65
-5.83
-5.45
-4.43
-2.86
-0.92
1.14
3.12
4.9
6.41
7.66
8.65
9.38
9.82
9.94
9.7
9.09
8.12
6.83
5.31
3.7
2.12
0.69
-0.56
-1.65
-2.67
-3.69
-4.78
-5.89
-6.96
-7.85
-8.44
-8.56
-8.12
-7.06
-5.45
-3.45
-1.31
0.74
2.48
3.81
4.65
5
4.92
4.53
4.07
3.8
3.98
4.72
5.91
7.21
8.21
8.56
8.14
7.08
5.69
4.32
3.26
2.66
2.49
2.62
2.85
3.03
3.03
2.83
2.48
2.01
1.44
0.76
-0.08
-1.11
-2.3
-3.57
-4.79
-5.86
-6.75
-7.48
-8.09
-8.6
-9
-9.26
-9.39
-9.39
-9.24
-8.93
-8.38
-7.43
-5.98
-3.95
-1.37
1.64
4.98
8.55
12.22
15.87
19.3
22.25
24.36
25.19
24.23
20.92
14.78
5.58
-6.47
-20.65
-35.73
-50.18
-62.46
-71.33
-76.08
-76.53
-72.93
-65.82
-55.84
-43.64
-29.86
-15.15
-0.19
14.38
28.05
40.46
51.44
60.78
68.14
73.02
74.85
73.3
68.49
61.11
52.26
43.13
34.64
27.25
20.98
15.56
10.69
6.2
2.08
-1.59
-4.77
-7.45
-9.67
-11.4
-12.48
-12.75
-12
-10.18
-7.42
-3.99
-0.28
3.34
6.52
9.03
10.74
11.63
11.8
11.45
10.81
10.09
9.44
8.87
8.33
7.76
7.08
6.29
5.44
4.54
3.58
2.47
1.13
-0.53
-2.49
-4.71
-7.07
-9.48
-11.84
-14.08
-16.1
-17.78
-19.04
-19.87
-20.38
-20.74
-21.14
-21.66
-22.3
-22.95
-23.46
-23.68
-23.45
-22.62
-21.03
-18.57
-15.22
-11.16
-6.74
-2.35
1.63
5
7.73
9.87
11.51
12.68
13.4
13.67
13.59
13.35
13.16
13.11
13.21
13.35
13.43
13.43
13.42
13.48
13.63
13.78
13.76
13.43
12.69
11.59
10.23
8.73
7.17
5.55
3.84
2.02
0.03
-2.11
-4.37
-6.69
-9.01
-11.28
-13.42
-15.32
-16.76
-17.49
-17.28
-15.99
-13.7
-10.7
-7.4
-4.24
-1.54
0.48
1.76
2.24
1.89
0.64
-1.53
-4.58
-8.36
-12.7
-17.39
-22.23
-26.98
-31.41
-35.23
-38.16
-39.98
-40.61
-40.15
-38.8
-36.85
-34.49
-31.81
-28.82
-25.5
-21.91
-18.24
-14.83
-11.99
-9.99
-8.89
-8.56
-8.7
-8.89
-8.74
-7.97
-6.49
-4.42
-2.02
0.44
2.77
4.96
7.13
9.44
12.01
14.82
17.81
20.82
23.7
26.33
28.64
30.56
32.03
32.95
33.18
32.6
31.18
29.01
26.34
23.5
20.8
18.38
16.28
14.42
12.72
11.18
9.84
8.75
7.93
7.32
6.82
6.35
5.88
5.48
5.28
5.47
6.31
8.06
10.99
15.27
20.94
27.76
35.22
42.54
48.85
53.38
55.61
55.4
52.88
48.33
42.12
34.58
25.98
16.54
6.48
-4.09
-15.07
-26.44
-38.11
-49.93
-61.62
-72.97
-83.84
-94.16
-103.71
-111.89
-117.63
-119.59
-116.57
-107.94
-93.94
-75.56
-54.18
-31.14
-7.4
16.45
39.98
62.7
83.95
102.93
118.91
131.22
139.31
142.71
140.91
133.53
120.38
101.83
78.94
53.4
27.17
2.04
-20.67
-40.11
-55.78
-67.27
-74.23
-76.53
-74.47
-69.04
-61.64
-53.82
-46.72
-40.77
-35.76
-31.13
-26.4
-21.43
-16.49
-12.03
-8.42
-5.72
-3.61
-1.63
0.62
3.28
6.26
9.3
12.17
14.77
17.06
19.04
20.57
21.36
21.01
19.11
15.4
9.89
2.85
-5.22
-13.68
-21.9
-29.33
-35.53
-40.14
-42.84
-43.44
-41.95
-38.66
-34.11
-29
-24.02
-19.63
-16.04
-13.21
-10.99
-9.23
-7.82
-6.64
-5.55
-4.32
-2.76
-0.76
1.69
4.46
7.39
10.34
13.24
16.06
18.85
21.57
24.11
26.28
27.86
28.66
28.62
27.77
26.33
24.53
22.64
20.87
19.33
18.1
17.16
16.54
16.22
16.17
16.31
16.54
16.78
17
17.27
17.6
18.01
18.39
18.64
18.68
18.49
18.12
17.55
16.71
15.4
13.44
10.73
7.3
3.39
-0.75
-4.83
-8.69
-12.22
-15.33
-17.92
-19.91
-21.26
-21.98
-22.17
-21.97
-21.54
-20.94
-20.19
-19.23
-18
-16.47
-14.65
-12.53
-10.13
-7.44
-4.46
-1.2
2.34
6.11
10.07
14.13
18.21
22.15
25.74
28.73
30.85
31.86
31.63
30.04
26.97
22.29
15.89
7.8
-1.71
-12.03
-22.31
-31.59
-39.05
-44.24
-47.11
-47.95
-47.19
-45.25
-42.4
-38.79
-34.5
-29.58
-24.15
-18.34
-12.33
-6.28
-0.34
5.37
10.8
15.87
20.55
24.78
28.45
31.43
33.58
34.76
34.9
34
32.13
29.47
26.24
22.72
19.19
15.91
13.1
10.99
9.73
9.45
10.21
11.94
14.48
17.62
21.11
24.69
28.07
30.87
32.71
33.28
32.4
30.08
26.45
21.68
15.86
9.09
1.56
-6.3
-13.8
-20.2
-24.9
-27.64
-28.55
-27.89
-25.96
-22.98
-19.2
-15.01
-11.01
-7.88
-6.11
-5.83
-6.78
-8.58
-10.94
-13.86
-17.49
-21.97
-27.17
-32.71
-38.11
-43.01
-47.37
-51.36
-55.22
-58.98
-62.3
-64.5
-64.79
-62.46
-57.13
-48.81
-37.91
-25.11
-11.25
2.8
16.22
28.27
38.31
45.89
50.78
53.01
52.84
50.72
47.13
42.48
37
30.75
23.74
16.11
8.39
1.43
-3.8
-6.57
-6.74
-4.85
-1.87
1.2
3.72
5.52
6.72
7.34
7.16
5.76
3.01
-0.62
-4.02
-5.77
-4.73
-0.48
6.51
15.18
24.26
32.66
39.67
44.84
47.93
48.74
47.18
43.34
37.58
30.55
23.08
16.08
10.39
6.62
5.1
5.9
8.96
14.22
21.65
31.22
42.74
55.73
69.3
82.27
93.52
102.18
107.7
109.54
106.83
98.36
82.92
60.09
30.84
-2.32
-36
-66.91
-92.77
-112.62
-126.55
-135.1
-138.84
-138.32
-134.23
-127.42
-118.78
-108.89
-97.87
-85.67
-72.48
-59.02
-46.48
-36.08
-28.55
-23.7
-20.53
-17.61
-13.56
-7.41
1.18
11.98
24.17
36.45
47.24
54.85
57.83
55.27
47.09
34.16
18.26
1.65
-13.45
-25.45
-33.89
-39.48
-43.66
-47.97
-53.34
-59.83
-66.68
-72.79
-77.17
-79.28
-79.06
-76.82
-72.99
-68.03
-62.34
-56.27
-50.18
-44.38
-39.17
-34.76
-31.21
-28.53
-26.55
-25.06
-23.73
-22.18
-20.02
-16.89
-12.58
-7.05
-0.49
6.79
14.49
22.45
30.69
39.33
48.57
58.54
69.28
80.57
91.92
102.58
111.56
117.84
120.65
119.75
115.53
108.93
101.08
92.83
84.44
75.55
65.45
53.55
39.8
24.83
9.74
-4.3
-16.43
-26.27
-33.83
-39.29
-42.84
-44.74
-45.4
-45.41
-45.41
-45.88
-46.86
-47.93
-48.41
-47.63
-45.25
-41.34
-36.37
-31.03
-26.1
-22.23
-19.88
-19.16
-19.85
-21.41
-23.08
-24.13
-24.03
-22.61
