2023-01-28 14:10:30.003367,0.09933551400899879
2023-01-28 14:10:30.008367,0.09356006015183042
2023-01-28 14:10:30.013367,0.06447672843933101
2023-01-28 14:10:30.018367,0.04431471206924971
2023-01-28 14:10:30.023367,0.0410372018814086
2023-01-28 14:10:30.028367,0.03793520871637001
2023-01-28 14:10:30.033367,0.02709368988871571
2023-01-28 14:10:30.038367,0.018531367448447328
2023-01-28 14:10:30.043367,0.018006365746259575
2023-01-28 14:10:30.048367,0.017806469400728994
2023-01-28 14:10:30.053367,0.013005932793021216
2023-01-28 14:10:30.058367,0.00963556626645216
2023-01-28 14:10:30.063367,0.011731783859431681
2023-01-28 14:10:30.068367,0.013968353088188421
2023-01-28 14:10:30.073367,0.012380878441035682
2023-01-28 14:10:30.078367,0.011130572963231231
2023-01-28 14:10:30.083367,0.013510784134268712
2023-01-28 14:10:30.088367,0.015794309030291064
2023-01-28 14:10:30.093367,0.014905135147273483
2023-01-28 14:10:30.098367,0.01396683789149022
2023-01-28 14:10:30.103367,0.015626352280378265
2023-01-28 14:10:30.108367,0.017108579926118105
2023-01-28 14:10:30.113367,0.01625140570104118
2023-01-28 14:10:30.118367,0.016003812328384052
2023-01-28 14:10:30.123367,0.018775662407278987
2023-01-28 14:10:30.128367,0.02200439611410388
2023-01-28 14:10:30.133367,0.02312700077891341
2023-01-28 14:10:30.138367,0.023738409002499218
2023-01-28 14:10:30.143367,0.02526660822331899
2023-01-28 14:10:30.148367,0.02541992721799168
2023-01-28 14:10:30.153367,0.022477906197309352
2023-01-28 14:10:30.158367,0.01878590648256696
2023-01-28 14:10:30.163367,0.01673221588134759
2023-01-28 14:10:30.168367,0.015231632815473807
2023-01-28 14:10:30.173367,0.013150176033377642
2023-01-28 14:10:30.178367,0.012305740294031522
2023-01-28 14:10:30.183367,0.014039675705134773
2023-01-28 14:10:30.188367,0.016310306715863674
2023-01-28 14:10:30.193367,0.017044743523001567
2023-01-28 14:10:30.198367,0.017203703972557004
2023-01-28 14:10:30.203367,0.018006365746259564
2023-01-28 14:10:30.208367,0.018342274177014783
2023-01-28 14:10:30.213367,0.017549594864249157
2023-01-28 14:10:30.218367,0.017815085290845172
2023-01-28 14:10:30.223367,0.021251838654279664
2023-01-28 14:10:30.228367,0.02714049475762086
2023-01-28 14:10:30.233367,0.03416160866618143
2023-01-28 14:10:30.238367,0.04256576300270587
2023-01-28 14:10:30.243367,0.051831405609846094
2023-01-28 14:10:30.248367,0.0587552884737121
2023-01-28 14:10:30.253367,0.0602936744689941
2023-01-28 14:10:30.258367,0.0563464787860673
2023-01-28 14:10:30.263367,0.048057042062282465
2023-01-28 14:10:30.268367,0.035809679523721494
2023-01-28 14:10:30.273367,0.020843148231506257
2023-01-28 14:10:30.278367,0.006433696241567238
2023-01-28 14:10:30.283367,-0.004832148551940866
2023-01-28 14:10:30.288367,-0.01333671423517606
2023-01-28 14:10:30.293367,-0.020434459671378108
2023-01-28 14:10:30.298367,-0.026063433923156763
2023-01-28 14:10:30.303367,-0.029690068215131697
2023-01-28 14:10:30.308367,-0.03129527939682227
2023-01-28 14:10:30.313367,-0.029497742652893056
2023-01-28 14:10:30.318367,-0.020591432724756435
2023-01-28 14:10:30.323367,-0.001562635181471665
2023-01-28 14:10:30.328367,0.026772476020327958
2023-01-28 14:10:30.333367,0.06024559587240207
2023-01-28 14:10:30.338367,0.09293070279361959
2023-01-28 14:10:30.343367,0.1173659190535545
2023-01-28 14:10:30.348367,0.12603591449229853
2023-01-28 14:10:30.353367,0.11551479995250702
2023-01-28 14:10:30.358367,0.08897882891645152
2023-01-28 14:10:30.363367,0.054067175835370976
2023-01-28 14:10:30.368367,0.019257783522176494
2023-01-28 14:10:30.373367,-0.008149743080139122
2023-01-28 14:10:30.378367,-0.02385663861913639
2023-01-28 14:10:30.383367,-0.028560161590576075
2023-01-28 14:10:30.388367,-0.026839314659395794
2023-01-28 14:10:30.393367,-0.0228865947574377
2023-01-28 14:10:30.398367,-0.018368860273431847
2023-01-28 14:10:30.403367,-0.014328162185847674
2023-01-28 14:10:30.408367,-0.0123398725968018
2023-01-28 14:10:30.413367,-0.012525121681392108
2023-01-28 14:10:30.418367,-0.01278478687760765
2023-01-28 14:10:30.423367,-0.011611580848693796
2023-01-28 14:10:30.428367,-0.009882030808167127
2023-01-28 14:10:30.433367,-0.00865459442138669
2023-01-28 14:10:30.438367,-0.0072111890282049555
2023-01-28 14:10:30.443367,-0.004711946006864309
2023-01-28 14:10:30.448367,-0.0018917825360759177
2023-01-28 14:10:30.453367,0.00043272972106932173
2023-01-28 14:10:30.458367,0.002859207121141286
2023-01-28 14:10:30.463367,0.005938013549894
2023-01-28 14:10:30.468367,0.008846187673800566
2023-01-28 14:10:30.473367,0.011010567657649526
2023-01-28 14:10:30.478367,0.013566788841774917
2023-01-28 14:10:30.483367,0.017765959724783835
2023-01-28 14:10:30.488367,0.02329451337258835
2023-01-28 14:10:30.493367,0.029449662193655905
2023-01-28 14:10:30.498367,0.036514547484063124
2023-01-28 14:10:30.503367,0.044619243592023836
2023-01-28 14:10:30.508367,0.05267100675028037
2023-01-28 14:10:30.513367,0.05986094474792483
2023-01-28 14:10:30.518367,0.06701598034761358
2023-01-28 14:10:30.523367,0.07517477124929423
2023-01-28 14:10:30.528367,0.08404090156258585
2023-01-28 14:10:30.533367,0.09303689002990723
2023-01-28 14:10:30.538367,0.10257212698804363
2023-01-28 14:10:30.543367,0.11296650022268287
2023-01-28 14:10:30.548367,0.12333743748412321
2023-01-28 14:10:30.553367,0.13284802436828608
2023-01-28 14:10:30.558367,0.14192780806190852
2023-01-28 14:10:30.563367,0.15102267265319813
2023-01-28 14:10:30.568367,0.1592213284559175
2023-01-28 14:10:30.573367,0.16527871787548057
2023-01-28 14:10:30.578367,0.16888843391404498
2023-01-28 14:10:30.583367,0.169798344373703
2023-01-28 14:10:30.588367,0.16682841901044293
2023-01-28 14:10:30.593367,0.15905222296714774
2023-01-28 14:10:30.598367,0.1470308387430638
2023-01-28 14:10:30.603367,0.1318142861127853
2023-01-28 14:10:30.608367,0.1137499203265675
2023-01-28 14:10:30.613367,0.09334941953420628
2023-01-28 14:10:30.618367,0.07225180748953954
2023-01-28 14:10:30.623367,0.05211989209055902
2023-01-28 14:10:30.628367,0.033443868266871714
2023-01-28 14:10:30.633367,0.01641969010233865
2023-01-28 14:10:30.638367,0.00199275752410353
2023-01-28 14:10:30.643367,-0.009063283912837507
2023-01-28 14:10:30.648367,-0.01718411816749314
2023-01-28 14:10:30.653367,-0.02310295961797225
2023-01-28 14:10:30.658367,-0.02680456625087814
2023-01-28 14:10:30.663367,-0.028343796730041466
2023-01-28 14:10:30.668367,-0.028720215702713266
2023-01-28 14:10:30.673367,-0.028872689232230082
2023-01-28 14:10:30.678367,-0.028651793274026803
2023-01-28 14:10:30.683367,-0.027742784470319682
2023-01-28 14:10:30.688367,-0.026712671172849495
2023-01-28 14:10:30.693367,-0.026180148124694803
2023-01-28 14:10:30.698367,-0.025835357826801516
2023-01-28 14:10:30.703367,-0.025242567062377902
2023-01-28 14:10:30.708367,-0.02474233136726186
2023-01-28 14:10:30.713367,-0.024617513641715025
2023-01-28 14:10:30.718367,-0.024258890600061304
2023-01-28 14:10:30.723367,-0.023151040077209355
2023-01-28 14:10:30.728367,-0.021876011881261873
2023-01-28 14:10:30.733367,-0.021203756332397374
2023-01-28 14:10:30.738367,-0.020981786937991367
2023-01-28 14:10:30.743367,-0.02079506777226921
2023-01-28 14:10:30.748367,-0.020855164875795234
2023-01-28 14:10:30.753367,-0.021299919113516825
2023-01-28 14:10:30.758367,-0.02145422501963103
2023-01-28 14:10:30.763367,-0.020771026611328063
2023-01-28 14:10:30.768367,-0.01978204526559578
2023-01-28 14:10:30.773367,-0.01923243328928937
2023-01-28 14:10:30.778367,-0.019009734075087204
2023-01-28 14:10:30.783367,-0.018751621246337818
2023-01-28 14:10:30.788367,-0.01869600272893661
2023-01-28 14:10:30.793367,-0.019040107727050715
2023-01-28 14:10:30.798367,-0.01924800270344551
2023-01-28 14:10:30.803367,-0.018919905647635356
2023-01-28 14:10:30.808367,-0.018643637214365294
2023-01-28 14:10:30.813367,-0.019112229347228966
2023-01-28 14:10:30.818367,-0.020051165021525284
2023-01-28 14:10:30.823367,-0.020746987313032057
2023-01-28 14:10:30.828367,-0.02082181812439641
2023-01-28 14:10:30.833367,-0.019665163010358838
2023-01-28 14:10:30.838367,-0.01598062970300659
2023-01-28 14:10:30.843367,-0.008991162292659253
2023-01-28 14:10:30.848367,0.0003439380288890845
2023-01-28 14:10:30.853367,0.009952783584594687
2023-01-28 14:10:30.858367,0.01780179096654974
2023-01-28 14:10:30.863367,0.021900933235883685
2023-01-28 14:10:30.868367,0.020360770582963567
2023-01-28 14:10:30.873367,0.012765526771545372
2023-01-28 14:10:30.878367,0.0011071565113727501
2023-01-28 14:10:30.883367,-0.011467337608337385
2023-01-28 14:10:30.888367,-0.022501429058185397
2023-01-28 14:10:30.893367,-0.03060360811650751
2023-01-28 14:10:30.898367,-0.03524156916968892
2023-01-28 14:10:30.903367,-0.03726283833384508
2023-01-28 14:10:30.908367,-0.038812261512193066
2023-01-28 14:10:30.913367,-0.041421853005886
2023-01-28 14:10:30.918367,-0.044189372470599834
2023-01-28 14:10:30.923367,-0.04416247457265847
2023-01-28 14:10:30.928367,-0.03786958771033062
2023-01-28 14:10:30.933367,-0.022309621796011914
2023-01-28 14:10:30.938367,0.0038257738075263246
2023-01-28 14:10:30.943367,0.03803213685750961
2023-01-28 14:10:30.948367,0.07319445048504773
2023-01-28 14:10:30.953367,0.10003268718719477
2023-01-28 14:10:30.958367,0.11093950893209167
2023-01-28 14:10:30.963367,0.10238866508007038
2023-01-28 14:10:30.968367,0.07584630354046586
2023-01-28 14:10:30.973367,0.037911932915449094
2023-01-28 14:10:30.978367,-0.0014838979581998568
2023-01-28 14:10:30.983367,-0.0332480669021606
2023-01-28 14:10:30.988367,-0.05270540624053639
2023-01-28 14:10:30.993367,-0.059812866151332814
2023-01-28 14:10:30.998367,-0.057289869707018146
2023-01-28 14:10:31.003367,-0.049235027283429995
2023-01-28 14:10:31.008367,-0.04002888482042305
2023-01-28 14:10:31.013367,-0.032526850700378425
2023-01-28 14:10:31.018367,-0.027038107691345147
2023-01-28 14:10:31.023367,-0.022646188735961865
2023-01-28 14:10:31.028367,-0.019046064276538505
2023-01-28 14:10:31.033367,-0.016395648941397594
2023-01-28 14:10:31.038367,-0.014172383398066177
2023-01-28 14:10:31.043367,-0.011443297378718777
2023-01-28 14:10:31.048367,-0.00803898736507991
2023-01-28 14:10:31.053367,-0.004519621841609364
2023-01-28 14:10:31.058367,-0.0011951157065133013
2023-01-28 14:10:31.063367,0.002019405364990225
2023-01-28 14:10:31.068367,0.005054546269567453
2023-01-28 14:10:31.073367,0.007813176140189095
2023-01-28 14:10:31.078367,0.01066503258620112
2023-01-28 14:10:31.083367,0.014135837554931616
2023-01-28 14:10:31.088367,0.018293689699767836
2023-01-28 14:10:31.093367,0.022982757538557014
2023-01-28 14:10:31.098367,0.02833228743522172
2023-01-28 14:10:31.103367,0.03445009514689441
2023-01-28 14:10:31.108367,0.040958807164984914
2023-01-28 14:10:31.113367,0.04743198677897448
2023-01-28 14:10:31.118367,0.053973200006193135
2023-01-28 14:10:31.123367,0.06084660813212388
2023-01-28 14:10:31.128367,0.06794255101346368
2023-01-28 14:10:31.133367,0.07517477124929417
2023-01-28 14:10:31.138367,0.08300039139985639
2023-01-28 14:10:31.143367,0.09195506572723375
2023-01-28 14:10:31.148367,0.10201851735776578
2023-01-28 14:10:31.153367,0.11291842162609102
2023-01-28 14:10:31.158367,0.12457170992275443
2023-01-28 14:10:31.163367,0.13662239909172041
2023-01-28 14:10:31.168367,0.14798015834960862
2023-01-28 14:10:31.173367,0.15746554732322687
2023-01-28 14:10:31.178367,0.16461807974710538
2023-01-28 14:10:31.183367,0.1694136857986449
2023-01-28 14:10:31.188367,0.1716526793052185
2023-01-28 14:10:31.193367,0.17116865515708918
2023-01-28 14:10:31.198367,0.1681530626721874
2023-01-28 14:10:31.203367,0.162634253501892
2023-01-28 14:10:31.208367,0.154023328589437
2023-01-28 14:10:31.213367,0.14179110527038566
2023-01-28 14:10:31.218367,0.12630496520315174
2023-01-28 14:10:31.223367,0.10856708139181126
2023-01-28 14:10:31.228367,0.08959701627198184
2023-01-28 14:10:31.233367,0.07058303058147426
2023-01-28 14:10:31.238367,0.05309079674437271
2023-01-28 14:10:31.243367,0.038368701934814425
2023-01-28 14:10:31.248367,0.026658709856747207
2023-01-28 14:10:31.253367,0.017621716484427386
2023-01-28 14:10:31.258367,0.011025077639828169
2023-01-28 14:10:31.263367,0.006539027206599807
2023-01-28 14:10:31.268367,0.003377981672924496
2023-01-28 14:10:31.273367,0.0008173784008250019
2023-01-28 14:10:31.278367,-0.0012246186377084124
2023-01-28 14:10:31.283367,-0.0025963783264159206
2023-01-28 14:10:31.288367,-0.0035012570168013704
2023-01-28 14:10:31.293367,-0.004183053970336914
2023-01-28 14:10:31.298367,-0.004461596746933888
2023-01-28 14:10:31.303367,-0.004134973045438461
2023-01-28 14:10:31.308367,-0.003464569286344092
2023-01-28 14:10:31.313367,-0.0027406215667723946
2023-01-28 14:10:31.318367,-0.0017476104206750685
2023-01-28 14:10:31.323367,-0.0001682837901170539
2023-01-28 14:10:31.328367,0.0018653121772792644
2023-01-28 14:10:31.333367,0.004110932350158644
2023-01-28 14:10:31.338367,0.006690202250923969
2023-01-28 14:10:31.343367,0.009712378494441556
2023-01-28 14:10:31.348367,0.012827361035595989
2023-01-28 14:10:31.353367,0.015674432739615392
2023-01-28 14:10:31.358367,0.018407783717572054
2023-01-28 14:10:31.363367,0.021299919113516835
2023-01-28 14:10:31.368367,0.02422543830144922
2023-01-28 14:10:31.373367,0.027021568268537566
2023-01-28 14:10:31.378367,0.029931521743953887
2023-01-28 14:10:31.383367,0.03315190598368642
2023-01-28 14:10:31.388367,0.03630716327012256
2023-01-28 14:10:31.393367,0.03887355327606196
2023-01-28 14:10:31.398367,0.040773025191587854
2023-01-28 14:10:31.403367,0.04211902618408199
2023-01-28 14:10:31.408367,0.042831808908476585
2023-01-28 14:10:31.413367,0.04303256794810295
2023-01-28 14:10:31.418367,0.043404855838481846
2023-01-28 14:10:31.423367,0.04459520429372778
2023-01-28 14:10:31.428367,0.04654654189789827
2023-01-28 14:10:31.433367,0.048850379884243
2023-01-28 14:10:31.438367,0.05138155251750499
2023-01-28 14:10:31.443367,0.05418737977743137
2023-01-28 14:10:31.448367,0.05726661419630374
2023-01-28 14:10:31.453367,0.0610389336943626
2023-01-28 14:10:31.458367,0.066630191107221
2023-01-28 14:10:31.463367,0.07505457103252405
2023-01-28 14:10:31.468367,0.08625194890503178
2023-01-28 14:10:31.473367,0.09916722774505611
2023-01-28 14:10:31.478367,0.11225366245801946
2023-01-28 14:10:31.483367,0.12347221374511708
2023-01-28 14:10:31.488367,0.13046141906271563
2023-01-28 14:10:31.493367,0.1316219568252563
2023-01-28 14:10:31.498367,0.12707161941614317
2023-01-28 14:10:31.503367,0.1183035001158714
2023-01-28 14:10:31.508367,0.10729009426002653
2023-01-28 14:10:31.513367,0.09616216272115699
2023-01-28 14:10:31.518367,0.08697178767442036
2023-01-28 14:10:31.523367,0.0808483362197875
2023-01-28 14:10:31.528367,0.07748778092553318
2023-01-28 14:10:31.533367,0.0759681090712547
2023-01-28 14:10:31.538367,0.07599246876535717
2023-01-28 14:10:31.543367,0.07830004394054409
2023-01-28 14:10:31.548367,0.0846030969250315
2023-01-28 14:10:31.553367,0.09765267372131337
2023-01-28 14:10:31.558367,0.12056327120204696
2023-01-28 14:10:31.563367,0.15472492575645433
2023-01-28 14:10:31.568367,0.19774137472853817
2023-01-28 14:10:31.573367,0.24321815371513358
2023-01-28 14:10:31.578367,0.2822977193313528
2023-01-28 14:10:31.583367,0.30596396327018727
2023-01-28 14:10:31.588367,0.30794211325836995
2023-01-28 14:10:31.593367,0.28762102127075184
2023-01-28 14:10:31.598367,0.25093649444761235
2023-01-28 14:10:31.603367,0.20797471702098838
2023-01-28 14:10:31.608367,0.16895524227511052
2023-01-28 14:10:31.613367,0.141117975115776
2023-01-28 14:10:31.618367,0.12721683064002134
2023-01-28 14:10:31.623367,0.12537142634391776
2023-01-28 14:10:31.628367,0.13063602650004674
2023-01-28 14:10:31.633367,0.1379205882549285
2023-01-28 14:10:31.638367,0.14414532713285186
2023-01-28 14:10:31.643367,0.14825801551342002
2023-01-28 14:10:31.648367,0.15041200050326783
2023-01-28 14:10:31.653367,0.15176793932914728
2023-01-28 14:10:31.658367,0.15409795006925492
2023-01-28 14:10:31.663367,0.15833100676536555
2023-01-28 14:10:31.668367,0.16365587146866176
2023-01-28 14:10:31.673367,0.16876459121704093
2023-01-28 14:10:31.678367,0.17358136565270493
2023-01-28 14:10:31.683367,0.1789337396621704
2023-01-28 14:10:31.688367,0.1848834885027658
2023-01-28 14:10:31.693367,0.1904010772705078
2023-01-28 14:10:31.698367,0.19465668396374997
2023-01-28 14:10:31.703367,0.1978055685758589
2023-01-28 14:10:31.708367,0.20047085696594089
2023-01-28 14:10:31.713367,0.20319065451621993
2023-01-28 14:10:31.718367,0.20647924617042
2023-01-28 14:10:31.723367,0.21078746020793904
2023-01-28 14:10:31.728367,0.21616546546964718
2023-01-28 14:10:31.733367,0.22230288386344893
2023-01-28 14:10:31.738367,0.22894667169841662
2023-01-28 14:10:31.743367,0.2360059916973113
2023-01-28 14:10:31.748367,0.24338276728075006
2023-01-28 14:10:31.753367,0.2511034607887267
2023-01-28 14:10:31.758367,0.25954448750725523
2023-01-28 14:10:31.763367,0.2691578865051269
2023-01-28 14:10:31.768367,0.2800180540267421
2023-01-28 14:10:31.773367,0.2918761968612669
2023-01-28 14:10:31.778367,0.3044455789498403
2023-01-28 14:10:31.783367,0.3172870576381682
2023-01-28 14:10:31.788367,0.3296201704319811
2023-01-28 14:10:31.793367,0.34065446257591236
2023-01-28 14:10:31.798367,0.3500058788388076
2023-01-28 14:10:31.803367,0.35750687122344954
2023-01-28 14:10:31.808367,0.362809551857687
2023-01-28 14:10:31.813367,0.36548835039138783
2023-01-28 14:10:31.818367,0.36530218471407727
2023-01-28 14:10:31.823367,0.3620024621486662
2023-01-28 14:10:31.828367,0.35509830834028433
2023-01-28 14:10:31.833367,0.3441884219646452
2023-01-28 14:10:31.838367,0.329387089785578
2023-01-28 14:10:31.843367,0.3111807703971862
2023-01-28 14:10:31.848367,0.2901604497393309
2023-01-28 14:10:31.853367,0.26725870370864857
2023-01-28 14:10:31.858367,0.2439840631694596
2023-01-28 14:10:31.863367,0.22196631133556355
2023-01-28 14:10:31.868367,0.20232398655315295
2023-01-28 14:10:31.873367,0.18564105033874512
2023-01-28 14:10:31.878367,0.17221906906715664
2023-01-28 14:10:31.883367,0.16198515892028797
2023-01-28 14:10:31.888367,0.1544338707673051
2023-01-28 14:10:31.893367,0.14909943938255305
2023-01-28 14:10:31.898367,0.14596137544798823
2023-01-28 14:10:31.903367,0.14510869979858387
2023-01-28 14:10:31.908367,0.14622260674915125
2023-01-28 14:10:31.913367,0.1486667096614837
2023-01-28 14:10:31.918367,0.15181672518126005
2023-01-28 14:10:31.923367,0.15498936176300038
2023-01-28 14:10:31.928367,0.1573513991077595
2023-01-28 14:10:31.933367,0.15833100676536555
2023-01-28 14:10:31.938367,0.15799749672377894
2023-01-28 14:10:31.943367,0.156792402267456
2023-01-28 14:10:31.948367,0.15512293219644985
2023-01-28 14:10:31.953367,0.15345077216625214
2023-01-28 14:10:31.958367,0.1524058719784217
2023-01-28 14:10:31.963367,0.15236894786357869
2023-01-28 14:10:31.968367,0.15309825110934727
2023-01-28 14:10:31.973367,0.15405178070068348
2023-01-28 14:10:31.978367,0.15487223735381345
2023-01-28 14:10:31.983367,0.15534996986389163
2023-01-28 14:10:31.988367,0.15528453872854148
2023-01-28 14:10:31.993367,0.15477299690246582
2023-01-28 14:10:31.998367,0.15437803767056776
2023-01-28 14:10:32.003367,0.15462875366210932
2023-01-28 14:10:32.008367,0.1555076493140717
2023-01-28 14:10:32.013367,0.15664815902709953
2023-01-28 14:10:32.018367,0.15774386959770562
2023-01-28 14:10:32.023367,0.15849928557872767
2023-01-28 14:10:32.028367,0.15854342195414603
2023-01-28 14:10:32.033367,0.15780210494995106
2023-01-28 14:10:32.038367,0.15673005944932783
2023-01-28 14:10:32.043367,0.15583078563213337
2023-01-28 14:10:32.048367,0.15513795356993323
2023-01-28 14:10:32.053367,0.15441238880157465
2023-01-28 14:10:32.058367,0.15355549441000682
2023-01-28 14:10:32.063367,0.15253722667694086
2023-01-28 14:10:32.068367,0.1512320335309782
2023-01-28 14:10:32.073367,0.14967641234397874
2023-01-28 14:10:32.078367,0.1482186002846927
2023-01-28 14:10:32.083367,0.14705598354339589
2023-01-28 14:10:32.088367,0.14583436925765597
2023-01-28 14:10:32.093367,0.1440028399229049
2023-01-28 14:10:32.098367,0.14137512479450723
2023-01-28 14:10:32.103367,0.13818502426147453
2023-01-28 14:10:32.108367,0.13500472603899877
2023-01-28 14:10:32.113367,0.1329682320356369
2023-01-28 14:10:32.118367,0.13371407253867532
2023-01-28 14:10:32.123367,0.13856968283653243
2023-01-28 14:10:32.128367,0.14773374394556044
2023-01-28 14:10:32.133367,0.16023020446300498
2023-01-28 14:10:32.138367,0.17418870691964594
2023-01-28 14:10:32.143367,0.18691520392894737
2023-01-28 14:10:32.148367,0.19529009467515335
2023-01-28 14:10:32.153367,0.19691607356071464
2023-01-28 14:10:32.158367,0.19114661292142976
2023-01-28 14:10:32.163367,0.17910203337669367
2023-01-28 14:10:32.168367,0.16309423763487166
2023-01-28 14:10:32.173367,0.14611840248107913
2023-01-28 14:10:32.178367,0.1311081681581515
2023-01-28 14:10:32.183367,0.1197699755430221
2023-01-28 14:10:32.188367,0.11196008433346333
2023-01-28 14:10:32.193367,0.10635535418987269
2023-01-28 14:10:32.198367,0.10168370598499984
2023-01-28 14:10:32.203367,0.09755651652812942
2023-01-28 14:10:32.208367,0.09504563086451785
2023-01-28 14:10:32.213367,0.09714782238006593
2023-01-28 14:10:32.218367,0.1082159463687484
2023-01-28 14:10:32.223367,0.13181428611278534
2023-01-28 14:10:32.228367,0.16821003584640098
2023-01-28 14:10:32.233367,0.2131193876266479
2023-01-28 14:10:32.238367,0.2580789994180551
2023-01-28 14:10:32.243367,0.292260855436325
2023-01-28 14:10:32.248367,0.3058380993539948
2023-01-28 14:10:32.253367,0.2940638959407806
2023-01-28 14:10:32.258367,0.2596265720228105
2023-01-28 14:10:32.263367,0.2115086764097212
2023-01-28 14:10:32.268367,0.1612780223447193
2023-01-28 14:10:32.273367,0.1190727949142456
2023-01-28 14:10:32.278367,0.09065822003142485
2023-01-28 14:10:32.283367,0.07623255252838126
2023-01-28 14:10:32.288367,0.07166763341070595
2023-01-28 14:10:32.293367,0.07168889045715325
2023-01-28 14:10:32.298367,0.07268127166607209
2023-01-28 14:10:32.303367,0.07327556610107419
2023-01-28 14:10:32.308367,0.07338659618752205
2023-01-28 14:10:32.313367,0.07337173074483867
2023-01-28 14:10:32.318367,0.07361333193837102
2023-01-28 14:10:32.323367,0.07404486835002888
2023-01-28 14:10:32.328367,0.07398872378859128
2023-01-28 14:10:32.333367,0.07281880080699915
2023-01-28 14:10:32.338367,0.07072452604891365
2023-01-28 14:10:32.343367,0.0685876607894897
2023-01-28 14:10:32.348367,0.0673123948697045
2023-01-28 14:10:32.353367,0.06750583648681636
2023-01-28 14:10:32.358367,0.06943768444455403
2023-01-28 14:10:32.363367,0.07281880080699915
2023-01-28 14:10:32.368367,0.07675041321057367
2023-01-28 14:10:32.373367,0.08027136325836183
2023-01-28 14:10:32.378367,0.08291665424184846
2023-01-28 14:10:32.383367,0.08462270349264138
2023-01-28 14:10:32.388367,0.08542908548685677
2023-01-28 14:10:32.393367,0.08560836315155014
2023-01-28 14:10:32.398367,0.0858246655845423
2023-01-28 14:10:32.403367,0.0867863520979881
2023-01-28 14:10:32.408367,0.08887229040223979
2023-01-28 14:10:32.413367,0.09229163825511928
2023-01-28 14:10:32.418367,0.09729849172434528
2023-01-28 14:10:32.423367,0.1039272546768188
2023-01-28 14:10:32.428367,0.11176869049052567
2023-01-28 14:10:32.433367,0.12032290548086158
2023-01-28 14:10:32.438367,0.1293514972328063
2023-01-28 14:10:32.443367,0.13861775398254386
2023-01-28 14:10:32.448367,0.1475577234066512
2023-01-28 14:10:32.453367,0.15551826357841483
2023-01-28 14:10:32.458367,0.16208351040170452
2023-01-28 14:10:32.463367,0.16691347956657393
2023-01-28 14:10:32.468367,0.1695790017961148
2023-01-28 14:10:32.473367,0.16989450156688685
2023-01-28 14:10:32.478367,0.1681422688589974
2023-01-28 14:10:32.483367,0.16460558772087086
2023-01-28 14:10:32.488367,0.15905766538115518
2023-01-28 14:10:32.493367,0.15095055103302002
2023-01-28 14:10:32.498367,0.13984409922489996
2023-01-28 14:10:32.503367,0.1254194974899291
2023-01-28 14:10:32.508367,0.10746828855103105
2023-01-28 14:10:32.513367,0.08632957935333256
2023-01-28 14:10:32.518367,0.0631914290172638
2023-01-28 14:10:32.523367,0.039666891098022364
2023-01-28 14:10:32.528367,0.017219667418022416
2023-01-28 14:10:32.533367,-0.002884864807128944
2023-01-28 14:10:32.538367,-0.01953509835552028
2023-01-28 14:10:32.543367,-0.03216624259948725
2023-01-28 14:10:32.548367,-0.04106230665860563
2023-01-28 14:10:32.553367,-0.04699925705790507
2023-01-28 14:10:32.558367,-0.05076334487957123
2023-01-28 14:10:32.563367,-0.05315363407134992
2023-01-28 14:10:32.568367,-0.055028777413917214
2023-01-28 14:10:32.573367,-0.0569280013442039
2023-01-28 14:10:32.578367,-0.05882729815208679
2023-01-28 14:10:32.583367,-0.06053408235311499
2023-01-28 14:10:32.588367,-0.06209592567110847
2023-01-28 14:10:32.593367,-0.06361126899719226
2023-01-28 14:10:32.598367,-0.06496990253942704
2023-01-28 14:10:32.603367,-0.0660874471068382
2023-01-28 14:10:32.608367,-0.06712513100085567
2023-01-28 14:10:32.613367,-0.06820301711559286
2023-01-28 14:10:32.618367,-0.06918205343270803
2023-01-28 14:10:32.623367,-0.07000605762004847
2023-01-28 14:10:32.628367,-0.07096335619396035
2023-01-28 14:10:32.633367,-0.07231394946575155
2023-01-28 14:10:32.638367,-0.0739167689570584
2023-01-28 14:10:32.643367,-0.07546325773000707
2023-01-28 14:10:32.648367,-0.07676344741681475
2023-01-28 14:10:32.653367,-0.07755478471517559
2023-01-28 14:10:32.658367,-0.07741392138656042
2023-01-28 14:10:32.663367,-0.0762325525283813
2023-01-28 14:10:32.668367,-0.07452761727393659
2023-01-28 14:10:32.673367,-0.07298707962036127
2023-01-28 14:10:32.678367,-0.0719533952685538
2023-01-28 14:10:32.683367,-0.07154464721679676
2023-01-28 14:10:32.688367,-0.07187605809418544
2023-01-28 14:10:32.693367,-0.07281880080699922
2023-01-28 14:10:32.698367,-0.0738734567484803
2023-01-28 14:10:32.703367,-0.07464587688446034
2023-01-28 14:10:32.708367,-0.0752061678114829
2023-01-28 14:10:32.713367,-0.07572770118713365
2023-01-28 14:10:32.718367,-0.07610383080307027
2023-01-28 14:10:32.723367,-0.07620851695537559
2023-01-28 14:10:32.728367,-0.07618991488855119
2023-01-28 14:10:32.733367,-0.0761844739317893
2023-01-28 14:10:32.738367,-0.07605744240807578
2023-01-28 14:10:32.743367,-0.07572770118713369
2023-01-28 14:10:32.748367,-0.07541443386064206
2023-01-28 14:10:32.753367,-0.07524689286947252
2023-01-28 14:10:32.758367,-0.07496164647944517
2023-01-28 14:10:32.763367,-0.07430931180715558
2023-01-28 14:10:32.768367,-0.07344873795959841
2023-01-28 14:10:32.773367,-0.07265051454305638
2023-01-28 14:10:32.778367,-0.07196325832594144
2023-01-28 14:10:32.783367,-0.07147252559661856
2023-01-28 14:10:32.788367,-0.0714854236078195
2023-01-28 14:10:32.793367,-0.07204949855804435
2023-01-28 14:10:32.798367,-0.07256334882230694
2023-01-28 14:10:32.803367,-0.07216970622539517
2023-01-28 14:10:32.808367,-0.07022675726902813
2023-01-28 14:10:32.813367,-0.06615956872701637
2023-01-28 14:10:32.818367,-0.05934930428390345
2023-01-28 14:10:32.823367,-0.04969179630279539
2023-01-28 14:10:32.828367,-0.03808931201866532
2023-01-28 14:10:32.833367,-0.026156108826398804
2023-01-28 14:10:32.838367,-0.01576424230262497
2023-01-28 14:10:32.843367,-0.009015202522277799
2023-01-28 14:10:32.848367,-0.007930215954622984
2023-01-28 14:10:32.853367,-0.0133905811235308
2023-01-28 14:10:32.858367,-0.024406509536156487
2023-01-28 14:10:32.863367,-0.03865718841552726
2023-01-28 14:10:32.868367,-0.05353439598999308
2023-01-28 14:10:32.873367,-0.06671249866485593
2023-01-28 14:10:32.878367,-0.07661666682319368
2023-01-28 14:10:32.883367,-0.08313219249248495
2023-01-28 14:10:32.888367,-0.08756429296032657
2023-01-28 14:10:32.893367,-0.09123384952545156
2023-01-28 14:10:32.898367,-0.09397660238918411
2023-01-28 14:10:32.903367,-0.09387831389904013
2023-01-28 14:10:32.908367,-0.0878225735664557
2023-01-28 14:10:32.913367,-0.07219374179840081
2023-01-28 14:10:32.918367,-0.044403236693813575
2023-01-28 14:10:32.923367,-0.005409121513366622
2023-01-28 14:10:32.928367,0.03876795949863045
2023-01-28 14:10:32.933367,0.07839620113372801
2023-01-28 14:10:32.938367,0.10336217035674865
2023-01-28 14:10:32.943367,0.10640343278646454
2023-01-28 14:10:32.948367,0.08559265673656061
2023-01-28 14:10:32.953367,0.045845311135053565
2023-01-28 14:10:32.958367,-0.0021141226882599065
2023-01-28 14:10:32.963367,-0.0461578369140624
2023-01-28 14:10:32.968367,-0.07792631446185233
2023-01-28 14:10:32.973367,-0.09496013820171348
2023-01-28 14:10:32.978367,-0.09924354761979806
2023-01-28 14:10:32.983367,-0.09476780891418449
2023-01-28 14:10:32.988367,-0.08595217502804792
2023-01-28 14:10:32.993367,-0.07659316062927242
2023-01-28 14:10:32.998367,-0.0689650424546782
2023-01-28 14:10:33.003367,-0.06363531202077856
2023-01-28 14:10:33.008367,-0.06012846812570219
2023-01-28 14:10:33.013367,-0.05767325684428211
2023-01-28 14:10:33.018367,-0.05557287252087853
2023-01-28 14:10:33.023367,-0.05339404195547092
2023-01-28 14:10:33.028367,-0.051012476547060516
2023-01-28 14:10:33.033367,-0.04839360713958738
2023-01-28 14:10:33.038367,-0.0454270228318278
2023-01-28 14:10:33.043367,-0.04211902618408201
2023-01-28 14:10:33.048367,-0.03874689584048328
2023-01-28 14:10:33.053367,-0.03558000177144997
2023-01-28 14:10:33.058367,-0.032595875254816956
2023-01-28 14:10:33.063367,-0.029641985893249474
2023-01-28 14:10:33.068367,-0.026624486447838346
2023-01-28 14:10:33.073367,-0.023295283317565946
2023-01-28 14:10:33.078367,-0.019114046611092447
2023-01-28 14:10:33.083367,-0.013630986213683985
2023-01-28 14:10:33.088367,-0.006852935160682234
2023-01-28 14:10:33.093367,0.0009375810623167595
2023-01-28 14:10:33.098367,0.009444950379695068
2023-01-28 14:10:33.103367,0.01824676990509031
2023-01-28 14:10:33.108367,0.026802942180850397
2023-01-28 14:10:33.113367,0.034954946488141986
2023-01-28 14:10:33.118367,0.04321520637395205
2023-01-28 14:10:33.123367,0.05231221765279757
2023-01-28 14:10:33.128367,0.0626698546178211
2023-01-28 14:10:33.133367,0.07445355504751196
2023-01-28 14:10:33.138367,0.08765095693039851
2023-01-28 14:10:33.143367,0.10171552747488018
2023-01-28 14:10:33.148367,0.11544041145866298
2023-01-28 14:10:33.153367,0.12755911052227012
2023-01-28 14:10:33.158367,0.1372895094875871
2023-01-28 14:10:33.163367,0.14414708316326133
2023-01-28 14:10:33.168367,0.14767495424805263
2023-01-28 14:10:33.173367,0.14770507812499994
2023-01-28 14:10:33.178367,0.1445174049104036
2023-01-28 14:10:33.183367,0.13837735354900355
2023-01-28 14:10:33.188367,0.12922272510419497
2023-01-28 14:10:33.193367,0.11710147559642792
2023-01-28 14:10:33.198367,0.10255329017950836
2023-01-28 14:10:33.203367,0.08623342216014862
2023-01-28 14:10:33.208367,0.06851723106767524
2023-01-28 14:10:33.213367,0.04978796094655994
2023-01-28 14:10:33.218367,0.030727788339609843
2023-01-28 14:10:33.223367,0.011996230110526074
2023-01-28 14:10:33.228367,-0.005977910325447178
2023-01-28 14:10:33.233367,-0.022550027817487658
2023-01-28 14:10:33.238367,-0.03665366038372185
2023-01-28 14:10:33.243367,-0.04748006910085669
2023-01-28 14:10:33.248367,-0.05506840323190622
2023-01-28 14:10:33.253367,-0.05995710939168925
2023-01-28 14:10:33.258367,-0.06269482697504283
2023-01-28 14:10:33.263367,-0.06399592012166963
2023-01-28 14:10:33.268367,-0.06480107179258582
2023-01-28 14:10:33.273367,-0.06563067436218253
2023-01-28 14:10:33.278367,-0.06619546242912935
2023-01-28 14:10:33.283367,-0.06601532548665993
2023-01-28 14:10:33.288367,-0.0650413516916205
2023-01-28 14:10:33.293367,-0.063370868563652
2023-01-28 14:10:33.298367,-0.06090877765953282
2023-01-28 14:10:33.303367,-0.05779346078634255
2023-01-28 14:10:33.308367,-0.05469696981643233
2023-01-28 14:10:33.313367,-0.05221605300903311
2023-01-28 14:10:33.318367,-0.05034959434782168
2023-01-28 14:10:33.323367,-0.04894654080271717
2023-01-28 14:10:33.328367,-0.048159352529081996
2023-01-28 14:10:33.333367,-0.04800895974040035
2023-01-28 14:10:33.338367,-0.0480202855187814
2023-01-28 14:10:33.343367,-0.04779259487986555
2023-01-28 14:10:33.348367,-0.04747458706965481
2023-01-28 14:10:33.353367,-0.04723966121673582
2023-01-28 14:10:33.358367,-0.046829566790866396
2023-01-28 14:10:33.363367,-0.04610975831747045
2023-01-28 14:10:33.368367,-0.045534042673664545
2023-01-28 14:10:33.373367,-0.045532785356044665
2023-01-28 14:10:33.378367,-0.04595716745048384
2023-01-28 14:10:33.383367,-0.04661460965871809
2023-01-28 14:10:33.388367,-0.047758829009195515
2023-01-28 14:10:33.393367,-0.049499474465846995
2023-01-28 14:10:33.398367,-0.051333026928419595
2023-01-28 14:10:33.403367,-0.05286514759063724
2023-01-28 14:10:33.408367,-0.05442842965305672
2023-01-28 14:10:33.413367,-0.0563991069793701
2023-01-28 14:10:33.418367,-0.05850055422763353
2023-01-28 14:10:33.423367,-0.060365796089172294
2023-01-28 14:10:33.428367,-0.06211966200574292
2023-01-28 14:10:33.433367,-0.06375551223754874
2023-01-28 14:10:33.438367,-0.06463889980460105
2023-01-28 14:10:33.443367,-0.0643805712461471
2023-01-28 14:10:33.448367,-0.06358354080812464
2023-01-28 14:10:33.453367,-0.06303429603576656
2023-01-28 14:10:33.458367,-0.06282031506023819
2023-01-28 14:10:33.463367,-0.06289005279541013
2023-01-28 14:10:33.468367,-0.0635998790544874
2023-01-28 14:10:33.473367,-0.06478925794363016
2023-01-28 14:10:33.478367,-0.06505993326077056
2023-01-28 14:10:33.483367,-0.06291409581899639
2023-01-28 14:10:33.488367,-0.05799622415296007
2023-01-28 14:10:33.493367,-0.050557255744933985
2023-01-28 14:10:33.498367,-0.04078547119709722
2023-01-28 14:10:33.503367,-0.029786229133605832
2023-01-28 14:10:33.508367,-0.020272952303738795
2023-01-28 14:10:33.513367,-0.014953216537833162
2023-01-28 14:10:33.518367,-0.014765703315599182
2023-01-28 14:10:33.523367,-0.01947283744812005
2023-01-28 14:10:33.528367,-0.028733281493432957
2023-01-28 14:10:33.533367,-0.041253566741943304
2023-01-28 14:10:33.538367,-0.054123623040163674
2023-01-28 14:10:33.543367,-0.06481330096721638
2023-01-28 14:10:33.548367,-0.07316703048585267
2023-01-28 14:10:33.553367,-0.08012712001800525
2023-01-28 14:10:33.558367,-0.08568235161650661
2023-01-28 14:10:33.563367,-0.08964717388153065
2023-01-28 14:10:33.568367,-0.09279909823590632
2023-01-28 14:10:33.573367,-0.09469568729400626
2023-01-28 14:10:33.578367,-0.09146165358224993
2023-01-28 14:10:33.583367,-0.07851640880107874
2023-01-28 14:10:33.588367,-0.05498771247584738
2023-01-28 14:10:33.593367,-0.023463567718863383
2023-01-28 14:10:33.598367,0.0125665914255012
2023-01-28 14:10:33.603367,0.047167539596557576
2023-01-28 14:10:33.608367,0.06962762503430597
2023-01-28 14:10:33.613367,0.06995797157287584
2023-01-28 14:10:33.618367,0.04851294793830613
2023-01-28 14:10:33.623367,0.015938878059387183
2023-01-28 14:10:33.628367,-0.017907842682857
2023-01-28 14:10:33.633367,-0.05060533806681631
2023-01-28 14:10:33.638367,-0.08118230227237506
2023-01-28 14:10:33.643367,-0.10361473262310014
2023-01-28 14:10:33.648367,-0.11170031906034109
2023-01-28 14:10:33.653367,-0.10746121406555167
2023-01-28 14:10:33.658367,-0.0993373779403849
2023-01-28 14:10:33.663367,-0.09308497607707966
2023-01-28 14:10:33.668367,-0.08868118501342644
2023-01-28 14:10:33.673367,-0.08510351181030272
2023-01-28 14:10:33.678367,-0.08317454465200406
2023-01-28 14:10:33.683367,-0.08303602784872045
2023-01-28 14:10:33.688367,-0.08283672199883543
2023-01-28 14:10:33.693367,-0.08142530918121327
2023-01-28 14:10:33.698367,-0.07972502655841199
2023-01-28 14:10:33.703367,-0.07837216556072223
2023-01-28 14:10:33.708367,-0.0763122598758302
2023-01-28 14:10:33.713367,-0.07279475778341289
2023-01-28 14:10:33.718367,-0.06874639343506882
2023-01-28 14:10:33.723367,-0.06510178744792923
2023-01-28 14:10:33.728367,-0.06147445381834987
2023-01-28 14:10:33.733367,-0.057456891983747385
2023-01-28 14:10:33.738367,-0.05368797945056444
2023-01-28 14:10:33.743367,-0.05062937736511229
2023-01-28 14:10:33.748367,-0.047595537877052396
2023-01-28 14:10:33.753367,-0.043922066688537445
2023-01-28 14:10:33.758367,-0.03993804611907125
2023-01-28 14:10:33.763367,-0.03594060987234109
2023-01-28 14:10:33.768367,-0.03129701160789755
2023-01-28 14:10:33.773367,-0.025410851463675423
2023-01-28 14:10:33.778367,-0.018629392755487074
2023-01-28 14:10:33.783367,-0.011419257149100397
2023-01-28 14:10:33.788367,-0.0035322835267350807
2023-01-28 14:10:33.793367,0.005264878273010216
2023-01-28 14:10:33.798367,0.0144647137484138
2023-01-28 14:10:33.803367,0.023559730499982768
2023-01-28 14:10:33.808367,0.032765757125176605
2023-01-28 14:10:33.813367,0.04231135174632064
2023-01-28 14:10:33.818367,0.0516812396439195
2023-01-28 14:10:33.823367,0.060197513550519895
2023-01-28 14:10:33.828367,0.06767242385212814
2023-01-28 14:10:33.833367,0.07382850348949435
2023-01-28 14:10:33.838367,0.07769470230478401
2023-01-28 14:10:33.843367,0.07825195789337144
2023-01-28 14:10:33.848367,0.07519010711577183
2023-01-28 14:10:33.853367,0.0685155391693115
2023-01-28 14:10:33.858367,0.058025297163939636
2023-01-28 14:10:33.863367,0.043801866471767405
2023-01-28 14:10:33.868367,0.026727680197914414
2023-01-28 14:10:33.873367,0.007909337989985867
2023-01-28 14:10:33.878367,-0.011987212347418681
2023-01-28 14:10:33.883367,-0.03235856816172592
2023-01-28 14:10:33.888367,-0.05217240587710242
2023-01-28 14:10:33.893367,-0.07046282291412354
2023-01-28 14:10:33.898367,-0.08692398084528438
2023-01-28 14:10:33.903367,-0.10152320563793174
2023-01-28 14:10:33.908367,-0.1139737099650801
2023-01-28 14:10:33.913367,-0.1240972727537154
2023-01-28 14:10:33.918367,-0.13224242709120793
2023-01-28 14:10:33.923367,-0.13876199722290022
2023-01-28 14:10:33.928367,-0.14343612439585357
2023-01-28 14:10:33.933367,-0.14592608809471125
2023-01-28 14:10:33.938367,-0.14644824762962283
2023-01-28 14:10:33.943367,-0.1455414295196532
2023-01-28 14:10:33.948367,-0.14357848197319997
2023-01-28 14:10:33.953367,-0.1409977674484251
2023-01-28 14:10:33.958367,-0.1385751800578278
2023-01-28 14:10:33.963367,-0.1368627995252608
2023-01-28 14:10:33.968367,-0.13564753001912727
2023-01-28 14:10:33.973367,-0.13445875048637385
2023-01-28 14:10:33.978367,-0.13330037679678833
2023-01-28 14:10:33.983367,-0.1324393451213836
2023-01-28 14:10:33.988367,-0.13186623779341364
2023-01-28 14:10:33.993367,-0.13147771358489985
2023-01-28 14:10:33.998367,-0.1314139903420188
2023-01-28 14:10:34.003367,-0.13167004287242876
2023-01-28 14:10:34.008367,-0.13172008906187943
2023-01-28 14:10:34.013367,-0.1310930699110031
2023-01-28 14:10:34.018367,-0.13004340293696115
2023-01-28 14:10:34.023367,-0.1291698217391966
2023-01-28 14:10:34.028367,-0.12870246046993608
2023-01-28 14:10:34.033367,-0.12864093482494346
2023-01-28 14:10:34.038367,-0.12918402853618313
2023-01-28 14:10:34.043367,-0.130443975329399
2023-01-28 14:10:34.048367,-0.1320960350430616
2023-01-28 14:10:34.053367,-0.13390581309795363
2023-01-28 14:10:34.058367,-0.13628353029404408
2023-01-28 14:10:34.063367,-0.13974766433238975
2023-01-28 14:10:34.068367,-0.1441587763001091
2023-01-28 14:10:34.073367,-0.14900326728820792
2023-01-28 14:10:34.078367,-0.15401674850535355
2023-01-28 14:10:34.083367,-0.15893201529979695
2023-01-28 14:10:34.088367,-0.16306815029359714
2023-01-28 14:10:34.093367,-0.16590377688407876
2023-01-28 14:10:34.098367,-0.16774525700527187
2023-01-28 14:10:34.103367,-0.16919732093811024
2023-01-28 14:10:34.108367,-0.1703463950960117
2023-01-28 14:10:34.113367,-0.17107248306274406
2023-01-28 14:10:34.118367,-0.17163743566324532
2023-01-28 14:10:34.123367,-0.17215430736541731
2023-01-28 14:10:34.128367,-0.1719008560851052
2023-01-28 14:10:34.133367,-0.16999065876007072
2023-01-28 14:10:34.138367,-0.16638437337495054
2023-01-28 14:10:34.143367,-0.16157647967338545
2023-01-28 14:10:34.148367,-0.15592461966503016
2023-01-28 14:10:34.153367,-0.15025338530540458
2023-01-28 14:10:34.158367,-0.1465520149221584
2023-01-28 14:10:34.163367,-0.14691174030303944
2023-01-28 14:10:34.168367,-0.15200161043652846
2023-01-28 14:10:34.173367,-0.1613120287656783
2023-01-28 14:10:34.178367,-0.1741211360254196
2023-01-28 14:10:34.183367,-0.18907885253429405
2023-01-28 14:10:34.188367,-0.20366634960539348
2023-01-28 14:10:34.193367,-0.21569173038005812
2023-01-28 14:10:34.198367,-0.22504255166542497
2023-01-28 14:10:34.203367,-0.2327845543622969
2023-01-28 14:10:34.208367,-0.23919806993851936
2023-01-28 14:10:34.213367,-0.24398744106292702
2023-01-28 14:10:34.218367,-0.24721009355733659
2023-01-28 14:10:34.223367,-0.24778585135936715
2023-01-28 14:10:34.228367,-0.24189418882283018
2023-01-28 14:10:34.233367,-0.225548356771469
2023-01-28 14:10:34.238367,-0.1988617435132236
2023-01-28 14:10:34.243367,-0.16609609127044658
2023-01-28 14:10:34.248367,-0.13279171094644573
2023-01-28 14:10:34.253367,-0.10585050284862507
2023-01-28 14:10:34.258367,-0.0947272334612192
2023-01-28 14:10:34.263367,-0.10654767602682111
2023-01-28 14:10:34.268367,-0.13806888398592393
2023-01-28 14:10:34.273367,-0.17664989829063404
2023-01-28 14:10:34.278367,-0.21148278797368267
2023-01-28 14:10:34.283367,-0.24042944610118855
2023-01-28 14:10:34.288367,-0.26417195152762113
2023-01-28 14:10:34.293367,-0.27913472056388844
2023-01-28 14:10:34.298367,-0.2813063716744014
2023-01-28 14:10:34.303367,-0.2739179134368894
2023-01-28 14:10:34.308367,-0.26547237470393287
2023-01-28 14:10:34.313367,-0.26086390018463124
2023-01-28 14:10:34.318367,-0.25888874815896096
2023-01-28 14:10:34.323367,-0.2577626705169677
2023-01-28 14:10:34.328367,-0.2581430565381953
2023-01-28 14:10:34.333367,-0.2601186633110045
2023-01-28 14:10:34.338367,-0.2615787226169689
2023-01-28 14:10:34.343367,-0.2611764371395111
2023-01-28 14:10:34.348367,-0.2599395193275829
2023-01-28 14:10:34.353367,-0.2587002515792846
2023-01-28 14:10:34.358367,-0.25655330748512095
2023-01-28 14:10:34.363367,-0.25305074453353876
2023-01-28 14:10:34.368367,-0.2495423750121475
2023-01-28 14:10:34.373367,-0.24706463515758506
2023-01-28 14:10:34.378367,-0.24489434863440776
2023-01-28 14:10:34.383367,-0.2423046082258224
2023-01-28 14:10:34.388367,-0.2398736205940779
2023-01-28 14:10:34.393367,-0.2379532754421234
2023-01-28 14:10:34.398367,-0.23557977735936605
2023-01-28 14:10:34.403367,-0.23201525211334212
2023-01-28 14:10:34.408367,-0.22782839428085336
2023-01-28 14:10:34.413367,-0.2234327793121337
2023-01-28 14:10:34.418367,-0.21802086336634052
2023-01-28 14:10:34.423367,-0.2109317034482955
2023-01-28 14:10:34.428367,-0.20270165905769158
2023-01-28 14:10:34.433367,-0.19383887946605682
2023-01-28 14:10:34.438367,-0.1839187257783451
2023-01-28 14:10:34.443367,-0.17285148799419398
2023-01-28 14:10:34.448367,-0.16178012767483074
2023-01-28 14:10:34.453367,-0.15176793932914726
2023-01-28 14:10:34.458367,-0.14272839722441408
2023-01-28 14:10:34.463367,-0.1344587504863739
2023-01-28 14:10:34.468367,-0.1275118353142022
2023-01-28 14:10:34.473367,-0.12217402458190908
2023-01-28 14:10:34.478367,-0.11777198078426745
2023-01-28 14:10:34.483367,-0.1139521598815917
2023-01-28 14:10:34.488367,-0.11164872303022788
2023-01-28 14:10:34.493367,-0.11198084056377411
2023-01-28 14:10:34.498367,-0.11521628728432684
2023-01-28 14:10:34.503367,-0.12154897302389145
2023-01-28 14:10:34.508367,-0.1317209772003624
2023-01-28 14:10:34.513367,-0.14592608809471136
2023-01-28 14:10:34.518367,-0.16304318125720837
2023-01-28 14:10:34.523367,-0.18177053332328788
2023-01-28 14:10:34.528367,-0.20159338963277945
2023-01-28 14:10:34.533367,-0.22194227576255782
2023-01-28 14:10:34.538367,-0.24150002306749627
2023-01-28 14:10:34.543367,-0.259229153394699
2023-01-28 14:10:34.548367,-0.2751580785583961
2023-01-28 14:10:34.553367,-0.28937599062919606
2023-01-28 14:10:34.558367,-0.3012232189593356
2023-01-28 14:10:34.563367,-0.31026721000671376
2023-01-28 14:10:34.568367,-0.3171107071200257
2023-01-28 14:10:34.573367,-0.3224317431449889
2023-01-28 14:10:34.578367,-0.3261683197943898
2023-01-28 14:10:34.583367,-0.32841783761978127
2023-01-28 14:10:34.588367,-0.33012854736919073
2023-01-28 14:10:34.593367,-0.33202391862869246
2023-01-28 14:10:34.598367,-0.3337327938077027
2023-01-28 14:10:34.603367,-0.33476454019546487
2023-01-28 14:10:34.608367,-0.33540982479414183
2023-01-28 14:10:34.613367,-0.3359184861183165
2023-01-28 14:10:34.618367,-0.3358178360096263
2023-01-28 14:10:34.623367,-0.3349328041076659
2023-01-28 14:10:34.628367,-0.33413723611905244
2023-01-28 14:10:34.633367,-0.3342115879058836
2023-01-28 14:10:34.638367,-0.334835274553717
2023-01-28 14:10:34.643367,-0.3354857563972472
2023-01-28 14:10:34.648367,-0.33633296615662733
2023-01-28 14:10:34.653367,-0.3373849391937254
2023-01-28 14:10:34.658367,-0.3377692787740517
2023-01-28 14:10:34.663367,-0.33683201670646645
2023-01-28 14:10:34.668367,-0.33506395078401796
2023-01-28 14:10:34.673367,-0.3330816924571989
2023-01-28 14:10:34.678367,-0.33065561537976057
2023-01-28 14:10:34.683367,-0.32762449979782093
2023-01-28 14:10:34.688367,-0.32474247462718203
2023-01-28 14:10:34.693367,-0.3226240575313567
2023-01-28 14:10:34.698367,-0.32077752050986214
2023-01-28 14:10:34.703367,-0.3186092972755431
2023-01-28 14:10:34.708367,-0.31641012398618285
2023-01-28 14:10:34.713367,-0.3144262433052062
2023-01-28 14:10:34.718367,-0.31202948679155984
2023-01-28 14:10:34.723367,-0.30887287855148304
2023-01-28 14:10:34.728367,-0.30589065321798903
2023-01-28 14:10:34.733367,-0.30411285161972035
2023-01-28 14:10:34.738367,-0.3034327427932885
2023-01-28 14:10:34.743367,-0.30346375703811623
2023-01-28 14:10:34.748367,-0.30444871569626797
2023-01-28 14:10:34.753367,-0.30620437860488886
2023-01-28 14:10:34.758367,-0.30730845213346014
2023-01-28 14:10:34.763367,-0.3065890073776244
2023-01-28 14:10:34.768367,-0.304472116095278
2023-01-28 14:10:34.773367,-0.30180495977401733
2023-01-28 14:10:34.778367,-0.2984882468913653
2023-01-28 14:10:34.783367,-0.2943764328956604
2023-01-28 14:10:34.788367,-0.29019055853025355
2023-01-28 14:10:34.793367,-0.2861305177211759
2023-01-28 14:10:34.798367,-0.2807611025658435
2023-01-28 14:10:34.803367,-0.2727158963680267
2023-01-28 14:10:34.808367,-0.26246959286807847
2023-01-28 14:10:34.813367,-0.25124770402908314
2023-01-28 14:10:34.818367,-0.2396344574151505
2023-01-28 14:10:34.823367,-0.22876977920532218
2023-01-28 14:10:34.828367,-0.22141072902323997
2023-01-28 14:10:34.833367,-0.21987478435039523
2023-01-28 14:10:34.838367,-0.22393428624651218
2023-01-28 14:10:34.843367,-0.23215949535369873
2023-01-28 14:10:34.848367,-0.2437759717838809
2023-01-28 14:10:34.853367,-0.2574261128902435
2023-01-28 14:10:34.858367,-0.2698913449305614
2023-01-28 14:10:34.863367,-0.27848562598228443
2023-01-28 14:10:34.868367,-0.28353955982792534
2023-01-28 14:10:34.873367,-0.28649112582206715
2023-01-28 14:10:34.878367,-0.2870760962164355
2023-01-28 14:10:34.883367,-0.2845438420772551
2023-01-28 14:10:34.888367,-0.2794738530682148
2023-01-28 14:10:34.893367,-0.2712494134902953
2023-01-28 14:10:34.898367,-0.2555887390372871
2023-01-28 14:10:34.903367,-0.22840917110443107
2023-01-28 14:10:34.908367,-0.1912745941590146
2023-01-28 14:10:34.913367,-0.1501331776380538
2023-01-28 14:10:34.918367,-0.1108591413365059
2023-01-28 14:10:34.923367,-0.0801752060651779
2023-01-28 14:10:34.928367,-0.0680375634997995
2023-01-28 14:10:34.933367,-0.08149743080139157
2023-01-28 14:10:34.938367,-0.1152977495600039
2023-01-28 14:10:34.943367,-0.15474896132946006
2023-01-28 14:10:34.948367,-0.18958196264050675
2023-01-28 14:10:34.953367,-0.2194901406764984
2023-01-28 14:10:34.958367,-0.24488231878762687
2023-01-28 14:10:34.963367,-0.25999844074249256
2023-01-28 14:10:34.968367,-0.26025607231157677
2023-01-28 14:10:34.973367,-0.25086304545402516
2023-01-28 14:10:34.978367,-0.24169205746702752
2023-01-28 14:10:34.983367,-0.23639063537120808
2023-01-28 14:10:34.988367,-0.23196717511341927
2023-01-28 14:10:34.993367,-0.22667825222015375
2023-01-28 14:10:34.998367,-0.22219318534740587
2023-01-28 14:10:35.003367,-0.21872083842754356
2023-01-28 14:10:35.008367,-0.21377578406028572
2023-01-28 14:10:35.013367,-0.20665249228477467
2023-01-28 14:10:35.018367,-0.19988137458535524
2023-01-28 14:10:35.023367,-0.19523322582244865
2023-01-28 14:10:35.028367,-0.1916851226737307
2023-01-28 14:10:35.033367,-0.18823742866516105
2023-01-28 14:10:35.038367,-0.18559556205228522
2023-01-28 14:10:35.043367,-0.18388609588146193
2023-01-28 14:10:35.048367,-0.18136944021344073
2023-01-28 14:10:35.053367,-0.17677009105682365
2023-01-28 14:10:35.058367,-0.170881703476698
2023-01-28 14:10:35.063367,-0.1647979021072386
2023-01-28 14:10:35.068367,-0.15836891658162808
2023-01-28 14:10:35.073367,-0.15138328075408936
2023-01-28 14:10:35.078367,-0.14455193097070293
2023-01-28 14:10:35.083367,-0.1382090747356413
2023-01-28 14:10:35.088367,-0.13139558114525943
2023-01-28 14:10:35.093367,-0.12320777028799049
2023-01-28 14:10:35.098367,-0.11390781676019641
2023-01-28 14:10:35.103367,-0.10390321910381309
2023-01-28 14:10:35.108367,-0.09276440846868698
2023-01-28 14:10:35.113367,-0.08007904142141344
2023-01-28 14:10:35.118367,-0.06630118576488302
2023-01-28 14:10:35.123367,-0.05199968814849851
2023-01-28 14:10:35.128367,-0.03715039304015033
2023-01-28 14:10:35.133367,-0.021876892074942426
2023-01-28 14:10:35.138367,-0.007086360878507382
2023-01-28 14:10:35.143367,0.0062986216507852286
2023-01-28 14:10:35.148367,0.018026083420281988
2023-01-28 14:10:35.153367,0.027838945388793883
2023-01-28 14:10:35.158367,0.034799262539631476
2023-01-28 14:10:35.163367,0.03788789361715309
2023-01-28 14:10:35.168367,0.03672843013318328
2023-01-28 14:10:35.173367,0.03127674385905252
2023-01-28 14:10:35.178367,0.02146218344911549
2023-01-28 14:10:35.183367,0.007717013359069786
2023-01-28 14:10:35.188367,-0.008653355782791448
2023-01-28 14:10:35.193367,-0.02618014812469484
2023-01-28 14:10:35.198367,-0.04396431221788988
2023-01-28 14:10:35.203367,-0.061399541795253705
2023-01-28 14:10:35.208367,-0.07771623153595601
2023-01-28 14:10:35.213367,-0.092267595231533
2023-01-28 14:10:35.218367,-0.10484783282384583
2023-01-28 14:10:35.223367,-0.11529843509197227
2023-01-28 14:10:35.228367,-0.1231745217036395
2023-01-28 14:10:35.233367,-0.12820820510387415
2023-01-28 14:10:35.238367,-0.13078046349562006
2023-01-28 14:10:35.243367,-0.1315738856792449
2023-01-28 14:10:35.248367,-0.13104946559072364
2023-01-28 14:10:35.253367,-0.1295544803142547
2023-01-28 14:10:35.258367,-0.12758258428365446
2023-01-28 14:10:35.263367,-0.1255397051572799
2023-01-28 14:10:35.268367,-0.12349475248463754
2023-01-28 14:10:35.273367,-0.12147685140371318
2023-01-28 14:10:35.278367,-0.11978615272166868
2023-01-28 14:10:35.283367,-0.11871218681335438
2023-01-28 14:10:35.288367,-0.11813961016994083
2023-01-28 14:10:35.293367,-0.11767844855785359
2023-01-28 14:10:35.298367,-0.1169830216925104
2023-01-28 14:10:35.303367,-0.11573116481304159
2023-01-28 14:10:35.308367,-0.1135489775731361
2023-01-28 14:10:35.313367,-0.11027395725250244
2023-01-28 14:10:35.318367,-0.10618290838819411
2023-01-28 14:10:35.323367,-0.10176360607147213
2023-01-28 14:10:35.328367,-0.09739876514655063
2023-01-28 14:10:35.333367,-0.09342154115438463
2023-01-28 14:10:35.338367,-0.0902583967455266
2023-01-28 14:10:35.343367,-0.08825282752513877
2023-01-28 14:10:35.348367,-0.08743280466825507
2023-01-28 14:10:35.353367,-0.08760373294353477
2023-01-28 14:10:35.358367,-0.08853432713814254
2023-01-28 14:10:35.363367,-0.08988758176565166
2023-01-28 14:10:35.368367,-0.09111501270098146
2023-01-28 14:10:35.373367,-0.09164254367351529
2023-01-28 14:10:35.378367,-0.09114499517628512
2023-01-28 14:10:35.383367,-0.08957505226135246
2023-01-28 14:10:35.388367,-0.08707269647719657
2023-01-28 14:10:35.393367,-0.08399765193462363
2023-01-28 14:10:35.398367,-0.08093216627745368
2023-01-28 14:10:35.403367,-0.07844428718090049
2023-01-28 14:10:35.408367,-0.07681805101239488
2023-01-28 14:10:35.413367,-0.07604023069143293
2023-01-28 14:10:35.418367,-0.07593805781846151
2023-01-28 14:10:35.423367,-0.07623255252838129
2023-01-28 14:10:35.428367,-0.07657213848208937
2023-01-28 14:10:35.433367,-0.0766893252730369
2023-01-28 14:10:35.438367,-0.07653711650532669
2023-01-28 14:10:35.443367,-0.07620851695537562
2023-01-28 14:10:35.448367,-0.07575656898176397
2023-01-28 14:10:35.453367,-0.07515072822570795
2023-01-28 14:10:35.458367,-0.07435261378658074
2023-01-28 14:10:35.463367,-0.07334768772125233
2023-01-28 14:10:35.468367,-0.0721239663238068
2023-01-28 14:10:35.473367,-0.07067918777465816
2023-01-28 14:10:35.478367,-0.06901047359430168
2023-01-28 14:10:35.483367,-0.06700098514556876
2023-01-28 14:10:35.488367,-0.06428607724212254
2023-01-28 14:10:35.493367,-0.06026963517069806
2023-01-28 14:10:35.498367,-0.05432111073190355
2023-01-28 14:10:35.503367,-0.04603763669729227
2023-01-28 14:10:35.508367,-0.03547531298848322
2023-01-28 14:10:35.513367,-0.023319324478506983
2023-01-28 14:10:35.518367,-0.010937640005700657
2023-01-28 14:10:35.523367,-0.00021636486053459454
2023-01-28 14:10:35.528367,0.006864438686453759
2023-01-28 14:10:35.533367,0.008798837661743131
2023-01-28 14:10:35.538367,0.005039103425822037
2023-01-28 14:10:35.543367,-0.0037984054069965982
2023-01-28 14:10:35.548367,-0.01607803823475994
2023-01-28 14:10:35.553367,-0.02961794659495347
2023-01-28 14:10:35.558367,-0.042379621372191284
2023-01-28 14:10:35.563367,-0.05310555547475807
2023-01-28 14:10:35.568367,-0.06155110745167069
2023-01-28 14:10:35.573367,-0.06815493106842042
2023-01-28 14:10:35.578367,-0.07333871220484868
2023-01-28 14:10:35.583367,-0.07676144689321514
2023-01-28 14:10:35.588367,-0.07678625711854034
2023-01-28 14:10:35.593367,-0.07046282291412345
2023-01-28 14:10:35.598367,-0.05438717732838038
2023-01-28 14:10:35.603367,-0.026420554146170595
2023-01-28 14:10:35.608367,0.012453058958925728
2023-01-28 14:10:35.613367,0.057144366204738596
2023-01-28 14:10:35.618367,0.09899958553682946
2023-01-28 14:10:35.623367,0.12796780467033375
2023-01-28 14:10:35.628367,0.1359569827620586
2023-01-28 14:10:35.633367,0.12015461921691889
2023-01-28 14:10:35.638367,0.08452562443977744
2023-01-28 14:10:35.643367,0.03841678425669669
2023-01-28 14:10:35.648367,-0.007001518308500787
2023-01-28 14:10:35.653367,-0.042551755905151284
2023-01-28 14:10:35.658367,-0.06358202462071001
2023-01-28 14:10:35.663367,-0.07058303058147428
2023-01-28 14:10:35.668367,-0.06781563550733333
2023-01-28 14:10:35.673367,-0.060582160949706955
2023-01-28 14:10:35.678367,-0.05275155926440146
2023-01-28 14:10:35.683367,-0.046037636697292286
2023-01-28 14:10:35.688367,-0.040825944996073
2023-01-28 14:10:35.693367,-0.037022434175014336
2023-01-28 14:10:35.698367,-0.034159012056803335
2023-01-28 14:10:35.703367,-0.03144502639770496
2023-01-28 14:10:35.708367,-0.028320726642173312
2023-01-28 14:10:35.713367,-0.024881958961486796
2023-01-28 14:10:35.718367,-0.021522969175654834
2023-01-28 14:10:35.723367,-0.018318891525268482
2023-01-28 14:10:35.728367,-0.01500323569990262
2023-01-28 14:10:35.733367,-0.011395215988159058
2023-01-28 14:10:35.738367,-0.007531916910731534
2023-01-28 14:10:35.743367,-0.00341375684365624
2023-01-28 14:10:35.748367,0.0010996924681698297
2023-01-28 14:10:35.753367,0.006082256790250492
2023-01-28 14:10:35.758367,0.01141218393823172
2023-01-28 14:10:35.763367,0.01692454144358634
2023-01-28 14:10:35.768367,0.02260265586780076
2023-01-28 14:10:35.773367,0.028608243912458448
2023-01-28 14:10:35.778367,0.03523162068943197
2023-01-28 14:10:35.783367,0.04284024238586421
2023-01-28 14:10:35.788367,0.051766564508596596
2023-01-28 14:10:35.793367,0.0621447972953319
2023-01-28 14:10:35.798367,0.07383424530761559
2023-01-28 14:10:35.803367,0.0864978656172752
2023-01-28 14:10:35.808367,0.09975295902339601
2023-01-28 14:10:35.813367,0.11327902972698217
2023-01-28 14:10:35.818367,0.12682597156623315
2023-01-28 14:10:35.823367,0.14013230800628657
2023-01-28 14:10:35.828367,0.15283395382412532
2023-01-28 14:10:35.833367,0.16446134448051455
2023-01-28 14:10:35.838367,0.17453506320119697
2023-01-28 14:10:35.843367,0.18268406391143788
2023-01-28 14:10:35.848367,0.18872146751980282
2023-01-28 14:10:35.853367,0.19263684749603266
2023-01-28 14:10:35.858367,0.19446168419374782
2023-01-28 14:10:35.863367,0.19405524432659138
2023-01-28 14:10:35.868367,0.19100139746593447
2023-01-28 14:10:35.873367,0.18475155532360069
2023-01-28 14:10:35.878367,0.17490327057242708
2023-01-28 14:10:35.883367,0.16140818595886228
2023-01-28 14:10:35.888367,0.14464667838947787
2023-01-28 14:10:35.893367,0.12539546191692347
2023-01-28 14:10:35.898367,0.10466740484524731
2023-01-28 14:10:35.903367,0.08346875756978982
2023-01-28 14:10:35.908367,0.06266675870813576
2023-01-28 14:10:35.913367,0.04305660724639891
2023-01-28 14:10:35.918367,0.02544161895168455
2023-01-28 14:10:35.923367,0.01055379770696162
2023-01-28 14:10:35.928367,-0.001082788623129699
2023-01-28 14:10:35.933367,-0.009207527153193895
2023-01-28 14:10:35.938367,-0.01387478704133566
2023-01-28 14:10:35.943367,-0.01555422972887748
2023-01-28 14:10:35.948367,-0.01509349666343997
2023-01-28 14:10:35.953367,-0.013438662514090488
2023-01-28 14:10:35.958367,-0.011352599623764049
2023-01-28 14:10:35.963367,-0.009351770393550249
2023-01-28 14:10:35.968367,-0.00772362325797786
2023-01-28 14:10:35.973367,-0.006466905586421371
2023-01-28 14:10:35.978367,-0.005323070607935465
2023-01-28 14:10:35.983367,-0.004038810729980385
2023-01-28 14:10:35.988367,-0.0026071656193618247
2023-01-28 14:10:35.993367,-0.00122606754302961
2023-01-28 14:10:35.998367,-0.000131933697783379
2023-01-28 14:10:36.003367,0.0004567702708300321
2023-01-28 14:10:36.008367,0.00038904928847587425
2023-01-28 14:10:36.013367,-0.00026444596005594195
2023-01-28 14:10:36.018367,-0.0011887550634716176
2023-01-28 14:10:36.023367,-0.002091526985168315
2023-01-28 14:10:36.028367,-0.002938095033104616
2023-01-28 14:10:36.033367,-0.0038464865647255425
2023-01-28 14:10:36.038367,-0.004861205779789193
2023-01-28 14:10:36.043367,-0.005913972854614154
2023-01-28 14:10:36.048367,-0.006843272331523195
2023-01-28 14:10:36.053367,-0.007308324333280268
2023-01-28 14:10:36.058367,-0.006852631990615823
2023-01-28 14:10:36.063367,-0.005288918968289958
2023-01-28 14:10:36.068367,-0.0029919793098731966
2023-01-28 14:10:36.073367,-0.0006971756811252495
2023-01-28 14:10:36.078367,0.0009178776155228453
2023-01-28 14:10:36.083367,0.0014183919411152742
2023-01-28 14:10:36.088367,0.0006518621747577385
2023-01-28 14:10:36.093367,-0.0011299054604023268
2023-01-28 14:10:36.098367,-0.0032928301430001075
2023-01-28 14:10:36.103367,-0.005192756652831998
2023-01-28 14:10:36.108367,-0.006504567793340835
2023-01-28 14:10:36.113367,-0.00711600016802541
2023-01-28 14:10:36.118367,-0.006902342787388681
2023-01-28 14:10:36.123367,-0.005817811004817398
2023-01-28 14:10:36.128367,-0.004065172921787699
2023-01-28 14:10:36.133367,-0.0019472837448120022
2023-01-28 14:10:36.138367,0.0003715520815663685
2023-01-28 14:10:36.143367,0.0028367838822305346
2023-01-28 14:10:36.148367,0.005456124186287506
2023-01-28 14:10:36.153367,0.008534392341971321
2023-01-28 14:10:36.158367,0.012807840776441953
2023-01-28 14:10:36.163367,0.019064148887991895
2023-01-28 14:10:36.168367,0.02763907684812028
2023-01-28 14:10:36.173367,0.038320623338222504
2023-01-28 14:10:36.178367,0.05041710322745729
2023-01-28 14:10:36.183367,0.06260156631469722
2023-01-28 14:10:36.188367,0.07290846095852299
2023-01-28 14:10:36.193367,0.0793337821960449
2023-01-28 14:10:36.198367,0.08059055229050963
2023-01-28 14:10:36.203367,0.07637679576873768
2023-01-28 14:10:36.208367,0.06735841933666516
2023-01-28 14:10:36.213367,0.0552451610565185
2023-01-28 14:10:36.218367,0.042538769570092616
2023-01-28 14:10:36.223367,0.03156523033976552
2023-01-28 14:10:36.228367,0.02352017599323048
2023-01-28 14:10:36.233367,0.018415054306387926
2023-01-28 14:10:36.238367,0.015626533146534186
2023-01-28 14:10:36.243367,0.014376243576407446
2023-01-28 14:10:36.248367,0.014382455475314896
2023-01-28 14:10:36.253367,0.016924541443586336
2023-01-28 14:10:36.258367,0.025256629731121336
2023-01-28 14:10:36.263367,0.0432729721069335
2023-01-28 14:10:36.268367,0.07316951222078008
2023-01-28 14:10:36.273367,0.11371175944805141
2023-01-28 14:10:36.278367,0.15956217753431678
2023-01-28 14:10:36.283367,0.20157992839813224
2023-01-28 14:10:36.288367,0.22893570335629335
2023-01-28 14:10:36.293367,0.23333749175071716
2023-01-28 14:10:36.298367,0.21300354663246
2023-01-28 14:10:36.303367,0.17335633933544142
2023-01-28 14:10:36.308367,0.1244776897586086
2023-01-28 14:10:36.313367,0.07774710655212407
2023-01-28 14:10:36.318367,0.042748096077604665
2023-01-28 14:10:36.323367,0.024160742759704524
2023-01-28 14:10:36.328367,0.020109944694410818
2023-01-28 14:10:36.333367,0.024377107620239258
2023-01-28 14:10:36.338367,0.03126221013569394
2023-01-28 14:10:36.343367,0.03836870193481444
2023-01-28 14:10:36.348367,0.0452352710019231
2023-01-28 14:10:36.353367,0.051086150109767914
2023-01-28 14:10:36.358367,0.05503139150657041
2023-01-28 14:10:36.363367,0.057408809661865234
2023-01-28 14:10:36.368367,0.059416636798473324
2023-01-28 14:10:36.373367,0.061567824333906056
2023-01-28 14:10:36.378367,0.06346313176549057
2023-01-28 14:10:36.383367,0.06490945816040031
2023-01-28 14:10:36.388367,0.06629822400351489
2023-01-28 14:10:36.393367,0.06784240901470175
2023-01-28 14:10:36.398367,0.06927137474402245
2023-01-28 14:10:36.403367,0.07048686593770985
2023-01-28 14:10:36.408367,0.07192403753780124
2023-01-28 14:10:36.413367,0.07406890392303458
2023-01-28 14:10:36.418367,0.0770877608144023
2023-01-28 14:10:36.423367,0.08108874410390851
2023-01-28 14:10:36.428367,0.08631425366174164
2023-01-28 14:10:36.433367,0.09286861121654508
2023-01-28 14:10:36.438367,0.10056805773162379
2023-01-28 14:10:36.443367,0.10921617597341529
2023-01-28 14:10:36.448367,0.11875429195432059
2023-01-28 14:10:36.453367,0.12900154292583463
2023-01-28 14:10:36.458367,0.13949746012718528
2023-01-28 14:10:36.463367,0.14977256953716261
2023-01-28 14:10:36.468367,0.1596383921133021
2023-01-28 14:10:36.473367,0.16914924979209883
2023-01-28 14:10:36.478367,0.17846205383961533
2023-01-28 14:10:36.483367,0.1878046989440917
2023-01-28 14:10:36.488367,0.19737327852625375
2023-01-28 14:10:36.493367,0.20708522200584412
2023-01-28 14:10:36.498367,0.21647454417353343
2023-01-28 14:10:36.503367,0.22487521171569816
2023-01-28 14:10:36.508367,0.23165037038456
2023-01-28 14:10:36.513367,0.23627042770385737
2023-01-28 14:10:36.518367,0.23833236851142287
2023-01-28 14:10:36.523367,0.23759266734123213
2023-01-28 14:10:36.528367,0.2339208879763305
2023-01-28 14:10:36.533367,0.22718310356140128
2023-01-28 14:10:36.538367,0.21722616708356804
2023-01-28 14:10:36.543367,0.20400802791118613
2023-01-28 14:10:36.548367,0.18772987608016486
2023-01-28 14:10:36.553367,0.16888479888439167
2023-01-28 14:10:36.558367,0.14825727676190678
2023-01-28 14:10:36.563367,0.12686192989349357
2023-01-28 14:10:36.568367,0.10577969369209103
2023-01-28 14:10:36.573367,0.0859689712524414
2023-01-28 14:10:36.578367,0.06817572557799412
2023-01-28 14:10:36.583367,0.0529372692108154
2023-01-28 14:10:36.588367,0.040599016910567665
2023-01-28 14:10:36.593367,0.031324826180934906
2023-01-28 14:10:36.598367,0.02509364552695182
2023-01-28 14:10:36.603367,0.021636486053466672
2023-01-28 14:10:36.608367,0.02035653626503813
2023-01-28 14:10:36.613367,0.02038637921214096
2023-01-28 14:10:36.618367,0.02082100286168302
2023-01-28 14:10:36.623367,0.020963352173566836
2023-01-28 14:10:36.628367,0.02044694030272504
2023-01-28 14:10:36.633367,0.019256472587585376
2023-01-28 14:10:36.638367,0.01766292265576044
2023-01-28 14:10:36.643367,0.01603504084050658
2023-01-28 14:10:36.648367,0.014619330325087063
2023-01-28 14:10:36.653367,0.013486742973327541
2023-01-28 14:10:36.658367,0.012655772734310494
2023-01-28 14:10:36.663367,0.012188553810119707
2023-01-28 14:10:36.668367,0.012171493617213508
2023-01-28 14:10:36.673367,0.012693405151367078
2023-01-28 14:10:36.678367,0.013857222311366532
2023-01-28 14:10:36.683367,0.01572251319885253
2023-01-28 14:10:36.688367,0.018200560611009015
2023-01-28 14:10:36.693367,0.021059513092041068
2023-01-28 14:10:36.698367,0.024029440618495795
2023-01-28 14:10:36.703367,0.026829242706298866
2023-01-28 14:10:36.708367,0.029111162702328938
2023-01-28 14:10:36.713367,0.03050744533538814
2023-01-28 14:10:36.718367,0.030793827554813132
2023-01-28 14:10:36.723367,0.02997855469584463
2023-01-28 14:10:36.728367,0.028267432948347913
2023-01-28 14:10:36.733367,0.02603590488433833
2023-01-28 14:10:36.738367,0.023799664737860958
2023-01-28 14:10:36.743367,0.022045176476240092
2023-01-28 14:10:36.748367,0.020995049493369985
2023-01-28 14:10:36.753367,0.02055466175079342
2023-01-28 14:10:36.758367,0.020455222244765498
2023-01-28 14:10:36.763367,0.020386379212141082
2023-01-28 14:10:36.768367,0.02008879682949449
2023-01-28 14:10:36.773367,0.0195449590682983
2023-01-28 14:10:36.778367,0.019180651511882606
2023-01-28 14:10:36.783367,0.019809406250715218
2023-01-28 14:10:36.788367,0.02232179562249981
2023-01-28 14:10:36.793367,0.02738217636942869
2023-01-28 14:10:36.798367,0.0352107345909044
2023-01-28 14:10:36.803367,0.04534045979380603
2023-01-28 14:10:36.808367,0.056465680595375024
2023-01-28 14:10:36.813367,0.06666442006826404
2023-01-28 14:10:36.818367,0.07394586400999258
2023-01-28 14:10:36.823367,0.07676144689321507
2023-01-28 14:10:36.828367,0.07432642085796623
2023-01-28 14:10:36.833367,0.06685674190521244
2023-01-28 14:10:36.838367,0.05563755382707078
2023-01-28 14:10:36.843367,0.042671959847211796
2023-01-28 14:10:36.848367,0.029998831900325627
2023-01-28 14:10:36.853367,0.019112229347229035
2023-01-28 14:10:36.858367,0.010710016210275095
2023-01-28 14:10:36.863367,0.0046879053115844015
2023-01-28 14:10:36.868367,0.00040753368668722343
2023-01-28 14:10:36.873367,-0.0026204190216957907
2023-01-28 14:10:36.878367,-0.0038737641653818237
2023-01-28 14:10:36.883367,-0.0013943513622506978
2023-01-28 14:10:36.888367,0.007788616914515673
2023-01-28 14:10:36.893367,0.026444595307111712
2023-01-28 14:10:36.898367,0.055442219206405824
2023-01-28 14:10:36.903367,0.0921473950147628
2023-01-28 14:10:36.908367,0.12992922449905117
2023-01-28 14:10:36.913367,0.15962919592857355
2023-01-28 14:10:36.918367,0.17271906041955298
2023-01-28 14:10:36.923367,0.16470174491405473
2023-01-28 14:10:36.928367,0.13714466227611866
2023-01-28 14:10:36.933367,0.09741227328777308
2023-01-28 14:10:36.938367,0.056058996014634696
2023-01-28 14:10:36.943367,0.022862553596496502
2023-01-28 14:10:36.948367,0.0033692328160126192
2023-01-28 14:10:36.953367,-0.00233193254098285
2023-01-28 14:10:36.958367,0.0016697794977250974
2023-01-28 14:10:36.963367,0.009712378494441528
2023-01-28 14:10:36.968367,0.017042459943286833
2023-01-28 14:10:36.973367,0.021275877952575618
2023-01-28 14:10:36.978367,0.022484992465688074
2023-01-28 14:10:36.983367,0.02211729809641836
2023-01-28 14:10:36.988367,0.02162598359077191
2023-01-28 14:10:36.993367,0.021780729293823232
2023-01-28 14:10:36.998367,0.02278756572871285
2023-01-28 14:10:37.003367,0.02459347248077394
2023-01-28 14:10:37.008367,0.02698816354240146
2023-01-28 14:10:37.013367,0.02969006821513172
2023-01-28 14:10:37.018367,0.03254127604925186
2023-01-28 14:10:37.023367,0.03558000177145003
2023-01-28 14:10:37.028367,0.038897058222484154
2023-01-28 14:10:37.033367,0.042527716606855344
2023-01-28 14:10:37.038367,0.04650605503658009
2023-01-28 14:10:37.043367,0.05089382454752917
2023-01-28 14:10:37.048367,0.055695542232611576
2023-01-28 14:10:37.053367,0.06082256883382793
2023-01-28 14:10:37.058367,0.06615376231056745
2023-01-28 14:10:37.063367,0.07154464721679676
2023-01-28 14:10:37.068367,0.0767991099606334
2023-01-28 14:10:37.073367,0.08178591728210438
2023-01-28 14:10:37.078367,0.08664811279774794
2023-01-28 14:10:37.083367,0.09183486551046373
2023-01-28 14:10:37.088367,0.09791586241780181
2023-01-28 14:10:37.093367,0.10539373010396952
2023-01-28 14:10:37.098367,0.11457717245303933
2023-01-28 14:10:37.103367,0.1254194974899291
2023-01-28 14:10:37.108367,0.1374275599275312
2023-01-28 14:10:37.113367,0.14984469115734095
2023-01-28 14:10:37.118367,0.1619778147450768
2023-01-28 14:10:37.123367,0.1733323037624359
2023-01-28 14:10:37.128367,0.18353299343539545
2023-01-28 14:10:37.133367,0.1922762393951416
2023-01-28 14:10:37.138367,0.19933390275458615
2023-01-28 14:10:37.143367,0.2044407576322555
2023-01-28 14:10:37.148367,0.20714905123392008
2023-01-28 14:10:37.153367,0.20689289271831507
2023-01-28 14:10:37.158367,0.20319632351731387
2023-01-28 14:10:37.163367,0.19576212763786305
2023-01-28 14:10:37.168367,0.18447472830590872
2023-01-28 14:10:37.173367,0.16953389346599568
2023-01-28 14:10:37.178367,0.15161831014997815
2023-01-28 14:10:37.183367,0.1317902505397796
2023-01-28 14:10:37.188367,0.11120053515675753
2023-01-28 14:10:37.193367,0.09089728444814676
2023-01-28 14:10:37.198367,0.07175917877483162
2023-01-28 14:10:37.203367,0.054379701614379765
2023-01-28 14:10:37.208367,0.039004096340528545
2023-01-28 14:10:37.213367,0.02572337910532954
2023-01-28 14:10:37.218367,0.01472680790464893
2023-01-28 14:10:37.223367,0.006250540725886812
2023-01-28 14:10:37.228367,0.000321512596887203
2023-01-28 14:10:37.233367,-0.0033175945281981663
2023-01-28 14:10:37.238367,-0.0050883577382122855
2023-01-28 14:10:37.243367,-0.0055293245241044816
2023-01-28 14:10:37.248367,-0.005281873021585729
2023-01-28 14:10:37.253367,-0.004880229942500487
2023-01-28 14:10:37.258367,-0.004496204962455366
2023-01-28 14:10:37.263367,-0.003990729805082021
2023-01-28 14:10:37.268367,-0.0031902126275425643
2023-01-28 14:10:37.273367,-0.002019405364990218
2023-01-28 14:10:37.278367,-0.00048700597870266903
2023-01-28 14:10:37.283367,0.0012260675430297342
2023-01-28 14:10:37.288367,0.002679953843962977
2023-01-28 14:10:37.293367,0.003389716148376434
2023-01-28 14:10:37.298367,0.003188655390311287
2023-01-28 14:10:37.303367,0.0023078918457031298
2023-01-28 14:10:37.308367,0.0011669599971796932
2023-01-28 14:10:37.313367,0.00021636486053461585
2023-01-28 14:10:37.318367,-0.00013505428811093622
2023-01-28 14:10:37.323367,0.00028848648071280064
2023-01-28 14:10:37.328367,0.0012589973827410337
2023-01-28 14:10:37.333367,0.0023078918457031345
2023-01-28 14:10:37.338367,0.0030740789105647604
2023-01-28 14:10:37.343367,0.0034137568436563015
2023-01-28 14:10:37.348367,0.003282055091792813
2023-01-28 14:10:37.353367,0.0027165811043232016
2023-01-28 14:10:37.358367,0.0019059990866253428
2023-01-28 14:10:37.363367,0.001081824302673283
2023-01-28 14:10:37.368367,0.00033303020288538693
2023-01-28 14:10:37.373367,-0.0003606081008911322
2023-01-28 14:10:37.378367,-0.0009917347095734688
2023-01-28 14:10:37.383367,-0.0015866756439207894
2023-01-28 14:10:37.388367,-0.002307365701335238
2023-01-28 14:10:37.393367,-0.00324547290801996
2023-01-28 14:10:37.398367,-0.004085535934804771
2023-01-28 14:10:37.403367,-0.004086892120540111
2023-01-28 14:10:37.408367,-0.002345699329720017
2023-01-28 14:10:37.413367,0.001995364902540999
2023-01-28 14:10:37.418367,0.009513844512610076
2023-01-28 14:10:37.423367,0.020025771111249896
2023-01-28 14:10:37.428367,0.03219546941645418
2023-01-28 14:10:37.433367,0.043777823448181076
2023-01-28 14:10:37.438367,0.05234818973953152
2023-01-28 14:10:37.443367,0.055942337960004786
2023-01-28 14:10:37.448367,0.05349244803335561
2023-01-28 14:10:37.453367,0.04524429887533178
2023-01-28 14:10:37.458367,0.03287270213818536
2023-01-28 14:10:37.463367,0.018871825188398302
2023-01-28 14:10:37.468367,0.005557553270140699
2023-01-28 14:10:37.473367,-0.005553364753723104
2023-01-28 14:10:37.478367,-0.013855024865927932
2023-01-28 14:10:37.483367,-0.019617080688476476
2023-01-28 14:10:37.488367,-0.02372301893153688
2023-01-28 14:10:37.493367,-0.02685328386723984
2023-01-28 14:10:37.498367,-0.02848943178353949
2023-01-28 14:10:37.503367,-0.026588838547468043
2023-01-28 14:10:37.508367,-0.018165786292733462
2023-01-28 14:10:37.513367,-0.0004086892004123778
2023-01-28 14:10:37.518367,0.027834005352686386
2023-01-28 14:10:37.523367,0.06440460681915279
2023-01-28 14:10:37.528367,0.10305959412182437
2023-01-28 14:10:37.533367,0.13474723696708668
2023-01-28 14:10:37.538367,0.1507092636343936
2023-01-28 14:10:37.543367,0.14580588042736048
2023-01-28 14:10:37.548367,0.12059797630294851
2023-01-28 14:10:37.553367,0.08149743080139159
2023-01-28 14:10:37.558367,0.03870364101634308
2023-01-28 14:10:37.563367,0.002404054161161137
2023-01-28 14:10:37.568367,-0.020924703499644526
2023-01-28 14:10:37.573367,-0.030050676316022762
2023-01-28 14:10:37.578367,-0.02801082651424113
2023-01-28 14:10:37.583367,-0.019929608330130466
2023-01-28 14:10:37.588367,-0.010816835046112753
2023-01-28 14:10:37.593367,-0.00384648656472555
2023-01-28 14:10:37.598367,0.0002858066881258357
2023-01-28 14:10:37.603367,0.002524256706237761
2023-01-28 14:10:37.608367,0.004015843873913335
2023-01-28 14:10:37.613367,0.005505283828824701
2023-01-28 14:10:37.618367,0.007585755094197119
2023-01-28 14:10:37.623367,0.010649959556758444
2023-01-28 14:10:37.628367,0.014395981502564055
2023-01-28 14:10:37.633367,0.01798232458531847
2023-01-28 14:10:37.638367,0.020971118487179644
2023-01-28 14:10:37.643367,0.023703973740339175
2023-01-28 14:10:37.648367,0.02654395353156845
2023-01-28 14:10:37.653367,0.02925733849406238
2023-01-28 14:10:37.658367,0.03151831983442275
2023-01-28 14:10:37.663367,0.03363271802663805
2023-01-28 14:10:37.668367,0.036317272765758656
2023-01-28 14:10:37.673367,0.039979420602321625
2023-01-28 14:10:37.678367,0.04456898418534385
2023-01-28 14:10:37.683367,0.049932204186916296
2023-01-28 14:10:37.688367,0.055922830927686684
2023-01-28 14:10:37.693367,0.062265001237392426
2023-01-28 14:10:37.698367,0.06865781041380882
2023-01-28 14:10:37.703367,0.07503052800893785
2023-01-28 14:10:37.708367,0.0815078247623431
2023-01-28 14:10:37.713367,0.08818070590496058
2023-01-28 14:10:37.718367,0.09508312997453634
2023-01-28 14:10:37.723367,0.10231654345989216
2023-01-28 14:10:37.728367,0.11001375004412964
2023-01-28 14:10:37.733367,0.11820733547210693
2023-01-28 14:10:37.738367,0.12682872382685653
2023-01-28 14:10:37.743367,0.13573288917541493
2023-01-28 14:10:37.748367,0.14458283688828955
2023-01-28 14:10:37.753367,0.15277764201164235
2023-01-28 14:10:37.758367,0.1596145622877754
2023-01-28 14:10:37.763367,0.16448538005352015
2023-01-28 14:10:37.768367,0.1668829383110124
2023-01-28 14:10:37.773367,0.16636054217815385
2023-01-28 14:10:37.778367,0.16261061086029652
2023-01-28 14:10:37.783367,0.15551826357841486
2023-01-28 14:10:37.788367,0.14508279861260046
2023-01-28 14:10:37.793367,0.13140559196472157
2023-01-28 14:10:37.798367,0.11485060345014683
2023-01-28 14:10:37.803367,0.09613811969757081
2023-01-28 14:10:37.808367,0.0762145655165541
2023-01-28 14:10:37.813367,0.05608658120036123
2023-01-28 14:10:37.818367,0.03674965785414247
2023-01-28 14:10:37.823367,0.019064148887991923
2023-01-28 14:10:37.828367,0.0035550529007118523
2023-01-28 14:10:37.833367,-0.009616216644644633
2023-01-28 14:10:37.838367,-0.020454522581247723
2023-01-28 14:10:37.843367,-0.02899289131164552
2023-01-28 14:10:37.848367,-0.03532911366223095
2023-01-28 14:10:37.853367,-0.03961881250143044
2023-01-28 14:10:37.858367,-0.041969818262904475
2023-01-28 14:10:37.863367,-0.04247963428497309
2023-01-28 14:10:37.868367,-0.04143192233454229
2023-01-28 14:10:37.873367,-0.03933032602071758
2023-01-28 14:10:37.878367,-0.03668971524386222
2023-01-28 14:10:37.883367,-0.03389716148376455
2023-01-28 14:10:37.888367,-0.031266136787340075
2023-01-28 14:10:37.893367,-0.02904097363352765
2023-01-28 14:10:37.898367,-0.02728609893880491
2023-01-28 14:10:37.903367,-0.025915702804922967
2023-01-28 14:10:37.908367,-0.024889442768667818
2023-01-28 14:10:37.913367,-0.024256905540823857
2023-01-28 14:10:37.918367,-0.023985911222456597
2023-01-28 14:10:37.923367,-0.023896297439932757
2023-01-28 14:10:37.928367,-0.023802050721958824
2023-01-28 14:10:37.933367,-0.023583769798278722
2023-01-28 14:10:37.938367,-0.023106646375994404
2023-01-28 14:10:37.943367,-0.022237500175833615
2023-01-28 14:10:37.948367,-0.020995048326576712
2023-01-28 14:10:37.953367,-0.01954495906829828
2023-01-28 14:10:37.958367,-0.018013359227440247
2023-01-28 14:10:37.963367,-0.016443729400634672
2023-01-28 14:10:37.968367,-0.01495417256261904
2023-01-28 14:10:37.973367,-0.013775229454040508
2023-01-28 14:10:37.978367,-0.013092341383940095
2023-01-28 14:10:37.983367,-0.012981891632079917
2023-01-28 14:10:37.988367,-0.013495330526825208
2023-01-28 14:10:37.993367,-0.014616648666560546
2023-01-28 14:10:37.998367,-0.016093348047660744
2023-01-28 14:10:38.003367,-0.017477473244071017
2023-01-28 14:10:38.008367,-0.018399312266983894
2023-01-28 14:10:38.013367,-0.01870354078710064
2023-01-28 14:10:38.018367,-0.018356631588763973
2023-01-28 14:10:38.023367,-0.01742939278483386
2023-01-28 14:10:38.028367,-0.01621000490039381
2023-01-28 14:10:38.033367,-0.01514554023742671
2023-01-28 14:10:38.038367,-0.014580238653069282
2023-01-28 14:10:38.043367,-0.014616648666560601
2023-01-28 14:10:38.048367,-0.015156521469927525
2023-01-28 14:10:38.053367,-0.015842717140913027
2023-01-28 14:10:38.058367,-0.01591881984401782
2023-01-28 14:10:38.063367,-0.014352202415466317
2023-01-28 14:10:38.068367,-0.01022656197094964
2023-01-28 14:10:38.073367,-0.0030291080474853043
2023-01-28 14:10:38.078367,0.007244576804387516
2023-01-28 14:10:38.083367,0.01990556716918943
2023-01-28 14:10:38.088367,0.0333788152674228
2023-01-28 14:10:38.093367,0.045412581413984174
2023-01-28 14:10:38.098367,0.05370035049317414
2023-01-28 14:10:38.103367,0.056471228599548326
2023-01-28 14:10:38.108367,0.052865999457757974
2023-01-28 14:10:38.113367,0.0432489328086375
2023-01-28 14:10:38.118367,0.029306245220993232
2023-01-28 14:10:38.123367,0.01355886459350582
2023-01-28 14:10:38.128367,-0.0015438082003939718
2023-01-28 14:10:38.133367,-0.014304121956229212
2023-01-28 14:10:38.138367,-0.023972638543575224
2023-01-28 14:10:38.143367,-0.030675729736685694
2023-01-28 14:10:38.148367,-0.03503977859524415
2023-01-28 14:10:38.153367,-0.037286877632141044
2023-01-28 14:10:38.158367,-0.0362128905594117
2023-01-28 14:10:38.163367,-0.0289928913116455
2023-01-28 14:10:38.168367,-0.012206230523585984
2023-01-28 14:10:38.173367,0.016395648941397573
2023-01-28 14:10:38.178367,0.05603496990186038
2023-01-28 14:10:38.183367,0.10161936283111568
2023-01-28 14:10:38.188367,0.14401441049819994
2023-01-28 14:10:38.193367,0.17258703708648673
2023-01-28 14:10:38.198367,0.17920090413598214
2023-01-28 14:10:38.203367,0.16155242919921864
2023-01-28 14:10:38.208367,0.12417674882253837
2023-01-28 14:10:38.213367,0.07685761153697962
2023-01-28 14:10:38.218367,0.031124791410538286
2023-01-28 14:10:38.223367,-0.0038705270271748135
2023-01-28 14:10:38.228367,-0.02421368810262119
2023-01-28 14:10:38.233367,-0.031348865479230735
2023-01-28 14:10:38.238367,-0.02986103369724456
2023-01-28 14:10:38.243367,-0.02478579804301256
2023-01-28 14:10:38.248367,-0.019829125771085757
2023-01-28 14:10:38.253367,-0.016636054962873365
2023-01-28 14:10:38.258367,-0.014975082725569995
2023-01-28 14:10:38.263367,-0.0137992706149816
2023-01-28 14:10:38.268367,-0.012477443020541925
2023-01-28 14:10:38.273367,-0.011082689277827617
2023-01-28 14:10:38.278367,-0.00971971877952663
2023-01-28 14:10:38.283367,-0.008077621459960894
2023-01-28 14:10:38.288367,-0.0058009747948384
2023-01-28 14:10:38.293367,-0.0029089055024086527
2023-01-28 14:10:38.298367,0.0004017934592621373
2023-01-28 14:10:38.303367,0.0040868921205400805
2023-01-28 14:10:38.308367,0.008144588954359473
2023-01-28 14:10:38.313367,0.012404918670654226
2023-01-28 14:10:38.318367,0.016681262964915507
2023-01-28 14:10:38.323367,0.020987391471862692
2023-01-28 14:10:38.328367,0.025417974492073805
2023-01-28 14:10:38.333367,0.02995451353490349
2023-01-28 14:10:38.338367,0.034551479792136026
2023-01-28 14:10:38.343367,0.03928224369883529
2023-01-28 14:10:38.348367,0.044265872945963146
2023-01-28 14:10:38.353367,0.04959563538432119
2023-01-28 14:10:38.358367,0.05547617512849681
2023-01-28 14:10:38.363367,0.062289040535688414
2023-01-28 14:10:38.368367,0.07036913655540297
2023-01-28 14:10:38.373367,0.07979055494070045
2023-01-28 14:10:38.378367,0.09042207112945767
2023-01-28 14:10:38.383367,0.10202805697917923
2023-01-28 14:10:38.388367,0.1142199047744582
2023-01-28 14:10:38.393367,0.12647728621959675
2023-01-28 14:10:38.398367,0.13835679905875656
2023-01-28 14:10:38.403367,0.14958024024963368
2023-01-28 14:10:38.408367,0.1598402022428513
2023-01-28 14:10:38.413367,0.16864439845085133
2023-01-28 14:10:38.418367,0.17542543398038674
2023-01-28 14:10:38.423367,0.17967900633811945
2023-01-28 14:10:38.428367,0.1809465583629778
2023-01-28 14:10:38.433367,0.17883758246898643
2023-01-28 14:10:38.438367,0.17318679002062307
2023-01-28 14:10:38.443367,0.16410073637962336
2023-01-28 14:10:38.448367,0.15182072748577619
2023-01-28 14:10:38.453367,0.13669452071189872
2023-01-28 14:10:38.458367,0.11934412125059184
2023-01-28 14:10:38.463367,0.10070582479238506
2023-01-28 14:10:38.468367,0.0817980112682478
2023-01-28 14:10:38.473367,0.06349106878042221
2023-01-28 14:10:38.478367,0.04643566567175899
2023-01-28 14:10:38.483367,0.03098825737833974
2023-01-28 14:10:38.488367,0.01714749139977734
2023-01-28 14:10:38.493367,0.004760026931762657
2023-01-28 14:10:38.498367,-0.006090576610358691
2023-01-28 14:10:38.503367,-0.014977256767451649
2023-01-28 14:10:38.508367,-0.0214219395970181
2023-01-28 14:10:38.513367,-0.025194486603140744
2023-01-28 14:10:38.518367,-0.02640102541232119
2023-01-28 14:10:38.523367,-0.02553105354309081
2023-01-28 14:10:38.528367,-0.023456748930927328
2023-01-28 14:10:38.533367,-0.021131634712219148
2023-01-28 14:10:38.538367,-0.01911550661140748
2023-01-28 14:10:38.543367,-0.017429392784833856
2023-01-28 14:10:38.548367,-0.01583625561386904
2023-01-28 14:10:38.553367,-0.014111797325312892
2023-01-28 14:10:38.558367,-0.01210344765040243
2023-01-28 14:10:38.563367,-0.009808540344238155
2023-01-28 14:10:38.568367,-0.007489272343386667
2023-01-28 14:10:38.573367,-0.005529324524104467
2023-01-28 14:10:38.578367,-0.004094929111948496
2023-01-28 14:10:38.583367,-0.0030531487427650624
2023-01-28 14:10:38.588367,-0.0022128433163892377
2023-01-28 14:10:38.593367,-0.0014664729824288803
2023-01-28 14:10:38.598367,-0.0007055306069214649
2023-01-28 14:10:38.603367,0.0001682837901171273
2023-01-28 14:10:38.608367,0.0010836187113655645
2023-01-28 14:10:38.613367,0.0018270810833199758
2023-01-28 14:10:38.618367,0.0022721952386300817
2023-01-28 14:10:38.623367,0.002428094623610311
2023-01-28 14:10:38.628367,0.0022729703708533446
2023-01-28 14:10:38.633367,0.0017549594631418419
2023-01-28 14:10:38.638367,0.0009943121714788721
2023-01-28 14:10:38.643367,0.00028848648071281956
2023-01-28 14:10:38.648367,-0.00013654962318522006
2023-01-28 14:10:38.653367,-0.00024040541029529786
2023-01-28 14:10:38.658367,-6.261803085457984e-05
2023-01-28 14:10:38.663367,0.00028848648071282904
2023-01-28 14:10:38.668367,0.0005472143360564511
2023-01-28 14:10:38.673367,0.00043272972106934065
2023-01-28 14:10:38.678367,-4.966224725969918e-05
2023-01-28 14:10:38.683367,-0.0006010135402901681
2023-01-28 14:10:38.688367,-0.0009301135953528785
2023-01-28 14:10:38.693367,-0.0009135405416599553
2023-01-28 14:10:38.698367,-0.0005178404801687293
2023-01-28 14:10:38.703367,0.000192324325325842
2023-01-28 14:10:38.708367,0.0009618356092507554
2023-01-28 14:10:38.713367,0.0014905135612934448
2023-01-28 14:10:38.718367,0.0017106854094705189
2023-01-28 14:10:38.723367,0.0017549594631418586
2023-01-28 14:10:38.728367,0.0016745285791519866
2023-01-28 14:10:38.733367,0.0013943513622507453
2023-01-28 14:10:38.738367,0.0009307313388171109
2023-01-28 14:10:38.743367,0.0004567702708300582
2023-01-28 14:10:38.748367,0.00020212890118096992
2023-01-28 14:10:38.753367,0.0005288919201120544
2023-01-28 14:10:38.758367,0.0020783103588250546
2023-01-28 14:10:38.763367,0.0055774054490029526
2023-01-28 14:10:38.768367,0.011444409902816147
2023-01-28 14:10:38.773367,0.019689202308654695
2023-01-28 14:10:38.778367,0.03002933083066815
2023-01-28 14:10:38.783367,0.04175841808319089
2023-01-28 14:10:38.788367,0.053497880511032325
2023-01-28 14:10:38.793367,0.06337086856365202
2023-01-28 14:10:38.798367,0.06953664446465349
2023-01-28 14:10:38.803367,0.0705830305814743
2023-01-28 14:10:38.808367,0.06579308122839315
2023-01-28 14:10:38.813367,0.0555817298591136
2023-01-28 14:10:38.818367,0.041732526052153565
2023-01-28 14:10:38.823367,0.026829242706298835
2023-01-28 14:10:38.828367,0.013211208576350534
2023-01-28 14:10:38.833367,0.002331932540982938
2023-01-28 14:10:38.838367,-0.0053416156971924375
2023-01-28 14:10:38.843367,-0.010265311226248623
2023-01-28 14:10:38.848367,-0.013366368062714004
2023-01-28 14:10:38.853367,-0.014857053756713822
2023-01-28 14:10:38.858367,-0.013101112722029408
2023-01-28 14:10:38.863367,-0.004784067627042503
2023-01-28 14:10:38.868367,0.013610234729797815
2023-01-28 14:10:38.873367,0.04399418830871577
2023-01-28 14:10:38.878367,0.08500892050881002
2023-01-28 14:10:38.883367,0.13078054785728446
2023-01-28 14:10:38.888367,0.17137835460698853
2023-01-28 14:10:38.893367,0.19600252807140342
2023-01-28 14:10:38.898367,0.19745939794357742
2023-01-28 14:10:38.903367,0.17503917217254622
2023-01-28 14:10:38.908367,0.13461161048790554
2023-01-28 14:10:38.913367,0.0867382735013961
2023-01-28 14:10:38.918367,0.04332768397001664
2023-01-28 14:10:38.923367,0.013174216262996164
2023-01-28 14:10:38.928367,-0.001388058437253117
2023-01-28 14:10:38.933367,-0.0038705270271747025
2023-01-28 14:10:38.938367,0.00030944139863246296
2023-01-28 14:10:38.943367,0.007043878547847214
2023-01-28 14:10:38.948367,0.013770186228853806
2023-01-28 14:10:38.953367,0.018679499626159644
2023-01-28 14:10:38.958367,0.021090711865765954
2023-01-28 14:10:38.963367,0.021997094154357976
2023-01-28 14:10:38.968367,0.0230817188923403
2023-01-28 14:10:38.973367,0.02514640614390374
2023-01-28 14:10:38.978367,0.027926843792445793
2023-01-28 14:10:38.983367,0.0310363378375768
2023-01-28 14:10:38.988367,0.034360776977279205
2023-01-28 14:10:38.993367,0.037695568054914454
2023-01-28 14:10:38.998367,0.040703916623409934
2023-01-28 14:10:39.003367,0.04332105442881577
2023-01-28 14:10:39.008367,0.04577947044587995
2023-01-28 14:10:39.013367,0.04822532460093491
2023-01-28 14:10:39.018367,0.05065437192000197
2023-01-28 14:10:39.023367,0.053201716393232276
2023-01-28 14:10:39.028367,0.0561854094940866
2023-01-28 14:10:39.033367,0.059884987771511
2023-01-28 14:10:39.038367,0.06451449267636261
2023-01-28 14:10:39.043367,0.070318579673767
2023-01-28 14:10:39.048367,0.07739637736278444
2023-01-28 14:10:39.053367,0.08544008433818809
2023-01-28 14:10:39.058367,0.09386676796745734
2023-01-28 14:10:39.063367,0.10222037881612767
2023-01-28 14:10:39.068367,0.11036913860994507
2023-01-28 14:10:39.073367,0.11847178637981406
2023-01-28 14:10:39.078367,0.12693952133330083
2023-01-28 14:10:39.083367,0.13628582656383503
2023-01-28 14:10:39.088367,0.1467370471522481
2023-01-28 14:10:39.093367,0.1579463481903075
2023-01-28 14:10:39.098367,0.1691446133927717
2023-01-28 14:10:39.103367,0.17948667705059046
2023-01-28 14:10:39.108367,0.18823066749638376
2023-01-28 14:10:39.113367,0.1948245465755461
2023-01-28 14:10:39.118367,0.1990310944699303
2023-01-28 14:10:39.123367,0.20088276267051688
2023-01-28 14:10:39.128367,0.20038883284076026
2023-01-28 14:10:39.133367,0.19737283885478968
2023-01-28 14:10:39.138367,0.19166372516668953
2023-01-28 14:10:39.143367,0.18330912292003632
2023-01-28 14:10:39.148367,0.17253041889971965
2023-01-28 14:10:39.153367,0.15962919592857358
2023-01-28 14:10:39.158367,0.14502392699424743
2023-01-28 14:10:39.163367,0.12921790778636927
2023-01-28 14:10:39.168367,0.11263323970003561
2023-01-28 14:10:39.173367,0.09560923278331748
2023-01-28 14:10:39.178367,0.07862693067268171
2023-01-28 14:10:39.183367,0.06238520145416248
2023-01-28 14:10:39.188367,0.04759276192454738
2023-01-28 14:10:39.193367,0.034810703247785534
2023-01-28 14:10:39.198367,0.024485364855472834
2023-01-28 14:10:39.203367,0.01690050028264521
2023-01-28 14:10:39.208367,0.012001033321262407
2023-01-28 14:10:39.213367,0.009399851784109984
2023-01-28 14:10:39.218367,0.008579613728813001
2023-01-28 14:10:39.223367,0.00894308090209961
2023-01-28 14:10:39.228367,0.009727346777226094
2023-01-28 14:10:39.233367,0.010169148445129336
2023-01-28 14:10:39.238367,0.00987922484845456
2023-01-28 14:10:39.243367,0.008943080902099628
2023-01-28 14:10:39.248367,0.007680458557190069
2023-01-28 14:10:39.253367,0.006466905586421419
2023-01-28 14:10:39.258367,0.005685007097313663
2023-01-28 14:10:39.263367,0.005529324524104595
2023-01-28 14:10:39.268367,0.00580566948637329
2023-01-28 14:10:39.273367,0.006130337715148968
2023-01-28 14:10:39.278367,0.006333145886057636
2023-01-28 14:10:39.283367,0.006490945816039989
2023-01-28 14:10:39.288367,0.006654717295561428
2023-01-28 14:10:39.293367,0.006803472992032719
2023-01-28 14:10:39.298367,0.006996432354054977
2023-01-28 14:10:39.303367,0.0072842836380003955
2023-01-28 14:10:39.308367,0.007518337129417221
2023-01-28 14:10:39.313367,0.00752468919381499
2023-01-28 14:10:39.318367,0.0074137118508964366
2023-01-28 14:10:39.323367,0.007452567573636761
2023-01-28 14:10:39.328367,0.007718069685906476
2023-01-28 14:10:39.333367,0.00814974308013911
2023-01-28 14:10:39.338367,0.008814209532639542
2023-01-28 14:10:39.343367,0.009784500114619746
2023-01-28 14:10:39.348367,0.010873142991811401
2023-01-28 14:10:39.353367,0.011827945709228502
2023-01-28 14:10:39.358367,0.012675976206328168
2023-01-28 14:10:39.363367,0.013534824363887343
2023-01-28 14:10:39.368367,0.014237355362197945
2023-01-28 14:10:39.373367,0.014520486816763859
2023-01-28 14:10:39.378367,0.014427722416685492
2023-01-28 14:10:39.383367,0.014135837554931687
2023-01-28 14:10:39.388367,0.013570854843738359
2023-01-28 14:10:39.393367,0.012621283531188935
2023-01-28 14:10:39.398367,0.011525637008548566
2023-01-28 14:10:39.403367,0.010577837936580096
2023-01-28 14:10:39.408367,0.009648391238050598
2023-01-28 14:10:39.413367,0.0084863109514117
2023-01-28 14:10:39.418367,0.007292471447882548
2023-01-28 14:10:39.423367,0.006514986511319913
2023-01-28 14:10:39.428367,0.00634412029729886
2023-01-28 14:10:39.433367,0.006923675537109337
2023-01-28 14:10:39.438367,0.008690759578696583
2023-01-28 14:10:39.443367,0.01180390547960993
2023-01-28 14:10:39.448367,0.015484312732405895
2023-01-28 14:10:39.453367,0.01860737800598142
2023-01-28 14:10:39.458367,0.020748297576987127
2023-01-28 14:10:39.463367,0.02214133739471432
2023-01-28 14:10:39.468367,0.023160721378312064
2023-01-28 14:10:39.473367,0.024665594100952103
2023-01-28 14:10:39.478367,0.02828522933797486
2023-01-28 14:10:39.483367,0.03517131134867661
2023-01-28 14:10:39.488367,0.04456761842722776
2023-01-28 14:10:39.493367,0.05435566231608386
2023-01-28 14:10:39.498367,0.0625167845741955
2023-01-28 14:10:39.503367,0.06721735000610349
2023-01-28 14:10:39.508367,0.06646455322814297
2023-01-28 14:10:39.513367,0.059452258050441756
2023-01-28 14:10:39.518367,0.0479772475743072
2023-01-28 14:10:39.523367,0.0350511074066162
2023-01-28 14:10:39.528367,0.022474096327368204
2023-01-28 14:10:39.533367,0.011130770668387408
2023-01-28 14:10:39.538367,0.002599729661955055
2023-01-28 14:10:39.543367,-0.001995364902540975
2023-01-28 14:10:39.548367,-0.004129123483930641
2023-01-28 14:10:39.553367,-0.005817811004817372
2023-01-28 14:10:39.558367,-0.005340230605442107
2023-01-28 14:10:39.563367,0.0017549594631418302
2023-01-28 14:10:39.568367,0.01682073470533649
2023-01-28 14:10:39.573367,0.03685414791107172
2023-01-28 14:10:39.578367,0.06017659764508548
2023-01-28 14:10:39.583367,0.08897404372692097
2023-01-28 14:10:39.588367,0.12285512982007091
2023-01-28 14:10:39.593367,0.15292188525199885
2023-01-28 14:10:39.598367,0.1666096642254912
2023-01-28 14:10:39.603367,0.15777806937694538
2023-01-28 14:10:39.608367,0.12965042382605507
2023-01-28 14:10:39.613367,0.08991162478923792
2023-01-28 14:10:39.618367,0.0469071837448436
2023-01-28 14:10:39.623367,0.009496013633906822
2023-01-28 14:10:39.628367,-0.01478563931565805
2023-01-28 14:10:39.633367,-0.023944377899169884
2023-01-28 14:10:39.638367,-0.02216921688085929
2023-01-28 14:10:39.643367,-0.015385946258902517
2023-01-28 14:10:39.648367,-0.007548874602329756
2023-01-28 14:10:39.653367,-0.0009135405416599932
2023-01-28 14:10:39.658367,0.003095023897677038
2023-01-28 14:10:39.663367,0.004711946006864323
2023-01-28 14:10:39.668367,0.005764469517751924
2023-01-28 14:10:39.673367,0.007500648498535118
2023-01-28 14:10:39.678367,0.009481187007206529
2023-01-28 14:10:39.683367,0.011082689277827745
2023-01-28 14:10:39.688367,0.012657652674772436
2023-01-28 14:10:39.693367,0.01454452704638243
2023-01-28 14:10:39.698367,0.016310704163736818
2023-01-28 14:10:39.703367,0.01779000088572506
2023-01-28 14:10:39.708367,0.0197439376755711
2023-01-28 14:10:39.713367,0.022766392678022374
2023-01-28 14:10:39.718367,0.02653346840189221
2023-01-28 14:10:39.723367,0.03074785135686389
2023-01-28 14:10:39.728367,0.03580826308456279
2023-01-28 14:10:39.733367,0.04190266132354729
2023-01-28 14:10:39.738367,0.0483744947839298
2023-01-28 14:10:39.743367,0.054620109498500775
2023-01-28 14:10:39.748367,0.060790473980260724
2023-01-28 14:10:39.753367,0.06709714978933329
2023-01-28 14:10:39.758367,0.07332276870700141
2023-01-28 14:10:39.763367,0.07959823310375211
2023-01-28 14:10:39.768367,0.08682611014767472
2023-01-28 14:10:39.773367,0.09570538997650141
2023-01-28 14:10:39.778367,0.10599541135135479
2023-01-28 14:10:39.783367,0.11717359721660604
2023-01-28 14:10:39.788367,0.12903028042534498
2023-01-28 14:10:39.793367,0.14111797511577598
2023-01-28 14:10:39.798367,0.15241418410935192
2023-01-28 14:10:39.803367,0.16215345263481137
2023-01-28 14:10:39.808367,0.1704040021780076
2023-01-28 14:10:39.813367,0.17737111449241622
2023-01-28 14:10:39.818367,0.1827816697992432
2023-01-28 14:10:39.823367,0.18638631701469416
2023-01-28 14:10:39.828367,0.18834643090975903
2023-01-28 14:10:39.833367,0.1885740011930465
2023-01-28 14:10:39.838367,0.18628721114490718
2023-01-28 14:10:39.843367,0.1807367801666259
2023-01-28 14:10:39.848367,0.1718747280221601
2023-01-28 14:10:39.853367,0.15996575355529774
2023-01-28 14:10:39.858367,0.14522012067178988
2023-01-28 14:10:39.863367,0.1283043622970581
2023-01-28 14:10:39.868367,0.11060486645805612
2023-01-28 14:10:39.873367,0.09342154115438457
2023-01-28 14:10:39.878367,0.07730160379223666
2023-01-28 14:10:39.883367,0.06248136609792699
2023-01-28 14:10:39.888367,0.049380075839560444
2023-01-28 14:10:39.893367,0.038224458694457966
2023-01-28 14:10:39.898367,0.02876262965740356
2023-01-28 14:10:39.903367,0.02084314823150636
2023-01-28 14:10:39.908367,0.014804281737191772
2023-01-28 14:10:39.913367,0.010866324417293077
2023-01-28 14:10:39.918367,0.008611048523481542
2023-01-28 14:10:39.923367,0.0074525675736367555
2023-01-28 14:10:39.928367,0.007133295324696447
2023-01-28 14:10:39.933367,0.007380445953458533
2023-01-28 14:10:39.938367,0.00761894699355002
2023-01-28 14:10:39.943367,0.007500648498535131
2023-01-28 14:10:39.948367,0.00729341525090258
2023-01-28 14:10:39.953367,0.00735640525817873
2023-01-28 14:10:39.958367,0.007666052420503652
2023-01-28 14:10:39.963367,0.008197824470698828
2023-01-28 14:10:39.968367,0.00925438566593176
2023-01-28 14:10:39.973367,0.010986527428030872
2023-01-28 14:10:39.978367,0.013037022855954192
2023-01-28 14:10:39.983367,0.015049378387629974
2023-01-28 14:10:39.988367,0.01707960098368973
2023-01-28 14:10:39.993367,0.019136270508170166
2023-01-28 14:10:39.998367,0.02079971756042886
2023-01-28 14:10:40.003367,0.021708607673645075
2023-01-28 14:10:40.008367,0.02197746389742008
2023-01-28 14:10:40.013367,0.021756689995527247
2023-01-28 14:10:40.018367,0.020866319427481538
2023-01-28 14:10:40.023367,0.019280513748526535
2023-01-28 14:10:40.028367,0.01749806071119564
2023-01-28 14:10:40.033367,0.015986960381269427
2023-01-28 14:10:40.038367,0.014685112595667068
2023-01-28 14:10:40.043367,0.013438662514090528
2023-01-28 14:10:40.048367,0.012447293090032957
2023-01-28 14:10:40.053367,0.011827945709228497
2023-01-28 14:10:40.058367,0.011202780522900895
2023-01-28 14:10:40.063367,0.01019318960607048
2023-01-28 14:10:40.068367,0.008904917806041756
2023-01-28 14:10:40.073367,0.007500648498535147
2023-01-28 14:10:40.078367,0.00576987669672448
2023-01-28 14:10:40.083367,0.003606081008911133
2023-01-28 14:10:40.088367,0.0014550057888708635
2023-01-28 14:10:40.093367,-0.00021636486053460164
2023-01-28 14:10:40.098367,-0.0014765167118315503
2023-01-28 14:10:40.103367,-0.002500216243788453
2023-01-28 14:10:40.108367,-0.0030901116231095973
2023-01-28 14:10:40.113367,-0.003173351287841598
2023-01-28 14:10:40.118367,-0.0032775215027014276
2023-01-28 14:10:40.123367,-0.0038705270271747476
2023-01-28 14:10:40.128367,-0.004602842785848634
2023-01-28 14:10:40.133367,-0.00473598670214407
2023-01-28 14:10:40.138367,-0.0038126092184574104
2023-01-28 14:10:40.143367,-0.0012741487007587413
2023-01-28 14:10:40.148367,0.0039570301436491605
2023-01-28 14:10:40.153367,0.012525121681392115
2023-01-28 14:10:40.158367,0.023513286557552637
2023-01-28 14:10:40.163367,0.035003028810024255
2023-01-28 14:10:40.168367,0.045326051083616106
2023-01-28 14:10:40.173367,0.05288919061422336
2023-01-28 14:10:40.178367,0.05543884602911853
2023-01-28 14:10:40.183367,0.05123039335012433
2023-01-28 14:10:40.188367,0.041254593007141786
2023-01-28 14:10:40.193367,0.028968852013349537
2023-01-28 14:10:40.198367,0.017158675185150164
2023-01-28 14:10:40.203367,0.0059620542451739025
2023-01-28 14:10:40.208367,-0.005473573876239423
2023-01-28 14:10:40.213367,-0.016467770561575796
2023-01-28 14:10:40.218367,-0.02505296951000502
2023-01-28 14:10:40.223367,-0.030218958854675206
2023-01-28 14:10:40.228367,-0.032657261370177444
2023-01-28 14:10:40.233367,-0.033007662743329974
2023-01-28 14:10:40.238367,-0.030003920696768233
2023-01-28 14:10:40.243367,-0.02067486569285385
2023-01-28 14:10:40.248367,-0.002233810709449822
2023-01-28 14:10:40.253367,0.02591570280492299
2023-01-28 14:10:40.258367,0.06100168859814664
2023-01-28 14:10:40.263367,0.096811257302761
2023-01-28 14:10:40.268367,0.1249636626346626
2023-01-28 14:10:40.273367,0.13753592967987063
2023-01-28 14:10:40.278367,0.13021636302206302
2023-01-28 14:10:40.283367,0.10443210601806636
2023-01-28 14:10:40.288367,0.06714024756477646
2023-01-28 14:10:40.293367,0.02822359465062608
2023-01-28 14:10:40.298367,-0.0032122298701422946
2023-01-28 14:10:40.303367,-0.021876892074942512
2023-01-28 14:10:40.308367,-0.027456865315609518
2023-01-28 14:10:40.313367,-0.023655891418456945
2023-01-28 14:10:40.318367,-0.0157845589327158
2023-01-28 14:10:40.323367,-0.008221864700317275
2023-01-28 14:10:40.328367,-0.0030490120919759297
2023-01-28 14:10:40.333367,-0.00024040541029525997
2023-01-28 14:10:40.338367,0.0012750302938343361
2023-01-28 14:10:40.343367,0.002596378326416031
2023-01-28 14:10:40.348367,0.004278520490879708
2023-01-28 14:10:40.353367,0.0062265000306069304
2023-01-28 14:10:40.358367,0.00801041292851925
2023-01-28 14:10:40.363367,0.009351770393550306
2023-01-28 14:10:40.368367,0.010336124240014672
2023-01-28 14:10:40.373367,0.01122693251818413
2023-01-28 14:10:40.378367,0.012249313877314982
2023-01-28 14:10:40.383367,0.013606945984065508
2023-01-28 14:10:40.388367,0.015527720013702387
2023-01-28 14:10:40.393367,0.018150608986616135
2023-01-28 14:10:40.398367,0.021446202492820924
2023-01-28 14:10:40.403367,0.025314688682556118
2023-01-28 14:10:40.408367,0.02964749523960475
2023-01-28 14:10:40.413367,0.034233730286359704
2023-01-28 14:10:40.418367,0.03877306823473272
2023-01-28 14:10:40.423367,0.0431287288665771
2023-01-28 14:10:40.428367,0.04750448441422489
2023-01-28 14:10:40.433367,0.052312217652797574
2023-01-28 14:10:40.438367,0.057966838614860246
2023-01-28 14:10:40.443367,0.06483733654022213
2023-01-28 14:10:40.448367,0.07319113028474207
2023-01-28 14:10:40.453367,0.0830119848251342
2023-01-28 14:10:40.458367,0.09393872649529314
2023-01-28 14:10:40.463367,0.1054658517241477
2023-01-28 14:10:40.468367,0.11711939327805869
2023-01-28 14:10:40.473367,0.128400534391403
2023-01-28 14:10:40.478367,0.13873012200730087
2023-01-28 14:10:40.483367,0.14758488535881034
2023-01-28 14:10:40.488367,0.15460896950170047
2023-01-28 14:10:40.493367,0.15953302383422846
2023-01-28 14:10:40.498367,0.16211638097982564
2023-01-28 14:10:40.503367,0.16224960982799524
2023-01-28 14:10:40.508367,0.15996944293567059
2023-01-28 14:10:40.513367,0.15525381267070762
2023-01-28 14:10:40.518367,0.14790365148651688
2023-01-28 14:10:40.523367,0.13772825896739943
2023-01-28 14:10:40.528367,0.12477890246525711
2023-01-28 14:10:40.533367,0.10938446223735795
2023-01-28 14:10:40.538367,0.09213998820853195
2023-01-28 14:10:40.543367,0.07397274672985063
2023-01-28 14:10:40.548367,0.05606218132697523
2023-01-28 14:10:40.553367,0.03949860855936998
2023-01-28 14:10:40.558367,0.02499020026337273
2023-01-28 14:10:40.563367,0.012861689552664708
2023-01-28 14:10:40.568367,0.003150007731689262
2023-01-28 14:10:40.573367,-0.004399418830871478
2023-01-28 14:10:40.578367,-0.01027395690997836
2023-01-28 14:10:40.583367,-0.014953216537833214
2023-01-28 14:10:40.588367,-0.018726985398672197
2023-01-28 14:10:40.593367,-0.02175668999552719
2023-01-28 14:10:40.598367,-0.024184800835712127
2023-01-28 14:10:40.603367,-0.026108026504516588
2023-01-28 14:10:40.608367,-0.027558362646942773
2023-01-28 14:10:40.613367,-0.02860824391245841
2023-01-28 14:10:40.618367,-0.029419332301451655
2023-01-28 14:10:40.623367,-0.030122797936200967
2023-01-28 14:10:40.628367,-0.030732974398221983
2023-01-28 14:10:40.633367,-0.03122866153717036
2023-01-28 14:10:40.638367,-0.03161747513339607
2023-01-28 14:10:40.643367,-0.03185371682047839
2023-01-28 14:10:40.648367,-0.03179019989171942
2023-01-28 14:10:40.653367,-0.031300783157348515
2023-01-28 14:10:40.658367,-0.03041021963775565
2023-01-28 14:10:40.663367,-0.029281377792358256
2023-01-28 14:10:40.668367,-0.02815976348123243
2023-01-28 14:10:40.673367,-0.027358135208487462
2023-01-28 14:10:40.678367,-0.027171688044684464
2023-01-28 14:10:40.683367,-0.027694702148437503
2023-01-28 14:10:40.688367,-0.02873295190973329
2023-01-28 14:10:40.693367,-0.029930472373962364
2023-01-28 14:10:40.698367,-0.030970032837742686
2023-01-28 14:10:40.703367,-0.03168543428182595
2023-01-28 14:10:40.708367,-0.03208944473541769
2023-01-28 14:10:40.713367,-0.0323585681617258
2023-01-28 14:10:40.718367,-0.03275972019827251
2023-01-28 14:10:40.723367,-0.03353655338287346
2023-01-28 14:10:40.728367,-0.034814227737520145
2023-01-28 14:10:40.733367,-0.036541622132062836
2023-01-28 14:10:40.738367,-0.03848530116714688
2023-01-28 14:10:40.743367,-0.040315985679626395
2023-01-28 14:10:40.748367,-0.041745096081992686
2023-01-28 14:10:40.753367,-0.04259983822703356
2023-01-28 14:10:40.758367,-0.04285290032794173
2023-01-28 14:10:40.763367,-0.042695999145507764
2023-01-28 14:10:40.768367,-0.04254349371215802
2023-01-28 14:10:40.773367,-0.04279216378927231
2023-01-28 14:10:40.778367,-0.04353485871056882
2023-01-28 14:10:40.783367,-0.04459520429372775
2023-01-28 14:10:40.788367,-0.045775687664288967
2023-01-28 14:10:40.793367,-0.046903096139430805
2023-01-28 14:10:40.798367,-0.047732215399049815
2023-01-28 14:10:40.803367,-0.048081081360578495
2023-01-28 14:10:40.808367,-0.04798482618421662
2023-01-28 14:10:40.813367,-0.04735986515879627
2023-01-28 14:10:40.818367,-0.045550710133109455
2023-01-28 14:10:40.823367,-0.04161417484283438
2023-01-28 14:10:40.828367,-0.03504831975901174
2023-01-28 14:10:40.833367,-0.025867622345685844
2023-01-28 14:10:40.838367,-0.014229466616843685
2023-01-28 14:10:40.843367,-0.0008895000210030967
2023-01-28 14:10:40.848367,0.011889088671381018
2023-01-28 14:10:40.853367,0.02098739147186265
2023-01-28 14:10:40.858367,0.024614988245656107
2023-01-28 14:10:40.863367,0.023127000778913432
2023-01-28 14:10:40.868367,0.01726634289423095
2023-01-28 14:10:40.873367,0.006779432296752897
2023-01-28 14:10:40.878367,-0.008129792755946861
2023-01-28 14:10:40.883367,-0.024881958961486757
2023-01-28 14:10:40.888367,-0.039658579703667526
2023-01-28 14:10:40.893367,-0.050388973206281565
2023-01-28 14:10:40.898367,-0.05754705627337795
2023-01-28 14:10:40.903367,-0.06224095821380606
2023-01-28 14:10:40.908367,-0.06474261611066931
2023-01-28 14:10:40.913367,-0.06469309329986567
2023-01-28 14:10:40.918367,-0.06106834890488009
2023-01-28 14:10:40.923367,-0.05135059356689449
2023-01-28 14:10:40.928367,-0.0320957872783849
2023-01-28 14:10:40.933367,-0.0016587972640991304
2023-01-28 14:10:40.938367,0.03743243889710567
2023-01-28 14:10:40.943367,0.07854044437408438
2023-01-28 14:10:40.948367,0.11266530422776981
2023-01-28 14:10:40.953367,0.13073246181011192
2023-01-28 14:10:40.958367,0.12661501706455525
2023-01-28 14:10:40.963367,0.10022501647472377
2023-01-28 14:10:40.968367,0.058201483301745134
2023-01-28 14:10:40.973367,0.011082689277827682
2023-01-28 14:10:40.978367,-0.03088943053070801
2023-01-28 14:10:40.983367,-0.060726404190063435
2023-01-28 14:10:40.988367,-0.07597931794986078
2023-01-28 14:10:40.993367,-0.07873277366161335
2023-01-28 14:10:40.998367,-0.07396699510578011
2023-01-28 14:10:41.003367,-0.06671249866485587
2023-01-28 14:10:41.008367,-0.060035606542835386
2023-01-28 14:10:41.013367,-0.055076878517866086
2023-01-28 14:10:41.018367,-0.051948849876122825
2023-01-28 14:10:41.023367,-0.05010048672556873
2023-01-28 14:10:41.028367,-0.048550980143905326
2023-01-28 14:10:41.033367,-0.04661460965871813
2023-01-28 14:10:41.038367,-0.0443395870435293
2023-01-28 14:10:41.043367,-0.042022865265607785
2023-01-28 14:10:41.048367,-0.03971248245818229
2023-01-28 14:10:41.053367,-0.037479203194379765
2023-01-28 14:10:41.058367,-0.0356489184960327
2023-01-28 14:10:41.063367,-0.03428181260824201
2023-01-28 14:10:41.068367,-0.03278334451524497
2023-01-28 14:10:41.073367,-0.030459364876150998
2023-01-28 14:10:41.078367,-0.027169163486303136
2023-01-28 14:10:41.083367,-0.02315104007720942
2023-01-28 14:10:41.088367,-0.018642064860312325
2023-01-28 14:10:41.093367,-0.014039675705134817
2023-01-28 14:10:41.098367,-0.009970000904633528
2023-01-28 14:10:41.103367,-0.006659229751676296
2023-01-28 14:10:41.108367,-0.0034649741967300446
2023-01-28 14:10:41.113367,0.000625054060947137
2023-01-28 14:10:41.118367,0.006297664726949186
2023-01-28 14:10:41.123367,0.013919472694396902
2023-01-28 14:10:41.128367,0.023697935739410897
2023-01-28 14:10:41.133367,0.035339593887329095
2023-01-28 14:10:41.138367,0.047883689619561035
2023-01-28 14:10:41.143367,0.06034175679087631
2023-01-28 14:10:41.148367,0.07229622110389843
2023-01-28 14:10:41.153367,0.0836130008101463
2023-01-28 14:10:41.158367,0.09398131628599839
2023-01-28 14:10:41.163367,0.10313391685485826
2023-01-28 14:10:41.168367,0.11113320928078038
2023-01-28 14:10:41.173367,0.11796693503856648
2023-01-28 14:10:41.178367,0.12312298415727256
2023-01-28 14:10:41.183367,0.12592434883117667
2023-01-28 14:10:41.188367,0.1259622409041271
2023-01-28 14:10:41.193367,0.12284716218709937
2023-01-28 14:10:41.198367,0.11594915379583702
2023-01-28 14:10:41.203367,0.10491292178630814
2023-01-28 14:10:41.208367,0.09022745181871043
2023-01-28 14:10:41.213367,0.0729390010237693
2023-01-28 14:10:41.218367,0.054091819316404416
2023-01-28 14:10:41.223367,0.034762620925903265
2023-01-28 14:10:41.228367,0.0161901388971067
2023-01-28 14:10:41.233367,-0.0006971756811253193
2023-01-28 14:10:41.238367,-0.015693558693000247
2023-01-28 14:10:41.243367,-0.028896730393171272
2023-01-28 14:10:41.248367,-0.04016618378319465
2023-01-28 14:10:41.253367,-0.04935523122549052
2023-01-28 14:10:41.258367,-0.05671483716639376
2023-01-28 14:10:41.263367,-0.06260156631469718
2023-01-28 14:10:41.268367,-0.06705678814410317
2023-01-28 14:10:41.273367,-0.07007817924022669
2023-01-28 14:10:41.278367,-0.07199630133961275
2023-01-28 14:10:41.283367,-0.073155365884304
2023-01-28 14:10:41.288367,-0.07352831975031267
2023-01-28 14:10:41.293367,-0.07308324426412574
2023-01-28 14:10:41.298367,-0.07222769239761388
2023-01-28 14:10:41.303367,-0.07144849002361295
2023-01-28 14:10:41.308367,-0.07079911812299741
2023-01-28 14:10:41.313367,-0.07015030086040487
2023-01-28 14:10:41.318367,-0.06959898588767645
2023-01-28 14:10:41.323367,-0.06916463375091547
2023-01-28 14:10:41.328367,-0.06842457903868267
2023-01-28 14:10:41.333367,-0.06697694957256306
2023-01-28 14:10:41.338367,-0.06502376719942513
2023-01-28 14:10:41.343367,-0.06308238208293904
2023-01-28 14:10:41.348367,-0.061451591645235205
2023-01-28 14:10:41.353367,-0.060389839112758636
2023-01-28 14:10:41.358367,-0.06038510377713263
2023-01-28 14:10:41.363367,-0.06163994595408429
2023-01-28 14:10:41.368367,-0.0635628143677551
2023-01-28 14:10:41.373367,-0.06529410928487772
2023-01-28 14:10:41.378367,-0.06646992718172959
2023-01-28 14:10:41.383367,-0.06704907119274124
2023-01-28 14:10:41.388367,-0.06685217432868537
2023-01-28 14:10:41.393367,-0.06589512526988978
2023-01-28 14:10:41.398367,-0.06480421872066387
2023-01-28 14:10:41.403367,-0.06423632800579068
2023-01-28 14:10:41.408367,-0.0641572505189172
2023-01-28 14:10:41.413367,-0.06423632800579068
2023-01-28 14:10:41.418367,-0.06455136154169759
2023-01-28 14:10:41.423367,-0.06527006626129145
2023-01-28 14:10:41.428367,-0.06606983685607817
2023-01-28 14:10:41.433367,-0.06661634147167197
2023-01-28 14:10:41.438367,-0.06723321685820371
2023-01-28 14:10:41.443367,-0.06832321733236307
2023-01-28 14:10:41.448367,-0.06949951285054438
2023-01-28 14:10:41.453367,-0.07010221481323231
2023-01-28 14:10:41.458367,-0.07019247252156102
2023-01-28 14:10:41.463367,-0.07017433643341062
2023-01-28 14:10:41.468367,-0.06987613305157743
2023-01-28 14:10:41.473367,-0.06904443353414529
2023-01-28 14:10:41.478367,-0.06837274267686883
2023-01-28 14:10:41.483367,-0.06885211169719686
2023-01-28 14:10:41.488367,-0.07029045534597135
2023-01-28 14:10:41.493367,-0.07156869024038313
2023-01-28 14:10:41.498367,-0.07201518494664418
2023-01-28 14:10:41.503367,-0.07116000354289995
2023-01-28 14:10:41.508367,-0.06747432865612457
2023-01-28 14:10:41.513367,-0.059283971786498926
2023-01-28 14:10:41.518367,-0.047308813339286784
2023-01-28 14:10:41.523367,-0.03459433838725092
2023-01-28 14:10:41.528367,-0.023326557235548905
2023-01-28 14:10:41.533367,-0.013366540893912315
2023-01-28 14:10:41.538367,-0.004779928826792523
2023-01-28 14:10:41.543367,-4.808108133138944e-05
2023-01-28 14:10:41.548367,-0.002117157798128602
2023-01-28 14:10:41.553367,-0.011130770668387364
2023-01-28 14:10:41.558367,-0.024482498775224976
2023-01-28 14:10:41.563367,-0.039402447640895816
2023-01-28 14:10:41.568367,-0.054127620083386244
2023-01-28 14:10:41.573367,-0.06716927140951151
2023-01-28 14:10:41.578367,-0.07725925282294527
2023-01-28 14:10:41.583367,-0.08433421701192857
2023-01-28 14:10:41.588367,-0.08938496664373267
2023-01-28 14:10:41.593367,-0.09277244657278061
2023-01-28 14:10:41.598367,-0.09307119965739481
2023-01-28 14:10:41.603367,-0.0874594897031784
2023-01-28 14:10:41.608367,-0.07267570249023282
2023-01-28 14:10:41.613367,-0.04608571529388413
2023-01-28 14:10:41.618367,-0.007483339647174375
2023-01-28 14:10:41.623367,0.038921635597944204
2023-01-28 14:10:41.628367,0.0843107461705741
2023-01-28 14:10:41.633367,0.11772652715444556
2023-01-28 14:10:41.638367,0.12989855976264916
2023-01-28 14:10:41.643367,0.11664470285177223
2023-01-28 14:10:41.648367,0.08074425397219134
2023-01-28 14:10:41.653367,0.03139694780111315
2023-01-28 14:10:41.658367,-0.019093473894942103
2023-01-28 14:10:41.663367,-0.060029231011867495
2023-01-28 14:10:41.668367,-0.08581471946247421
2023-01-28 14:10:41.673367,-0.09666701406240459
2023-01-28 14:10:41.678367,-0.09696888321185558
2023-01-28 14:10:41.683367,-0.09255608171224591
2023-01-28 14:10:41.688367,-0.0881065737754313
2023-01-28 14:10:41.693367,-0.08568048477172842
2023-01-28 14:10:41.698367,-0.08498307605196372
2023-01-28 14:10:41.703367,-0.08474290370941157
2023-01-28 14:10:41.708367,-0.08390954527343915
2023-01-28 14:10:41.713367,-0.08205036818981166
2023-01-28 14:10:41.718367,-0.07926820081771345
2023-01-28 14:10:41.723367,-0.07599215209484098
2023-01-28 14:10:41.728367,-0.07266522798713006
2023-01-28 14:10:41.733367,-0.0694771632552146
2023-01-28 14:10:41.738367,-0.06639980857037212
2023-01-28 14:10:41.743367,-0.06339490413665771
2023-01-28 14:10:41.748367,-0.060440309305946495
2023-01-28 14:10:41.753367,-0.05740880966186518
2023-01-28 14:10:41.758367,-0.054099599885170914
2023-01-28 14:10:41.763367,-0.050388973206281586
2023-01-28 14:10:41.768367,-0.046230287864187876
2023-01-28 14:10:41.773367,-0.04154205322265621
2023-01-28 14:10:41.778367,-0.036223357516127104
2023-01-28 14:10:41.783367,-0.030243000015616396
2023-01-28 14:10:41.788367,-0.02359658815041587
2023-01-28 14:10:41.793367,-0.016227364540100032
2023-01-28 14:10:41.798367,-0.008115548237130857
2023-01-28 14:10:41.803367,0.0006010135402901634
2023-01-28 14:10:41.808367,0.009723416328827028
2023-01-28 14:10:41.813367,0.019184350967407185
2023-01-28 14:10:41.818367,0.02906002542350141
2023-01-28 14:10:41.823367,0.03945052623748767
2023-01-28 14:10:41.828367,0.05042989277548026
2023-01-28 14:10:41.833367,0.06200055405497544
2023-01-28 14:10:41.838367,0.07391783294327159
2023-01-28 14:10:41.843367,0.08556028455495826
2023-01-28 14:10:41.848367,0.09607368671107136
2023-01-28 14:10:41.853367,0.10464847087860098
2023-01-28 14:10:41.858367,0.1106590349439294
2023-01-28 14:10:41.863367,0.11368771642446503
2023-01-28 14:10:41.868367,0.11356989528038634
2023-01-28 14:10:41.873367,0.11037012189626676
2023-01-28 14:10:41.878367,0.10419606785569749
2023-01-28 14:10:41.883367,0.09505629539489735
2023-01-28 14:10:41.888367,0.08296483250481351
2023-01-28 14:10:41.893367,0.0681308954954147
2023-01-28 14:10:41.898367,0.050993167327749694
2023-01-28 14:10:41.903367,0.03216624259948726
2023-01-28 14:10:41.908367,0.012447923703312203
2023-01-28 14:10:41.913367,-0.007212162017822189
2023-01-28 14:10:41.918367,-0.025892784302594507
2023-01-28 14:10:41.923367,-0.0428642854094505
2023-01-28 14:10:41.928367,-0.05757926092451381
2023-01-28 14:10:41.933367,-0.06964544951915738
2023-01-28 14:10:41.938367,-0.07894001108677554
2023-01-28 14:10:41.943367,-0.08570452779531469
2023-01-28 14:10:41.948367,-0.09043435189364846
2023-01-28 14:10:41.953367,-0.09368598461151115
2023-01-28 14:10:41.958367,-0.09597687020982285
2023-01-28 14:10:41.963367,-0.09770075976848602
2023-01-28 14:10:41.968367,-0.09898529666005731
2023-01-28 14:10:41.973367,-0.09967207908630371
2023-01-28 14:10:41.978367,-0.09953575303405231
2023-01-28 14:10:41.983367,-0.09851813316345207
2023-01-28 14:10:41.988367,-0.09675459830003562
2023-01-28 14:10:41.993367,-0.09450336545705787
2023-01-28 14:10:41.998367,-0.09213233666172195
2023-01-28 14:10:42.003367,-0.09005586802959444
2023-01-28 14:10:42.008367,-0.0885331042370304
2023-01-28 14:10:42.013367,-0.08753161132335659
2023-01-28 14:10:42.018367,-0.08682607203284759
2023-01-28 14:10:42.023367,-0.08616130053997031
2023-01-28 14:10:42.028367,-0.08528943228841254
2023-01-28 14:10:42.033367,-0.08399765193462373
2023-01-28 14:10:42.038367,-0.0822483658638594
2023-01-28 14:10:42.043367,-0.0802473276853561
2023-01-28 14:10:42.048367,-0.07827643942988093
2023-01-28 14:10:42.053367,-0.07649700343608849
2023-01-28 14:10:42.058367,-0.0749683714188523
2023-01-28 14:10:42.063367,-0.07375638186931611
2023-01-28 14:10:42.068367,-0.07290493366701928
2023-01-28 14:10:42.073367,-0.0723620280623435
2023-01-28 14:10:42.078367,-0.07205120328735176
2023-01-28 14:10:42.083367,-0.07197737693786617
2023-01-28 14:10:42.088367,-0.07215773475509743
2023-01-28 14:10:42.093367,-0.07248222827911371
2023-01-28 14:10:42.098367,-0.07274547204671739
2023-01-28 14:10:42.103367,-0.0727947577834129
2023-01-28 14:10:42.108367,-0.07256219487921448
2023-01-28 14:10:42.113367,-0.07200141996145239
2023-01-28 14:10:42.118367,-0.07112831456062463
2023-01-28 14:10:42.123367,-0.07012625783681858
2023-01-28 14:10:42.128367,-0.06928342860805808
2023-01-28 14:10:42.133367,-0.06877999007701871
2023-01-28 14:10:42.138367,-0.06860965948376446
2023-01-28 14:10:42.143367,-0.06870786845684047
2023-01-28 14:10:42.148367,-0.0690113383683101
2023-01-28 14:10:42.153367,-0.06930887699127193
2023-01-28 14:10:42.158367,-0.06917111968460374
2023-01-28 14:10:42.163367,-0.0682270526885986
2023-01-28 14:10:42.168367,-0.06652086412703831
2023-01-28 14:10:42.173367,-0.0644526928663253
2023-01-28 14:10:42.178367,-0.062339339371572974
2023-01-28 14:10:42.183367,-0.060197513550519874
2023-01-28 14:10:42.188367,-0.05804235126064718
2023-01-28 14:10:42.193367,-0.056182742118835394
2023-01-28 14:10:42.198367,-0.0549255407788053
2023-01-28 14:10:42.203367,-0.053971014916896765
2023-01-28 14:10:42.208367,-0.05230253009570996
2023-01-28 14:10:42.213367,-0.04873017594218253
2023-01-28 14:10:42.218367,-0.042435620295438084
2023-01-28 14:10:42.223367,-0.03310382366180407
2023-01-28 14:10:42.228367,-0.02098251210169937
2023-01-28 14:10:42.233367,-0.007164081092923822
2023-01-28 14:10:42.238367,0.006299114493434965
2023-01-28 14:10:42.243367,0.016876459121704126
2023-01-28 14:10:42.248367,0.022363473034242652
2023-01-28 14:10:42.253367,0.021468203514814335
2023-01-28 14:10:42.258367,0.014114807670245587
2023-01-28 14:10:42.263367,0.0016107162227853565
2023-01-28 14:10:42.268367,-0.013554848445463246
2023-01-28 14:10:42.273367,-0.028536122292280138
2023-01-28 14:10:42.278367,-0.04117991174743302
2023-01-28 14:10:42.283367,-0.0505812987685203
2023-01-28 14:10:42.288367,-0.056955447868388125
2023-01-28 14:10:42.293367,-0.06111105531454082
2023-01-28 14:10:42.298367,-0.06365721031648705
2023-01-28 14:10:42.303367,-0.064019963145256
2023-01-28 14:10:42.308367,-0.059833723213929685
2023-01-28 14:10:42.313367,-0.047456026077270515
2023-01-28 14:10:42.318367,-0.023643206153374903
2023-01-28 14:10:42.323367,0.012380878441035685
2023-01-28 14:10:42.328367,0.05735458161428981
2023-01-28 14:10:42.333367,0.10363876819610586
2023-01-28 14:10:42.338367,0.14074630867409801
2023-01-28 14:10:42.343367,0.158739686012268
2023-01-28 14:10:42.348367,0.15216447989610435
2023-01-28 14:10:42.353367,0.1224384754896163
2023-01-28 14:10:42.358367,0.07743341537463325
2023-01-28 14:10:42.363367,0.028560161590576085
2023-01-28 14:10:42.368367,-0.013298971855281966
2023-01-28 14:10:42.373367,-0.0413497313857078
2023-01-28 14:10:42.378367,-0.05443198291129191
2023-01-28 14:10:42.383367,-0.05596637725830066
2023-01-28 14:10:42.388367,-0.05124217625716585
2023-01-28 14:10:42.393367,-0.0448356084525585
2023-01-28 14:10:42.398367,-0.03932026710967485
2023-01-28 14:10:42.403367,-0.03526747226715082
2023-01-28 14:10:42.408367,-0.0320306929223406
2023-01-28 14:10:42.413367,-0.028800567612051898
2023-01-28 14:10:42.418367,-0.0253393082289087
2023-01-28 14:10:42.423367,-0.021973054856061887
2023-01-28 14:10:42.428367,-0.019103768321586223
2023-01-28 14:10:42.433367,-0.016900500282645222
2023-01-28 14:10:42.438367,-0.01535312071876405
2023-01-28 14:10:42.443367,-0.014328162185847721
2023-01-28 14:10:42.448367,-0.013493138309885815
2023-01-28 14:10:42.453367,-0.012380878441035704
2023-01-28 14:10:42.458367,-0.010636865751067303
2023-01-28 14:10:42.463367,-0.008125702850520574
2023-01-28 14:10:42.468367,-0.004817355892390992
2023-01-28 14:10:42.473367,-0.0007452567806467318
2023-01-28 14:10:42.478367,0.003902279006869501
2023-01-28 14:10:42.483367,0.008846919052302806
2023-01-28 14:10:42.488367,0.013976664749538664
2023-01-28 14:10:42.493367,0.019448798149824063
2023-01-28 14:10:42.498367,0.025531634961616503
2023-01-28 14:10:42.503367,0.03247877210378644
2023-01-28 14:10:42.508367,0.040548588268934885
2023-01-28 14:10:42.513367,0.049932204186916296
2023-01-28 14:10:42.518367,0.06055146083230467
2023-01-28 14:10:42.523367,0.0720254629850387
2023-01-28 14:10:42.528367,0.08388033366729972
2023-01-28 14:10:42.533367,0.09570538997650138
2023-01-28 14:10:42.538367,0.10713860203109193
2023-01-28 14:10:42.543367,0.11789481341838827
2023-01-28 14:10:42.548367,0.1278598401689506
2023-01-28 14:10:42.553367,0.13698300719261164
2023-01-28 14:10:42.558367,0.14497472996178942
2023-01-28 14:10:42.563367,0.15119096636772145
