2023-01-28 15:58:30.024913,0.4199882447719572
2023-01-28 15:58:30.029913,0.502154582829199
2023-01-28 15:58:30.034913,0.4328499436378481
2023-01-28 15:58:30.039913,0.392624597438915
2023-01-28 15:58:30.044913,0.431816190481186
2023-01-28 15:58:30.049913,0.4541325784027951
2023-01-28 15:58:30.054913,0.4151560962200165
2023-01-28 15:58:30.059913,0.3814428650508879
2023-01-28 15:58:30.064913,0.39318305253982544
2023-01-28 15:58:30.069913,0.4029600396546068
2023-01-28 15:58:30.074913,0.378638505935669
2023-01-28 15:58:30.079913,0.35987369920209056
2023-01-28 15:58:30.084913,0.37512859702110307
2023-01-28 15:58:30.089913,0.38918212103915445
2023-01-28 15:58:30.094913,0.3730611205101013
2023-01-28 15:58:30.099913,0.35423510588766255
2023-01-28 15:58:30.104913,0.3575068712234497
2023-01-28 15:58:30.109913,0.3589261609858149
2023-01-28 15:58:30.114913,0.3408227562904357
2023-01-28 15:58:30.119913,0.3395671271592988
2023-01-28 15:58:30.124913,0.39421677589416504
2023-01-28 15:58:30.129913,0.4888496448827567
2023-01-28 15:58:30.134913,0.5865411162376402
2023-01-28 15:58:30.139913,0.6847436516201482
2023-01-28 15:58:30.144913,0.7950447201728819
2023-01-28 15:58:30.149913,0.8944003155232776
2023-01-28 15:58:30.154913,0.9370521903038022
2023-01-28 15:58:30.159913,0.9014281575192826
2023-01-28 15:58:30.164913,0.7983623147010803
2023-01-28 15:58:30.169913,0.6498559910466662
2023-01-28 15:58:30.174913,0.48593145608901966
2023-01-28 15:58:30.179913,0.3474348964793756
2023-01-28 15:58:30.184913,0.2646382749080657
2023-01-28 15:58:30.189913,0.23733966696784295
2023-01-28 15:58:30.194913,0.24850706756114951
2023-01-28 15:58:30.199913,0.28506499587320083
2023-01-28 15:58:30.204913,0.3337548375129699
2023-01-28 15:58:30.209913,0.374365301034446
2023-01-28 15:58:30.214913,0.3950822353363037
2023-01-28 15:58:30.219913,0.4036999895133739
2023-01-28 15:58:30.224913,0.41102111339569103
2023-01-28 15:58:30.229913,0.415199816380366
2023-01-28 15:58:30.234913,0.4129924476146698
2023-01-28 15:58:30.239913,0.41172136511177315
2023-01-28 15:58:30.244913,0.41734379529953003
2023-01-28 15:58:30.249913,0.4235259120123137
2023-01-28 15:58:30.254913,0.42441171407699574
2023-01-28 15:58:30.259913,0.42600286753204286
2023-01-28 15:58:30.264913,0.4339557886123657
2023-01-28 15:58:30.269913,0.4424104422753048
2023-01-28 15:58:30.274913,0.4456875920295714
2023-01-28 15:58:30.279913,0.4491304530943903
2023-01-28 15:58:30.284913,0.4579001665115353
2023-01-28 15:58:30.289913,0.4666323503376511
2023-01-28 15:58:30.294913,0.4704012572765347
2023-01-28 15:58:30.299913,0.4747198009720461
2023-01-28 15:58:30.304913,0.4847775101661679
2023-01-28 15:58:30.309913,0.49564047058728283
2023-01-28 15:58:30.314913,0.5027117729187008
2023-01-28 15:58:30.319913,0.5113085020015123
2023-01-28 15:58:30.324913,0.5264638066291807
2023-01-28 15:58:30.329913,0.5434131504011573
2023-01-28 15:58:30.334913,0.557211637496948
2023-01-28 15:58:30.339913,0.571782999837951
2023-01-28 15:58:30.344913,0.5906039476394651
2023-01-28 15:58:30.349913,0.6081914619856618
2023-01-28 15:58:30.354913,0.6195728182792661
2023-01-28 15:58:30.359913,0.6288631400051352
2023-01-28 15:58:30.364913,0.6400553584098811
2023-01-28 15:58:30.369913,0.6484276155027596
2023-01-28 15:58:30.374913,0.6492388248443604
2023-01-28 15:58:30.379913,0.6460043941803741
2023-01-28 15:58:30.384913,0.6421709060668945
2023-01-28 15:58:30.389913,0.6333456848683119
2023-01-28 15:58:30.394913,0.6156782507896421
2023-01-28 15:58:30.399913,0.5935190801034068
2023-01-28 15:58:30.404913,0.5711311101913452
2023-01-28 15:58:30.409913,0.5450643570100201
2023-01-28 15:58:30.414913,0.5122318267822263
2023-01-28 15:58:30.419913,0.4775090202959426
2023-01-28 15:58:30.424913,0.44602414965629567
2023-01-28 15:58:30.429913,0.41572918725932884
2023-01-28 15:58:30.434913,0.3846246004104614
2023-01-28 15:58:30.439913,0.3574543051334351
2023-01-28 15:58:30.444913,0.3380340337753294
2023-01-28 15:58:30.449913,0.32233538139049384
2023-01-28 15:58:30.454913,0.30603608489036555
2023-01-28 15:58:30.459913,0.29170560825585623
2023-01-28 15:58:30.464913,0.28199553489685036
2023-01-28 15:58:30.469913,0.2731099030948576
2023-01-28 15:58:30.474913,0.2617534101009368
2023-01-28 15:58:30.479913,0.2515515747348104
2023-01-28 15:58:30.484913,0.24607896804809554
2023-01-28 15:58:30.489913,0.24232574794260184
2023-01-28 15:58:30.494913,0.23730418086051946
2023-01-28 15:58:30.499913,0.23428000019280035
2023-01-28 15:58:30.504913,0.23617427051067344
2023-01-28 15:58:30.509913,0.23938871901561182
2023-01-28 15:58:30.514913,0.24028520286083227
2023-01-28 15:58:30.519913,0.24132481618945742
2023-01-28 15:58:30.524913,0.24485290050506583
2023-01-28 15:58:30.529913,0.24726586412459717
2023-01-28 15:58:30.534913,0.24533371627330794
2023-01-28 15:58:30.539913,0.24213047779213343
2023-01-28 15:58:30.544913,0.24093429744243622
2023-01-28 15:58:30.549913,0.23934689638466844
2023-01-28 15:58:30.554913,0.23504436016082764
2023-01-28 15:58:30.559913,0.2311886392484818
2023-01-28 15:58:30.564913,0.23042857646942128
2023-01-28 15:58:30.569913,0.22942139395478223
2023-01-28 15:58:30.574913,0.2248511761426925
2023-01-28 15:58:30.579913,0.21916296278002262
2023-01-28 15:58:30.584913,0.21504263579845406
2023-01-28 15:58:30.589913,0.2100349995349113
2023-01-28 15:58:30.594913,0.20198862254619593
2023-01-28 15:58:30.599913,0.1941499659963204
2023-01-28 15:58:30.604913,0.18951158225536324
2023-01-28 15:58:30.609913,0.1855482753029692
2023-01-28 15:58:30.614913,0.17965495586395255
2023-01-28 15:58:30.619913,0.1743378273347556
2023-01-28 15:58:30.624913,0.17196199297904957
2023-01-28 15:58:30.629913,0.16976440995496014
2023-01-28 15:58:30.634913,0.16511043906211853
2023-01-28 15:58:30.639913,0.16043839196035803
2023-01-28 15:58:30.644913,0.15811464190483082
2023-01-28 15:58:30.649913,0.15563196105909377
2023-01-28 15:58:30.654913,0.15073418617248538
2023-01-28 15:58:30.659913,0.14612042743116538
2023-01-28 15:58:30.664913,0.14431536197662342
2023-01-28 15:58:30.669913,0.1429760208877982
2023-01-28 15:58:30.674913,0.13986787199974043
2023-01-28 15:58:30.679913,0.13729095811937309
2023-01-28 15:58:30.684913,0.13700704276561715
2023-01-28 15:58:30.689913,0.1361261222747082
2023-01-28 15:58:30.694913,0.13282398879528046
2023-01-28 15:58:30.699913,0.1309247255701484
2023-01-28 15:58:30.704913,0.13385772705078133
2023-01-28 15:58:30.709913,0.1389768737849525
2023-01-28 15:58:30.714913,0.14265656471252444
2023-01-28 15:58:30.719913,0.1460390797112021
2023-01-28 15:58:30.724913,0.15071015059947945
2023-01-28 15:58:30.729913,0.1534069710808316
2023-01-28 15:58:30.734913,0.1502533853054045
2023-01-28 15:58:30.739913,0.14224337483145616
2023-01-28 15:58:30.744913,0.13193449378013603
2023-01-28 15:58:30.749913,0.11885839343023731
2023-01-28 15:58:30.754913,0.1027252301573752
2023-01-28 15:58:30.759913,0.08703768012499029
2023-01-28 15:58:30.764913,0.07491032779216734
2023-01-28 15:58:30.769913,0.06493781156338549
2023-01-28 15:58:30.774913,0.055124960839748285
2023-01-28 15:58:30.779913,0.04682861397250475
2023-01-28 15:58:30.784913,0.040772758424281914
2023-01-28 15:58:30.789913,0.033345482859118265
2023-01-28 15:58:30.794913,0.02132396027445774
2023-01-28 15:58:30.799913,0.007126468871084569
2023-01-28 15:58:30.804913,-0.0035580000840127655
2023-01-28 15:58:30.809913,-0.004750327648694414
2023-01-28 15:58:30.814913,0.012693405151367207
2023-01-28 15:58:30.819913,0.061199683927194666
2023-01-28 15:58:30.824913,0.14695982635021188
2023-01-28 15:58:30.829913,0.26099065638003704
2023-01-28 15:58:30.834913,0.3813310563564299
2023-01-28 15:58:30.839913,0.48060277591722766
2023-01-28 15:58:30.844913,0.5310795903205867
2023-01-28 15:58:30.849913,0.5118474782009862
2023-01-28 15:58:30.854913,0.4207094609737395
2023-01-28 15:58:30.859913,0.2791841551326253
2023-01-28 15:58:30.864913,0.12229423224926
2023-01-28 15:58:30.869913,-0.01656043511089147
2023-01-28 15:58:30.874913,-0.11339922994375223
2023-01-28 15:58:30.879913,-0.15691807053618795
2023-01-28 15:58:30.884913,-0.1521525830030442
2023-01-28 15:58:30.889913,-0.11816696954199733
2023-01-28 15:58:30.894913,-0.07613639533519737
2023-01-28 15:58:30.899913,-0.03905368463191898
2023-01-28 15:58:30.904913,-0.012380878441035671
2023-01-28 15:58:30.909913,0.0016743293996387932
2023-01-28 15:58:30.914913,0.004856189247220641
2023-01-28 15:58:30.919913,0.0032659283493377037
2023-01-28 15:58:30.924913,0.0018992027034981523
2023-01-28 15:58:30.929913,0.0007887016682947963
2023-01-28 15:58:30.934913,-0.0009616216411813714
2023-01-28 15:58:30.939913,-0.0011813866444515876
2023-01-28 15:58:30.944913,0.0020674865227190745
2023-01-28 15:58:30.949913,0.00699885898139532
2023-01-28 15:58:30.954913,0.01144329737871872
2023-01-28 15:58:30.959913,0.01626032349563881
2023-01-28 15:58:30.964913,0.022189419716596395
2023-01-28 15:58:30.969913,0.0269325162821699
2023-01-28 15:58:30.974913,0.028848648071288854
2023-01-28 15:58:30.979913,0.03021367720203447
2023-01-28 15:58:30.984913,0.033512514084577484
2023-01-28 15:58:30.989913,0.037793577504045175
2023-01-28 15:58:30.994913,0.04183053970336912
2023-01-28 15:58:30.999913,0.04742983477008943
2023-01-28 15:58:31.004913,0.056326985359191686
2023-01-28 15:58:31.009913,0.06714800880256483
2023-01-28 15:58:31.014913,0.07866065204143526
2023-01-28 15:58:31.019913,0.09267788325238778
2023-01-28 15:58:31.024913,0.11044224351644506
2023-01-28 15:58:31.029913,0.12930197316978845
2023-01-28 15:58:31.034913,0.14611840248107885
2023-01-28 15:58:31.039913,0.1608508679123569
2023-01-28 15:58:31.044913,0.17386119067668893
2023-01-28 15:58:31.049913,0.1831092713862146
2023-01-28 15:58:31.054913,0.1872517764568326
2023-01-28 15:58:31.059913,0.1883100857579033
2023-01-28 15:58:31.064913,0.18804511427879322
2023-01-28 15:58:31.069913,0.18466790962257731
2023-01-28 15:58:31.074913,0.17607292532920807
2023-01-28 15:58:31.079913,0.16319186646305525
2023-01-28 15:58:31.084913,0.147224277257919
2023-01-28 15:58:31.089913,0.12680968407570142
2023-01-28 15:58:31.094913,0.10106643289327602
2023-01-28 15:58:31.099913,0.07238530592136408
2023-01-28 15:58:31.104913,0.043200850486755406
2023-01-28 15:58:31.109913,0.012989946972765854
2023-01-28 15:58:31.114913,-0.01865546032786373
2023-01-28 15:58:31.119913,-0.04911108288895847
2023-01-28 15:58:31.124913,-0.07587194442749033
2023-01-28 15:58:31.129913,-0.0996626922249735
2023-01-28 15:58:31.134913,-0.12159705162048325
2023-01-28 15:58:31.139913,-0.14031837252011792
2023-01-28 15:58:31.144913,-0.15484511852264396
2023-01-28 15:58:31.149913,-0.1671779934221474
2023-01-28 15:58:31.154913,-0.17907798290252694
2023-01-28 15:58:31.159913,-0.18912032187294417
2023-01-28 15:58:31.164913,-0.19576212763786308
2023-01-28 15:58:31.169913,-0.20040141271547576
2023-01-28 15:58:31.174913,-0.20460903644561762
2023-01-28 15:58:31.179913,-0.20733206864267628
2023-01-28 15:58:31.184913,-0.20771026611328108
2023-01-28 15:58:31.189913,-0.20770797035015176
2023-01-28 15:58:31.194913,-0.20903250575065613
2023-01-28 15:58:31.199913,-0.21025872236250331
2023-01-28 15:58:31.204913,-0.20980179309844965
2023-01-28 15:58:31.209913,-0.20889202083348443
2023-01-28 15:58:31.214913,-0.20886421203613276
2023-01-28 15:58:31.219913,-0.20845468866311417
2023-01-28 15:58:31.224913,-0.20665249228477478
2023-01-28 15:58:31.229913,-0.20535660490091784
2023-01-28 15:58:31.234913,-0.20631591975688918
2023-01-28 15:58:31.239913,-0.20820755119231632
2023-01-28 15:58:31.244913,-0.20953735709190374
2023-01-28 15:58:31.249913,-0.21157530093278357
2023-01-28 15:58:31.254913,-0.2155474871397018
2023-01-28 15:58:31.259913,-0.21978813932911634
2023-01-28 15:58:31.264913,-0.22268752753734578
2023-01-28 15:58:31.269913,-0.22573450573645762
2023-01-28 15:58:31.274913,-0.23059687018394476
2023-01-28 15:58:31.279913,-0.23581479346843093
2023-01-28 15:58:31.284913,-0.23949186503887168
2023-01-28 15:58:31.289913,-0.2428271730939791
2023-01-28 15:58:31.294913,-0.24790605902671795
2023-01-28 15:58:31.299913,-0.2542145615344054
2023-01-28 15:58:31.304913,-0.2602388560771944
2023-01-28 15:58:31.309913,-0.26632474017272684
2023-01-28 15:58:31.314913,-0.27310055494308494
2023-01-28 15:58:31.319913,-0.27913540579131557
2023-01-28 15:58:31.324913,-0.28290909528732283
2023-01-28 15:58:31.329913,-0.28522317755657967
2023-01-28 15:58:31.334913,-0.2872844636440279
2023-01-28 15:58:31.339913,-0.2884938321160227
2023-01-28 15:58:31.344913,-0.288462460041046
2023-01-28 15:58:31.349913,-0.2889892941190357
2023-01-28 15:58:31.354913,-0.2915877103805543
2023-01-28 15:58:31.359913,-0.2950947636978428
2023-01-28 15:58:31.364913,-0.29793441295623757
2023-01-28 15:58:31.369913,-0.30056191491138995
2023-01-28 15:58:31.374913,-0.30353587865829457
2023-01-28 15:58:31.379913,-0.3055766902673895
2023-01-28 15:58:31.384913,-0.3058918416500092
2023-01-28 15:58:31.389913,-0.3061579961228464
2023-01-28 15:58:31.394913,-0.3078391253948213
2023-01-28 15:58:31.399913,-0.3096376938914348
2023-01-28 15:58:31.404913,-0.30971428751945485
2023-01-28 15:58:31.409913,-0.30818557486748716
2023-01-28 15:58:31.414913,-0.30538699030876143
2023-01-28 15:58:31.419913,-0.300201283295351
2023-01-28 15:58:31.424913,-0.29254934191703785
2023-01-28 15:58:31.429913,-0.2853487832199458
2023-01-28 15:58:31.434913,-0.28168302774429343
2023-01-28 15:58:31.439913,-0.28199974455916765
2023-01-28 15:58:31.444913,-0.2859382033348084
2023-01-28 15:58:31.449913,-0.29436753274694727
2023-01-28 15:58:31.454913,-0.30728620290756203
2023-01-28 15:58:31.459913,-0.32198763210486714
2023-01-28 15:58:31.464913,-0.3356540203094481
2023-01-28 15:58:31.469913,-0.347783689363889
2023-01-28 15:58:31.474913,-0.35818001627922047
2023-01-28 15:58:31.479913,-0.36505882947532375
2023-01-28 15:58:31.484913,-0.3675558269023895
2023-01-28 15:58:31.489913,-0.3680626121177609
2023-01-28 15:58:31.494913,-0.36993584036827076
2023-01-28 15:58:31.499913,-0.37477109567878564
2023-01-28 15:58:31.504913,-0.38330239057540877
2023-01-28 15:58:31.509913,-0.3956795488638862
2023-01-28 15:58:31.514913,-0.4076554477214814
2023-01-28 15:58:31.519913,-0.40826264338756046
2023-01-28 15:58:31.524913,-0.384191870689392
2023-01-28 15:58:31.529913,-0.3265677509656831
2023-01-28 15:58:31.534913,-0.2345635592937469
2023-01-28 15:58:31.539913,-0.11758175833324548
2023-01-28 15:58:31.544913,0.0025963783264159397
2023-01-28 15:58:31.549913,0.09527874635981617
2023-01-28 15:58:31.554913,0.13270378112792952
2023-01-28 15:58:31.559913,0.10216471897753113
2023-01-28 15:58:31.564913,0.009784500114619604
2023-01-28 15:58:31.569913,-0.12274210560887326
2023-01-28 15:58:31.574913,-0.26408535242080666
2023-01-28 15:58:31.579913,-0.38262265984708377
2023-01-28 15:58:31.584913,-0.4582367539405821
2023-01-28 15:58:31.589913,-0.4884595617701408
2023-01-28 15:58:31.594913,-0.4840322434902191
2023-01-28 15:58:31.599913,-0.4602316857255082
2023-01-28 15:58:31.604913,-0.43162387609481795
2023-01-28 15:58:31.609913,-0.4092098040408603
2023-01-28 15:58:31.614913,-0.39724588394165017
2023-01-28 15:58:31.619913,-0.39310474364777837
2023-01-28 15:58:31.624913,-0.3922214210033415
2023-01-28 15:58:31.629913,-0.39230424374055883
2023-01-28 15:58:31.634913,-0.39224547147750854
2023-01-28 15:58:31.639913,-0.39014889866832714
2023-01-28 15:58:31.644913,-0.38498520851135254
2023-01-28 15:58:31.649913,-0.37819984466874385
2023-01-28 15:58:31.654913,-0.3714984655380249
2023-01-28 15:58:31.659913,-0.3647643983409156
2023-01-28 15:58:31.664913,-0.3578194081783293
2023-01-28 15:58:31.669913,-0.3520212618455451
2023-01-28 15:58:31.674913,-0.3481070399284363
2023-01-28 15:58:31.679913,-0.34447185913839484
2023-01-28 15:58:31.684913,-0.33954858779907215
2023-01-28 15:58:31.689913,-0.33398439730436613
2023-01-28 15:58:31.694913,-0.32868227362632746
2023-01-28 15:58:31.699913,-0.32275099272577307
2023-01-28 15:58:31.704913,-0.3152436017990111
2023-01-28 15:58:31.709913,-0.3068557581920463
2023-01-28 15:58:31.714913,-0.298006534576416
2023-01-28 15:58:31.719913,-0.2872778645687571
2023-01-28 15:58:31.724913,-0.273701548576355
2023-01-28 15:58:31.729913,-0.25868646057777533
2023-01-28 15:58:31.734913,-0.24386724829673767
2023-01-28 15:58:31.739913,-0.2289863757945709
2023-01-28 15:58:31.744913,-0.2136482894420622
2023-01-28 15:58:31.749913,-0.19910375216783927
2023-01-28 15:58:31.754913,-0.1864343881607056
2023-01-28 15:58:31.759913,-0.17496942428345816
2023-01-28 15:58:31.764913,-0.16438922286033628
2023-01-28 15:58:31.769913,-0.1565049550669722
2023-01-28 15:58:31.774913,-0.15316228568553905
2023-01-28 15:58:31.779913,-0.15426165024148403
2023-01-28 15:58:31.784913,-0.159508988261223
2023-01-28 15:58:31.789913,-0.17003372148251913
2023-01-28 15:58:31.794913,-0.18638631701469435
2023-01-28 15:58:31.799913,-0.20683945497330905
2023-01-28 15:58:31.804913,-0.22949099540710427
2023-01-28 15:58:31.809913,-0.25422686410233974
2023-01-28 15:58:31.814913,-0.2809618115425109
2023-01-28 15:58:31.819913,-0.30794640222225206
2023-01-28 15:58:31.824913,-0.3336105942726134
2023-01-28 15:58:31.829913,-0.3581892405633622
2023-01-28 15:58:31.834913,-0.38178783655166626
2023-01-28 15:58:31.839913,-0.40274272133978833
2023-01-28 15:58:31.844913,-0.4196516871452328
2023-01-28 15:58:31.849913,-0.433214761216168
2023-01-28 15:58:31.854913,-0.44443747401237477
2023-01-28 15:58:31.859913,-0.45290451347587063
2023-01-28 15:58:31.864913,-0.4584531188011166
2023-01-28 15:58:31.869913,-0.462591318830652
2023-01-28 15:58:31.874913,-0.466506689786911
2023-01-28 15:58:31.879913,-0.4694374482056132
2023-01-28 15:58:31.884913,-0.4705695509910582
2023-01-28 15:58:31.889913,-0.47070323424094973
2023-01-28 15:58:31.894913,-0.47056955099105824
2023-01-28 15:58:31.899913,-0.4694761838824696
2023-01-28 15:58:31.904913,-0.4671557843685149
2023-01-28 15:58:31.909913,-0.46496329590522106
2023-01-28 15:58:31.914913,-0.46369394659996044
2023-01-28 15:58:31.919913,-0.462211233996843
2023-01-28 15:58:31.924913,-0.4597513079643248
2023-01-28 15:58:31.929913,-0.4575122169134382
2023-01-28 15:58:31.934913,-0.4564096629619597
2023-01-28 15:58:31.939913,-0.455404547983231
2023-01-28 15:58:31.944913,-0.45371711254119873
2023-01-28 15:58:31.949913,-0.4525787633579205
2023-01-28 15:58:31.954913,-0.45304399728775024
2023-01-28 15:58:31.959913,-0.45408831259885024
2023-01-28 15:58:31.964913,-0.45458257198333707
2023-01-28 15:58:31.969913,-0.4551271374645415
2023-01-28 15:58:31.974913,-0.45621734857559204
2023-01-28 15:58:31.979913,-0.45665462602147894
2023-01-28 15:58:31.984913,-0.4556163251399993
2023-01-28 15:58:31.989913,-0.45439870841719
2023-01-28 15:58:31.994913,-0.4543421864509579
2023-01-28 15:58:31.999913,-0.4548723196956233
2023-01-28 15:58:32.004913,-0.4552316665649413
2023-01-28 15:58:32.009913,-0.4561754787761739
2023-01-28 15:58:32.014913,-0.45821270346641524
2023-01-28 15:58:32.019913,-0.4601049342002866
2023-01-28 15:58:32.024913,-0.4609052538871764
2023-01-28 15:58:32.029913,-0.46167064575370914
2023-01-28 15:58:32.034913,-0.4634535312652586
2023-01-28 15:58:32.039913,-0.4654167167742568
2023-01-28 15:58:32.044913,-0.4665788114070889
2023-01-28 15:58:32.049913,-0.46753588573506216
2023-01-28 15:58:32.054913,-0.4687665104866026
2023-01-28 15:58:32.059913,-0.4691287913447225
2023-01-28 15:58:32.064913,-0.46780487895011885
2023-01-28 15:58:32.069913,-0.46595898225169585
2023-01-28 15:58:32.074913,-0.46477577090263344
2023-01-28 15:58:32.079913,-0.46360012024867076
2023-01-28 15:58:32.084913,-0.4616024196147917
2023-01-28 15:58:32.089913,-0.45942599222900343
2023-01-28 15:58:32.094913,-0.4575395584106442
2023-01-28 15:58:32.099913,-0.45484582207815527
2023-01-28 15:58:32.104913,-0.4506880044937132
2023-01-28 15:58:32.109913,-0.44649335937470896
2023-01-28 15:58:32.114913,-0.44371625781059254
2023-01-28 15:58:32.119913,-0.4417827297182739
2023-01-28 15:58:32.124913,-0.43955725431442244
2023-01-28 15:58:32.129913,-0.43700044593610116
2023-01-28 15:58:32.134913,-0.4338115453720094
2023-01-28 15:58:32.139913,-0.42841385082250705
2023-01-28 15:58:32.144913,-0.4202046096324921
2023-01-28 15:58:32.149913,-0.4112813371396904
2023-01-28 15:58:32.154913,-0.40436190366744995
2023-01-28 15:58:32.159913,-0.4005644729177005
2023-01-28 15:58:32.164913,-0.4005154073238371
2023-01-28 15:58:32.169913,-0.4055156902693085
2023-01-28 15:58:32.174913,-0.41568499803543074
2023-01-28 15:58:32.179913,-0.42855720749580745
2023-01-28 15:58:32.184913,-0.44121605157852156
2023-01-28 15:58:32.189913,-0.45238579853710503
2023-01-28 15:58:32.194913,-0.46121776103973366
2023-01-28 15:58:32.199913,-0.4661665063120713
2023-01-28 15:58:32.204913,-0.4670355916023251
2023-01-28 15:58:32.209913,-0.46661015098492725
2023-01-28 15:58:32.214913,-0.46852609515190125
2023-01-28 15:58:32.219913,-0.4746206792906912
2023-01-28 15:58:32.224913,-0.48492175340652455
2023-01-28 15:58:32.229913,-0.49731096077430204
2023-01-28 15:58:32.234913,-0.5046830773353574
2023-01-28 15:58:32.239913,-0.49415855233315875
2023-01-28 15:58:32.244913,-0.4521785378456114
2023-01-28 15:58:32.249913,-0.37164172960414343
2023-01-28 15:58:32.254913,-0.2560317516326901
2023-01-28 15:58:32.259913,-0.12098032928424443
2023-01-28 15:58:32.264913,0.0061543784104289515
2023-01-28 15:58:32.269913,0.0925054559054222
2023-01-28 15:58:32.274913,0.11236548423767066
2023-01-28 15:58:32.279913,0.05842836578917002
2023-01-28 15:58:32.284913,-0.05596637725830055
2023-01-28 15:58:32.289913,-0.20236809140239362
2023-01-28 15:58:32.294913,-0.34594339132308943
2023-01-28 15:58:32.299913,-0.4561758393777277
2023-01-28 15:58:32.304913,-0.5173043608665466
2023-01-28 15:58:32.309913,-0.5318780009956893
2023-01-28 15:58:32.314913,-0.5145637392997738
2023-01-28 15:58:32.319913,-0.4826462658272816
2023-01-28 15:58:32.324913,-0.4503273963928221
2023-01-28 15:58:32.329913,-0.4264097368968852
2023-01-28 15:58:32.334913,-0.4128962755203245
2023-01-28 15:58:32.339913,-0.4062860160152424
2023-01-28 15:58:32.344913,-0.40231844782829246
2023-01-28 15:58:32.349913,-0.3993123860112456
2023-01-28 15:58:32.354913,-0.39683720469474776
2023-01-28 15:58:32.359913,-0.39366094393799045
2023-01-28 15:58:32.364913,-0.38878363370895364
2023-01-28 15:58:32.369913,-0.3827326226866829
2023-01-28 15:58:32.374913,-0.376114249229431
2023-01-28 15:58:32.379913,-0.3683639477964149
2023-01-28 15:58:32.384913,-0.3593580126762388
2023-01-28 15:58:32.389913,-0.3505963282080579
2023-01-28 15:58:32.394913,-0.3432267904281618
2023-01-28 15:58:32.399913,-0.33640545693496543
2023-01-28 15:58:32.404913,-0.32899481058120716
2023-01-28 15:58:32.409913,-0.32124354101375885
2023-01-28 15:58:32.414913,-0.31336843967437733
2023-01-28 15:58:32.419913,-0.3041929210968983
2023-01-28 15:58:32.424913,-0.2927657067775725
2023-01-28 15:58:32.429913,-0.2797893969793115
2023-01-28 15:58:32.434913,-0.2660085856914521
2023-01-28 15:58:32.439913,-0.25078626740475274
2023-01-28 15:58:32.444913,-0.23372213542461373
2023-01-28 15:58:32.449913,-0.21605707674228194
2023-01-28 15:58:32.454913,-0.19898355007171642
2023-01-28 15:58:32.459913,-0.1821120925567033
2023-01-28 15:58:32.464913,-0.1650142669677734
2023-01-28 15:58:32.469913,-0.14867758524918756
2023-01-28 15:58:32.474913,-0.1340260207653046
2023-01-28 15:58:32.479913,-0.12065127807675283
2023-01-28 15:58:32.484913,-0.10847091674804676
2023-01-28 15:58:32.489913,-0.09902006086324182
2023-01-28 15:58:32.494913,-0.09363790601491913
2023-01-28 15:58:32.499913,-0.09199172785986524
2023-01-28 15:58:32.504913,-0.09385427087545359
2023-01-28 15:58:32.509913,-0.10067684489884357
2023-01-28 15:58:32.514913,-0.11380791664123531
2023-01-28 15:58:32.519913,-0.13261772005297742
2023-01-28 15:58:32.524913,-0.15578269958496066
2023-01-28 15:58:32.529913,-0.18280844444494276
2023-01-28 15:58:32.534913,-0.2127828299999237
2023-01-28 15:58:32.539913,-0.24323524246670808
2023-01-28 15:58:32.544913,-0.27189850807189936
2023-01-28 15:58:32.549913,-0.2983322677435103
2023-01-28 15:58:32.554913,-0.32252788543701155
2023-01-28 15:58:32.559913,-0.3434604530479737
2023-01-28 15:58:32.564913,-0.36041578650474526
2023-01-28 15:58:32.569913,-0.3741882967569218
2023-01-28 15:58:32.574913,-0.38549005985259976
2023-01-28 15:58:32.579913,-0.39362411243749773
2023-01-28 15:58:32.584913,-0.3981113433837889
2023-01-28 15:58:32.589913,-0.40013884864923327
2023-01-28 15:58:32.594913,-0.4010202586650847
2023-01-28 15:58:32.599913,-0.40070409973905374
2023-01-28 15:58:32.604913,-0.39912104606628396
2023-01-28 15:58:32.609913,-0.39741279786283756
2023-01-28 15:58:32.614913,-0.3963804244995117
2023-01-28 15:58:32.619913,-0.39519960386230996
2023-01-28 15:58:32.624913,-0.3930628299713133
2023-01-28 15:58:32.629913,-0.39062403563999076
2023-01-28 15:58:32.634913,-0.3884951472282408
2023-01-28 15:58:32.639913,-0.3858769020764839
2023-01-28 15:58:32.644913,-0.38210034370422347
2023-01-28 15:58:32.649913,-0.378046612652694
2023-01-28 15:58:32.654913,-0.3746718168258667
2023-01-28 15:58:32.659913,-0.37160983776869244
2023-01-28 15:58:32.664913,-0.3685655295848843
2023-01-28 15:58:32.669913,-0.36652826810745787
2023-01-28 15:58:32.674913,-0.3661614656448363
2023-01-28 15:58:32.679913,-0.3664322044524675
2023-01-28 15:58:32.684913,-0.36620956659316994
2023-01-28 15:58:32.689913,-0.3658031037575442
2023-01-28 15:58:32.694913,-0.3656566143035887
2023-01-28 15:58:32.699913,-0.36508352773905534
2023-01-28 15:58:32.704913,-0.3636853098869322
2023-01-28 15:58:32.709913,-0.3625182362732223
2023-01-28 15:58:32.714913,-0.3624351918697356
2023-01-28 15:58:32.719913,-0.3626695914793992
2023-01-28 15:58:32.724913,-0.36236307024955733
2023-01-28 15:58:32.729913,-0.36203633443783995
2023-01-28 15:58:32.734913,-0.3622668981552124
2023-01-28 15:58:32.739913,-0.3624479124199384
2023-01-28 15:58:32.744913,-0.3622188270092007
2023-01-28 15:58:32.749913,-0.3626182585599409
2023-01-28 15:58:32.754913,-0.36440652608871443
2023-01-28 15:58:32.759913,-0.3666397291035183
2023-01-28 15:58:32.764913,-0.3682049214839933
2023-01-28 15:58:32.769913,-0.3693209800719231
2023-01-28 15:58:32.774913,-0.37024837732315047
2023-01-28 15:58:32.779913,-0.3700577990829365
2023-01-28 15:58:32.784913,-0.36808472871780373
2023-01-28 15:58:32.789913,-0.36518875941282253
2023-01-28 15:58:32.794913,-0.3622428774833678
2023-01-28 15:58:32.799913,-0.35880602658211713
2023-01-28 15:58:32.804913,-0.35459798574447615
2023-01-28 15:58:32.809913,-0.3508132945240031
2023-01-28 15:58:32.814913,-0.34858784079551686
2023-01-28 15:58:32.819913,-0.34751062775140146
2023-01-28 15:58:32.824913,-0.34688097238540627
2023-01-28 15:58:32.829913,-0.3469361296857525
2023-01-28 15:58:32.834913,-0.3474819660186766
2023-01-28 15:58:32.839913,-0.34675779258971356
2023-01-28 15:58:32.844913,-0.343082547187805
2023-01-28 15:58:32.849913,-0.336402048400194
2023-01-28 15:58:32.854913,-0.3271196484565733
2023-01-28 15:58:32.859913,-0.31498388767274477
2023-01-28 15:58:32.864913,-0.3005307912826538
2023-01-28 15:58:32.869913,-0.28621562344736334
2023-01-28 15:58:32.874913,-0.2746872305870055
2023-01-28 15:58:32.879913,-0.26707532749448426
2023-01-28 15:58:32.884913,-0.2639411091804503
2023-01-28 15:58:32.889913,-0.2662373045401052
2023-01-28 15:58:32.894913,-0.2738698422908782
2023-01-28 15:58:32.899913,-0.28465174056883635
2023-01-28 15:58:32.904913,-0.29603523015975935
2023-01-28 15:58:32.909913,-0.3067054332263809
2023-01-28 15:58:32.914913,-0.3155080676078795
2023-01-28 15:58:32.919913,-0.320535413073882
2023-01-28 15:58:32.924913,-0.32086908817291243
2023-01-28 15:58:32.929913,-0.3181228327733144
2023-01-28 15:58:32.934913,-0.31512340903282166
2023-01-28 15:58:32.939913,-0.31423231897009957
2023-01-28 15:58:32.944913,-0.3175514936447142
2023-01-28 15:58:32.949913,-0.3263130124324251
2023-01-28 15:58:32.954913,-0.3375532329082489
2023-01-28 15:58:32.959913,-0.3418657690101044
2023-01-28 15:58:32.964913,-0.32586953043937683
2023-01-28 15:58:32.969913,-0.2773084475888761
2023-01-28 15:58:32.974913,-0.1896798610687255
2023-01-28 15:58:32.979913,-0.06683589572722165
2023-01-28 15:58:32.984913,0.07313132286071787
2023-01-28 15:58:32.989913,0.19972520003205896
2023-01-28 15:58:32.994913,0.2799761295318604
2023-01-28 15:58:32.999913,0.2909723679278561
2023-01-28 15:58:33.004913,0.22792837023735038
2023-01-28 15:58:33.009913,0.10597197023039921
2023-01-28 15:58:33.014913,-0.04382590577006333
2023-01-28 15:58:33.019913,-0.18464192000440266
2023-01-28 15:58:33.024913,-0.2874767780303954
2023-01-28 15:58:33.029913,-0.34028199952496974
2023-01-28 15:58:33.034913,-0.3476983308792111
2023-01-28 15:58:33.039913,-0.32464990365576196
2023-01-28 15:58:33.044913,-0.28918367624282815
2023-01-28 15:58:33.049913,-0.2561560448790959
2023-01-28 15:58:33.054913,-0.2327605187892913
2023-01-28 15:58:33.059913,-0.21871625197046174
2023-01-28 15:58:33.064913,-0.21069130301475505
2023-01-28 15:58:33.069913,-0.20572152618829742
2023-01-28 15:58:33.074913,-0.20109912753105152
2023-01-28 15:58:33.079913,-0.19422561022535592
2023-01-28 15:58:33.084913,-0.1844630688428878
2023-01-28 15:58:33.089913,-0.17356871541338356
2023-01-28 15:58:33.094913,-0.1630669832229613
2023-01-28 15:58:33.099913,-0.15268948639546262
2023-01-28 15:58:33.104913,-0.14222383499145516
2023-01-28 15:58:33.109913,-0.13280481338609978
2023-01-28 15:58:33.114913,-0.12498676776885978
2023-01-28 15:58:33.119913,-0.11733240125899257
2023-01-28 15:58:33.124913,-0.10832667350769061
2023-01-28 15:58:33.129913,-0.0980781243805784
2023-01-28 15:58:33.134913,-0.08688251674175267
2023-01-28 15:58:33.139913,-0.07388340595051975
2023-01-28 15:58:33.144913,-0.05861083790659895
2023-01-28 15:58:33.149913,-0.042237331676792236
2023-01-28 15:58:33.154913,-0.025867622345685896
2023-01-28 15:58:33.159913,-0.009058162798598559
2023-01-28 15:58:33.164913,0.008702675811946349
2023-01-28 15:58:33.169913,0.026671637343196893
2023-01-28 15:58:33.174913,0.04437883943319323
2023-01-28 15:58:33.179913,0.06289817976353054
2023-01-28 15:58:33.184913,0.08315622806549075
2023-01-28 15:58:33.189913,0.10437715044621161
2023-01-28 15:58:33.194913,0.12544354796409596
2023-01-28 15:58:33.199913,0.14623336183041305
2023-01-28 15:58:33.204913,0.16626438498496982
2023-01-28 15:58:33.209913,0.18356835642020625
2023-01-28 15:58:33.214913,0.19636313617229464
2023-01-28 15:58:33.219913,0.2044999620427945
2023-01-28 15:58:33.224913,0.20804683864116663
2023-01-28 15:58:33.229913,0.20600294045712705
2023-01-28 15:58:33.234913,0.19780556857585901
2023-01-28 15:58:33.239913,0.18467064374499723
2023-01-28 15:58:33.244913,0.16809146106243122
2023-01-28 15:58:33.249913,0.14839646647792124
2023-01-28 15:58:33.254913,0.12602052092552185
2023-01-28 15:58:33.259913,0.10265604302371299
2023-01-28 15:58:33.264913,0.07974247634410842
2023-01-28 15:58:33.269913,0.05721242641434217
2023-01-28 15:58:33.274913,0.03505110740661617
2023-01-28 15:58:33.279913,0.014683235300019533
2023-01-28 15:58:33.284913,-0.0025002162437886
2023-01-28 15:58:33.289913,-0.01660319280540866
2023-01-28 15:58:33.294913,-0.027983188629150293
2023-01-28 15:58:33.299913,-0.0360513556007492
2023-01-28 15:58:33.304913,-0.040652554482221624
2023-01-28 15:58:33.309913,-0.0432051524113178
2023-01-28 15:58:33.314913,-0.045076012611389084
2023-01-28 15:58:33.319913,-0.04608435609030901
2023-01-28 15:58:33.324913,-0.04577318951487526
2023-01-28 15:58:33.329913,-0.04468111604062125
2023-01-28 15:58:33.334913,-0.04305660724639887
2023-01-28 15:58:33.339913,-0.039778255659241986
2023-01-28 15:58:33.344913,-0.03396928310394287
2023-01-28 15:58:33.349913,-0.02644226116118036
2023-01-28 15:58:33.354913,-0.018366973847151028
2023-01-28 15:58:33.359913,-0.009909664310773773
2023-01-28 15:58:33.364913,-0.0013943513622507832
2023-01-28 15:58:33.369913,0.0057153054709257085
2023-01-28 15:58:33.374913,0.010433594696223679
2023-01-28 15:58:33.379913,0.013610004229418885
2023-01-28 15:58:33.384913,0.01646777056157587
2023-01-28 15:58:33.389913,0.01910726096557778
2023-01-28 15:58:33.394913,0.021564364433288536
2023-01-28 15:58:33.399913,0.02479149218393195
2023-01-28 15:58:33.404913,0.02918521687388424
2023-01-28 15:58:33.409913,0.033475753610603703
2023-01-28 15:58:33.414913,0.03642141819000252
2023-01-28 15:58:33.419913,0.03839469934599623
2023-01-28 15:58:33.424913,0.04017174243926998
2023-01-28 15:58:33.429913,0.04156985435273223
2023-01-28 15:58:33.434913,0.04250367730855942
2023-01-28 15:58:33.439913,0.043930514341415705
2023-01-28 15:58:33.444913,0.04637420177459692
2023-01-28 15:58:33.449913,0.04879340035803206
2023-01-28 15:58:33.454913,0.05019664764404297
2023-01-28 15:58:33.459913,0.05114815517656706
2023-01-28 15:58:33.464913,0.05252858251333248
2023-01-28 15:58:33.469913,0.0541599500842002
2023-01-28 15:58:33.474913,0.05584617704153072
2023-01-28 15:58:33.479913,0.05836884123747306
2023-01-28 15:58:33.484913,0.06214479729533191
2023-01-28 15:58:33.489913,0.06617553861579833
2023-01-28 15:58:33.494913,0.06957332789897924
2023-01-28 15:58:33.499913,0.07289388362327698
2023-01-28 15:58:33.504913,0.07680952548980707
2023-01-28 15:58:33.509913,0.0807695991531834
2023-01-28 15:58:33.514913,0.08414189517498016
2023-01-28 15:58:33.519913,0.08736586170737203
2023-01-28 15:58:33.524913,0.09080111980438213
2023-01-28 15:58:33.529913,0.09375363303890188
2023-01-28 15:58:33.534913,0.09584963321685795
2023-01-28 15:58:33.539913,0.09810977840174549
2023-01-28 15:58:33.544913,0.10147511959075912
2023-01-28 15:58:33.549913,0.10546924136232051
2023-01-28 15:58:33.554913,0.10940849781036369
2023-01-28 15:58:33.559913,0.11370619455889668
2023-01-28 15:58:33.564913,0.1189525946974754
2023-01-28 15:58:33.569913,0.12501789712000536
2023-01-28 15:58:33.574913,0.1321268081665041
2023-01-28 15:58:33.579913,0.14146001295333643
2023-01-28 15:58:33.584913,0.15345077216625191
2023-01-28 15:58:33.589913,0.16651280398371288
2023-01-28 15:58:33.594913,0.17835676670074446
2023-01-28 15:58:33.599913,0.18746272256875435
2023-01-28 15:58:33.604913,0.19263684749603235
2023-01-28 15:58:33.609913,0.19270252360084858
2023-01-28 15:58:33.614913,0.1877325773239133
2023-01-28 15:58:33.619913,0.1794482102216594
2023-01-28 15:58:33.624913,0.16965410113334656
2023-01-28 15:58:33.629913,0.15943204919456203
2023-01-28 15:58:33.634913,0.1501331776380536
2023-01-28 15:58:33.639913,0.14328527904149718
2023-01-28 15:58:33.644913,0.13878604769706698
2023-01-28 15:58:33.649913,0.1349389786926207
2023-01-28 15:58:33.654913,0.13090074062347415
2023-01-28 15:58:33.659913,0.12710397103149854
2023-01-28 15:58:33.664913,0.12263079732656468
2023-01-28 15:58:33.669913,0.11482553042731969
2023-01-28 15:58:33.674913,0.10344644635915738
2023-01-28 15:58:33.679913,0.09408678796774061
2023-01-28 15:58:33.684913,0.09685933589935297
2023-01-28 15:58:33.689913,0.12330112184737511
2023-01-28 15:58:33.694913,0.1839822530746459
2023-01-28 15:58:33.699913,0.28392817539662585
2023-01-28 15:58:33.704913,0.41542053222656256
2023-01-28 15:58:33.709913,0.5550449404145896
2023-01-28 15:58:33.714913,0.6700339317321778
2023-01-28 15:58:33.719913,0.7296935008277393
2023-01-28 15:58:33.724913,0.7152782082557676
2023-01-28 15:58:33.729913,0.6266430648534732
2023-01-28 15:58:33.734913,0.48465728759765636
2023-01-28 15:58:33.739913,0.3253377289861243
2023-01-28 15:58:33.744913,0.1858574151992797
2023-01-28 15:58:33.749913,0.09111773166921322
2023-01-28 15:58:33.754913,0.04877825826406461
2023-01-28 15:58:33.759913,0.051578823266083776
2023-01-28 15:58:33.764913,0.0824590548872946
2023-01-28 15:58:33.769913,0.12171804683649787
2023-01-28 15:58:33.774913,0.15513360500335702
2023-01-28 15:58:33.779913,0.17778783439958534
2023-01-28 15:58:33.784913,0.1910501718521119
2023-01-28 15:58:33.789913,0.1978141476322487
2023-01-28 15:58:33.794913,0.20102700591087347
2023-01-28 15:58:33.799913,0.20362378637815326
2023-01-28 15:58:33.804913,0.20698904991149902
2023-01-28 15:58:33.809913,0.21028344452188857
2023-01-28 15:58:33.814913,0.2127107083797454
2023-01-28 15:58:33.819913,0.2152642297343779
2023-01-28 15:58:33.824913,0.2191295325756072
2023-01-28 15:58:33.829913,0.2240307416496843
2023-01-28 15:58:33.834913,0.22956311702728271
2023-01-28 15:58:33.839913,0.2365291880750608
2023-01-28 15:58:33.844913,0.24542987346649142
2023-01-28 15:58:33.849913,0.25514756924122556
2023-01-28 15:58:33.854913,0.2646382749080656
2023-01-28 15:58:33.859913,0.2745080680137647
2023-01-28 15:58:33.864913,0.2855294942855833
2023-01-28 15:58:33.869913,0.29711247042472216
2023-01-28 15:58:33.874913,0.30865651369094843
2023-01-28 15:58:33.879913,0.3208662991100619
2023-01-28 15:58:33.884913,0.3342596888542174
2023-01-28 15:58:33.889913,0.3479037570707015
2023-01-28 15:58:33.894913,0.36113700270652777
2023-01-28 15:58:33.899913,0.37507600127229307
2023-01-28 15:58:33.904913,0.3909232318401335
2023-01-28 15:58:33.909913,0.408163128631058
2023-01-28 15:58:33.914913,0.42573392391204834
2023-01-28 15:58:33.919913,0.4433654351712089
2023-01-28 15:58:33.924913,0.460280179977417
2023-01-28 15:58:33.929913,0.4741845740860015
2023-01-28 15:58:33.934913,0.4832148551940916
2023-01-28 15:58:33.939913,0.48758404147150175
2023-01-28 15:58:33.944913,0.4879508614540101
2023-01-28 15:58:33.949913,0.4836628104598033
2023-01-28 15:58:33.954913,0.474007338285446
2023-01-28 15:58:33.959913,0.45960448724458286
2023-01-28 15:58:33.964913,0.44104775786399825
2023-01-28 15:58:33.969913,0.4177319131828579
2023-01-28 15:58:33.974913,0.38962504267692566
2023-01-28 15:58:33.979913,0.35877663982448743
2023-01-28 15:58:33.984913,0.3275763988494872
2023-01-28 15:58:33.989913,0.29693307045463385
2023-01-28 15:58:33.994913,0.2674990892410277
2023-01-28 15:58:33.999913,0.24097064670289334
2023-01-28 15:58:34.004913,0.2185044735670088
2023-01-28 15:58:34.009913,0.19931865379814576
2023-01-28 15:58:34.014913,0.182419627904892
2023-01-28 15:58:34.019913,0.16825392701636935
2023-01-28 15:58:34.024913,0.15720109641551971
2023-01-28 15:58:34.029913,0.14808195093183316
2023-01-28 15:58:34.034913,0.13981978595256797
2023-01-28 15:58:34.039913,0.13308986207909387
2023-01-28 15:58:34.044913,0.1287611424922943
2023-01-28 15:58:34.049913,0.12624622797332172
2023-01-28 15:58:34.054913,0.12493868917226791
2023-01-28 15:58:34.059913,0.12561567141396207
2023-01-28 15:58:34.064913,0.12868902087211587
2023-01-28 15:58:34.069913,0.132607064810851
2023-01-28 15:58:34.074913,0.13568481802940352
2023-01-28 15:58:34.079913,0.13801776424508128
2023-01-28 15:58:34.084913,0.140012115240097
2023-01-28 15:58:34.089913,0.14075115078330505
2023-01-28 15:58:34.094913,0.1396274566650389
2023-01-28 15:58:34.099913,0.137947489206488
2023-01-28 15:58:34.104913,0.13703107833862316
2023-01-28 15:58:34.109913,0.13625620577988237
2023-01-28 15:58:34.114913,0.1347712725400923
2023-01-28 15:58:34.119913,0.13344198743025476
2023-01-28 15:58:34.124913,0.13313651084899894
2023-01-28 15:58:34.129913,0.13276831525630672
2023-01-28 15:58:34.134913,0.13114115595817577
2023-01-28 15:58:34.139913,0.12909630911130512
2023-01-28 15:58:34.144913,0.1276312321424484
2023-01-28 15:58:34.149913,0.1255518307054578
2023-01-28 15:58:34.154913,0.12145280838012674
2023-01-28 15:58:34.159913,0.11653612908130057
2023-01-28 15:58:34.164913,0.11282225698232641
2023-01-28 15:58:34.169913,0.10982378868140333
2023-01-28 15:58:34.174913,0.10575433820486042
2023-01-28 15:58:34.179913,0.1010278574978666
2023-01-28 15:58:34.184913,0.09765267372131355
2023-01-28 15:58:34.189913,0.09571596728074151
2023-01-28 15:58:34.194913,0.09327729791402842
2023-01-28 15:58:34.199913,0.08960717860228778
2023-01-28 15:58:34.204913,0.08604109287261959
2023-01-28 15:58:34.209913,0.083561742536664
2023-01-28 15:58:34.214913,0.08173783868551251
2023-01-28 15:58:34.219913,0.08026449092431824
2023-01-28 15:58:34.224913,0.07964631170034399
2023-01-28 15:58:34.229913,0.08000561780099462
2023-01-28 15:58:34.234913,0.08065601438283924
2023-01-28 15:58:34.239913,0.08106402706577562
2023-01-28 15:58:34.244913,0.08113682270050034
2023-01-28 15:58:34.249913,0.08067026120739174
2023-01-28 15:58:34.254913,0.07957419008016578
2023-01-28 15:58:34.259913,0.07842692398499229
2023-01-28 15:58:34.264913,0.07786731421947468
2023-01-28 15:58:34.269913,0.07781951563678176
2023-01-28 15:58:34.274913,0.07817983627319337
2023-01-28 15:58:34.279913,0.07967114400490194
2023-01-28 15:58:34.284913,0.08306007087230687
2023-01-28 15:58:34.289913,0.08811442935824974
2023-01-28 15:58:34.294913,0.09414275735616688
2023-01-28 15:58:34.299913,0.10070485266453551
2023-01-28 15:58:34.304913,0.10681211948394778
2023-01-28 15:58:34.309913,0.1103410255289929
2023-01-28 15:58:34.314913,0.10943254083394995
2023-01-28 15:58:34.319913,0.1038992539281197
2023-01-28 15:58:34.324913,0.09452740848064418
2023-01-28 15:58:34.329913,0.08204006037672196
2023-01-28 15:58:34.334913,0.06772220134735114
2023-01-28 15:58:34.339913,0.05392241653335152
2023-01-28 15:58:34.344913,0.04259983822703367
2023-01-28 15:58:34.349913,0.03400992722918014
2023-01-28 15:58:34.354913,0.027574500069022026
2023-01-28 15:58:34.359913,0.022864610622882878
2023-01-28 15:58:34.364913,0.018655460327863502
2023-01-28 15:58:34.369913,0.012301150691479391
2023-01-28 15:58:34.374913,0.0017790000420063734
2023-01-28 15:58:34.379913,-0.011645751824278041
2023-01-28 15:58:34.384913,-0.022742351517081184
2023-01-28 15:58:34.389913,-0.02261542321064483
2023-01-28 15:58:34.394913,0.0008414189214818274
2023-01-28 15:58:34.399913,0.05960238083068482
2023-01-28 15:58:34.404913,0.15813867747783633
2023-01-28 15:58:34.409913,0.2868847968834687
2023-01-28 15:58:34.414913,0.42198359966278054
2023-01-28 15:58:34.419913,0.5311546275000064
2023-01-28 15:58:34.424913,0.5827907919883729
2023-01-28 15:58:34.429913,0.5567950310304262
2023-01-28 15:58:34.434913,0.4541017711162566
2023-01-28 15:58:34.439913,0.29846705198081497
2023-01-28 15:58:34.444913,0.12758314609527568
2023-01-28 15:58:34.449913,-0.020934219768555078
2023-01-28 15:58:34.454913,-0.12082775682210918
2023-01-28 15:58:34.459913,-0.16294839844003667
2023-01-28 15:58:34.464913,-0.15559038519859303
2023-01-28 15:58:34.469913,-0.11864824570648448
2023-01-28 15:58:34.474913,-0.07334768772125226
2023-01-28 15:58:34.479913,-0.0340537284548951
2023-01-28 15:58:34.484913,-0.0067313513718544014
2023-01-28 15:58:34.489913,0.008538520531593359
2023-01-28 15:58:34.494913,0.015265743248164624
2023-01-28 15:58:34.499913,0.01835844678987281
2023-01-28 15:58:34.504913,0.021083554252982036
2023-01-28 15:58:34.509913,0.023720118759632657
2023-01-28 15:58:34.514913,0.025555094704031802
2023-01-28 15:58:34.519913,0.02695875415608191
2023-01-28 15:58:34.524913,0.028656324371695498
2023-01-28 15:58:34.529913,0.030544287925178992
2023-01-28 15:58:34.534913,0.03264705464243879
2023-01-28 15:58:34.539913,0.03604524042092697
2023-01-28 15:58:34.544913,0.0415180139243602
2023-01-28 15:58:34.549913,0.04833278443684583
2023-01-28 15:58:34.554913,0.055533647537231424
2023-01-28 15:58:34.559913,0.06324955875564825
2023-01-28 15:58:34.564913,0.07159273326396942
2023-01-28 15:58:34.569913,0.07959114865253815
2023-01-28 15:58:34.574913,0.08656998723745335
2023-01-28 15:58:34.579913,0.09348445712605566
2023-01-28 15:58:34.584913,0.10169148445129395
2023-01-28 15:58:34.589913,0.11156244434632837
2023-01-28 15:58:34.594913,0.12340009212493891
2023-01-28 15:58:34.599913,0.1382904537769021
2023-01-28 15:58:34.604913,0.1565760374069212
2023-01-28 15:58:34.609913,0.17656380459745916
2023-01-28 15:58:34.614913,0.1960025280714033
2023-01-28 15:58:34.619913,0.21377555776597712
2023-01-28 15:58:34.624913,0.2291303873062132
2023-01-28 15:58:34.629913,0.24072247971299035
2023-01-28 15:58:34.634913,0.24785797297954537
2023-01-28 15:58:34.639913,0.2514629713187468
2023-01-28 15:58:34.644913,0.25240164995193476
2023-01-28 15:58:34.649913,0.24985399093807545
2023-01-28 15:58:34.654913,0.24249693751335122
2023-01-28 15:58:34.659913,0.23007329539018517
2023-01-28 15:58:34.664913,0.21266262233257285
2023-01-28 15:58:34.669913,0.1898523228594156
2023-01-28 15:58:34.674913,0.16210536658763883
2023-01-28 15:58:34.679913,0.13176865680870498
2023-01-28 15:58:34.684913,0.10130684077739695
2023-01-28 15:58:34.689913,0.0715136667186915
2023-01-28 15:58:34.694913,0.04250367730855939
2023-01-28 15:58:34.699913,0.01507735508886992
2023-01-28 15:58:34.704913,-0.01021722983568901
2023-01-28 15:58:34.709913,-0.034043343948668675
2023-01-28 15:58:34.714913,-0.05685587972402555
2023-01-28 15:58:34.719913,-0.07765471144883442
2023-01-28 15:58:34.724913,-0.09541690349578842
2023-01-28 15:58:34.729913,-0.11055463690789272
2023-01-28 15:58:34.734913,-0.12368857860565166
2023-01-28 15:58:34.739913,-0.13424905584370295
2023-01-28 15:58:34.744913,-0.14162282645702345
2023-01-28 15:58:34.749913,-0.14644533429562054
2023-01-28 15:58:34.754913,-0.14943599700927723
2023-01-28 15:58:34.759913,-0.1502129514519222
2023-01-28 15:58:34.764913,-0.1486186236143111
2023-01-28 15:58:34.769913,-0.14598529649487849
2023-01-28 15:58:34.774913,-0.14371435344219186
2023-01-28 15:58:34.779913,-0.14176224663378745
2023-01-28 15:58:34.784913,-0.1397716999053955
2023-01-28 15:58:34.789913,-0.13836465306408566
2023-01-28 15:58:34.794913,-0.13792058825492828
2023-01-28 15:58:34.799913,-0.13736197908377595
2023-01-28 15:58:34.804913,-0.13563673198223106
2023-01-28 15:58:34.809913,-0.1333039194600229
2023-01-28 15:58:34.814913,-0.13135752081871022
2023-01-28 15:58:34.819913,-0.12971105581979583
2023-01-28 15:58:34.824913,-0.12818416953086845
2023-01-28 15:58:34.829913,-0.12770178413533276
2023-01-28 15:58:34.834913,-0.12902557849884022
2023-01-28 15:58:34.839913,-0.13138582978394298
2023-01-28 15:58:34.844913,-0.133713483810425
2023-01-28 15:58:34.849913,-0.13613330158355624
2023-01-28 15:58:34.854913,-0.13902644813060774
2023-01-28 15:58:34.859913,-0.14189211853640388
2023-01-28 15:58:34.864913,-0.14448365569114668
2023-01-28 15:58:34.869913,-0.14783952833450645
2023-01-28 15:58:34.874913,-0.15280167758464797
2023-01-28 15:58:34.879913,-0.1586307463711011
2023-01-28 15:58:34.884913,-0.1643171012401581
2023-01-28 15:58:34.889913,-0.1700095286931538
2023-01-28 15:58:34.894913,-0.1758805960416793
2023-01-28 15:58:34.899913,-0.18091259280976715
2023-01-28 15:58:34.904913,-0.18422266840934742
2023-01-28 15:58:34.909913,-0.18641147736014294
2023-01-28 15:58:34.914913,-0.1883095502853392
2023-01-28 15:58:34.919913,-0.18963431951148632
2023-01-28 15:58:34.924913,-0.19016067683696747
2023-01-28 15:58:34.929913,-0.19087280105533538
2023-01-28 15:58:34.934913,-0.19254069030284876
2023-01-28 15:58:34.939913,-0.1943719364626444
2023-01-28 15:58:34.944913,-0.19540151953697196
2023-01-28 15:58:34.949913,-0.19597926326017703
2023-01-28 15:58:34.954913,-0.19660353660583485
2023-01-28 15:58:34.959913,-0.19660695808976283
2023-01-28 15:58:34.964913,-0.19532939791679377
2023-01-28 15:58:34.969913,-0.19325487551735482
2023-01-28 15:58:34.974913,-0.1906174421310425
2023-01-28 15:58:34.979913,-0.18623643847797805
2023-01-28 15:58:34.984913,-0.1792222261428832
2023-01-28 15:58:34.989913,-0.1706991817972992
2023-01-28 15:58:34.994913,-0.1626102179288864
2023-01-28 15:58:34.999913,-0.15613556882223573
2023-01-28 15:58:35.004913,-0.15248915553092937
2023-01-28 15:58:35.009913,-0.1536361347178832
2023-01-28 15:58:35.014913,-0.16049465537071222
2023-01-28 15:58:35.019913,-0.1715139826875077
2023-01-28 15:58:35.024913,-0.1843669116497039
2023-01-28 15:58:35.029913,-0.19785947862917527
2023-01-28 15:58:35.034913,-0.21105191111564636
2023-01-28 15:58:35.039913,-0.22214775884858223
2023-01-28 15:58:35.044913,-0.22992372512817374
2023-01-28 15:58:35.049913,-0.23510365967092617
2023-01-28 15:58:35.054913,-0.2390350997447966
2023-01-28 15:58:35.059913,-0.24239705767966782
2023-01-28 15:58:35.064913,-0.2464636266231536
2023-01-28 15:58:35.069913,-0.2537475020769961
2023-01-28 15:58:35.074913,-0.26502293348312367
2023-01-28 15:58:35.079913,-0.2759631785843865
2023-01-28 15:58:35.084913,-0.2774038016796111
2023-01-28 15:58:35.089913,-0.2578362076571792
2023-01-28 15:58:35.094913,-0.20597934722900402
2023-01-28 15:58:35.099913,-0.11542856513390677
2023-01-28 15:58:35.104913,0.008197824470698719
2023-01-28 15:58:35.109913,0.1436632377336859
2023-01-28 15:58:35.114913,0.2592772245407103
2023-01-28 15:58:35.119913,0.32371431543092505
2023-01-28 15:58:35.124913,0.31622928380966153
2023-01-28 15:58:35.129913,0.23403378173622885
2023-01-28 15:58:35.134913,0.09551306813955288
2023-01-28 15:58:35.139913,-0.06471201647233327
2023-01-28 15:58:35.144913,-0.2091526985168457
2023-01-28 15:58:35.149913,-0.31116238464315216
2023-01-28 15:58:35.154913,-0.36087256669998147
2023-01-28 15:58:35.159913,-0.36374081281459386
2023-01-28 15:58:35.164913,-0.3358944356441498
2023-01-28 15:58:35.169913,-0.2971514570931025
2023-01-28 15:58:35.174913,-0.2627150416374207
2023-01-28 15:58:35.179913,-0.23872566174917703
2023-01-28 15:58:35.184913,-0.2246588468551635
2023-01-28 15:58:35.189913,-0.2179290915253009
2023-01-28 15:58:35.194913,-0.2154994010925292
2023-01-28 15:58:35.199913,-0.21404699118820067
2023-01-28 15:58:35.204913,-0.2116529196500777
2023-01-28 15:58:35.209913,-0.2088046657544102
2023-01-28 15:58:35.214913,-0.20633995532989502
2023-01-28 15:58:35.219913,-0.2035700017989991
2023-01-28 15:58:35.224913,-0.19968073070049275
2023-01-28 15:58:35.229913,-0.19534669730764392
2023-01-28 15:58:35.234913,-0.1912905871868132
2023-01-28 15:58:35.239913,-0.18667554701570846
2023-01-28 15:58:35.244913,-0.1805444657802581
2023-01-28 15:58:35.249913,-0.17343487933367713
2023-01-28 15:58:35.254913,-0.1659758985042571
2023-01-28 15:58:35.259913,-0.15734708658947721
2023-01-28 15:58:35.264913,-0.1467674970626832
2023-01-28 15:58:35.269913,-0.13507330578492682
2023-01-28 15:58:35.274913,-0.12318372726440406
2023-01-28 15:58:35.279913,-0.11044419142288465
2023-01-28 15:58:35.284913,-0.09611408412456525
2023-01-28 15:58:35.289913,-0.0810170079353506
2023-01-28 15:58:35.294913,-0.0660634040832519
2023-01-28 15:58:35.299913,-0.050641899316055
2023-01-28 15:58:35.304913,-0.03418564796447756
2023-01-28 15:58:35.309913,-0.017865493418544966
2023-01-28 15:58:35.314913,-0.003029108047485086
2023-01-28 15:58:35.319913,0.010567112891941462
2023-01-28 15:58:35.324913,0.023295283317565897
2023-01-28 15:58:35.329913,0.033967911055968
2023-01-28 15:58:35.334913,0.041325688362121346
2023-01-28 15:58:35.339913,0.04563650364523723
2023-01-28 15:58:35.344913,0.04702329635620113
2023-01-28 15:58:35.349913,0.04376981795458041
2023-01-28 15:58:35.354913,0.03418564796447762
2023-01-28 15:58:35.359913,0.01875704891953548
2023-01-28 15:58:35.364913,-0.0012260675430295197
2023-01-28 15:58:35.369913,-0.025500940581099727
2023-01-28 15:58:35.374913,-0.053418081253766944
2023-01-28 15:58:35.379913,-0.08242953051904395
2023-01-28 15:58:35.384913,-0.11015375703573223
2023-01-28 15:58:35.389913,-0.13656991449482236
2023-01-28 15:58:35.394913,-0.16227364540100075
2023-01-28 15:58:35.399913,-0.1861885412668657
2023-01-28 15:58:35.404913,-0.20710925757884957
2023-01-28 15:58:35.409913,-0.22585199225258035
2023-01-28 15:58:35.414913,-0.24345855414867393
2023-01-28 15:58:35.419913,-0.25864637598086
2023-01-28 15:58:35.424913,-0.26951849460601784
2023-01-28 15:58:35.429913,-0.276703934255821
2023-01-28 15:58:35.434913,-0.2824282646179197
2023-01-28 15:58:35.439913,-0.2874093332692843
2023-01-28 15:58:35.444913,-0.2909145951271056
2023-01-28 15:58:35.449913,-0.2929982499310957
2023-01-28 15:58:35.454913,-0.2944245040416714
2023-01-28 15:58:35.459913,-0.2950099956385044
2023-01-28 15:58:35.464913,-0.29403984546661377
2023-01-28 15:58:35.469913,-0.29178597633994224
2023-01-28 15:58:35.474913,-0.2889913320541378
2023-01-28 15:58:35.479913,-0.2856312726340684
2023-01-28 15:58:35.484913,-0.28173109889030445
2023-01-28 15:58:35.489913,-0.27845523007933254
2023-01-28 15:58:35.494913,-0.27677875757217396
2023-01-28 15:58:35.499913,-0.27599035891147544
2023-01-28 15:58:35.504913,-0.2749516665935514
2023-01-28 15:58:35.509913,-0.2737593898175151
2023-01-28 15:58:35.514913,-0.2727639675140379
2023-01-28 15:58:35.519913,-0.2712641732453574
2023-01-28 15:58:35.524913,-0.26879727840423545
2023-01-28 15:58:35.529913,-0.2665010136469287
2023-01-28 15:58:35.534913,-0.26559990644454934
2023-01-28 15:58:35.539913,-0.2657373151901993
2023-01-28 15:58:35.544913,-0.26627302169799794
2023-01-28 15:58:35.549913,-0.26783204744204286
2023-01-28 15:58:35.554913,-0.2709609270095824
2023-01-28 15:58:35.559913,-0.27464170278078626
2023-01-28 15:58:35.564913,-0.2777884602546691
2023-01-28 15:58:35.569913,-0.28085342729805735
2023-01-28 15:58:35.574913,-0.28435152769088734
2023-01-28 15:58:35.579913,-0.28726107955201674
2023-01-28 15:58:35.584913,-0.2885826528072357
2023-01-28 15:58:35.589913,-0.28906179780484753
2023-01-28 15:58:35.594913,-0.2897125482559204
2023-01-28 15:58:35.599913,-0.2901175353549717
2023-01-28 15:58:35.604913,-0.28985679149627663
2023-01-28 15:58:35.609913,-0.2900349242291729
2023-01-28 15:58:35.614913,-0.29156368970870966
2023-01-28 15:58:35.619913,-0.293378175263329
2023-01-28 15:58:35.624913,-0.2940879464149475
2023-01-28 15:58:35.629913,-0.29391036755304206
2023-01-28 15:58:35.634913,-0.2933186292648315
2023-01-28 15:58:35.639913,-0.29148164600803755
2023-01-28 15:58:35.644913,-0.28793355822563155
2023-01-28 15:58:35.649913,-0.284195361293966
2023-01-28 15:58:35.654913,-0.2818032205104827
2023-01-28 15:58:35.659913,-0.2801474902013701
2023-01-28 15:58:35.664913,-0.27793270349502547
2023-01-28 15:58:35.669913,-0.2750788755887819
2023-01-28 15:58:35.674913,-0.2713936567306516
2023-01-28 15:58:35.679913,-0.2652382895825967
2023-01-28 15:58:35.684913,-0.25569519400596596
2023-01-28 15:58:35.689913,-0.24463035421585452
2023-01-28 15:58:35.694913,-0.23477992415428162
2023-01-28 15:58:35.699913,-0.22737419447529592
2023-01-28 15:58:35.704913,-0.22331258654594405
2023-01-28 15:58:35.709913,-0.22459462654363319
2023-01-28 15:58:35.714913,-0.23225566744804374
2023-01-28 15:58:35.719913,-0.24440184116745536
2023-01-28 15:58:35.724913,-0.25826752185821533
2023-01-28 15:58:35.729913,-0.2726174477348135
2023-01-28 15:58:35.734913,-0.2863709330558774
2023-01-28 15:58:35.739913,-0.29700913943461055
2023-01-28 15:58:35.744913,-0.30281466245651234
2023-01-28 15:58:35.749913,-0.30521998648893056
2023-01-28 15:58:35.754913,-0.30699771642684914
2023-01-28 15:58:35.759913,-0.3098090272257871
2023-01-28 15:58:35.764913,-0.31509935855865456
2023-01-28 15:58:35.769913,-0.3245233864211198
2023-01-28 15:58:35.774913,-0.3360386788845061
2023-01-28 15:58:35.779913,-0.34051664638193996
2023-01-28 15:58:35.784913,-0.3245232701301573
2023-01-28 15:58:35.789913,-0.27617083416952365
2023-01-28 15:58:35.794913,-0.18905481696128826
2023-01-28 15:58:35.799913,-0.06604744371789033
2023-01-28 15:58:35.804913,0.07567962259054176
2023-01-28 15:58:35.809913,0.20499547690834344
2023-01-28 15:58:35.814913,0.2874046564102172
2023-01-28 15:58:35.819913,0.2990210791109779
2023-01-28 15:58:35.824913,0.23432314395904535
2023-01-28 15:58:35.829913,0.10723743654193103
2023-01-28 15:58:35.834913,-0.05154291912913328
2023-01-28 15:58:35.839913,-0.20335012398835264
2023-01-28 15:58:35.844913,-0.31649371981620766
2023-01-28 15:58:35.849913,-0.3775766888402841
2023-01-28 15:58:35.854913,-0.3908511102199555
2023-01-28 15:58:35.859913,-0.370504126746424
2023-01-28 15:58:35.864913,-0.3345481753349303
2023-01-28 15:58:35.869913,-0.29995384768442107
2023-01-28 15:58:35.874913,-0.276394098997116
2023-01-28 15:58:35.879913,-0.26372311325651326
2023-01-28 15:58:35.884913,-0.25732994079589827
2023-01-28 15:58:35.889913,-0.2543486235481168
2023-01-28 15:58:35.894913,-0.2532190084457399
2023-01-28 15:58:35.899913,-0.2511671871046936
2023-01-28 15:58:35.904913,-0.24636745452880843
2023-01-28 15:58:35.909913,-0.24047407149343508
2023-01-28 15:58:35.914913,-0.23545305430889102
2023-01-28 15:58:35.919913,-0.23004016109169637
2023-01-28 15:58:35.924913,-0.22261540591716739
2023-01-28 15:58:35.929913,-0.21486101015770367
2023-01-28 15:58:35.934913,-0.20867189764976485
2023-01-28 15:58:35.939913,-0.2020918609979648
2023-01-28 15:58:35.944913,-0.19258877635002117
2023-01-28 15:58:35.949913,-0.1817585124735478
2023-01-28 15:58:35.954913,-0.17210623621940602
2023-01-28 15:58:35.959913,-0.1618087502558012
2023-01-28 15:58:35.964913,-0.14813780784606928
2023-01-28 15:58:35.969913,-0.1338103624868807
2023-01-28 15:58:35.974913,-0.12356837838888171
2023-01-28 15:58:35.979913,-0.11565489700741767
2023-01-28 15:58:35.984913,-0.10339836776256559
2023-01-28 15:58:35.989913,-0.08528582196799461
2023-01-28 15:58:35.994913,-0.06695290654897676
2023-01-28 15:58:35.999913,-0.05211552224469005
2023-01-28 15:58:36.004913,-0.037647485733032206
2023-01-28 15:58:36.009913,-0.019840993982468996
2023-01-28 15:58:36.014913,-0.0004086892004123115
2023-01-28 15:58:36.019913,0.016620685613582733
2023-01-28 15:58:36.024913,0.030146837234496803
2023-01-28 15:58:36.029913,0.04124282936453991
2023-01-28 15:58:36.034913,0.04986008256673806
2023-01-28 15:58:36.039913,0.05483876419979091
2023-01-28 15:58:36.044913,0.055461525917053146
2023-01-28 15:58:36.049913,0.05116584164117799
2023-01-28 15:58:36.054913,0.04098912328481657
2023-01-28 15:58:36.059913,0.024497628213248086
2023-01-28 15:58:36.064913,0.0023319325409829617
2023-01-28 15:58:36.069913,-0.024517443168170245
2023-01-28 15:58:36.074913,-0.05478839203715319
2023-01-28 15:58:36.079913,-0.08632472459275199
2023-01-28 15:58:36.084913,-0.11681298911571487
2023-01-28 15:58:36.089913,-0.14515755822969956
2023-01-28 15:58:36.094913,-0.1710244119167326
2023-01-28 15:58:36.099913,-0.19363054238235017
2023-01-28 15:58:36.104913,-0.2124222218990326
2023-01-28 15:58:36.109913,-0.2281982871820143
2023-01-28 15:58:36.114913,-0.24191996455192571
2023-01-28 15:58:36.119913,-0.25312644074571294
2023-01-28 15:58:36.124913,-0.2610562443733214
2023-01-28 15:58:36.129913,-0.26634220686750865
2023-01-28 15:58:36.134913,-0.26995122432708746
2023-01-28 15:58:36.139913,-0.2716161589328742
2023-01-28 15:58:36.144913,-0.2711051702499389
2023-01-28 15:58:36.149913,-0.26975875345429307
2023-01-28 15:58:36.154913,-0.2688213288784024
2023-01-28 15:58:36.159913,-0.26752389010556665
2023-01-28 15:58:36.164913,-0.26475846767425526
2023-01-28 15:58:36.169913,-0.2612638582499148
2023-01-28 15:58:36.174913,-0.258195400238037
2023-01-28 15:58:36.179913,-0.2551143441488524
2023-01-28 15:58:36.184913,-0.2515121400356292
2023-01-28 15:58:36.189913,-0.24865006391019479
2023-01-28 15:58:36.194913,-0.24759352207183838
2023-01-28 15:58:36.199913,-0.24705185355230447
2023-01-28 15:58:36.204913,-0.24545392394065857
2023-01-28 15:58:36.209913,-0.24346435285115783
2023-01-28 15:58:36.214913,-0.24218440055847162
2023-01-28 15:58:36.219913,-0.24080572861000688
2023-01-28 15:58:36.224913,-0.23853024840354903
2023-01-28 15:58:36.229913,-0.23683330861540708
2023-01-28 15:58:36.234913,-0.23718397319316847
2023-01-28 15:58:36.239913,-0.23843732885066085
2023-01-28 15:58:36.244913,-0.23905913531780226
2023-01-28 15:58:36.249913,-0.23983557234446118
2023-01-28 15:58:36.254913,-0.24170359969139094
2023-01-28 15:58:36.259913,-0.24316761155134917
2023-01-28 15:58:36.264913,-0.24278542399406433
2023-01-28 15:58:36.269913,-0.24199666916243515
2023-01-28 15:58:36.274913,-0.2425450086593626
2023-01-28 15:58:36.279913,-0.243404224603629
2023-01-28 15:58:36.284913,-0.24324218928813926
2023-01-28 15:58:36.289913,-0.24342293501293383
2023-01-28 15:58:36.294913,-0.24535775184631328
2023-01-28 15:58:36.299913,-0.24741624251465308
2023-01-28 15:58:36.304913,-0.2477858513593672
2023-01-28 15:58:36.309913,-0.24779272044887954
2023-01-28 15:58:36.314913,-0.2489878833293915
2023-01-28 15:58:36.319913,-0.24971044854823146
2023-01-28 15:58:36.324913,-0.2481464594602585
2023-01-28 15:58:36.329913,-0.24596346075506675
2023-01-28 15:58:36.334913,-0.24516543745994557
2023-01-28 15:58:36.339913,-0.24427448130415358
2023-01-28 15:58:36.344913,-0.24151127040386203
2023-01-28 15:58:36.349913,-0.23867200579835798
2023-01-28 15:58:36.354913,-0.23776094615459442
2023-01-28 15:58:36.359913,-0.2369858243934509
2023-01-28 15:58:36.364913,-0.234371230006218
2023-01-28 15:58:36.369913,-0.23195047991843876
2023-01-28 15:58:36.374913,-0.23177485167980205
2023-01-28 15:58:36.379913,-0.23118554566796332
2023-01-28 15:58:36.384913,-0.2268224954605103
2023-01-28 15:58:36.389913,-0.21981923648349516
2023-01-28 15:58:36.394913,-0.21222989261150363
2023-01-28 15:58:36.399913,-0.20237826516229626
2023-01-28 15:58:36.404913,-0.18924713134765625
2023-01-28 15:58:36.409913,-0.1774344104398239
2023-01-28 15:58:36.414913,-0.17181774973869318
2023-01-28 15:58:36.419913,-0.1711433660392889
2023-01-28 15:58:36.424913,-0.1726351231336592
2023-01-28 15:58:36.429913,-0.1782919429677432
2023-01-28 15:58:36.434913,-0.19001643359661116
2023-01-28 15:58:36.439913,-0.2033128652946655
2023-01-28 15:58:36.444913,-0.21314343810081465
2023-01-28 15:58:36.449913,-0.221330148444854
2023-01-28 15:58:36.454913,-0.230644941329956
2023-01-28 15:58:36.459913,-0.23704044500484656
2023-01-28 15:58:36.464913,-0.23648679256439187
2023-01-28 15:58:36.469913,-0.2341195211821243
2023-01-28 15:58:36.474913,-0.23711185157299033
2023-01-28 15:58:36.479913,-0.24392688545222924
2023-01-28 15:58:36.484913,-0.25031012296676636
2023-01-28 15:58:36.489913,-0.2584218790329587
2023-01-28 15:58:36.494913,-0.2668499946594238
2023-01-28 15:58:36.499913,-0.25802320298964615
2023-01-28 15:58:36.504913,-0.21105191111564636
2023-01-28 15:58:36.509913,-0.12331917858522877
2023-01-28 15:58:36.514913,-0.0064188241958620055
2023-01-28 15:58:36.519913,0.12963868303451506
2023-01-28 15:58:36.524913,0.2671144604682918
2023-01-28 15:58:36.529913,0.3637748846204666
2023-01-28 15:58:36.534913,0.37657102942466714
2023-01-28 15:58:36.539913,0.307146942169686
2023-01-28 15:58:36.544913,0.1984546631574627
2023-01-28 15:58:36.549913,0.08114262802592015
2023-01-28 15:58:36.554913,-0.047840677201747686
2023-01-28 15:58:36.559913,-0.1835063533824983
2023-01-28 15:58:36.564913,-0.2843755483627319
2023-01-28 15:58:36.569913,-0.31296839572382473
2023-01-28 15:58:36.574913,-0.284183233976364
2023-01-28 15:58:36.579913,-0.24531287313267042
2023-01-28 15:58:36.584913,-0.22059600055217743
2023-01-28 15:58:36.589913,-0.20167597480249025
2023-01-28 15:58:36.594913,-0.18222729861736298
2023-01-28 15:58:36.599913,-0.17096027226104762
2023-01-28 15:58:36.604913,-0.17023107409477223
2023-01-28 15:58:36.609913,-0.16822212076090176
2023-01-28 15:58:36.614913,-0.15859544277191148
2023-01-28 15:58:36.619913,-0.14908358703943606
2023-01-28 15:58:36.624913,-0.1450365781784059
2023-01-28 15:58:36.629913,-0.14038645540219125
2023-01-28 15:58:36.634913,-0.13056418299674988
2023-01-28 15:58:36.639913,-0.12055184061621912
2023-01-28 15:58:36.644913,-0.11416852474212656
2023-01-28 15:58:36.649913,-0.10705300470122711
2023-01-28 15:58:36.654913,-0.09601791948080053
2023-01-28 15:58:36.659913,-0.08529536179980186
2023-01-28 15:58:36.664913,-0.07805963605642328
2023-01-28 15:58:36.669913,-0.07050189053559612
2023-01-28 15:58:36.674913,-0.05930801481008536
2023-01-28 15:58:36.679913,-0.04718704311867415
2023-01-28 15:58:36.684913,-0.03634929656982428
2023-01-28 15:58:36.689913,-0.023653551465455943
2023-01-28 15:58:36.694913,-0.00670731067657483
2023-01-28 15:58:36.699913,0.01158962866386211
2023-01-28 15:58:36.704913,0.02870440483093236
2023-01-28 15:58:36.709913,0.046838037690116054
2023-01-28 15:58:36.714913,0.06784240901470187
2023-01-28 15:58:36.719913,0.08919750186950112
2023-01-28 15:58:36.724913,0.10866324603557567
2023-01-28 15:58:36.729913,0.12790619595820943
2023-01-28 15:58:36.734913,0.14801761507987954
2023-01-28 15:58:36.739913,0.16602705690447908
2023-01-28 15:58:36.744913,0.179150104522705
2023-01-28 15:58:36.749913,0.1882829172371154
2023-01-28 15:58:36.754913,0.19431969523429854
2023-01-28 15:58:36.759913,0.19513060467672363
2023-01-28 15:58:36.764913,0.18917500972747794
2023-01-28 15:58:36.769913,0.17835383712106595
2023-01-28 15:58:36.774913,0.16448538005352012
2023-01-28 15:58:36.779913,0.1464589511425763
2023-01-28 15:58:36.784913,0.123472213745117
2023-01-28 15:58:36.789913,0.09772305345343191
2023-01-28 15:58:36.794913,0.07140040397644026
2023-01-28 15:58:36.799913,0.04418766158321928
2023-01-28 15:58:36.804913,0.016107162460684683
2023-01-28 15:58:36.809913,-0.010238876609843827
2023-01-28 15:58:36.814913,-0.032623015344142726
2023-01-28 15:58:36.819913,-0.05162976898120791
2023-01-28 15:58:36.824913,-0.0681068524718285
2023-01-28 15:58:36.829913,-0.08098468896230274
2023-01-28 15:58:36.834913,-0.08967121690511692
2023-01-28 15:58:36.839913,-0.09591126294455256
2023-01-28 15:58:36.844913,-0.10116259753704068
2023-01-28 15:58:36.849913,-0.1045040590926562
2023-01-28 15:58:36.854913,-0.10498504340648651
2023-01-28 15:58:36.859913,-0.10367842159644886
2023-01-28 15:58:36.864913,-0.10164340585470205
2023-01-28 15:58:36.869913,-0.09819839719858559
2023-01-28 15:58:36.874913,-0.09298881143331512
2023-01-28 15:58:36.879913,-0.08755588793963917
2023-01-28 15:58:36.884913,-0.08310814946889894
2023-01-28 15:58:36.889913,-0.07874898416657151
2023-01-28 15:58:36.894913,-0.07346789538860311
2023-01-28 15:58:36.899913,-0.0678910146513349
2023-01-28 15:58:36.904913,-0.06260156631469718
2023-01-28 15:58:36.909913,-0.05677400043957065
2023-01-28 15:58:36.914913,-0.05002836510539045
2023-01-28 15:58:36.919913,-0.04377480445352629
2023-01-28 15:58:36.924913,-0.03923416137695305
2023-01-28 15:58:36.929913,-0.03582652994958859
2023-01-28 15:58:36.934913,-0.03279129788279507
2023-01-28 15:58:36.939913,-0.03061013338402472
2023-01-28 15:58:36.944913,-0.02952178381383417
2023-01-28 15:58:36.949913,-0.028383262791086886
2023-01-28 15:58:36.954913,-0.02637247368693344
2023-01-28 15:58:36.959913,-0.024275001136583683
2023-01-28 15:58:36.964913,-0.022886594757437744
2023-01-28 15:58:36.969913,-0.021676748363040056
2023-01-28 15:58:36.974913,-0.02014597319066494
2023-01-28 15:58:36.979913,-0.018928376839106326
2023-01-28 15:58:36.984913,-0.0183910131454467
2023-01-28 15:58:36.989913,-0.017631732516900343
2023-01-28 15:58:36.994913,-0.01601099967956539
2023-01-28 15:58:36.999913,-0.014304675936225558
2023-01-28 15:58:37.004913,-0.013294419273733978
2023-01-28 15:58:37.009913,-0.01254503551886656
2023-01-28 15:58:37.014913,-0.01151541899889681
2023-01-28 15:58:37.019913,-0.010491506261606142
2023-01-28 15:58:37.024913,-0.009447932243347168
2023-01-28 15:58:37.029913,-0.007352479724695172
2023-01-28 15:58:37.034913,-0.0036541621666397834
2023-01-28 15:58:37.039913,0.0006907325411295157
2023-01-28 15:58:37.044913,0.004543662071227989
2023-01-28 15:58:37.049913,0.007782181965998992
2023-01-28 15:58:37.054913,0.010457634925842247
2023-01-28 15:58:37.059913,0.012095331396293053
2023-01-28 15:58:37.064913,0.012765526771545277
2023-01-28 15:58:37.069913,0.01370528417083106
2023-01-28 15:58:37.074913,0.015962919220328272
2023-01-28 15:58:37.079913,0.01936365887150496
2023-01-28 15:58:37.084913,0.023463567718863317
2023-01-28 15:58:37.089913,0.028434707557224933
2023-01-28 15:58:37.094913,0.03432989120483383
2023-01-28 15:58:37.099913,0.04060799065533755
2023-01-28 15:58:37.104913,0.047191582620143835
2023-01-28 15:58:37.109913,0.055025687136952224
2023-01-28 15:58:37.114913,0.06481330096721641
2023-01-28 15:58:37.119913,0.07595269600920554
2023-01-28 15:58:37.124913,0.08719503879547104
2023-01-28 15:58:37.129913,0.09741698029135258
2023-01-28 15:58:37.134913,0.10527352988719951
2023-01-28 15:58:37.139913,0.10917635677107326
2023-01-28 15:58:37.144913,0.10842283815145484
2023-01-28 15:58:37.149913,0.10374696028271292
2023-01-28 15:58:37.154913,0.0963544845581055
2023-01-28 15:58:37.159913,0.08712429988737792
2023-01-28 15:58:37.164913,0.07704993337392804
2023-01-28 15:58:37.169913,0.06761158877798978
2023-01-28 15:58:37.174913,0.06019751355051975
2023-01-28 15:58:37.179913,0.055529770846523656
2023-01-28 15:58:37.184913,0.05353828519582722
2023-01-28 15:58:37.189913,0.05303659436068011
2023-01-28 15:58:37.194913,0.051687162369489704
2023-01-28 15:58:37.199913,0.04734235616811365
2023-01-28 15:58:37.204913,0.039714973419904556
2023-01-28 15:58:37.209913,0.03066988132243182
2023-01-28 15:58:37.214913,0.02437710762023918
2023-01-28 15:58:37.219913,0.02917843187634177
2023-01-28 15:58:37.224913,0.058394473046064106
2023-01-28 15:58:37.229913,0.12535311357169912
2023-01-28 15:58:37.234913,0.2340827435255049
2023-01-28 15:58:37.239913,0.37308839550597667
2023-01-28 15:58:37.244913,0.5166312456130981
2023-01-28 15:58:37.249913,0.63145955877777
2023-01-28 15:58:37.254913,0.6861410737037655
2023-01-28 15:58:37.259913,0.6619824632882253
2023-01-28 15:58:37.264913,0.5619476437568662
2023-01-28 15:58:37.269913,0.4111562501087789
2023-01-28 15:58:37.274913,0.24720887839794142
2023-01-28 15:58:37.279913,0.1064187087790358
2023-01-28 15:58:37.284913,0.013126134872436504
2023-01-28 15:58:37.289913,-0.02538686132670843
2023-01-28 15:58:37.294913,-0.018270811066031435
2023-01-28 15:58:37.299913,0.015324186045288115
2023-01-28 15:58:37.304913,0.05584617704153051
2023-01-28 15:58:37.309913,0.09033625651342708
2023-01-28 15:58:37.314913,0.11363963782787333
2023-01-28 15:58:37.319913,0.126198655412996
2023-01-28 15:58:37.324913,0.13167004287242892
2023-01-28 15:58:37.329913,0.13460531717191893
2023-01-28 15:58:37.334913,0.1380407810211182
2023-01-28 15:58:37.339913,0.14268828877179063
2023-01-28 15:58:37.344913,0.1482820510864255
2023-01-28 15:58:37.349913,0.15479421671634053
2023-01-28 15:58:37.354913,0.1620572805404663
2023-01-28 15:58:37.359913,0.16937565996398832
2023-01-28 15:58:37.364913,0.1763373613357544
2023-01-28 15:58:37.369913,0.18334910565797333
2023-01-28 15:58:37.374913,0.19083380699157715
2023-01-28 15:58:37.379913,0.1986016008717722
2023-01-28 15:58:37.384913,0.20648419857025138
2023-01-28 15:58:37.389913,0.21483658818896278
2023-01-28 15:58:37.394913,0.22391359508037556
2023-01-28 15:58:37.399913,0.2334902811776705
2023-01-28 15:58:37.404913,0.24362683296203624
2023-01-28 15:58:37.409913,0.25513787461581044
2023-01-28 15:58:37.414913,0.2687972784042356
2023-01-28 15:58:37.419913,0.28465026028850576
2023-01-28 15:58:37.424913,0.3024300038814541
2023-01-28 15:58:37.429913,0.3218774650061127
2023-01-28 15:58:37.434913,0.342169016599655
2023-01-28 15:58:37.439913,0.36175569290244736
2023-01-28 15:58:37.444913,0.3793837726116177
2023-01-28 15:58:37.449913,0.3948454674239268
2023-01-28 15:58:37.454913,0.40842473506927496
2023-01-28 15:58:37.459913,0.4202161800748544
2023-01-28 15:58:37.464913,0.4302775859832762
2023-01-28 15:58:37.469913,0.43864648442038784
2023-01-28 15:58:37.474913,0.4446057677268982
2023-01-28 15:58:37.479913,0.44644970821241015
2023-01-28 15:58:37.484913,0.44249019026756276
2023-01-28 15:58:37.489913,0.4319863886080969
2023-01-28 15:58:37.494913,0.41498780250549294
2023-01-28 15:58:37.499913,0.39203546894794317
2023-01-28 15:58:37.504913,0.36447864770889266
2023-01-28 15:58:37.509913,0.3344583201953754
2023-01-28 15:58:37.514913,0.3039686083793639
2023-01-28 15:58:37.519913,0.27415461826228743
2023-01-28 15:58:37.524913,0.24564623832702626
2023-01-28 15:58:37.529913,0.21895444889614427
2023-01-28 15:58:37.534913,0.19419948756694777
2023-01-28 15:58:37.539913,0.1710482854140817
2023-01-28 15:58:37.544913,0.14941196143627167
2023-01-28 15:58:37.549913,0.1298671153409347
2023-01-28 15:58:37.554913,0.11313478648662563
2023-01-28 15:58:37.559913,0.09958681707084151
2023-01-28 15:58:37.564913,0.08947889506816865
2023-01-28 15:58:37.569913,0.0830824388049412
2023-01-28 15:58:37.574913,0.08017520606517807
2023-01-28 15:58:37.579913,0.07980898004409505
2023-01-28 15:58:37.584913,0.08092045783996565
2023-01-28 15:58:37.589913,0.08284598142069571
2023-01-28 15:58:37.594913,0.08507947623729685
2023-01-28 15:58:37.599913,0.0870626530070776
2023-01-28 15:58:37.604913,0.0885653495788574
2023-01-28 15:58:37.609913,0.08987338022892635
2023-01-28 15:58:37.614913,0.0912819355726242
2023-01-28 15:58:37.619913,0.09271797582341497
2023-01-28 15:58:37.624913,0.0940465927124022
2023-01-28 15:58:37.629913,0.09532726332289011
2023-01-28 15:58:37.634913,0.0965227708220481
2023-01-28 15:58:37.639913,0.09735906094402391
2023-01-28 15:58:37.644913,0.09774883836507797
2023-01-28 15:58:37.649913,0.09801703525842752
2023-01-28 15:58:37.654913,0.09847005456686014
2023-01-28 15:58:37.659913,0.09903938797262443
2023-01-28 15:58:37.664913,0.09950380027294135
2023-01-28 15:58:37.669913,0.09970537036606071
2023-01-28 15:58:37.674913,0.09938359260559085
2023-01-28 15:58:37.679913,0.09819065231327789
2023-01-28 15:58:37.684913,0.09611408412456525
2023-01-28 15:58:37.689913,0.09359438484181255
2023-01-28 15:58:37.694913,0.09104152768850313
2023-01-28 15:58:37.699913,0.08848746397642082
2023-01-28 15:58:37.704913,0.085800692439079
2023-01-28 15:58:37.709913,0.08291750338987003
2023-01-28 15:58:37.714913,0.07976651191711405
2023-01-28 15:58:37.719913,0.07632686541893742
2023-01-28 15:58:37.724913,0.0729149580001832
2023-01-28 15:58:37.729913,0.07010861490447057
2023-01-28 15:58:37.734913,0.06822705268859855
2023-01-28 15:58:37.739913,0.06707289862037825
2023-01-28 15:58:37.744913,0.06618361175060282
2023-01-28 15:58:37.749913,0.06508114146110934
2023-01-28 15:58:37.754913,0.06337086856365201
2023-01-28 15:58:37.759913,0.061023044923914686
2023-01-28 15:58:37.764913,0.05858679860830295
2023-01-28 15:58:37.769913,0.05674556186293002
2023-01-28 15:58:37.774913,0.05562981218099577
2023-01-28 15:58:37.779913,0.05489762186409664
2023-01-28 15:58:37.784913,0.05440374463796593
2023-01-28 15:58:37.789913,0.054330598202549915
2023-01-28 15:58:37.794913,0.054740309715270614
2023-01-28 15:58:37.799913,0.0556102179137459
2023-01-28 15:58:37.804913,0.05740880966186508
2023-01-28 15:58:37.809913,0.06104275346511029
2023-01-28 15:58:37.814913,0.06695290654897658
2023-01-28 15:58:37.819913,0.07458454643609312
2023-01-28 15:58:37.824913,0.08279561996459961
2023-01-28 15:58:37.829913,0.09031231803094125
2023-01-28 15:58:37.834913,0.09570538997650116
2023-01-28 15:58:37.839913,0.09755764886573623
2023-01-28 15:58:37.844913,0.09510438144207012
2023-01-28 15:58:37.849913,0.08852182471791824
2023-01-28 15:58:37.854913,0.07849236577749256
2023-01-28 15:58:37.859913,0.06585227929915304
2023-01-28 15:58:37.864913,0.05178332328796364
2023-01-28 15:58:37.869913,0.03787431780262411
2023-01-28 15:58:37.874913,0.02562721632420996
2023-01-28 15:58:37.879913,0.016000920765159625
2023-01-28 15:58:37.884913,0.009351770393550377
2023-01-28 15:58:37.889913,0.005248131510749905
2023-01-28 15:58:37.894913,0.0020434460602698056
2023-01-28 15:58:37.899913,-0.002856100967731849
2023-01-28 15:58:37.904913,-0.01141925714910019
2023-01-28 15:58:37.909913,-0.02280501351708375
2023-01-28 15:58:37.914913,-0.03168543428182602
2023-01-28 15:58:37.919913,-0.027899314988314963
2023-01-28 15:58:37.924913,0.0015866756439209364
2023-01-28 15:58:37.929913,0.06766591489667778
2023-01-28 15:58:37.934913,0.1722745150327682
2023-01-28 15:58:37.939913,0.30332446436920335
2023-01-28 15:58:37.944913,0.43486934900283775
2023-01-28 15:58:37.949913,0.5334922811695532
2023-01-28 15:58:37.954913,0.5691117048263545
2023-01-28 15:58:37.959913,0.5263608486177535
2023-01-28 15:58:37.964913,0.41159808635711626
2023-01-28 15:58:37.969913,0.2516820398190268
2023-01-28 15:58:37.974913,0.08457462489604921
2023-01-28 15:58:37.979913,-0.05379950989423423
2023-01-28 15:58:37.984913,-0.14058908820152272
2023-01-28 15:58:37.989913,-0.17097592820647217
2023-01-28 15:58:37.994913,-0.15609523653984045
2023-01-28 15:58:37.999913,-0.11569734314189996
2023-01-28 15:58:38.004913,-0.06938099861145021
2023-01-28 15:58:38.009913,-0.030463907654099804
2023-01-28 15:58:38.014913,-0.004327297210693435
2023-01-28 15:58:38.019913,0.009816582574812362
2023-01-28 15:58:38.024913,0.01589079760015011
2023-01-28 15:58:38.029913,0.01817642113087214
2023-01-28 15:58:38.034913,0.019593041390180456
2023-01-28 15:58:38.039913,0.021398244135235795
2023-01-28 15:58:38.044913,0.023896297439932785
2023-01-28 15:58:38.049913,0.0271459710285636
2023-01-28 15:58:38.054913,0.031132500618696154
2023-01-28 15:58:38.059913,0.0357411676054114
2023-01-28 15:58:38.064913,0.04086891934275614
2023-01-28 15:58:38.069913,0.046482442700516664
2023-01-28 15:58:38.074913,0.05250453948974592
2023-01-28 15:58:38.079913,0.0588228649423922
2023-01-28 15:58:38.084913,0.0655104741454124
2023-01-28 15:58:38.089913,0.07287954191580155
2023-01-28 15:58:38.094913,0.08120894432067859
2023-01-28 15:58:38.099913,0.09052358412335622
2023-01-28 15:58:38.104913,0.10068178176879868
2023-01-28 15:58:38.109913,0.11153728987791338
2023-01-28 15:58:38.114913,0.12299140542745597
2023-01-28 15:58:38.119913,0.13509193773523281
2023-01-28 15:58:38.124913,0.1481858938932419
2023-01-28 15:58:38.129913,0.16280775727449515
2023-01-28 15:58:38.134913,0.17924627661704995
2023-01-28 15:58:38.139913,0.1972084766129084
2023-01-28 15:58:38.144913,0.21586000919342033
2023-01-28 15:58:38.149913,0.23404807408527328
2023-01-28 15:58:38.154913,0.2505024373531339
2023-01-28 15:58:38.159913,0.26407642771794887
2023-01-28 15:58:38.164913,0.2739900350570678
2023-01-28 15:58:38.169913,0.2798143730392484
2023-01-28 15:58:38.174913,0.2811781764030454
2023-01-28 15:58:38.179913,0.2775616059890278
2023-01-28 15:58:38.184913,0.26841264963149997
2023-01-28 15:58:38.189913,0.25341741591470135
2023-01-28 15:58:38.194913,0.23271243274211867
2023-01-28 15:58:38.199913,0.20702063735033227
2023-01-28 15:58:38.204913,0.1776596009731291
2023-01-28 15:58:38.209913,0.14628263522254328
2023-01-28 15:58:38.214913,0.11443297564983344
2023-01-28 15:58:38.219913,0.08322990194049726
2023-01-28 15:58:38.224913,0.05334595963358862
2023-01-28 15:58:38.229913,0.025138734698790036
2023-01-28 15:58:38.234913,-0.0012020270805805353
2023-01-28 15:58:38.239913,-0.02550290181674662
2023-01-28 15:58:38.244913,-0.04750410839915258
2023-01-28 15:58:38.249913,-0.06689770878111907
2023-01-28 15:58:38.254913,-0.08344471454620382
2023-01-28 15:58:38.259913,-0.09702466246034706
2023-01-28 15:58:38.264913,-0.10762950032949457
2023-01-28 15:58:38.269913,-0.11540685376172764
2023-01-28 15:58:38.274913,-0.12070755660533901
2023-01-28 15:58:38.279913,-0.12401283933553274
2023-01-28 15:58:38.284913,-0.1257801055908204
2023-01-28 15:58:38.289913,-0.1263482805074107
2023-01-28 15:58:38.294913,-0.12592434883117679
2023-01-28 15:58:38.299913,-0.12459885741604736
2023-01-28 15:58:38.304913,-0.12241443246603013
2023-01-28 15:58:38.309913,-0.11949463560813059
2023-01-28 15:58:38.314913,-0.11611580848693842
2023-01-28 15:58:38.319913,-0.11264517675779323
2023-01-28 15:58:38.324913,-0.10943254083394999
2023-01-28 15:58:38.329913,-0.10672932551980174
2023-01-28 15:58:38.334913,-0.10460039228200929
2023-01-28 15:58:38.339913,-0.10288181446840156
2023-01-28 15:58:38.344913,-0.10133087635040298
2023-01-28 15:58:38.349913,-0.09987827591313896
2023-01-28 15:58:38.354913,-0.09866237640380851
2023-01-28 15:58:38.359913,-0.09780730155384097
2023-01-28 15:58:38.364913,-0.09731610864400864
2023-01-28 15:58:38.369913,-0.09725555463863679
2023-01-28 15:58:38.374913,-0.09789308160543453
2023-01-28 15:58:38.379913,-0.09950032362999225
2023-01-28 15:58:38.384913,-0.10207613557577128
2023-01-28 15:58:38.389913,-0.10534666426656297
2023-01-28 15:58:38.394913,-0.10895173251628873
2023-01-28 15:58:38.399913,-0.11254304476835811
2023-01-28 15:58:38.404913,-0.1158273220062254
2023-01-28 15:58:38.409913,-0.11870992781556053
2023-01-28 15:58:38.414913,-0.12140472978353523
2023-01-28 15:58:38.419913,-0.1242790281964504
2023-01-28 15:58:38.424913,-0.12753507494926458
2023-01-28 15:58:38.429913,-0.131040181716506
2023-01-28 15:58:38.434913,-0.13441066443920122
2023-01-28 15:58:38.439913,-0.13722987538457773
2023-01-28 15:58:38.444913,-0.1392908990383148
2023-01-28 15:58:38.449913,-0.14076079216510531
2023-01-28 15:58:38.454913,-0.14210364222526545
2023-01-28 15:58:38.459913,-0.14374334038780823
2023-01-28 15:58:38.464913,-0.14573375880718228
2023-01-28 15:58:38.469913,-0.1477189425610633
2023-01-28 15:58:38.474913,-0.14917156100273124
2023-01-28 15:58:38.479913,-0.1496932292304485
2023-01-28 15:58:38.484913,-0.14919559657573683
2023-01-28 15:58:38.489913,-0.147861425594516
2023-01-28 15:58:38.494913,-0.14587800204753867
2023-01-28 15:58:38.499913,-0.14313527981540547
2023-01-28 15:58:38.504913,-0.13919472694396967
2023-01-28 15:58:38.509913,-0.13362224009459456
2023-01-28 15:58:38.514913,-0.1264532506465911
2023-01-28 15:58:38.519913,-0.11849089248371211
2023-01-28 15:58:38.524913,-0.11128365993499745
2023-01-28 15:58:38.529913,-0.10674732530384078
2023-01-28 15:58:38.534913,-0.10652363300323478
2023-01-28 15:58:38.539913,-0.11137156066035579
2023-01-28 15:58:38.544913,-0.12092392146587363
2023-01-28 15:58:38.549913,-0.1338722082656003
2023-01-28 15:58:38.554913,-0.14837822318077068
2023-01-28 15:58:38.559913,-0.16251984021494847
2023-01-28 15:58:38.564913,-0.17467856407165516
2023-01-28 15:58:38.569913,-0.18379580916382224
2023-01-28 15:58:38.574913,-0.1895115822553635
2023-01-28 15:58:38.579913,-0.19233454457984256
2023-01-28 15:58:38.584913,-0.19383887946605677
2023-01-28 15:58:38.589913,-0.19648384737222993
2023-01-28 15:58:38.594913,-0.20258963108062736
2023-01-28 15:58:38.599913,-0.21251697583353643
2023-01-28 15:58:38.604913,-0.22273561358451843
2023-01-28 15:58:38.609913,-0.22484908307102802
2023-01-28 15:58:38.614913,-0.2067486494779586
2023-01-28 15:58:38.619913,-0.15659389774552168
2023-01-28 15:58:38.624913,-0.06885211169719706
2023-01-28 15:58:38.629913,0.05019485995926764
2023-01-28 15:58:38.634913,0.18068870902061457
2023-01-28 15:58:38.639913,0.2930536244774937
2023-01-28 15:58:38.644913,0.35685777664184554
2023-01-28 15:58:38.649913,0.35163998491314197
2023-01-28 15:58:38.654913,0.27521610260009743
2023-01-28 15:58:38.659913,0.14542203506938067
2023-01-28 15:58:38.664913,-0.005938013549894089
2023-01-28 15:58:38.669913,-0.14428907609055378
2023-01-28 15:58:38.674913,-0.24360279738903023
2023-01-28 15:58:38.679913,-0.2932875660495161
2023-01-28 15:58:38.684913,-0.29855948686599726
2023-01-28 15:58:38.689913,-0.27509016986040236
2023-01-28 15:58:38.694913,-0.24103045463562012
2023-01-28 15:58:38.699913,-0.21029318461268723
2023-01-28 15:58:38.704913,-0.1896077394485472
2023-01-28 15:58:38.709913,-0.17928025869584008
2023-01-28 15:58:38.714913,-0.17588059604167927
2023-01-28 15:58:38.719913,-0.17508699686280824
2023-01-28 15:58:38.724913,-0.17366886138916007
2023-01-28 15:58:38.729913,-0.17018773217492897
2023-01-28 15:58:38.734913,-0.1646055877208709
2023-01-28 15:58:38.739913,-0.15755775268427027
2023-01-28 15:58:38.744913,-0.14991681277751942
2023-01-28 15:58:38.749913,-0.1425712976947616
2023-01-28 15:58:38.754913,-0.1361175477504729
2023-01-28 15:58:38.759913,-0.13061234740677227
2023-01-28 15:58:38.764913,-0.12568394839763625
2023-01-28 15:58:38.769913,-0.12085058106459202
2023-01-28 15:58:38.774913,-0.11570712178945547
2023-01-28 15:58:38.779913,-0.10999196057896173
2023-01-28 15:58:38.784913,-0.1036628112196923
2023-01-28 15:58:38.789913,-0.09681429910551302
2023-01-28 15:58:38.794913,-0.08933465182781204
2023-01-28 15:58:38.799913,-0.08067205617910103
2023-01-28 15:58:38.804913,-0.07005413621664051
2023-01-28 15:58:38.809913,-0.05691266510873588
2023-01-28 15:58:38.814913,-0.04110932350158699
2023-01-28 15:58:38.819913,-0.023000169583792838
2023-01-28 15:58:38.824913,-0.0034858784638344955
2023-01-28 15:58:38.829913,0.01615248419424434
2023-01-28 15:58:38.834913,0.03473858162760738
2023-01-28 15:58:38.839913,0.05158104999749728
2023-01-28 15:58:38.844913,0.06637593358755098
2023-01-28 15:58:38.849913,0.07889990583371627
2023-01-28 15:58:38.854913,0.08887787908315635
2023-01-28 15:58:38.859913,0.09591114061061269
2023-01-28 15:58:38.864913,0.09931147098541251
2023-01-28 15:58:38.869913,0.09814433338703372
2023-01-28 15:58:38.874913,0.09166657924652084
2023-01-28 15:58:38.879913,0.07970847447158035
2023-01-28 15:58:38.884913,0.06260156631469704
2023-01-28 15:58:38.889913,0.040958395805582144
2023-01-28 15:58:38.894913,0.015674432739615173
2023-01-28 15:58:38.899913,-0.012088350673733126
2023-01-28 15:58:38.904913,-0.04118144512176535
2023-01-28 15:58:38.909913,-0.07064615332098906
2023-01-28 15:58:38.914913,-0.09950380027294141
2023-01-28 15:58:38.919913,-0.12661103745787727
2023-01-28 15:58:38.924913,-0.15097460150718675
2023-01-28 15:58:38.929913,-0.1720927201814514
2023-01-28 15:58:38.934913,-0.1898481547832489
2023-01-28 15:58:38.939913,-0.20429260364305643
2023-01-28 15:58:38.944913,-0.21573981642723083
2023-01-28 15:58:38.949913,-0.224799418178809
2023-01-28 15:58:38.954913,-0.23196718096733077
2023-01-28 15:58:38.959913,-0.23728512741380578
2023-01-28 15:58:38.964913,-0.24064581096172333
2023-01-28 15:58:38.969913,-0.24227983439880926
2023-01-28 15:58:38.974913,-0.24268925189971918
2023-01-28 15:58:38.979913,-0.24226901483834212
2023-01-28 15:58:38.984913,-0.24129490554332717
2023-01-28 15:58:38.989913,-0.24014503695773146
2023-01-28 15:58:38.994913,-0.23917934298515298
2023-01-28 15:58:38.999913,-0.23841181506561196
2023-01-28 15:58:39.004913,-0.23754458129405975
2023-01-28 15:58:39.009913,-0.2363048450891891
2023-01-28 15:58:39.014913,-0.23458759486675246
2023-01-28 15:58:39.019913,-0.2323877135537471
2023-01-28 15:58:39.024913,-0.22982756793498982
2023-01-28 15:58:39.029913,-0.22718612220140447
2023-01-28 15:58:39.034913,-0.22470693290233584
2023-01-28 15:58:39.039913,-0.2224509337328114
2023-01-28 15:58:39.044913,-0.22049984335899345
2023-01-28 15:58:39.049913,-0.2191877405650967
2023-01-28 15:58:39.054913,-0.21893720328807836
2023-01-28 15:58:39.059913,-0.21993201972675339
2023-01-28 15:58:39.064913,-0.2220384329557417
2023-01-28 15:58:39.069913,-0.22484335918374404
2023-01-28 15:58:39.074913,-0.22759179770946486
2023-01-28 15:58:39.079913,-0.2293258486987259
2023-01-28 15:58:39.084913,-0.22944292426109317
2023-01-28 15:58:39.089913,-0.22816115538283008
2023-01-28 15:58:39.094913,-0.22636573016643513
2023-01-28 15:58:39.099913,-0.2251073320726554
2023-01-28 15:58:39.104913,-0.22523581981658924
2023-01-28 15:58:39.109913,-0.2271053517236405
2023-01-28 15:58:39.114913,-0.23026029765605918
2023-01-28 15:58:39.119913,-0.23354034062900078
2023-01-28 15:58:39.124913,-0.23581366240978252
2023-01-28 15:58:39.129913,-0.23667168745883646
2023-01-28 15:58:39.134913,-0.23643872141838057
2023-01-28 15:58:39.139913,-0.23577352004264795
2023-01-28 15:58:39.144913,-0.235380932688713
2023-01-28 15:58:39.149913,-0.2357527141462739
2023-01-28 15:58:39.154913,-0.23682336509227758
2023-01-28 15:58:39.159913,-0.23798318461267223
2023-01-28 15:58:39.164913,-0.23865044116973877
2023-01-28 15:58:39.169913,-0.23873995251197105
2023-01-28 15:58:39.174913,-0.23848216235637634
2023-01-28 15:58:39.179913,-0.23803092221444017
2023-01-28 15:58:39.184913,-0.23742437362670893
2023-01-28 15:58:39.189913,-0.23667483421941515
2023-01-28 15:58:39.194913,-0.23566941916942588
2023-01-28 15:58:39.199913,-0.23420237475569178
2023-01-28 15:58:39.204913,-0.23232778906822207
2023-01-28 15:58:39.209913,-0.23045926403511055
2023-01-28 15:58:39.214913,-0.2288659512996673
2023-01-28 15:58:39.219913,-0.2272067611986146
2023-01-28 15:58:39.224913,-0.22470693290233645
2023-01-28 15:58:39.229913,-0.2206010067799475
2023-01-28 15:58:39.234913,-0.21434545516967793
2023-01-28 15:58:39.239913,-0.20584648359563937
2023-01-28 15:58:39.244913,-0.19588232040405293
2023-01-28 15:58:39.249913,-0.1861419285759146
2023-01-28 15:58:39.254913,-0.17854909598827362
2023-01-28 15:58:39.259913,-0.17455652627006057
2023-01-28 15:58:39.264913,-0.17501513659954082
2023-01-28 15:58:39.269913,-0.18021122871371048
2023-01-28 15:58:39.274913,-0.18963178992271407
2023-01-28 15:58:39.279913,-0.20189393964664104
2023-01-28 15:58:39.284913,-0.2152109146118166
2023-01-28 15:58:39.289913,-0.2278684514230334
2023-01-28 15:58:39.294913,-0.2382898330688477
2023-01-28 15:58:39.299913,-0.24521127106090737
2023-01-28 15:58:39.304913,-0.24836282432079293
2023-01-28 15:58:39.309913,-0.24899322876252206
2023-01-28 15:58:39.314913,-0.24954080581665045
2023-01-28 15:58:39.319913,-0.25269441915390045
2023-01-28 15:58:39.324913,-0.2601907849311829
2023-01-28 15:58:39.329913,-0.2711174420993864
2023-01-28 15:58:39.334913,-0.2800482511520384
2023-01-28 15:58:39.339913,-0.2766466886107408
2023-01-28 15:58:39.344913,-0.248170495033264
2023-01-28 15:58:39.349913,-0.1844784779288666
2023-01-28 15:58:39.354913,-0.0837332010269163
2023-01-28 15:58:39.359913,0.04338688941016534
2023-01-28 15:58:39.364913,0.17338037490844707
2023-01-28 15:58:39.369913,0.27533267418924384
2023-01-28 15:58:39.374913,0.32108545303344704
2023-01-28 15:58:39.379913,0.2958397060729026
2023-01-28 15:58:39.384913,0.20417630672454803
2023-01-28 15:58:39.389913,0.06889927531752243
2023-01-28 15:58:39.394913,-0.07676144689321518
2023-01-28 15:58:39.399913,-0.20060023526116996
2023-01-28 15:58:39.404913,-0.28182727098464955
2023-01-28 15:58:39.409913,-0.3158498489733134
2023-01-28 15:58:39.414913,-0.31199812889099127
2023-01-28 15:58:39.419913,-0.286716520276602
2023-01-28 15:58:39.424913,-0.2562240958213805
2023-01-28 15:58:39.429913,-0.23143700204138376
2023-01-28 15:58:39.434913,-0.21629273891448955
2023-01-28 15:58:39.439913,-0.20932045418376596
2023-01-28 15:58:39.444913,-0.2068688571453096
2023-01-28 15:58:39.449913,-0.20571830648038636
2023-01-28 15:58:39.454913,-0.20398399233818046
2023-01-28 15:58:39.459913,-0.20092970591921602
2023-01-28 15:58:39.464913,-0.19655546545982353
2023-01-28 15:58:39.469913,-0.19113685120995244
2023-01-28 15:58:39.474913,-0.1848477125167845
2023-01-28 15:58:39.479913,-0.17779721821186575
2023-01-28 15:58:39.484913,-0.17030319571495045
2023-01-28 15:58:39.489913,-0.16285432011174425
2023-01-28 15:58:39.494913,-0.15580675005912786
2023-01-28 15:58:39.499913,-0.1492730316156521
2023-01-28 15:58:39.504913,-0.1431373804807663
2023-01-28 15:58:39.509913,-0.13693428116844172
2023-01-28 15:58:39.514913,-0.1299150884151458
2023-01-28 15:58:39.519913,-0.12150204150363411
2023-01-28 15:58:39.524913,-0.1114759892225265
2023-01-28 15:58:39.529913,-0.09962830956026607
2023-01-28 15:58:39.534913,-0.08577664941549284
2023-01-28 15:58:39.539913,-0.07035524197787163
2023-01-28 15:58:39.544913,-0.05421141907572733
2023-01-28 15:58:39.549913,-0.037417312955773316
2023-01-28 15:58:39.554913,-0.019328594207763748
2023-01-28 15:58:39.559913,-0.000520442708176778
2023-01-28 15:58:39.564913,0.0166841354221103
2023-01-28 15:58:39.569913,0.030974414086913062
2023-01-28 15:58:39.574913,0.04413843154907209
2023-01-28 15:58:39.579913,0.05850755609971365
2023-01-28 15:58:39.584913,0.0731313228607176
2023-01-28 15:58:39.589913,0.0846233483528463
2023-01-28 15:58:39.594913,0.0912578925490378
2023-01-28 15:58:39.599913,0.09375482419676869
2023-01-28 15:58:39.604913,0.09209930896759023
2023-01-28 15:58:39.609913,0.08434175730572505
2023-01-28 15:58:39.614913,0.06930887699127188
2023-01-28 15:58:39.619913,0.048251482477451424
2023-01-28 15:58:39.624913,0.022910635918378795
2023-01-28 15:58:39.629913,-0.005978052476974052
2023-01-28 15:58:39.634913,-0.03721475601196284
2023-01-28 15:58:39.639913,-0.06815228879150713
2023-01-28 15:58:39.644913,-0.09657084941864023
2023-01-28 15:58:39.649913,-0.12214306150117955
2023-01-28 15:58:39.654913,-0.1450365781784056
2023-01-28 15:58:39.659913,-0.16462524646143034
2023-01-28 15:58:39.664913,-0.18071274459362038
2023-01-28 15:58:39.669913,-0.19449472840812715
2023-01-28 15:58:39.674913,-0.20696501433849326
2023-01-28 15:58:39.679913,-0.2175533319058946
2023-01-28 15:58:39.684913,-0.2254281491041184
2023-01-28 15:58:39.689913,-0.23087916478050566
2023-01-28 15:58:39.694913,-0.2343471944332122
2023-01-28 15:58:39.699913,-0.23546421899102565
2023-01-28 15:58:39.704913,-0.2342991083860398
2023-01-28 15:58:39.709913,-0.23231943285770942
2023-01-28 15:58:39.714913,-0.23086130619049078
2023-01-28 15:58:39.719913,-0.22972349402705852
2023-01-28 15:58:39.724913,-0.22833704948425296
2023-01-28 15:58:39.729913,-0.22708846048375134
2023-01-28 15:58:39.734913,-0.2263416945934296
2023-01-28 15:58:39.739913,-0.2254195310984415
2023-01-28 15:58:39.744913,-0.22381743788719177
2023-01-28 15:58:39.749913,-0.22228119557105944
2023-01-28 15:58:39.754913,-0.22148549556732178
2023-01-28 15:58:39.759913,-0.22080712458563145
2023-01-28 15:58:39.764913,-0.21958629786968253
2023-01-28 15:58:39.769913,-0.21839686268197803
2023-01-28 15:58:39.774913,-0.21785537898540502
2023-01-28 15:58:39.779913,-0.21739509527733225
2023-01-28 15:58:39.784913,-0.21646103262901295
2023-01-28 15:58:39.789913,-0.21568053367955903
2023-01-28 15:58:39.794913,-0.21557152271270755
2023-01-28 15:58:39.799913,-0.2153361414701611
2023-01-28 15:58:39.804913,-0.21424929797649384
2023-01-28 15:58:39.809913,-0.2130145287472231
2023-01-28 15:58:39.814913,-0.212446257472038
2023-01-28 15:58:39.819913,-0.21209088055970532
2023-01-28 15:58:39.824913,-0.21148464083671564
2023-01-28 15:58:39.829913,-0.21143400268471402
2023-01-28 15:58:39.834913,-0.2126145362854004
2023-01-28 15:58:39.839913,-0.21419893345266747
2023-01-28 15:58:39.844913,-0.21530708670616142
2023-01-28 15:58:39.849913,-0.2164973193307342
2023-01-28 15:58:39.854913,-0.21838426589965812
2023-01-28 15:58:39.859913,-0.22016980272095557
2023-01-28 15:58:39.864913,-0.22105276584625258
2023-01-28 15:58:39.869913,-0.22168031899998136
2023-01-28 15:58:39.874913,-0.22263944149017365
2023-01-28 15:58:39.879913,-0.2229533968407433
2023-01-28 15:58:39.884913,-0.22170186042785658
2023-01-28 15:58:39.889913,-0.21969525915615698
2023-01-28 15:58:39.894913,-0.2179275006055832
2023-01-28 15:58:39.899913,-0.21591287183181276
2023-01-28 15:58:39.904913,-0.21326363086700428
2023-01-28 15:58:39.909913,-0.21129273527991324
2023-01-28 15:58:39.914913,-0.211172103881836
2023-01-28 15:58:39.919913,-0.2120196732692865
2023-01-28 15:58:39.924913,-0.21261453628540028
2023-01-28 15:58:39.929913,-0.21334829327884963
2023-01-28 15:58:39.934913,-0.21460990607738473
2023-01-28 15:58:39.939913,-0.21508296428199192
2023-01-28 15:58:39.944913,-0.21379253268241882
2023-01-28 15:58:39.949913,-0.21209932737601295
2023-01-28 15:58:39.954913,-0.21148464083671561
2023-01-28 15:58:39.959913,-0.21111367844398776
2023-01-28 15:58:39.964913,-0.20975372195243827
2023-01-28 15:58:39.969913,-0.20814092643711704
2023-01-28 15:58:39.974913,-0.20708522200584412
2023-01-28 15:58:39.979913,-0.2052872433223655
2023-01-28 15:58:39.984913,-0.20160397887229908
2023-01-28 15:58:39.989913,-0.19739329335859962
2023-01-28 15:58:39.994913,-0.19388696551322926
2023-01-28 15:58:39.999913,-0.189383027673902
2023-01-28 15:58:40.004913,-0.18193881213665
2023-01-28 15:58:40.009913,-0.17268052884152604
2023-01-28 15:58:40.014913,-0.16352376341819735
2023-01-28 15:58:40.019913,-0.15412730138495873
2023-01-28 15:58:40.024913,-0.14443556964397436
2023-01-28 15:58:40.029913,-0.1375901149320317
2023-01-28 15:58:40.034913,-0.13647815585136427
2023-01-28 15:58:40.039913,-0.1397946752074312
2023-01-28 15:58:40.044913,-0.1452769935131072
2023-01-28 15:58:40.049913,-0.15394392037473673
2023-01-28 15:58:40.054913,-0.16679327189922327
2023-01-28 15:58:40.059913,-0.18039215931532043
2023-01-28 15:58:40.064913,-0.19078573584556568
2023-01-28 15:58:40.069913,-0.19883026619831268
2023-01-28 15:58:40.074913,-0.20638804137706762
2023-01-28 15:58:40.079913,-0.2108582934071991
2023-01-28 15:58:40.084913,-0.21006624400615695
2023-01-28 15:58:40.089913,-0.20911551982125676
2023-01-28 15:58:40.094913,-0.21460990607738487
2023-01-28 15:58:40.099913,-0.22486348461986616
2023-01-28 15:58:40.104913,-0.23365001380443573
2023-01-28 15:58:40.109913,-0.23911692150858227
2023-01-28 15:58:40.114913,-0.23747245967388145
2023-01-28 15:58:40.119913,-0.21139562673483142
2023-01-28 15:58:40.124913,-0.14119009673595442
2023-01-28 15:58:40.129913,-0.03077085782874682
2023-01-28 15:58:40.134913,0.09118577092885971
2023-01-28 15:58:40.139913,0.19995529036255197
2023-01-28 15:58:40.144913,0.2897125482559202
2023-01-28 15:58:40.149913,0.3533403067792818
2023-01-28 15:58:40.154913,0.36544024944305387
2023-01-28 15:58:40.159913,0.303249654523876
2023-01-28 15:58:40.164913,0.1778038442134855
2023-01-28 15:58:40.169913,0.029800200669802657
2023-01-28 15:58:40.174913,-0.10222037881612778
2023-01-28 15:58:40.179913,-0.19894889825822834
2023-01-28 15:58:40.184913,-0.25307476520538336
2023-01-28 15:58:40.189913,-0.26389451577456785
2023-01-28 15:58:40.194913,-0.24268925189971946
2023-01-28 15:58:40.199913,-0.21045448520384213
2023-01-28 15:58:40.204913,-0.18321296572685242
2023-01-28 15:58:40.209913,-0.1642960009558621
2023-01-28 15:58:40.214913,-0.15171985328197474
2023-01-28 15:58:40.219913,-0.14509083321951077
2023-01-28 15:58:40.224913,-0.1427046507596969
2023-01-28 15:58:40.229913,-0.1394792730246084
2023-01-28 15:58:40.234913,-0.13236722350120553
2023-01-28 15:58:40.239913,-0.12347900467019776
2023-01-28 15:58:40.244913,-0.11515419185161606
2023-01-28 15:58:40.249913,-0.10627678871664373
2023-01-28 15:58:40.254913,-0.09580155462026593
2023-01-28 15:58:40.259913,-0.08555625935210942
2023-01-28 15:58:40.264913,-0.07685761153697962
2023-01-28 15:58:40.269913,-0.06798796341745547
2023-01-28 15:58:40.274913,-0.05748093128204341
2023-01-28 15:58:40.279913,-0.046681834506290786
2023-01-28 15:58:40.284913,-0.036830108612776
2023-01-28 15:58:40.289913,-0.026583464273576263
2023-01-28 15:58:40.294913,-0.014520486816763621
2023-01-28 15:58:40.299913,-0.0013447049133644194
2023-01-28 15:58:40.304913,0.012356838211417013
2023-01-28 15:58:40.309913,0.02794210511573937
2023-01-28 15:58:40.314913,0.04635016247630102
2023-01-28 15:58:40.319913,0.06621545064848307
2023-01-28 15:58:40.324913,0.08613725751638401
2023-01-28 15:58:40.329913,0.10672409884263342
2023-01-28 15:58:40.334913,0.12876114249229423
2023-01-28 15:58:40.339913,0.15138885676313876
2023-01-28 15:58:40.344913,0.17366886138916005
2023-01-28 15:58:40.349913,0.1959955134685077
2023-01-28 15:58:40.354913,0.21836023032665222
2023-01-28 15:58:40.359913,0.238966176149924
2023-01-28 15:58:40.364913,0.2560558021068571
2023-01-28 15:58:40.369913,0.26951607832064406
2023-01-28 15:58:40.374913,0.279351085424423
2023-01-28 15:58:40.379913,0.2841861340349568
2023-01-28 15:58:40.384913,0.2826686799526214
2023-01-28 15:58:40.389913,0.27495463814699556
2023-01-28 15:58:40.394913,0.2616572380065916
2023-01-28 15:58:40.399913,0.24285231850817338
2023-01-28 15:58:40.404913,0.21941801905632008
2023-01-28 15:58:40.409913,0.19399710247420093
2023-01-28 15:58:40.414913,0.16929349303245528
2023-01-28 15:58:40.419913,0.14640669294504138
2023-01-28 15:58:40.424913,0.12570798397064203
2023-01-28 15:58:40.429913,0.1080053947868026
2023-01-28 15:58:40.434913,0.0937340706586837
2023-01-28 15:58:40.439913,0.08220433182808333
2023-01-28 15:58:40.444913,0.07281880080699914
2023-01-28 15:58:40.449913,0.06608951218379716
2023-01-28 15:58:40.454913,0.06252944469451899
2023-01-28 15:58:40.459913,0.0615497080293419
2023-01-28 15:58:40.464913,0.06236116215586655
2023-01-28 15:58:40.469913,0.06498561205474657
2023-01-28 15:58:40.474913,0.06950120627880088
2023-01-28 15:58:40.479913,0.07526063666516151
2023-01-28 15:58:40.484913,0.0817618817090987
2023-01-28 15:58:40.489913,0.08942879671764603
2023-01-28 15:58:40.494913,0.09868641942739471
2023-01-28 15:58:40.499913,0.10905491289869287
2023-01-28 15:58:40.504913,0.11989017575979236
2023-01-28 15:58:40.509913,0.13118281003123383
2023-01-28 15:58:40.514913,0.14287292957305886
2023-01-28 15:58:40.519913,0.15418237043351726
2023-01-28 15:58:40.524913,0.1644132584333419
2023-01-28 15:58:40.529913,0.17374393187366968
2023-01-28 15:58:40.534913,0.1825879067182539
2023-01-28 15:58:40.539913,0.19087239460874283
2023-01-28 15:58:40.544913,0.19859890639781952
2023-01-28 15:58:40.549913,0.20642696760038576
2023-01-28 15:58:40.554913,0.21501860022544844
2023-01-28 15:58:40.559913,0.2243565318189594
2023-01-28 15:58:40.564913,0.23425102233886697
2023-01-28 15:58:40.569913,0.24491379759442217
2023-01-28 15:58:40.574913,0.25646448135375943
2023-01-28 15:58:40.579913,0.2684102717661028
2023-01-28 15:58:40.584913,0.2801444232463837
2023-01-28 15:58:40.589913,0.29149634231317384
2023-01-28 15:58:40.594913,0.30238193273544306
2023-01-28 15:58:40.599913,0.3124458249176993
2023-01-28 15:58:40.604913,0.3215181827545166
2023-01-28 15:58:40.609913,0.33000229696684036
2023-01-28 15:58:40.614913,0.33841869235038746
2023-01-28 15:58:40.619913,0.3469229672202028
2023-01-28 15:58:40.624913,0.3555355668067932
2023-01-28 15:58:40.629913,0.36444449677052876
2023-01-28 15:58:40.634913,0.3738304078578949
2023-01-28 15:58:40.639913,0.38374195956663076
2023-01-28 15:58:40.644913,0.39431294798851
2023-01-28 15:58:40.649913,0.4057763096758887
2023-01-28 15:58:40.654913,0.4181611537933348
2023-01-28 15:58:40.659913,0.4312131145163024
2023-01-28 15:58:40.664913,0.4445095956325531
2023-01-28 15:58:40.669913,0.45738756133615566
2023-01-28 15:58:40.674913,0.46910306811332686
2023-01-28 15:58:40.679913,0.47953952225959284
2023-01-28 15:58:40.684913,0.4893692433834074
2023-01-28 15:58:40.689913,0.4989776404834828
2023-01-28 15:58:40.694913,0.5078564286231994
2023-01-28 15:58:40.699913,0.5159500867644536
2023-01-28 15:58:40.704913,0.5249492526054382
2023-01-28 15:58:40.709913,0.5369043377622065
2023-01-28 15:58:40.714913,0.5518025159835817
2023-01-28 15:58:40.719913,0.5678111861917082
2023-01-28 15:58:40.724913,0.5837043523788454
2023-01-28 15:58:40.729913,0.5995407261912793
2023-01-28 15:58:40.734913,0.6149330139160154
2023-01-28 15:58:40.739913,0.6283805632516941
2023-01-28 15:58:40.744913,0.6389495134353638
2023-01-28 15:58:40.749913,0.6473740281062937
2023-01-28 15:58:40.754913,0.65493643283844
2023-01-28 15:58:40.759913,0.6623965965449222
2023-01-28 15:58:40.764913,0.6705628037452694
2023-01-28 15:58:40.769913,0.6806940371099042
2023-01-28 15:58:40.774913,0.6934493780136106
2023-01-28 15:58:40.779913,0.7082051213026369
2023-01-28 15:58:40.784913,0.7240530252456665
2023-01-28 15:58:40.789913,0.740727894006903
2023-01-28 15:58:40.794913,0.7579982280731198
2023-01-28 15:58:40.799913,0.7749689979492319
2023-01-28 15:58:40.804913,0.7906934022903439
2023-01-28 15:58:40.809913,0.8048779016374218
2023-01-28 15:58:40.814913,0.8174745440483091
2023-01-28 15:58:40.819913,0.8283183409333081
2023-01-28 15:58:40.824913,0.8378609418869019
2023-01-28 15:58:40.829913,0.8477229149012941
2023-01-28 15:58:40.834913,0.8598580360412594
2023-01-28 15:58:40.839913,0.8754436768373811
2023-01-28 15:58:40.844913,0.8947649002075193
2023-01-28 15:58:40.849913,0.917351828099051
2023-01-28 15:58:40.854913,0.9415477514266964
2023-01-28 15:58:40.859913,0.9644942630060044
2023-01-28 15:58:40.864913,0.9833542704582214
2023-01-28 15:58:40.869913,0.9965733802008397
2023-01-28 15:58:40.874913,1.003932952880859
2023-01-28 15:58:40.879913,1.0060803392281
2023-01-28 15:58:40.884913,1.0044859647750854
2023-01-28 15:58:40.889913,1.0012575048001096
2023-01-28 15:58:40.894913,0.9982594251632687
2023-01-28 15:58:40.899913,0.9965041560812351
2023-01-28 15:58:40.904913,0.9965765476226807
2023-01-28 15:58:40.909913,0.9990869402080116
2023-01-28 15:58:40.914913,1.0041493177413943
2023-01-28 15:58:40.919913,1.0106711780703386
2023-01-28 15:58:40.924913,1.0165783166885374
2023-01-28 15:58:40.929913,1.0197051846943412
2023-01-28 15:58:40.934913,1.0187900066375732
2023-01-28 15:58:40.939913,1.014950946859246
2023-01-28 15:58:40.944913,1.0135492086410522
2023-01-28 15:58:40.949913,1.0246571572209722
2023-01-28 15:58:40.954913,1.0604763031005862
2023-01-28 15:58:40.959913,1.130289725573872
2023-01-28 15:58:40.964913,1.2350587844848633
2023-01-28 15:58:40.969913,1.3637064708853597
2023-01-28 15:58:40.974913,1.4930617809295648
2023-01-28 15:58:40.979913,1.5931423194706094
2023-01-28 15:58:40.984913,1.6370646953582764
2023-01-28 15:58:40.989913,1.6114206626314735
2023-01-28 15:58:40.994913,1.5220066308975215
2023-01-28 15:58:40.999913,1.3922813673603918
2023-01-28 15:58:41.004913,1.2553008794784541
2023-01-28 15:58:41.009913,1.1422839272728578
2023-01-28 15:58:41.014913,1.0724245309829707
2023-01-28 15:58:41.019913,1.0483952211316492
2023-01-28 15:58:41.024913,1.05908203125
2023-01-28 15:58:41.029913,1.0870291322425751
2023-01-28 15:58:41.034913,1.1162023544311526
2023-01-28 15:58:41.039913,1.1368950984009694
2023-01-28 15:58:41.044913,1.1468058824539187
2023-01-28 15:58:41.049913,1.148934889577024
2023-01-28 15:58:41.054913,1.1480560302734373
2023-01-28 15:58:41.059913,1.147900672458144
2023-01-28 15:58:41.064913,1.1501955986022945
2023-01-28 15:58:41.069913,1.1550889848770924
2023-01-28 15:58:41.074913,1.1619033813476562
2023-01-28 15:58:41.079913,1.1697151902019005
2023-01-28 15:58:41.084913,1.177746057510376
2023-01-28 15:58:41.089913,1.1855169747655288
2023-01-28 15:58:41.094913,1.1927473545074458
2023-01-28 15:58:41.099913,1.1992079907869226
2023-01-28 15:58:41.104913,1.2047195434570312
2023-01-28 15:58:41.109913,1.2092506230288744
2023-01-28 15:58:41.114913,1.2129895687103271
2023-01-28 15:58:41.119913,1.2163350873648933
2023-01-28 15:58:41.124913,1.2197929620742793
2023-01-28 15:58:41.129913,1.2238243619611404
2023-01-28 15:58:41.134913,1.228736042976379
2023-01-28 15:58:41.139913,1.234614704925718
2023-01-28 15:58:41.144913,1.2412852048873897
2023-01-28 15:58:41.149913,1.2484391659401874
2023-01-28 15:58:41.154913,1.2559980154037476
2023-01-28 15:58:41.159913,1.26433280078404
2023-01-28 15:58:41.164913,1.2739803791046138
2023-01-28 15:58:41.169913,1.2852018600074762
2023-01-28 15:58:41.174913,1.2979247570037835
2023-01-28 15:58:41.179913,1.3118395547373627
2023-01-28 15:58:41.184913,1.3261723518371582
2023-01-28 15:58:41.189913,1.3395447203218167
2023-01-28 15:58:41.194913,1.3505254983901973
2023-01-28 15:58:41.199913,1.3582301065675404
2023-01-28 15:58:41.204913,1.3619928359985352
2023-01-28 15:58:41.209913,1.3607616898760386
2023-01-28 15:58:41.214913,1.3534824848175044
2023-01-28 15:58:41.219913,1.3398434203450316
2023-01-28 15:58:41.224913,1.3198977708816524
2023-01-28 15:58:41.229913,1.293346073207803
2023-01-28 15:58:41.234913,1.2603734731674192
2023-01-28 15:58:41.239913,1.2230303257118262
2023-01-28 15:58:41.244913,1.1843812465667722
2023-01-28 15:58:41.249913,1.1462570363983382
2023-01-28 15:58:41.254913,1.109422922134399
2023-01-28 15:58:41.259913,1.0759701684269276
2023-01-28 15:58:41.264913,1.0490571260452268
2023-01-28 15:58:41.269913,1.0290143233544315
2023-01-28 15:58:41.274913,1.0117942094802852
2023-01-28 15:58:41.279913,0.9932440041488113
2023-01-28 15:58:41.284913,0.9735457301139832
2023-01-28 15:58:41.289913,0.9555062586044256
2023-01-28 15:58:41.294913,0.9398168325424191
2023-01-28 15:58:41.299913,0.9245536190332556
2023-01-28 15:58:41.304913,0.9087083935737607
2023-01-28 15:58:41.309913,0.8935016238669728
2023-01-28 15:58:41.314913,0.8800761103630066
2023-01-28 15:58:41.319913,0.8682888761730264
2023-01-28 15:58:41.324913,0.8583434820175168
2023-01-28 15:58:41.329913,0.8515234819358645
2023-01-28 15:58:41.334913,0.8483185768127438
2023-01-28 15:58:41.339913,0.8472411118538206
2023-01-28 15:58:41.344913,0.8462750911712644
2023-01-28 15:58:41.349913,0.84429421647219
2023-01-28 15:58:41.354913,0.8405053615570065
2023-01-28 15:58:41.359913,0.8339439919393957
2023-01-28 15:58:41.364913,0.8245424628257751
2023-01-28 15:58:41.369913,0.8137891724746954
2023-01-28 15:58:41.374913,0.8035069704055784
2023-01-28 15:58:41.379913,0.7946514983113468
2023-01-28 15:58:41.384913,0.7877364158630371
2023-01-28 15:58:41.389913,0.7833682948821583
2023-01-28 15:58:41.394913,0.7815098762512208
2023-01-28 15:58:41.399913,0.7809188552871642
2023-01-28 15:58:41.404913,0.7800674438476562
2023-01-28 15:58:41.409913,0.7781335074127276
2023-01-28 15:58:41.414913,0.7746824026107785
2023-01-28 15:58:41.419913,0.7691873056733235
2023-01-28 15:58:41.424913,0.7615802884101865
2023-01-28 15:58:41.429913,0.7527144795838611
2023-01-28 15:58:41.434913,0.7436220049858091
2023-01-28 15:58:41.439913,0.7346985263155623
2023-01-28 15:58:41.444913,0.7260003089904788
2023-01-28 15:58:41.449913,0.7177129587023627
2023-01-28 15:58:41.454913,0.7097488641738887
2023-01-28 15:58:41.459913,0.7013983237910136
2023-01-28 15:58:41.464913,0.6920069456100464
2023-01-28 15:58:41.469913,0.6817094371830459
2023-01-28 15:58:41.474913,0.6711397767066956
2023-01-28 15:58:41.479913,0.6608847375995602
2023-01-28 15:58:41.484913,0.6516188383102415
2023-01-28 15:58:41.489913,0.6441991769753214
2023-01-28 15:58:41.494913,0.6389495134353635
2023-01-28 15:58:41.499913,0.6350489110431888
2023-01-28 15:58:41.504913,0.6310161352157593
2023-01-28 15:58:41.509913,0.6255724806020974
2023-01-28 15:58:41.514913,0.6178900003433224
2023-01-28 15:58:41.519913,0.6076504382052494
2023-01-28 15:58:41.524913,0.5954841971397399
2023-01-28 15:58:41.529913,0.5830539492556881
2023-01-28 15:58:41.534913,0.5721408128738401
2023-01-28 15:58:41.539913,0.5636519385029446
2023-01-28 15:58:41.544913,0.5575963258743287
2023-01-28 15:58:41.549913,0.5535634409210415
2023-01-28 15:58:41.554913,0.5508649349212644
2023-01-28 15:58:41.559913,0.5486101413592737
2023-01-28 15:58:41.564913,0.5461289882659913
2023-01-28 15:58:41.569913,0.5431447540978561
2023-01-28 15:58:41.574913,0.5392533540725706
2023-01-28 15:58:41.579913,0.5335482647341088
2023-01-28 15:58:41.584913,0.525165617465973
2023-01-28 15:58:41.589913,0.5140743393931555
2023-01-28 15:58:41.594913,0.5011491179466246
2023-01-28 15:58:41.599913,0.4877519666431702
2023-01-28 15:58:41.604913,0.47542572021484375
2023-01-28 15:58:41.609913,0.4655037620041218
2023-01-28 15:58:41.614913,0.45842906832694996
2023-01-28 15:58:41.619913,0.45347172024304944
2023-01-28 15:58:41.624913,0.449365794658661
2023-01-28 15:58:41.629913,0.44515447162293686
2023-01-28 15:58:41.634913,0.44037461280822754
2023-01-28 15:58:41.639913,0.43483854760145124
2023-01-28 15:58:41.644913,0.42864283919334395
2023-01-28 15:58:41.649913,0.42224991300663084
2023-01-28 15:58:41.654913,0.4162619709968565
2023-01-28 15:58:41.659913,0.41115689508222625
2023-01-28 15:58:41.664913,0.40729483962059027
2023-01-28 15:58:41.669913,0.4048296461364807
2023-01-28 15:58:41.674913,0.4032560288906094
2023-01-28 15:58:41.679913,0.4011707916245268
2023-01-28 15:58:41.684913,0.39681315422058094
2023-01-28 15:58:41.689913,0.38897292015747953
2023-01-28 15:58:41.694913,0.37750861048698425
2023-01-28 15:58:41.699913,0.36334114864229633
2023-01-28 15:58:41.704913,0.34813106060028065
2023-01-28 15:58:41.709913,0.33362857691014897
2023-01-28 15:58:41.714913,0.3208450675010681
2023-01-28 15:58:41.719913,0.3096582576241944
2023-01-28 15:58:41.724913,0.2991845309734344
2023-01-28 15:58:41.729913,0.288404823612988
2023-01-28 15:58:41.734913,0.27639409899711587
2023-01-28 15:58:41.739913,0.2622245560021806
2023-01-28 15:58:41.744913,0.2450933158397676
2023-01-28 15:58:41.749913,0.2250394013092632
2023-01-28 15:58:41.754913,0.20424842834472637
2023-01-28 15:58:41.759913,0.18849925079282107
2023-01-28 15:58:41.764913,0.18763642013072956
2023-01-28 15:58:41.769913,0.21369019433820172
2023-01-28 15:58:41.774913,0.27622580528259255
2023-01-28 15:58:41.779913,0.3763313739357268
2023-01-28 15:58:41.784913,0.5021107196807861
2023-01-28 15:58:41.789913,0.6286736003061131
2023-01-28 15:58:41.794913,0.7240530252456668
2023-01-28 15:58:41.799913,0.7596066423082924
2023-01-28 15:58:41.804913,0.720783472061157
2023-01-28 15:58:41.809913,0.6134669596310653
2023-01-28 15:58:41.814913,0.46285253763198836
2023-01-28 15:58:41.819913,0.3049468301615335
2023-01-28 15:58:41.824913,0.1740775555372237
2023-01-28 15:58:41.829913,0.09191684208085757
2023-01-28 15:58:41.834913,0.0627217739820479
2023-01-28 15:58:41.839913,0.07575271056915435
2023-01-28 15:58:41.844913,0.11214911937713619
2023-01-28 15:58:41.849913,0.15267489537097242
2023-01-28 15:58:41.854913,0.18371781706809986
2023-01-28 15:58:41.859913,0.19967450246880117
2023-01-28 15:58:41.864913,0.20117124915122991
2023-01-28 15:58:41.869913,0.1913993829346427
2023-01-28 15:58:41.874913,0.17412564158439625
2023-01-28 15:58:41.879913,0.15394358825240342
2023-01-28 15:58:41.884913,0.1359492540359496
2023-01-28 15:58:41.889913,0.12368310152104806
2023-01-28 15:58:41.894913,0.11811117827892305
2023-01-28 15:58:41.899913,0.11943312319240268
2023-01-28 15:58:41.904913,0.12873709201812747
2023-01-28 15:58:41.909913,0.14637067342828003
2023-01-28 15:58:41.914913,0.16934156417846663
2023-01-28 15:58:41.919913,0.19211294654364072
2023-01-28 15:58:41.924913,0.21013836562633498
2023-01-28 15:58:41.929913,0.22161443620869825
2023-01-28 15:58:41.934913,0.22626957297325107
2023-01-28 15:58:41.939913,0.22438082761156355
2023-01-28 15:58:41.944913,0.2175428569316867
2023-01-28 15:58:41.949913,0.20894981363536022
2023-01-28 15:58:41.954913,0.2019165009260178
2023-01-28 15:58:41.959913,0.1985989546512968
2023-01-28 15:58:41.964913,0.20023366808891302
2023-01-28 15:58:41.969913,0.20738567996080579
2023-01-28 15:58:41.974913,0.21922568976879112
2023-01-28 15:58:41.979913,0.23343112858953796
2023-01-28 15:58:41.984913,0.2477137297391891
2023-01-28 15:58:41.989913,0.2612276355480496
2023-01-28 15:58:41.994913,0.27427852153778054
2023-01-28 15:58:41.999913,0.28734466311096934
2023-01-28 15:58:42.004913,0.3007471561431885
2023-01-28 15:58:42.009913,0.3144302218551068
2023-01-28 15:58:42.014913,0.3272638916969298
2023-01-28 15:58:42.019913,0.33692218126456885
2023-01-28 15:58:42.024913,0.34103912115097046
2023-01-28 15:58:42.029913,0.3383510565851447
2023-01-28 15:58:42.034913,0.32863420248031605
2023-01-28 15:58:42.039913,0.312230933071057
2023-01-28 15:58:42.044913,0.29014527797698964
2023-01-28 15:58:42.049913,0.26404582576333496
2023-01-28 15:58:42.054913,0.2354530543088912
2023-01-28 15:58:42.059913,0.20499244606134492
2023-01-28 15:58:42.064913,0.17265915870666512
2023-01-28 15:58:42.069913,0.13846301602220923
2023-01-28 15:58:42.074913,0.10262906551361085
2023-01-28 15:58:42.079913,0.06580513931448374
2023-01-28 15:58:42.084913,0.02964198589324937
2023-01-28 15:58:42.089913,-0.003232888764831389
2023-01-28 15:58:42.094913,-0.030507445335388288
2023-01-28 15:58:42.099913,-0.05154919546081955
2023-01-28 15:58:42.104913,-0.06743371486663799
2023-01-28 15:58:42.109913,-0.07997288706388483
2023-01-28 15:58:42.114913,-0.09082516282796849
2023-01-28 15:58:42.119913,-0.10086601360664485
2023-01-28 15:58:42.124913,-0.10974507033824922
2023-01-28 15:58:42.129913,-0.1162554740921892
2023-01-28 15:58:42.134913,-0.11967381089925763
2023-01-28 15:58:42.139913,-0.1207890192573157
2023-01-28 15:58:42.144913,-0.12150089442729942
2023-01-28 15:58:42.149913,-0.12363752448239483
2023-01-28 15:58:42.154913,-0.12823224067687997
2023-01-28 15:58:42.159913,-0.1353687032984411
2023-01-28 15:58:42.164913,-0.14417111873626706
2023-01-28 15:58:42.169913,-0.1531567270564049
2023-01-28 15:58:42.174913,-0.16109566390514388
2023-01-28 15:58:42.179913,-0.16758293401589072
2023-01-28 15:58:42.184913,-0.17270724475383736
2023-01-28 15:58:42.189913,-0.1764995684112167
2023-01-28 15:58:42.194913,-0.17900586128234847
2023-01-28 15:58:42.199913,-0.18062534649200668
2023-01-28 15:58:42.204913,-0.1820109337568282
2023-01-28 15:58:42.209913,-0.18377895878685951
2023-01-28 15:58:42.214913,-0.18653056025505055
2023-01-28 15:58:42.219913,-0.1908270757777114
2023-01-28 15:58:42.224913,-0.19665162265300723
2023-01-28 15:58:42.229913,-0.20289516032253882
2023-01-28 15:58:42.234913,-0.20766219496726973
2023-01-28 15:58:42.239913,-0.2092107322105552
2023-01-28 15:58:42.244913,-0.206820771098137
2023-01-28 15:58:42.249913,-0.2013776694879624
2023-01-28 15:58:42.254913,-0.19559383392333984
2023-01-28 15:58:42.259913,-0.19332715479716647
2023-01-28 15:58:42.264913,-0.19780556857585885
2023-01-28 15:58:42.269913,-0.2097941452387176
2023-01-28 15:58:42.274913,-0.22706291079521143
2023-01-28 15:58:42.279913,-0.2454111469551124
2023-01-28 15:58:42.284913,-0.2605032920837399
2023-01-28 15:58:42.289913,-0.2696963533591045
2023-01-28 15:58:42.294913,-0.27312457561492903
2023-01-28 15:58:42.299913,-0.2733460365170101
2023-01-28 15:58:42.304913,-0.27360540628433216
2023-01-28 15:58:42.309913,-0.27589848160977204
2023-01-28 15:58:42.314913,-0.28012037277221663
2023-01-28 15:58:42.319913,-0.28452124780895927
2023-01-28 15:58:42.324913,-0.28687578439712524
2023-01-28 15:58:42.329913,-0.28577946589919473
2023-01-28 15:58:42.334913,-0.2815868556499483
2023-01-28 15:58:42.339913,-0.2764693947985915
2023-01-28 15:58:42.344913,-0.27346116304397566
2023-01-28 15:58:42.349913,-0.27505182189728894
2023-01-28 15:58:42.354913,-0.28206765651702886
2023-01-28 15:58:42.359913,-0.29322910461764945
2023-01-28 15:58:42.364913,-0.30553123354911793
2023-01-28 15:58:42.369913,-0.3154589730889068
2023-01-28 15:58:42.374913,-0.32060465216636647
2023-01-28 15:58:42.379913,-0.3208164735641547
2023-01-28 15:58:42.384913,-0.31820058822631825
2023-01-28 15:58:42.389913,-0.3159669474703616
2023-01-28 15:58:42.394913,-0.3166860342025756
2023-01-28 15:58:42.399913,-0.3208574307414388
2023-01-28 15:58:42.404913,-0.3266628682613374
2023-01-28 15:58:42.409913,-0.3310878188811233
2023-01-28 15:58:42.414913,-0.33163926005363464
2023-01-28 15:58:42.419913,-0.3276358010101077
2023-01-28 15:58:42.424913,-0.320556581020355
2023-01-28 15:58:42.429913,-0.3133638240964051
2023-01-28 15:58:42.434913,-0.3089930713176725
2023-01-28 15:58:42.439913,-0.308837429805632
2023-01-28 15:58:42.444913,-0.3123347163200379
2023-01-28 15:58:42.449913,-0.31771324639432397
2023-01-28 15:58:42.454913,-0.3227923512458801
2023-01-28 15:58:42.459913,-0.3253673444111936
2023-01-28 15:58:42.464913,-0.3239462971687317
2023-01-28 15:58:42.469913,-0.31885345444127755
2023-01-28 15:58:42.474913,-0.31214237213134755
2023-01-28 15:58:42.479913,-0.30583335590913024
2023-01-28 15:58:42.484913,-0.30067503452301014
2023-01-28 15:58:42.489913,-0.2971560355494556
2023-01-28 15:58:42.494913,-0.29692471027374256
2023-01-28 15:58:42.499913,-0.30195967610693275
2023-01-28 15:58:42.504913,-0.31247895956039395
2023-01-28 15:58:42.509913,-0.3267112431864184
2023-01-28 15:58:42.514913,-0.34269791841506947
2023-01-28 15:58:42.519913,-0.359322167700239
2023-01-28 15:58:42.524913,-0.37560939788818337
2023-01-28 15:58:42.529913,-0.39035153836710673
2023-01-28 15:58:42.534913,-0.40306371450424183
2023-01-28 15:58:42.539913,-0.41456899408753756
2023-01-28 15:58:42.544913,-0.42609453201293945
2023-01-28 15:58:42.549913,-0.43809134233532115
2023-01-28 15:58:42.554913,-0.44958215951919545
2023-01-28 15:58:42.559913,-0.4570089519891937
2023-01-28 15:58:42.564913,-0.45256316661834717
2023-01-28 15:58:42.569913,-0.42453260208914917
2023-01-28 15:58:42.574913,-0.36154568195343006
2023-01-28 15:58:42.579913,-0.25911388934098134
2023-01-28 15:58:42.584913,-0.12510697543621047
2023-01-28 15:58:42.589913,0.018375518166162435
2023-01-28 15:58:42.594913,0.13847351074218742
2023-01-28 15:58:42.599913,0.20109634927567693
2023-01-28 15:58:42.604913,0.18381397426128382
2023-01-28 15:58:42.609913,0.08573474841264868
2023-01-28 15:58:42.614913,-0.07116000354289989
2023-01-28 15:58:42.619913,-0.2496483058017108
2023-01-28 15:58:42.624913,-0.40996333956718456
2023-01-28 15:58:42.629913,-0.5224825173601119
2023-01-28 15:58:42.634913,-0.575722873210907
2023-01-28 15:58:42.639913,-0.5765263938924066
2023-01-28 15:58:42.644913,-0.5431720018386839
2023-01-28 15:58:42.649913,-0.49614954002129585
2023-01-28 15:58:42.654913,-0.45145732164382923
2023-01-28 15:58:42.659913,-0.41794206659429717
2023-01-28 15:58:42.664913,-0.39770266413688643
2023-01-28 15:58:42.669913,-0.3884167361377686
2023-01-28 15:58:42.674913,-0.38637956976890553
2023-01-28 15:58:42.679913,-0.3885407628008901
2023-01-28 15:58:42.684913,-0.39275032281875616
2023-01-28 15:58:42.689913,-0.39729521132431506
2023-01-28 15:58:42.694913,-0.4009000658988951
2023-01-28 15:58:42.699913,-0.4028461947586911
2023-01-28 15:58:42.704913,-0.40260693430900557
2023-01-28 15:58:42.709913,-0.39959797113979295
2023-01-28 15:58:42.714913,-0.3936638534069059
2023-01-28 15:58:42.719913,-0.3855827628359049
2023-01-28 15:58:42.724913,-0.37673932313919084
2023-01-28 15:58:42.729913,-0.3684204642971058
