27.33
26.94
26.74
26.87
27.2
27.34
26.76
24.98
21.62
16.42
9.24
0.1
-10.56
-21.81
-32.42
-41.18
-47.46
-51.49
-54.21
-56.83
-60.25
-64.67
-69.69
-74.54
-78.49
-80.97
-81.57
-79.91
-75.63
-68.56
-58.99
-47.68
-35.82
-24.62
-14.88
-6.89
-0.44
4.94
9.62
13.83
17.57
20.79
23.48
25.68
27.42
28.62
29.14
28.86
27.81
26.24
24.49
22.87
21.48
20.21
18.8
16.99
14.59
11.52
7.83
3.68
-0.66
-4.75
-8.1
-10.14
-10.47
-8.96
-5.86
-1.71
2.76
6.88
10.25
12.76
14.5
15.62
16.16
16.08
15.32
13.93
12.09
10.08
8.15
6.39
4.77
3.19
1.6
0.07
-1.21
-2.09
-2.52
-2.64
-2.73
-3.15
-4.2
-5.99
-8.44
-11.27
-14.13
-16.67
-18.58
-19.69
-19.87
-19.06
-17.25
-14.56
-11.13
-7.16
-2.83
1.64
5.98
9.87
12.93
14.9
15.74
15.7
15.22
14.79
14.66
14.87
15.29
15.74
16.19
16.7
17.41
18.37
19.51
20.71
21.82
22.76
23.54
24.22
24.91
25.7
26.57
27.39
27.85
27.77
27.21
26.66
27
29.12
33.48
39.72
46.74
52.96
56.94
57.78
55.21
49.53
41.48
32.23
23.44
16.99
14.37
15.91
20.35
25.09
27.13
24.36
16.45
4.8
-8.18
-20.34
-30.62
-39.18
-46.94
-54.62
-62.18
-68.69
-72.65
-72.76
-68.37
-59.75
-47.98
-34.51
-20.67
-7.4
4.67
15.1
23.33
28.82
31.26
30.98
29.11
27.42
27.68
30.9
36.87
44.13
50.59
54.49
55.26
53.88
52.79
54.9
62.37
75.31
91.25
105.56
112.93
109.13
92.63
64.99
30.1
-7.24
-42.86
-74.08
-99.67
-119.41
-133.42
-141.99
-145.61
-145.17
-141.89
-137.03
-131.56
-125.82
-119.57
-112.18
-102.96
-91.49
-77.98
-63.26
-48.66
-35.64
-25.29
-18.04
-13.55
-10.99
-9.41
-8.11
-6.8
-5.48
-4.23
-2.94
-1.36
0.86
3.88
7.53
11.28
14.53
16.75
17.75
17.59
16.51
14.7
12.26
9.23
5.69
1.97
-1.42
-3.88
-4.97
-4.62
-3.15
-1.14
0.89
2.58
3.87
4.86
5.74
6.65
7.63
8.64
9.55
10.1
9.97
8.76
6.21
2.27
-2.69
-8.03
-12.92
-16.61
-18.72
-19.41
-19.34
-19.46
-20.65
-23.38
-27.66
-33
-38.66
-43.78
-47.52
-49.19
-48.32
-44.84
-39.08
-31.81
-24.04
-16.71
-10.47
-5.53
-1.68
1.53
4.57
7.8
11.31
14.98
18.46
21.29
23.1
23.69
23.07
21.38
18.9
15.92
12.79
9.78
6.99
4.27
1.31
-2.19
-6.15
-9.97
-12.71
-13.53
-12.3
-9.91
-7.91
-7.81
-10.17
-14.21
-18.1
-20.01
-18.98
-15.51
-11.15
-7.68
-6.12
-6.31
-7.2
-7.61
-6.93
-5.35
-3.59
-2.37
-1.94
-2.12
-2.41
-2.47
-2.25
-2.03
-2.11
-2.59
-3.17
-3.25
-2.19
0.45
4.7
10.25
16.56
23
28.96
33.83
36.95
37.69
35.56
30.63
23.62
15.88
9.03
4.43
2.72
3.69
6.45
9.92
13.22
15.94
18.12
19.98
21.71
23.3
24.62
25.52
25.95
25.94
25.5
24.62
23.15
21.01
18.25
15.1
11.93
9.06
6.64
4.57
2.59
0.39
-2.29
-5.57
-9.44
-13.8
-18.38
-22.84
-26.83
-29.98
-32.07
-33
-32.71
-31.16
-28.18
-23.65
-17.64
-10.59
-3.37
2.91
7.19
8.9
8.23
6.08
3.71
2.29
2.29
3.43
4.74
5.18
4.11
1.58
-1.71
-4.85
-7.02
-7.73
-6.82
-4.27
-0.16
5.27
11.46
17.53
22.42
25.29
25.85
24.41
21.76
18.75
16
13.7
11.67
9.63
7.4
5.06
2.98
1.76
2.06
4.63
10.1
18.89
30.71
44.22
56.91
65.48
66.69
58.46
40.75
15.88
-11.91
-37.47
-56.2
-65.34
-64.82
-57.19
-46.78
-38.36
-35.72
-40.65
-52.65
-69.27
-86.91
-101.73
-110.53
-111.27
-103.45
-88.11
-67.46
-44.3
-21.39
-1.02
15.28
26.8
33.76
37.25
39.03
41.05
44.7
50.52
58.14
66.82
75.8
84.39
91.68
96.24
96.37
90.89
80.11
66.26
52.74
42.77
37.86
37.34
38.89
39.86
38.33
33.58
25.64
14.75
1.06
-15
-32.31
-48.9
-62.49
-71.5
-75.78
-76.68
-76.17
-75.81
-75.84
-75.3
-72.79
-67.4
-59.43
-50.16
-41.3
-34.19
-29.41
-26.78
-25.72
-25.66
-26.19
-27.07
-28.12
-29.09
-29.61
-29.3
-27.76
-24.82
-20.54
-15.36
-9.91
-4.89
-0.69
2.72
5.79
9.12
13.05
17.36
21.28
23.82
24.33
22.82
20.05
17.2
15.36
15.12
16.34
18.38
20.36
21.6
21.69
20.52
18.04
14.2
8.94
2.41
-4.85
-11.89
-17.49
-20.55
-20.48
-17.36
-11.89
-5.11
1.96
8.55
14.12
18.39
21.17
22.42
22.31
21.21
19.54
17.69
15.8
13.81
11.59
9.14
6.73
4.79
3.72
3.64
4.42
5.71
7.15
8.51
9.69
10.58
10.98
10.68
9.53
7.68
5.61
4.03
3.68
5.14
8.6
13.84
20.24
26.87
32.59
36.34
37.28
35.04
29.78
22.15
13.13
3.85
-4.63
-11.53
-16.58
-20.15
-23.14
-26.66
-31.57
-37.96
-45.13
-51.89
-57.12
-60.33
-61.79
-62.24
-62.33
-62.17
-61.2
-58.61
-53.81
-46.8
-38.28
-29.34
-21.03
-14.02
-8.51
-4.22
-0.69
2.62
6.06
9.68
13.1
15.57
16.18
14.33
10.12
4.53
-0.89
-4.57
-5.61
-4.17
-1.28
1.69
3.75
4.59
4.52
3.99
3.16
1.86
-0.16
-2.77
-5.24
-6.4
-5.17
-1.17
5.08
12.33
19.15
24.52
28.14
30.37
31.84
33.04
34.06
34.65
34.4
33.08
30.74
27.81
24.86
22.35
20.48
19.14
18.01
16.77
15.21
13.2
10.69
7.56
3.59
-1.28
-6.86
-12.54
-17.35
-20.21
-20.32
-17.43
-11.94
-4.8
2.85
10.03
16.14
21.04
24.9
27.99
30.43
32.17
33.03
32.86
31.64
29.57
26.95
24.11
21.3
18.66
16.25
14.03
12
10.1
8.32
6.54
4.6
2.24
-0.79
-4.67
-9.3
-14.27
-18.88
-22.26
-23.63
-22.51
-18.87
-13.12
-6.07
1.39
8.47
14.62
19.6
23.36
25.94
27.37
27.67
26.94
25.4
23.39
21.3
19.42
17.81
16.38
14.97
13.48
11.96
10.55
9.38
8.4
7.46
6.28
4.56
2.09
-1.23
-5.31
-9.82
-14.17
-17.54
-19.09
-18.25
-14.9
-9.5
-2.9
3.96
10.31
15.71
19.99
23.15
25.13
25.88
25.41
23.88
21.69
19.36
17.32
15.75
14.59
13.5
12.22
10.62
8.81
7.01
5.44
4.09
2.79
1.19
-1.08
-4.22
-8.25
-12.93
-17.77
-22.11
-25.15
-26.24
-24.95
-21.36
-15.94
-9.49
-2.86
3.28
8.52
12.67
15.65
17.4
17.91
17.29
15.82
13.93
12.08
10.61
9.62
8.98
8.4
7.61
6.45
4.93
3.19
1.44
-0.19
-1.71
-3.3
-5.25
-7.88
-11.37
-15.67
-20.39
-24.84
-28.22
-29.81
-29.15
-26.21
-21.37
-15.27
-8.62
-2.07
3.95
9.17
13.44
16.66
18.76
19.73
19.66
18.79
17.43
15.95
14.6
13.51
12.63
11.79
10.81
9.56
8.05
6.37
4.69
3.14
1.66
0.04
-2.11
-5.15
-9.29
-14.38
-19.87
-24.89
-28.45
-29.72
-28.33
-24.39
-18.55
-11.71
-4.85
1.32
6.38
10.29
13.19
15.26
16.64
17.39
17.53
17.14
16.39
15.45
14.47
13.5
12.5
11.33
9.91
8.25
6.45
4.67
3.01
1.51
0
-1.74
-4.02
-7.11
-11.16
-16.11
-21.64
-27.12
-31.75
-34.63
-35.06
-32.74
-27.9
-21.27
-13.86
-6.64
-0.25
5.06
9.35
12.75
15.32
16.99
17.64
17.31
16.23
14.8
13.42
12.35
11.6
11
10.26
9.2
7.71
5.89
3.9
1.91
0.04
-1.76
-3.67
-5.93
-8.8
-12.37
-16.59
-21.21
-25.79
-29.78
-32.6
-33.69
-32.67
-29.49
-24.47
-18.24
-11.6
-5.28
0.25
4.8
8.38
11.04
12.8
13.62
13.54
12.75
11.59
10.49
9.76
9.47
9.42
9.21
8.46
7
4.89
2.42
-0.03
-2.23
-4.11
-5.92
-8.01
-10.81
-14.54
-19.2
-24.44
-29.62
-33.94
-36.56
-36.81
-34.35
-29.33
-22.34
-14.35
-6.42
0.57
6.12
10.18
13.08
15.2
16.8
17.92
18.47
18.37
17.72
16.81
16
15.5
15.27
15.07
14.57
13.59
12.16
10.44
8.62
6.73
4.63
2.11
-1.03
-4.87
-9.35
-14.39
-19.79
-25.22
-30.18
-33.93
-35.69
-34.86
-31.3
-25.4
-18.02
-10.2
-2.84
3.51
8.74
13.05
16.72
19.91
22.52
24.31
25.04
24.7
23.55
22.07
20.8
20.03
19.76
19.65
19.25
18.19
16.36
13.98
11.4
8.96
6.78
4.72
2.45
-0.46
-4.28
-9.11
-14.72
-20.6
-25.98
-29.96
-31.76
-30.88
-27.34
-21.65
-14.7
-7.39
-0.42
5.89
11.49
16.43
20.66
24.02
26.31
27.46
27.62
27.1
26.29
25.45
24.66
23.8
22.67
21.03
18.79
15.95
12.67
9.17
5.68
2.36
-0.72
-3.64
-6.59
-9.82
-13.52
-17.78
-22.41
-26.93
-30.62
-32.67
-32.44
-29.67
-24.58
-17.87
-10.45
-3.19
3.33
8.83
13.29
16.81
19.39
21.02
21.67
21.46
20.68
19.75
19.05
18.81
18.96
19.2
19.17
18.59
17.38
15.71
13.81
11.9
10.04
8.15
6.02
3.39
0.02
-4.18
-9.1
-14.3
-19.04
-22.43
-23.6
-22.07
-17.88
-11.61
-4.21
3.35
10.28
16.11
20.69
24.01
26.15
27.2
27.26
26.5
25.12
23.38
21.52
19.71
18
16.34
14.62
12.75
10.72
8.62
6.6
4.76
3.06
1.31
-0.82
-3.63
-7.27
-11.69
-16.61
-21.55
-25.85
-28.76
-29.62
-28.02
-23.94
-17.86
-10.66
-3.31
3.31
8.68
12.65
15.29
16.78
17.31
17.09
16.36
15.44
14.64
14.22
14.22
14.53
14.85
14.86
14.32
13.15
11.42
9.3
6.99
4.56
1.95
-1.03
-4.54
-8.68
-13.33
-18.15
-22.63
-26.12
-28.03
-27.89
-25.56
-21.27
-15.6
-9.33
-3.21
2.25
6.86
10.66
13.78
16.25
18.02
18.98
19.12
18.64
17.82
16.99
16.29
15.7
15.08
14.26
13.23
12.04
10.78
9.48
8.01
6.14
3.6
0.18
-4.18
-9.32
-14.88
-20.24
-24.65
-27.32
-27.67
-25.55
-21.26
-15.57
-9.35
-3.4
1.8
6.07
9.41
11.83
13.26
13.62
12.95
11.45
9.51
7.57
5.98
4.9
4.29
3.99
3.82
3.61
3.29
2.8
2.07
1.04
-0.38
-2.27
-4.68
-7.65
-11.12
-14.92
-18.7
-21.89
-23.85
-24
-22.06
-18.15
-12.77
-6.68
-0.58
5.02
9.88
13.96
17.22
19.61
20.99
21.3
20.65
19.37
17.93
16.77
16.1
15.85
15.73
15.36
14.51
13.16
11.51
9.82
8.25
6.75
5.1
2.99
0.17
-3.44
-7.71
-12.36
-16.89
-20.75
-23.33
-24.14
-22.94
-19.82
-15.27
-10
-4.79
-0.23
3.36
5.94
7.58
8.43
8.55
7.99
6.88
5.4
3.82
2.35
1.11
0.07
-0.84
-1.72
-2.58
-3.36
-4
-4.47
-4.84
-5.26
-5.97
-7.17
-9.06
-11.69
-15
-18.64
-22.08
-24.61
-25.54
-24.41
-21.13
-16.12
-10.1
-3.89
1.79
6.6
10.49
13.62
16.15
18.16
19.65
20.6
21.11
21.35
21.55
21.88
22.41
23.04
23.6
23.85
23.62
22.76
21.22
19.04
16.26
12.91
8.94
4.22
-1.33
-7.62
-14.3
-20.79
-26.45
-30.82
-33.66
-35.07
-35.29
-34.58
-33.08
-30.8
-27.69
-23.73
-19.03
-13.83
-8.5
-3.47
0.85
4.17
6.39
7.62
8.16
8.42
8.77
9.47
10.56
11.9
13.18
14.03
14.11
13.22
11.32
8.57
5.26
1.67
-1.96
-5.53
-9.04
-12.47
-15.72
-18.48
-20.29
-20.65
-19.23
-16.02
-11.37
-5.87
-0.17
5.23
10.04
14.17
17.63
20.38
22.31
23.3
23.25
22.21
20.4
18.18
15.96
14.08
12.73
11.86
11.25
10.62
9.72
8.47
6.93
5.18
3.26
1.08
-1.55
-4.8
-8.72
-13.19
-17.94
-22.61
-26.83
-30.2
-32.37
-33.03
-32.01
-29.38
-25.4
-20.51
-15.22
-9.96
-5.02
-0.61
3.13
6.08
8.16
9.34
9.74
9.58
9.19
8.86
8.78
8.94
9.19
9.26
8.9
8.01
6.63
4.92
3.09
1.25
-0.6
-2.56
-4.77
-7.35
-10.38
-13.85
-17.62
-21.41
-24.73
-26.97
-27.56
-26.18
-22.87
-18.1
-12.61
-7.18
-2.38
1.56
4.72
7.29
9.47
11.3
12.72
13.62
14.02
14.07
14.02
14.02
14.06
13.98
13.52
12.57
11.24
9.86
8.78
8.18
7.97
7.84
7.34
6.12
3.95
0.82
-3.12
-7.5
-11.76
-15.24
-17.26
-17.37
-15.48
-11.93
-7.37
-2.55
1.91
5.73
8.94
11.77
14.46
17.08
19.45
21.28
22.24
22.22
21.4
20.11
18.75
17.55
16.56
15.64
14.65
13.52
12.27
10.94
9.55
8.08
6.46
4.63
2.54
0.12
-2.75
-6.21
-10.25
-14.7
-19.08
-22.74
-24.98
-25.3
-23.62
-20.26
-15.86
-11.12
-6.66
-2.79
0.42
3.08
5.32
7.19
8.61
9.44
9.62
9.25
8.55
7.82
7.28
7
6.85
6.63
6.14
5.32
4.26
3.15
2.1
1.1
-0.07
-1.71
-4.09
-7.33
-11.29
-15.65
-19.96
-23.77
-26.72
-28.49
-28.88
-27.81
-25.42
-22.01
-18.06
-14.03
-10.26
-6.92
-4.01
-1.51
0.56
2.06
2.89
3.04
2.64
2.01
1.52
1.48
1.97
2.85
3.74
4.25
4.06
3.08
1.44
-0.64
-2.98
-5.54
-8.39
-11.65
-15.41
-19.63
-24.19
-28.9
-33.45
-37.34
-39.98
-40.72
-39.14
-35.28
-29.63
-23.08
-16.57
-10.76
-5.87
-1.77
1.86
5.22
8.29
10.83
12.62
13.54
13.7
13.37
12.8
12.15
11.45
10.64
9.65
8.46
7.16
5.85
4.63
3.5
2.35
0.97
-0.88
-3.36
-6.54
-10.34
-14.57
-18.86
-22.74
-25.62
-26.91
-26.21
-23.48
-19.1
-13.8
-8.38
-3.46
0.8
4.57
8.19
11.84
15.35
18.28
20.14
20.72
20.18
19.04
17.88
17.09
16.7
16.42
15.86
14.74
13.06
11.04
8.99
7.12
5.47
3.93
2.3
0.42
-1.85
-4.61
-7.91
-11.73
-15.87
-19.86
-22.97
-24.39
-23.45
-19.94
-14.19
-7.03
0.51
7.59
13.73
18.9
23.34
27.32
30.93
34.1
36.62
38.44
39.65
40.53
41.42
42.58
44.05
45.7
47.31
48.66
49.6
50.06
49.94
49.11
47.44
44.82
41.21
36.54
30.71
23.53
14.96
5.29
-4.63
-13.44
-19.69
-22.36
-21.37
-17.62
-12.61
-7.78
-4.01
-1.37
0.63
2.63
4.96
7.43
9.47
10.39
9.74
7.53
4.23
0.55
-2.78
-5.27
-6.71
-7.12
-6.68
-5.65
-4.4
-3.5
-3.68
-5.71
-10.03
-16.62
-24.92
-34.07
-43.28
-52.06
-60.12
-67.18
-72.76
-76.15
-76.7
-74.21
-69.22
-62.97
-57.02
-52.72
-50.69
-50.57
-51.13
-50.73
-47.95
-42.15
-33.76
-24.08
-14.83
-7.44
-2.56
0.07
1.27
1.95
2.65
3.4
3.94
3.97
3.43
2.46
1.29
-0
-1.6
-3.82
-7.01
-11.28
-16.42
-21.89
-27
-31.01
-33.33
-33.59
-31.63
-27.53
-21.53
-14.16
-6.1
1.77
8.63
13.92
17.54
19.81
21.29
22.47
23.57
24.52
25.15
25.41
25.39
25.35
25.43
25.63
25.8
25.81
25.72
25.71
26.03
26.74
27.67
28.46
28.71
28.13
26.63
24.3
21.35
18.13
15.11
12.86
11.93
12.62
14.86
18.13
21.63
24.51
26.09
25.99
24.12
20.56
15.45
8.96
1.3
-7.17
-15.91
-24.22
-31.34
-36.61
-39.58
-40.16
-38.59
-35.43
-31.38
-27.11
-23.09
-19.53
-16.43
-13.69
-11.35
-9.76
-9.55
-11.45
-15.95
-22.93
-31.48
-40.05
-46.85
-50.38
-49.86
-45.37
-37.75
-28.22
-17.99
-8.06
0.85
8.26
13.84
17.44
19.11
19.22
18.36
17.25
16.45
16.25
16.58
17.15
17.58
17.63
17.27
16.66
16.05
15.62
15.42
15.28
14.9
13.98
12.27
9.71
6.51
3.12
0.21
-1.52
-1.5
0.45
4.11
8.87
13.93
18.6
22.46
25.46
27.82
29.83
31.71
33.53
35.22
36.66
37.72
38.29
38.29
37.7
36.54
34.96
33.2
31.56
30.32
29.65
29.51
29.59
29.4
28.4
26.12
22.4
17.38
11.58
5.74
0.74
-2.62
-3.78
-2.57
0.75
5.57
11.03
16.27
20.68
23.99
26.31
27.94
29.19
30.2
30.91
31.14
30.74
29.65
27.95
25.75
23.03
19.68
15.57
10.81
5.72
0.71
-4.03
-8.83
-14.47
-21.83
-31.27
-42.19
-53.16
-62.38
-68.49
-71.1
-70.84
-68.91
-66.47
-64.06
-61.47
-58.02
-52.95
-45.91
-37.14
-27.45
-17.91
-9.51
-2.87
1.87
4.91
6.64
7.39
7.41
6.92
6.27
5.97
6.49
8.11
10.56
13.07
14.57
14.05
10.95
5.44
-1.66
-9.12
-15.55
-19.75
-20.85
-18.6
-13.43
-6.52
0.41
5.55
7.54
6.01
1.71
-3.77
-8.62
-11.55
-12.12
-10.76
-8.39
-5.98
-4.24
-3.52
-3.89
-5.22
-7.31
-9.8
-12.3
-14.41
-15.85
-16.67
-17.28
-18.33
-20.47
-24.03
-28.69
-33.51
-37.1
-38.12
-35.74
-29.92
-21.46
-11.66
-1.94
6.52
13.05
17.41
19.75
20.41
19.81
18.37
16.44
14.25
11.84
9.2
6.25
2.98
-0.48
-3.88
-6.88
-9.16
-10.52
-11.04
-11.06
-11.19
-12.14
-14.46
-18.33
-23.38
-28.71
-33.12
-35.41
-34.75
-30.88
-24.13
-15.35
-5.56
4.18
13.08
20.57
26.37
30.45
32.96
34.28
34.88
35.26
35.77
36.48
37.11
37.11
35.93
33.27
29.26
24.44
19.55
15.19
11.57
8.46
5.32
1.55
-3.29
-9.24
-15.88
-22.41
-27.76
-30.93
-31.2
-28.4
-22.91
-15.6
-7.44
0.72
8.37
15.3
21.41
26.47
30.08
31.76
31.19
28.5
24.28
19.45
14.93
11.41
9.17
8.15
8.06
8.57
9.28
9.78
9.6
8.3
5.54
1.19
-4.64
-11.61
-19.15
-26.53
-32.8
-37
-38.36
-36.59
-32.03
-25.66
-18.74
-12.38
-7.25
-3.39
-0.42
2.19
4.88
7.8
10.87
13.94
16.85
19.51
21.86
23.76
24.97
25.18
24.14
21.82
18.53
14.81
11.29
8.42
6.23
4.38
2.31
-0.51
-4.35
-9.09
-14.27
-19.19
-23.09
-25.24
-25.21
-22.92
-18.76
-13.43
-7.75
-2.38
2.36
6.5
10.23
13.67
16.76
19.27
20.93
21.64
21.5
20.77
19.76
18.71
17.75
16.94
16.3
15.85
15.54
15.24
14.7
13.58
11.53
8.29
3.78
-1.96
-8.67
-15.98
-23.32
-29.97
-35.16
-38.19
-38.61
-36.39
-31.91
-25.88
-19.1
-12.3
-6.01
-0.51
4.03
7.52
9.93
11.22
11.47
10.88
9.76
8.46
7.27
6.31
5.53
4.77
3.91
2.96
2.13
1.73
2.03
3.05
4.5
5.79
6.17
4.98
1.9
-2.97
-9.03
-15.32
-20.67
-24.01
-24.58
-22.2
-17.28
-10.71
-3.63
2.94
8.33
12.33
15.07
16.82
17.81
18.11
17.66
16.49
14.75
12.76
10.88
9.34
8.13
7.01
5.69
3.92
1.7
-0.82
-3.39
-5.81
-8.12
-10.53
-13.43
-17.19
-22
-27.75
-33.98
-39.98
-44.93
-48.09
-49.02
-47.71
-44.52
-40.09
-35.09
-30.08
-25.36
-21.07
-17.2
-13.77
-10.85
-8.53
-6.88
-5.87
-5.34
-4.99
-4.42
-3.26
-1.22
1.71
5.3
9.1
12.58
15.33
17.11
17.9
17.82
16.97
15.43
13.16
10.16
6.54
2.61
-1.05
-3.67
-4.49
-2.99
0.85
6.47
12.94
19.3
24.93
29.7
33.88
37.8
41.55
44.87
47.31
48.62
48.92
48.76
48.87
49.76
51.51
53.64
55.44
56.21
55.58
53.68
50.95
48
45.3
43.01
41.01
38.92
36.27
32.57
27.42
20.59
12.24
3.01
-5.95
-13.25
-17.77
-19.12
-17.84
-15.3
-13.01
-12
-12.47
-13.73
-14.81
-14.93
-13.95
-12.32
-10.75
-9.78
-9.55
-9.84
-10.43
-11.38
-13.05
-15.95
-20.32
-25.82
-31.53
-36.36
-39.5
-40.89
-41.23
-41.66
-43.18
-46.28
-50.72
-55.69
-60.21
-63.37
-64.6
-63.66
-60.56
-55.51
-48.85
-41.02
-32.59
-24.21
-16.52
-10.03
-4.98
-1.36
1.12
2.88
4.37
5.99
8.04
10.67
13.85
17.32
20.65
23.38
25.27
26.46
27.5
28.97
31.13
33.5
34.89
33.82
29.2
20.88
9.9
-1.76
-11.83
-18.36
-20.18
-17.08
-9.72
0.62
12.26
23.47
32.82
39.41
43.11
44.46
44.33
43.59
42.8
42.1
41.35
40.24
38.56
36.26
33.44
30.39
27.42
24.86
22.98
21.86
21.39
21.29
21.15
20.53
19
16.24
12.09
6.66
0.34
-6.22
-12.18
-16.71
-19.16
-19.18
-16.87
-12.77
-7.73
-2.79
1.12
3.32
3.5
1.65
-2.05
-7.3
-13.72
-20.84
-28.17
-35.31
-42.15
-48.88
-55.9
-63.49
-71.56
-79.46
-86.16
-90.63
-92.12
-90.5
-86.23
-80.2
-73.56
-67.34
-62.28
-58.6
-55.9
-53.27
-49.62
-44.03
-36.11
-26.18
-15.13
-4.07
6.03
14.57
21.36
26.52
30.26
32.78
34.18
34.59
34.16
33.11
31.73
30.29
28.95
27.77
26.71
25.7
24.67
23.52
22.05
19.95
16.76
12.06
5.6
-2.51
-11.75
-21.23
-29.87
-36.63
-40.7
-41.71
-39.78
-35.49
-29.68
-23.21
-16.7
-10.43
-4.36
1.6
7.47
13.02
17.83
21.48
23.71
24.51
24.12
22.86
21.12
19.21
17.34
15.65
14.18
12.93
11.86
10.94
10.13
9.33
8.32
6.75
4.23
0.46
-4.55
-10.42
-16.28
-21.03
-23.57
-23.18
-19.79
-14.01
-6.92
0.33
6.84
12.13
16.12
18.93
20.68
21.45
21.32
20.51
19.43
18.51
17.99
17.82
17.58
16.81
15.18
12.73
9.87
7.15
5.03
3.65
2.85
2.21
1.27
-0.38
-2.98
-6.59
-11.02
-15.78
-20.11
-23.1
-23.91
-22.05
-17.65
-11.38
-4.31
2.49
8.28
12.83
16.35
19.17
21.57
23.57
24.96
25.51
25.17
24.08
22.6
21.09
19.78
18.68
17.67
16.55
15.23
13.71
12.08
10.5
9.02
7.59
6.01
3.97
1.16
-2.71
-7.66
-13.44
-19.39
-24.68
-28.44
-30.06
-29.42
-26.8
-22.84
-18.19
-13.39
-8.71
-4.26
-0.03
3.95
7.6
10.79
13.35
15.12
15.98
15.97
15.24
14.13
13.06
12.41
12.31
12.56
12.64
11.95
10.06
6.85
2.56
-2.4
-7.69
-13.2
-18.95
-25.03
-31.39
-37.8
-43.96
-49.53
-54.17
-57.48
-58.92
-57.89
-54
-47.37
-38.8
-29.66
-21.39
-15.07
-10.99
-8.67
-7.19
-5.67
-3.65
-1.18
1.34
3.5
5.12
6.35
7.45
8.62
9.79
10.67
10.87
10.14
8.51
6.29
3.93
1.8
0.04
-1.49
-3.1
-5.2
-8.09
-11.81
-16.04
-20.13
-23.2
-24.41
-23.21
-19.59
-14.09
-7.62
-1.12
4.72
9.67
13.93
17.91
21.9
25.91
29.63
32.55
34.16
34.25
32.94
30.77
28.51
26.86
26.26
26.64
27.51
28.16
27.97
26.63
24.23
21.1
17.58
13.83
9.81
5.43
0.61
-4.55
-9.8
-14.94
-19.84
-24.48
-28.72
-32.23
-34.42
-34.64
-32.5
-28.1
-22.1
-15.44
-9.03
-3.38
1.46
5.74
9.68
13.29
16.31
18.44
19.53
19.76
19.6
19.61
20.16
21.33
22.84
24.18
24.83
24.45
22.96
20.55
17.59
14.47
11.47
8.64
5.79
2.57
-1.33
-5.98
-11.11
-16.05
-19.96
-22.08
-22.01
-19.78
-15.78
-10.64
-4.98
0.69
6.01
10.76
14.83
18.14
20.61
22.14
22.58
21.86
20.04
17.44
14.54
11.91
9.93
8.64
7.77
6.88
5.59
3.7
1.27
-1.46
-4.23
-6.84
-9.25
-11.59
-14.19
-17.54
-22.16
-28.33
-35.82
-43.81
-50.95
-55.77
-57.18
-54.85
-49.3
-41.74
-33.56
-25.86
-19.22
-13.75
-9.35
-5.94
-3.66
-2.76
-3.33
-5.16
-7.66
-10.04
-11.54
-11.76
-10.77
-9.06
-7.25
-5.88
-5.13
-4.84
-4.66
-4.27
-3.61
-2.88
-2.52
-2.93
-4.39
-6.94
-10.4
-14.42
-18.51
-22.03
-24.22
-24.39
-22.12
-17.47
-11.02
-3.66
3.64
10.19
15.72
20.29
24.15
27.53
30.43
32.7
34.11
34.52
33.95
32.66
31.06
29.55
28.4
27.62
27.06
26.43
25.52
24.3
22.86
21.29
19.59
17.58
14.96
11.46
6.96
1.52
-4.66
-11.32
-18.14
-24.66
-30.24
-34.09
-35.42
-33.8
-29.38
-22.94
-15.63
-8.58
-2.49
2.46
6.52
10.04
13.19
15.86
17.73
18.55
18.28
17.18
15.64
14.04
12.61
11.35
10.14
8.85
7.38
5.75
4.04
2.34
0.68
-1.04
-2.99
-5.37
-8.35
-11.98
-16.26
-21.08
-26.25
-31.46
-36.2
-39.83
-41.61
-40.97
-37.71
-32.15
-25.04
-17.35
-9.95
-3.31
2.46
7.51
11.99
15.85
18.89
20.82
21.52
21.16
20.15
19.1
18.48
18.56
19.25
20.19
20.92
21.02
20.27
18.64
16.28
13.4
10.17
6.64
2.78
-1.51
-6.28
-11.49
-16.93
-22.22
-26.77
-29.92
-31.07
-29.84
-26.25
-20.78
-14.24
-7.57
-1.55
3.4
7.21
10.07
12.15
13.57
14.29
14.28
13.68
12.78
11.99
11.7
12.07
12.95
13.99
14.73
14.89
14.41
13.46
12.32
11.18
10.09
8.91
7.4
5.3
2.43
-1.3
-5.8
-10.76
-15.66
-19.75
-22.28
-22.66
-20.75
-16.82
-11.53
-5.65
0.22
5.74
10.79
15.35
19.41
22.83
25.43
27.05
27.66
27.43
26.69
25.87
25.33
25.26
25.55
25.91
25.95
25.41
24.29
22.79
21.21
19.73
18.34
16.87
15.08
12.78
9.92
6.55
2.8
-1.13
-4.93
-8.13
-10.2
-10.68
-9.36
-6.49
-2.61
1.54
5.36
8.53
11.05
13.11
14.88
16.41
17.57
18.16
18.06
17.34
16.22
15.03
14.06
13.41
12.97
12.52
11.81
10.7
9.18
7.34
5.28
3
0.39
-2.67
-6.31
-10.52
-15.19
-20.05
-24.78
-28.95
-32.05
-33.59
-33.16
-30.64
-26.3
-20.73
-14.72
-8.97
-3.94
0.22
3.58
6.26
8.27
9.5
9.82
9.25
8.04
6.65
5.58
5.16
5.46
6.16
6.8
6.9
6.2
4.74
2.83
0.85
-0.93
-2.46
-3.94
-5.72
-8.09
-11.25
-15.15
-19.49
-23.83
-27.59
-30.19
-31.23
-30.47
-27.99
-24.11
-19.32
-14.17
-9.07
-4.29
0.09
4.11
7.77
11.06
13.9
16.17
17.82
18.9
19.5
19.73
19.64
19.2
18.3
16.9
15.01
12.75
10.35
8.04
6.05
4.49
3.34
2.38
1.33
-0.14
-2.24
-4.98
-8.15
-11.3
-13.86
-15.29
-15.22
-13.57
-10.52
-6.45
-1.8
3.06
7.89
12.54
16.89
20.78
24.04
26.5
28.09
28.91
29.17
29.13
28.99
28.89
28.84
28.72
28.38
27.59
26.21
24.18
21.6
18.7
15.75
12.94
10.33
7.78
5.02
1.77
-2.11
-6.59
-11.4
-16.11
-20.18
-23.07
-24.26
-23.46
-20.66
-16.22
-10.79
-5.2
-0.17
3.88
6.9
9.16
10.95
12.41
13.46
13.8
13.21
11.63
9.29
6.54
3.71
0.97
-1.64
-4.13
-6.47
-8.56
-10.29
-11.68
-12.9
-14.27
-16.1
-18.57
-21.72
-25.38
-29.3
-33.11
-36.33
-38.47
-39.03
-37.72
-34.57
-29.95
-24.44
-18.72
-13.26
-8.3
-3.81
0.31
4.09
7.4
10.04
11.77
12.56
12.56
12.11
11.56
11.13
10.86
10.6
10.12
9.24
7.92
6.22
4.27
2.22
0.09
-2.17
-4.69
-7.63
-11.1
-15.1
-19.52
-24.06
-28.33
-31.8
-34
-34.51
-33.17
-30.07
-25.55
-20.14
-14.34
-8.55
-2.98
2.37
7.55
12.61
17.47
21.93
25.69
28.51
30.29
31.16
31.43
31.45
31.5
31.59
31.58
31.2
30.25
28.67
26.57
24.17
21.65
19.08
16.39
13.41
9.96
5.91
1.19
-4.12
-9.76
-15.28
-20
-23.17
-24.16
-22.67
-18.92
-13.54
-7.42
-1.36
4.16
9.04
13.43
17.5
21.2
24.25
26.26
26.91
26.23
24.49
22.24
19.97
18
16.34
14.77
13.02
10.92
8.49
5.95
3.52
1.29
-0.87
-3.27
-6.22
-9.93
-14.39
-19.36
-24.42
-29.09
-32.85
-35.23
-35.85
-34.52
-31.35
-26.68
-21.09
-15.21
-9.59
-4.52
-0.14
3.59
6.71
9.17
10.9
11.82
11.96
11.52
10.77
10
9.35
8.82
8.3
7.6
6.61
5.26
3.61
1.77
-0.18
-2.15
-4.18
-6.39
-9
-12.26
-16.33
-21.21
-26.65
-32.15
-37.03
-40.58
-42.19
-41.5
-38.56
-33.72
-27.64
-21.08
-14.65
-8.76
-3.53
1.12
5.27
8.94
12
14.28
15.65
16.13
15.91
15.26
14.48
13.77
13.14
12.53
11.78
10.74
9.3
7.44
5.2
2.67
-0.03
-2.81
-5.6
-8.42
-11.38
-14.61
-18.22
-22.19
-26.27
-29.99
-32.79
-34.09
-33.55
-31.12
-27.12
-22.04
-16.49
-10.99
-5.83
-1.11
3.29
7.54
11.74
15.81
19.47
22.35
24.12
24.7
24.28
23.28
22.17
21.32
20.89
20.82
20.96
21.09
21.03
20.62
19.76
18.4
16.54
14.3
11.87
9.51
7.39
5.53
3.81
1.91
-0.46
-3.44
-6.91
-10.39
-13.17
-14.54
-13.97
-11.32
-6.86
-1.19
5.01
11.11
16.72
21.68
26.01
29.77
32.96
35.53
37.36
38.39
38.63
38.27
37.58
36.85
36.35
36.19
36.4
36.87
37.45
37.92
38
37.47
36.17
34.17
31.73
29.29
27.24
25.73
24.56
23.26
21.32
18.45
14.77
10.73
6.95
3.9
1.73
0.19
-1.27
-3.29
-6.51
-11.43
-18.25
-26.81
-36.41
-45.88
-53.76
-58.82
-60.44
-58.98
-55.64
-51.96
-49.26
-48.07
-48.08
-48.51
-48.59
-48.02
-47.03
-46.15
-45.87
-46.37
-47.39
-48.46
-49.15
-49.19
-48.59
-47.44
-45.9
-44.04
-41.91
-39.6
-37.33
-35.37
-33.94
-33.08
-32.46
-31.41
-29.12
-24.91
-18.63
-10.7
-2.05
6.26
13.43
19.16
23.72
27.73
31.77
36.13
40.64
44.78
47.89
49.44
49.26
47.57
44.93
41.96
39.25
37.11
35.62
34.65
33.96
33.34
32.63
31.69
30.42
28.69
26.45
23.73
20.75
17.84
15.37
13.58
12.49
11.93
11.69
11.71
12.31
14.08
17.74
23.76
32.11
42.16
52.87
63.17
72.25
79.82
86.01
91.18
95.6
99.28
101.9
102.87
101.46
96.92
88.58
76
59.16
38.63
15.63
-8.14
-30.84
-50.93
-67.64
-81.09
-92.2
-102.23
-112.31
-122.95
-133.84
-143.91
-151.75
-156.12
-156.49
-153.21
-147.36
-140.29
-133.01
-125.75
-118.07
-109.23
-98.73
-86.67
-73.72
-60.76
-48.51
-37.23
-26.83
-17.13
-8.15
-0.17
6.42
11.35
14.68
16.78
18.18
19.39
20.69
22.07
23.35
24.27
24.6
24.23
23.14
21.48
19.43
17.15
14.76
12.25
9.55
6.58
3.3
-0.19
-3.64
-6.75
-9.09
-10.19
-9.63
-7.12
-2.64
3.49
10.63
17.98
24.81
30.67
35.46
39.29
42.34
44.67
46.19
46.74
46.25
44.79
42.66
40.23
37.84
35.64
33.63
31.63
29.47
27.07
24.52
21.98
19.6
17.4
15.22
12.85
10.07
6.75
2.85
-1.61
-6.53
-11.64
-16.47
-20.3
-22.45
-22.47
-20.34
-16.58
-12.02
-7.53
-3.79
-1.13
0.43
1.04
0.86
0.02
-1.41
-3.33
-5.51
-7.59
-9.14
-9.79
-9.48
-8.45
-7.26
-6.51
-6.54
-7.36
-8.62
-9.82
-10.64
-11.04
-11.3
-11.86
-13.18
-15.51
-18.83
-22.79
-26.74
-29.78
-31.01
-29.71
-25.6
-18.95
-10.54
-1.49
7.04
14.18
19.51
23.15
25.63
27.61
29.62
31.81
33.91
35.37
35.62
34.35
31.71
28.19
24.49
21.17
18.48
16.4
14.74
13.28
11.91
10.55
9.06
7.2
4.74
1.55
-2.22
-6.24
-10.14
-13.8
-17.38
-21.19
-25.39
-29.7
-33.4
-35.57
-35.52
-33.1
-28.75
-23.31
-17.55
-11.94
-6.6
-1.44
3.51
7.98
11.5
13.68
14.39
13.93
12.94
12.13
12.01
12.68
13.8
14.77
15
14.14
12.18
9.44
6.39
3.44
0.82
-1.51
-3.77
-6.24
-9.15
-12.65
-16.74
-21.23
-25.72
-29.63
-32.23
-32.85
-31.07
-26.92
-20.91
-13.92
-6.91
-0.65
4.54
8.69
12.07
14.89
17.19
18.84
19.68
19.68
19.04
18.1
17.2
16.53
16.06
15.63
15.05
14.18
13
11.54
9.84
7.91
5.69
3.15
0.3
-2.84
-6.19
-9.72
-13.43
-17.3
-21.14
-24.55
-26.86
-27.4
-25.75
-21.98
-16.7
-10.87
-5.41
-0.88
2.65
5.5
8.08
10.6
12.98
14.89
16
16.13
15.39
14.13
12.75
11.53
10.52
9.57
8.44
7
5.3
3.54
1.95
0.65
-0.48
-1.71
-3.41
-5.86
-9.16
-13.23
-17.76
-22.35
-26.48
-29.61
-31.26
-31.06
-28.91
-25.03
-19.89
-14.14
-8.39
-3.06
1.75
6.1
10.08
13.63
16.49
18.36
19.02
18.57
17.41
16.09
15.09
14.63
14.6
14.7
14.63
14.16
13.28
12.08
10.68
9.13
7.44
5.52
3.31
0.78
-2.09
-5.28
-8.77
-12.43
-16.01
-19.01
-20.86
-20.97
-19.03
-15.1
-9.65
-3.41
2.84
8.44
12.98
16.26
18.23
18.92
18.38
16.74
14.21
11.08
7.7
4.46
1.69
-0.41
-1.84
-2.77
-3.53
-4.4
-5.6
-7.15
-8.92
-10.73
-12.42
-13.93
-15.3
-16.6
-17.86
-19.13
-20.43
-21.87
-23.6
-25.75
-28.29
-30.94
-33.1
-34.07
-33.22
-30.27
-25.41
-19.3
-12.8
-6.73
-1.63
2.37
5.5
8.1
10.5
12.78
14.79
16.24
16.84
16.54
15.5
14.12
12.82
11.91
11.4
11.1
10.7
9.92
8.62
6.83
4.68
2.31
-0.16
-2.68
-5.29
-8.01
-10.89
-13.93
-17.14
-20.51
-24.05
-27.67
-31.12
-34.01
-35.74
-35.72
-33.59
-29.39
-23.6
-17.02
-10.42
-4.38
0.92
5.62
9.94
14.01
17.79
21.02
23.48
25.06
25.87
26.17
26.25
26.31
26.4
26.45
26.37
26.12
25.76
25.36
24.97
24.48
23.65
22.17
19.8
16.51
12.53
8.28
4.23
0.73
-2.07
-4.25
-6.11
-8.02
-10.38
-13.48
-17.45
-22.14
-27.05
-31.39
-34.25
-34.84
-32.78
-28.24
-21.9
-14.74
-7.72
-1.5
3.64
7.8
11.27
14.33
17.08
19.46
21.28
22.36
22.69
22.41
21.79
21.1
20.53
20.12
19.83
19.59
19.26
18.75
17.95
16.83
15.37
13.61
11.65
9.51
7.17
4.54
1.5
-2.02
-5.96
-10.19
-14.5
-18.63
-22.27
-25.02
-26.42
-26.02
-23.59
-19.25
-13.52
-7.2
-1.14
4.05
8.14
11.15
13.27
14.6
15.1
14.73
13.56
11.92
10.33
9.27
9.04
9.55
10.4
11.08
11.17
10.42
8.89
6.77
4.32
1.72
-0.92
-3.58
-6.33
-9.28
-12.56
-16.26
-20.4
-24.78
-28.9
-32.02
-33.33
-32.18
-28.42
-22.47
-15.2
-7.68
-0.77
5.07
9.82
13.73
17.09
20.04
22.55
24.45
25.6
25.93
25.55
24.67
23.58
22.53
21.72
21.19
20.84
20.51
19.94
18.92
17.31
15.05
12.21
8.95
5.46
1.9
-1.63
-5.17
-8.84
-12.72
-16.71
-20.43
-23.2
-24.23
-22.89
-18.94
-12.71
-5.03
3.08
10.66
17.18
22.52
26.87
30.54
33.71
36.36
38.33
39.37
39.42
38.56
37.14
35.58
34.3
33.56
33.4
33.6
33.81
33.58
32.57
30.58
27.59
23.76
19.35
14.61
9.73
4.72
-0.53
-6.3
-12.83
-20.27
-28.51
-37.05
-45.03
-51.37
-55.03
-55.35
-52.27
-46.43
-39
-31.33
-24.56
-19.36
-15.81
-13.55
-12.02
-10.69
-9.22
-7.51
-5.62
-3.68
-1.84
-0.25
1.01
1.88
2.43
2.86
3.44
4.41
5.78
7.28
8.32
8.25
6.62
3.39
-1.03
-5.86
-10.27
-13.7
-16.01
-17.59
-19.15
-21.45
-24.94
-29.5
-34.36
-38.32
-40.11
-38.82
-34.26
-26.99
-18.15
-9.05
-0.77
6.05
11.28
15.14
17.97
20.06
21.59
22.66
23.36
23.82
24.21
24.7
25.31
25.96
26.46
26.71
26.76
26.78
26.98
27.4
27.84
27.87
27.06
25.13
22.14
18.41
14.42
10.55
6.96
3.49
-0.22
-4.68
-10.39
-17.71
-26.65
-36.76
-47.02
-56
-62.14
-64.26
-61.94
-55.78
-47.13
-37.69
-28.85
-21.29
-14.96
-9.35
-3.96
1.39
6.42
10.72
13.93
16.04
17.31
18.12
18.71
19.07
19.04
18.42
17.19
15.52
13.75
12.17
10.93
9.9
8.79
7.28
5.18
2.57
-0.2
-2.65
-4.4
-5.36
-5.77
-6.15
-7.06
-8.91
-11.84
-15.64
-19.84
-23.74
-26.6
-27.76
-26.87
-24.03
-19.74
-14.78
-9.93
-5.72
-2.34
0.31
2.44
4.19
5.56
6.46
6.86
6.78
6.36
5.85
5.5
5.52
6.07
7.21
8.95
11.17
13.64
16.06
18.04
19.19
19.16
17.77
15.11
11.49
7.41
3.43
-0.03
-2.72
-4.66
-5.98
-6.97
-7.95
-9.32
-11.42
-14.46
-18.33
-22.49
-26.06
-28.04
-27.71
-24.86
-19.93
-13.79
-7.45
-1.68
3.08
6.83
9.71
11.89
13.41
14.21
14.24
13.55
12.39
11.07
9.94
9.16
8.72
8.46
8.14
7.55
6.6
5.28
3.65
1.82
-0.16
-2.22
-4.34
-6.49
-8.65
-10.79
-12.83
-14.71
-16.43
-17.97
-19.34
-20.39
-20.8
-20.12
-17.95
-14.17
-9.05
-3.22
2.52
7.47
11.23
13.71
15.04
15.34
14.74
13.35
11.33
9.01
6.79
5.02
3.86
3.25
2.95
2.66
2.15
1.29
0.06
-1.52
-3.39
-5.55
-7.96
-10.61
-13.43
-16.37
-19.39
-22.5
-25.79
-29.39
-33.43
-37.91
-42.55
-46.75
-49.65
-50.39
-48.42
-43.77
-37.1
-29.45
-21.88
-15.1
-9.34
-4.41
-0.01
4.05
7.7
10.65
12.64
13.55
13.49
12.77
11.8
10.91
10.3
9.98
9.81
9.59
9.13
8.39
7.33
5.99
4.37
2.44
0.16
-2.44
-5.32
-8.44
-11.89
-15.82
-20.37
-25.47
-30.69
-35.24
-38.13
-38.57
-36.21
-31.33
-24.74
-17.46
-10.38
-4.02
1.5
6.42
11.02
15.5
19.84
23.89
27.4
30.19
32.16
33.32
33.81
33.79
33.4
32.72
31.79
30.62
29.25
27.74
26.1
24.24
21.98
19.1
15.44
11.05
6.2
1.26
-3.49
-7.98
-12.42
-17.12
-22.26
-27.69
-32.8
-36.68
-38.36
-37.24
-33.23
-26.91
-19.25
-11.33
-4.02
2.22
7.36
11.63
15.38
18.88
22.24
25.43
28.31
30.71
32.45
33.38
33.46
32.76
31.52
30.04
28.68
27.68
27.08
26.8
26.58
26.13
25.17
23.47
20.92
17.47
13.28
8.65
4.02
-0.21
-3.81
-6.91
-9.92
-13.38
-17.65
-22.66
-27.81
-32.09
-34.41
-34.01
-30.67
-24.84
-17.45
-9.61
-2.23
4.14
9.39
13.77
17.62
21.18
24.52
27.46
29.78
31.27
31.92
31.85
31.32
30.53
29.62
28.64
27.62
26.63
25.79
25.21
24.82
24.42
23.66
22.22
19.85
16.57
12.59
8.26
3.95
-0.1
-3.76
-7.12
-10.38
-13.85
-17.82
-22.4
-27.43
-32.39
-36.5
-38.92
-38.99
-36.49
-31.68
-25.29
-18.19
-11.24
-5.02
0.19
4.43
7.87
10.69
12.96
14.67
15.76
16.23
16.2
15.89
15.56
15.4
15.45
15.67
15.94
16.19
16.37
16.45
16.31
15.76
14.58
12.65
10.01
6.88
3.57
0.36
-2.58
-5.21
-7.57
-9.74
-11.85
-14.06
-16.6
-19.66
-23.33
-27.41
-31.38
-34.46
-35.86
-35.05
-31.93
-26.92
-20.77
-14.29
-8.15
-2.75
1.83
5.65
8.84
11.53
13.79
15.65
17.15
18.29
19.05
19.42
19.37
18.92
18.15
17.21
16.3
15.62
15.31
15.33
15.53
15.61
15.24
14.16
12.3
9.77
6.88
3.97
1.33
-0.91
-2.85
-4.77
-7.03
-9.94
-13.54
-17.57
-21.38
-24.14
-25.03
-23.6
-19.87
-14.45
-8.26
-2.26
2.86
6.82
9.76
12.04
14.06
15.98
17.8
19.3
20.22
20.37
19.74
18.46
16.8
15.1
13.67
12.76
12.47
12.7
13.17
13.46
13.17
12.07
10.15
7.6
4.77
1.95
-0.74
-3.3
-5.87
-8.57
-11.53
-14.82
-18.48
-22.4
-26.32
-29.68
-31.75
-31.87
-29.69
-25.41
-19.72
-13.63
-8.08
-3.64
-0.44
1.78
3.39
4.69
5.81
6.76
7.51
8.08
8.53
8.95
9.4
9.86
10.29
10.57
10.56
10.11
9.07
7.37
5.07
2.29
-0.69
-3.59
-6.12
-8.07
-9.38
-10.12
-10.52
-10.91
-11.67
-13.09
-15.32
-18.29
-21.73
-25.21
-28.17
-30.05
-30.33
-28.69
-25.14
-19.98
-13.85
-7.48
-1.54
3.56
7.74
11.1
13.83
15.97
17.37
17.82
17.22
15.76
13.89
12.2
11.14
10.84
11.06
11.31
11.15
10.35
8.95
7.15
5.14
3
0.7
-1.83
-4.58
-7.47
-10.39
-13.29
-16.18
-19.2
-22.49
-26.12
-30.05
-34.09
-37.81
-40.66
-42
-41.29
-38.36
-33.44
-27.2
-20.51
-14.16
-8.65
-4.08
-0.26
3.11
6.24
9.16
11.75
13.81
15.21
15.96
16.22
16.25
16.28
16.46
16.77
17.11
17.31
17.25
16.93
16.37
15.64
14.71
13.5
11.88
9.77
7.21
4.39
1.59
-0.88
-2.9
-4.54
-6.08
-7.9
-10.26
-13.08
-15.96
-18.21
-19.15
-18.39
-15.96
-12.29
-7.98
-3.58
0.59
4.44
7.95
11.12
13.84
15.98
17.46
18.33
18.75
18.92
19.01
19.13
19.32
19.61
20.03
20.61
21.34
22.13
22.87
23.38
23.52
23.14
22.21
20.74
18.86
16.77
14.68
12.79
11.19
9.89
8.78
7.64
6.25
4.42
2.15
-0.33
-2.52
-3.82
-3.74
-2.11
0.84
4.6
8.5
11.95
14.6
16.3
17.06
16.99
16.22
14.95
13.42
11.84
10.39
9.19
8.33
7.92
8.03
8.6
9.38
9.93
9.78
8.62
6.51
3.76
0.8
-2.05
-4.65
-7
-9.09
-10.83
-12.11
-12.95
-13.59
-14.45
-15.86
-17.81
-19.87
-21.32
-21.49
-20.07
-17.21
-13.49
-9.61
-6.26
-3.91
-2.78
-2.83
-3.75
-5.06
-6.19
-6.67
-6.31
-5.23
-3.82
-2.51
-1.57
-1.05
-0.78
-0.57
-0.34
-0.19
-0.32
-0.9
-1.98
-3.48
-5.26
-7.28
-9.55
-12.19
-15.31
-18.91
-22.9
-27.11
-31.26
-35.04
-38.01
-39.68
-39.61
-37.58
-33.73
-28.56
-22.8
-17.17
-12.14
-7.82
-4.05
-0.49
3.11
6.88
10.7
14.32
17.39
19.65
20.97
21.43
21.26
20.83
20.43
20.24
20.27
20.37
20.37
20.12
19.6
18.87
18
17.03
15.88
14.4
12.47
10.07
7.31
4.32
1.21
-1.98
-5.22
-8.34
-10.98
-12.61
-12.72
-11.09
-7.91
-3.75
0.62
4.54
7.59
9.71
11.09
12.04
12.87
13.77
14.81
15.89
16.83
17.4
17.41
16.76
15.41
13.44
10.98
8.19
5.26
2.37
-0.25
-2.48
-4.25
-5.69
-7.01
-8.51
-10.39
-12.72
-15.35
-17.96
-20.18
-21.78
-22.74
-23.33
-23.98
-25.14
-27.04
-29.64
-32.54
-35.14
-36.78
-36.91
-35.29
-32.01
-27.57
-22.67
-18.05
-14.3
-11.67
-10.07
-9.18
-8.58
-7.9
-6.94
-5.64
-4.12
-2.55
-1.13
-0.07
0.54
0.73
0.64
0.54
0.73
1.44
2.74
4.43
6.1
7.24
7.44
6.56
4.74
2.37
-0.17
-2.63
-5.02
-7.53
-10.39
-13.72
-17.43
-21.18
-24.47
-26.77
-27.62
-26.74
-24.12
-19.99
-14.83
-9.27
-3.93
0.67
4.3
7.01
9.12
10.99
12.9
14.87
16.64
17.87
18.24
17.71
16.48
14.99
13.66
12.81
12.51
12.67
13.05
13.42
13.56
13.34
12.64
11.38
9.53
7.09
4.19
1.06
-1.98
-4.64
-6.78
-8.43
-9.87
-11.53
-13.77
-16.76
-20.25
-23.66
-26.18
-27.11
-26.04
-23.04
-18.61
-13.48
-8.39
-3.8
0.06
3.24
5.88
8.14
10.12
11.87
13.39
14.66
15.7
16.49
17.04
17.33
17.37
17.25
17.11
17.17
17.58
18.41
19.55
20.75
21.75
22.29
22.24
21.61
20.55
19.32
18.28
17.74
17.89
18.64
19.62
20.16
19.58
17.39
13.54
8.56
3.39
-0.79
-3
-2.76
-0.24
3.85
8.53
12.92
16.44
18.91
20.3
20.6
19.65
17.33
13.7
9.17
4.33
-0.31
-4.63
-8.87
-13.44
-18.45
-23.46
-27.51
-29.56
-29
-26
-21.44
-16.5
-12.17
-8.98
-6.96
-5.98
-5.92
-6.87
-9
-12.39
-16.92
-22.29
-28.2
-34.43
-40.78
-46.93
-52.27
-55.93
-57.09
-55.28
-50.68
-44.09
-36.67
-29.5
-23.24
-18.07
-13.76
-10.02
-6.67
-3.75
-1.37
0.4
1.67
2.78
4.11
5.98
8.5
11.54
14.77
17.87
20.52
22.57
23.92
24.52
24.32
23.3
21.49
18.93
15.75
12.1
8.2
4.3
0.62
-2.7
-5.73
-8.74
-12.14
-16.35
-21.55
-27.58
-33.84
-39.44
-43.35
-44.77
-43.36
-39.44
-33.95
-28.22
-23.52
-20.7
-19.89
-20.59
-22.03
-23.46
-24.49
-25.06
-25.25
-25.07
-24.39
-23
-20.78
-17.84
-14.5
-11.13
-8.05
-5.33
-2.89
-0.62
1.52
3.41
4.81
5.51
5.33
4.32
2.64
0.51
-1.89
-4.55
-7.61
-11.31
-15.71
-20.57
-25.19
-28.53
-29.57
-27.61
-22.61
-15.23
-6.62
1.99
9.67
15.95
20.86
24.71
27.88
30.68
33.21
35.44
37.23
38.39
38.78
38.38
37.29
35.81
34.25
32.89
31.89
31.22
30.72
30.14
29.27
27.95
26.18
24.12
22.02
20.13
18.58
17.27
15.89
13.97
11.05
6.83
1.38
-4.85
-10.98
-15.91
-18.59
-18.28
-14.91
-9.13
-2.18
4.51
9.76
13.07
14.63
15.18
15.52
16.19
17.2
18.2
18.72
18.54
17.82
17.03
16.66
16.97
17.82
18.74
19.15
18.65
17.18
14.97
12.45
9.98
7.76
5.74
3.71
1.45
-1.19
-4.22
-7.5
-10.73
-13.49
-15.25
-15.49
-13.75
-9.89
-4.16
2.84
10.28
17.3
23.2
27.52
30.06
30.73
29.69
27.25
24.03
20.8
18.33
17.1
17.16
18.05
19
19.2
18.08
15.44
11.54
6.97
2.45
-1.35
-4.03
-5.5
-6.04
-6.21
-6.72
-8.25
-11.27
-15.89
-21.67
-27.72
-32.84
-35.84
-35.9
-32.77
-26.89
-19.14
-10.64
-2.46
4.65
10.28
14.33
16.9
18.2
18.43
17.82
16.62
15.17
13.89
13.13
13.05
13.47
13.92
13.84
12.82
10.81
8.1
5.16
2.33
-0.29
-2.94
-6.01
-9.88
-14.74
-20.44
-26.5
-32.16
-36.47
-38.45
-37.41
-33.14
-26.08
-17.29
-8.18
-0.11
6
9.84
11.75
12.46
12.78
13.3
14.31
15.76
17.42
19.04
20.48
21.69
22.73
23.71
24.64
25.48
26.1
26.34
26.06
25.18
23.71
21.68
19.13
16.1
12.64
8.73
4.39
-0.4
-5.61
-11.05
-16.27
-20.61
-23.27
-23.64
-21.51
-17.23
-11.61
-5.62
-0.06
4.65
8.51
11.78
14.73
17.51
20.05
22.17
23.62
24.25
24.01
22.95
21.22
18.98
16.33
13.35
10.09
6.65
3.24
0.14
-2.37
-4.12
-5.17
-5.76
-6.22
-6.93
-8.17
-10.1
-12.84
-16.35
-20.47
-24.8
-28.71
-31.42
-32.21
-30.73
-27.1
-21.94
-16.12
-10.54
-5.82
-2.2
0.39
2.23
3.65
4.94
6.33
7.93
9.76
11.71
13.6
15.18
16.25
16.74
16.69
16.27
15.71
15.16
14.7
14.25
13.64
12.68
11.2
9.19
6.73
4.01
1.23
-1.5
-4.2
-7.04
-10.18
-13.65
-17.22
-20.31
-22.14
-22
-19.54
-14.93
-8.87
-2.37
3.66
8.6
12.29
14.98
16.97
18.51
19.59
19.95
19.3
17.49
14.63
11.13
7.61
4.64
2.64
1.71
1.64
2.08
2.61
2.89
2.72
2.08
1.04
-0.24
-1.58
-2.9
-4.3
-6.03
-8.47
-11.96
-16.66
-22.33
-28.42
-34.06
-38.32
-40.4
-39.84
-36.61
-31.13
-24.14
-16.56
-9.2
-2.62
2.9
7.4
11.06
14.09
16.58
18.54
19.94
20.71
20.84
20.44
19.66
18.7
17.77
17.04
16.54
16.25
15.95
15.37
14.24
12.36
9.73
6.57
3.23
0.12
-2.5
-4.63
-6.47
-8.44
-10.9
-14.11
-18.06
-22.42
-26.6
-29.82
-31.34
-30.64
-27.66
-22.81
-16.89
-10.77
-5.13
-0.3
3.77
7.28
10.47
13.43
16.1
18.38
20.12
21.24
21.68
21.44
20.61
19.31
17.76
16.16
14.7
13.45
12.44
11.59
10.8
9.93
8.86
7.48
5.78
3.78
1.52
-0.94
-3.63
-6.6
-9.95
-13.73
-17.87
-22.14
-26.14
-29.36
-31.25
-31.47
-29.98
-27.1
-23.47
-19.78
-16.53
-13.92
-11.79
-9.8
-7.62
-5.16
-2.52
0.03
2.23
3.92
5.11
5.94
6.55
7.05
7.49
7.87
8.13
8.23
8.07
7.58
6.72
5.53
4.11
2.58
1.06
-0.49
-2.18
-4.22
-6.81
-10.07
-13.98
-18.37
-22.9
-27
-29.99
-31.12
-29.86
-26.12
-20.34
-13.44
-6.51
-0.46
4.25
7.73
10.38
12.73
15.1
17.48
19.65
21.29
22.18
22.33
21.91
21.27
20.77
20.67
21.1
21.95
22.94
23.74
24.02
23.63
22.59
21.03
19.13
16.98
14.57
11.8
8.57
4.76
0.29
-4.85
-10.57
-16.57
-22.3
-26.94
-29.61
-29.61
-26.8
-21.66
-15.24
-8.82
-3.42
0.5
3.11
5.01
6.88
9.14
11.79
14.51
16.84
18.49
19.38
19.74
19.94
20.33
21.09
22.22
23.48
24.55
25.16
25.16
24.66
23.93
23.3
23
23.09
23.37
23.46
22.84
20.99
17.49
12.12
5.04
-3.09
-11.12
-17.59
-21.11
-20.84
-16.77
-9.69
-0.84
8.57
17.83
26.81
35.71
44.66
53.36
61.11
67.09
70.81
72.46
72.86
73.2
74.54
77.39
81.63
86.59
91.31
94.87
96.49
95.6
91.78
84.84
74.86
62.36
48.23
33.49
19.01
5.16
-8.2
-21.56
-35.37
-49.79
-64.44
-78.57
-91.18
-101.33
-108.38
-112.18
-113.12
-112.04
-110.02
-107.95
-106.24
-104.62
-102.44
-99.1
-94.45
-89
-83.62
-79.11
-75.74
-73.14
-70.46
-66.86
-61.87
-55.46
-47.9
-39.53
-30.58
-21.31
-12.17
-3.93
2.48
6.31
7.37
6.1
3.3
-0.28
-4.28
-8.78
-13.91
-19.51
-24.87
-29
-31.14
-31.19
-29.73
-27.62
-25.46
-23.15
-20.03
-15.32
-8.82
-1.21
6.15
11.78
14.73
14.98
13.27
10.74
8.37
6.73
5.93
5.84
6.2
6.75
7.17
7.14
6.41
4.93
2.87
0.52
-1.95
-4.68
-8.12
-12.71
-18.48
-24.85
-30.61
-34.39
-35.24
-32.97
-28.27
-22.29
-16.12
-10.4
-5.2
-0.22
4.8
9.86
14.55
18.31
20.71
21.64
21.42
20.55
19.56
18.72
18.07
17.4
16.48
15.14
13.4
11.45
9.56
7.99
6.81
5.96
5.16
4.07
2.37
-0.11
-3.27
-6.71
-9.84
-11.97
-12.6
-11.46
-8.65
-4.58
0.13
4.88
9.19
12.85
15.97
18.84
21.81
25.11
28.67
32.12
34.89
36.46
36.53
35.2
32.89
30.22
27.8
26.05
25.07
24.68
24.49
24.06
23.06
21.34
18.97
16.23
13.5
11.16
9.48
8.49
7.93
7.23
5.62
2.39
-2.91
-10.22
-18.91
-27.89
-35.86
-41.59
-44.24
-43.61
-40.23
-35.23
-29.97
-25.64
-22.78
-21.12
-19.79
-17.75
-14.36
-9.67
-4.43
0.28
3.57
5.02
4.8
3.5
1.83
0.39
-0.46
-0.49
0.36
2.12
4.64
7.57
10.32
12.2
12.7
11.69
9.58
7.13
5.15
4.07
3.82
3.87
3.52
2.23
-0.17
-3.52
-7.36
-11.12
-14.23
-16.18
-16.51
-14.99
-11.66
-6.93
-1.52
3.71
8.02
11
12.65
13.39
13.8
14.48
15.73
17.5
19.38
20.8
21.31
20.79
19.55
18.12
17.05
16.57
16.53
16.46
15.91
14.65
12.74
10.47
8.13
5.9
3.75
1.53
-0.89
-3.56
-6.39
-9.24
-11.9
-14.18
-15.92
-17.08
-17.73
-18.18
-18.95
-20.65
-23.76
-28.4
-34.13
-39.95
-44.57
-46.78
-45.95
-42.16
-36.16
-29.04
-21.84
-15.25
-9.51
-4.61
-0.48
2.9
5.48
7.21
8.2
8.69
9
9.43
10.16
11.18
12.35
13.43
14.16
14.34
13.93
13.06
12.04
11.2
10.78
10.82
11.11
11.32
11.1
10.26
8.76
6.74
4.44
2.13
0.06
-1.52
-2.46
-2.76
-2.65
-2.54
-3
-4.53
-7.37
-11.39
-16.05
-20.44
-23.56
-24.62
-23.3
-19.91
-15.28
-10.43
-6.19
-2.91
-0.36
2.04
4.86
8.35
12.28
16.04
18.93
20.42
20.29
18.69
15.97
12.65
9.26
6.38
4.51
3.97
4.84
6.83
9.41
11.96
13.94
15.05
15.27
14.71
13.56
11.94
9.91
7.53
4.88
2.03
-0.89
-3.77
-6.53
-9.1
-11.42
-13.52
-15.45
-17.33
-19.3
-21.4
-23.48
-25.18
-26.04
-25.66
-23.8
-20.54
-16.13
-10.94
-5.28
0.64
6.7
12.82
18.87
24.66
30
34.7
38.64
41.81
44.24
46.06
47.44
48.55
49.49
50.2
50.56
50.39
49.63
48.35
46.75
45
43.19
41.17
38.64
35.14
30.3
23.94
16.22
7.74
-0.57
-7.77
-13.33
-17.33
-20.63
-24.39
-29.61
-36.49
-44.26
-51.45
-56.46
-58.25
-56.69
-52.51
-46.88
-40.9
-35.33
-30.43
-26.24
-22.67
-19.7
-17.32
-15.48
-14.05
-12.84
-11.68
-10.45
-9.14
-7.8
-6.5
-5.32
-4.41
-3.9
-3.83
-4.09
-4.36
-4.35
-3.91
-3.22
-2.78
-3.23
-5.01
-8.18
-12.33
-16.76
-20.75
-23.82
-25.81
-26.93
-27.63
-28.4
-29.58
-31.23
-33.08
-34.53
-34.87
-33.54
-30.33
-25.42
-19.34
-12.7
-6.06
0.23
5.98
11.09
15.53
19.32
22.51
25.26
27.69
29.93
32.07
34.2
36.42
38.86
41.52
44.25
46.67
48.26
48.51
47.07
43.95
39.42
34
28.22
22.49
17.02
11.85
6.93
2.2
-2.36
-6.79
-11.11
-15.44
-19.81
-24.11
-28.03
-31.07
-32.77
-32.89
-31.55
-29.2
-26.42
-23.69
-21.26
-19.07
-16.92
-14.64
-12.17
-9.67
-7.39
-5.61
-4.5
-4.07
-4.14
-4.44
-4.78
-5.08
-5.45
-6.08
-7.11
-8.5
-10.07
-11.58
-12.85
-13.94
-15.06
-16.37
-17.93
-19.5
-20.78
-21.53
-21.82
-21.99
-22.55
-23.82
-25.72
-27.72
-29.11
-29.19
-27.74
-24.99
-21.59
-18.26
-15.48
-13.32
-11.45
-9.4
-6.77
-3.41
0.59
4.91
9.27
13.45
17.4
21.16
24.81
28.33
31.56
34.23
36.06
36.86
36.55
35.1
32.46
28.57
23.41
17.2
10.52
4.19
-1.03
-4.7
-7.04
-8.78
-10.87
-13.97
-18.19
-22.95
-27.26
-30.1
-30.77
-29.12
-25.55
-20.85
-15.89
-11.33
-7.48
-4.26
-1.33
1.71
5.09
8.81
12.61
16.12
18.98
20.99
22.15
22.65
22.8
23.01
23.63
24.95
27.03
29.66
32.37
34.5
35.43
34.77
32.54
29.1
25.05
20.99
17.27
13.95
10.84
7.68
4.29
0.73
-2.73
-5.69
-7.79
-8.8
-8.7
-7.59
-5.68
-3.26
-0.63
1.8
3.64
4.57
4.44
3.4
1.82
0.24
-0.88
-1.32
-1.14
-0.67
-0.34
-0.54
-1.49
-3.14
-5.26
-7.5
-9.57
-11.32
-12.83
-14.32
-16.09
-18.39
-21.33
-24.76
-28.27
-31.2
-32.87
-32.73
-30.61
-26.8
-21.92
-16.73
-11.81
-7.42
-3.51
0.09
3.47
6.59
9.31
11.55
13.41
15.12
16.92
18.88
20.85
22.52
23.59
23.91
23.55
22.71
21.61
20.4
19.13
17.75
16.19
14.31
11.92
8.78
4.69
-0.29
-5.78
-11.01
-15.07
-17.23
-17.19
-15.25
-12.15
-8.77
-5.8
-3.5
-1.79
-0.36
1.06
2.58
4.16
5.75
7.35
9.02
10.84
12.76
14.58
15.99
16.66
16.4
15.17
13.13
10.5
7.51
4.32
1.01
-2.45
-6.05
-9.81
-13.65
-17.45
-21.08
-24.37
-27.13
-29.1
-30.01
-29.59
-27.72
-24.49
-20.24
-15.44
-10.61
-6.13
-2.14
1.37
4.54
7.51
10.3
12.87
15.1
16.92
18.34
19.48
20.61
22
23.81
25.91
27.87
29.08
28.96
27.27
24.16
20.15
15.83
11.66
7.76
4.02
0.26
-3.55
-7.29
-10.72
-13.68
-16.16
-18.3
-20.32
-22.4
-24.76
-27.61
-31.14
-35.47
-40.41
-45.35
-49.33
-51.27
-50.4
-46.56
-40.28
-32.65
-24.82
-17.6
-11.19
-5.26
0.78
7.38
14.51
21.68
28.18
33.38
37.06
39.4
40.81
41.63
41.96
41.64
40.48
38.43
35.77
32.98
30.5
28.53
26.92
25.24
23.05
20.07
16.38
12.31
8.38
5.04
2.56
0.94
-0.06
-0.83
-1.82
-3.45
-6.06
-9.79
-14.59
-20.09
-25.7
-30.65
-34.18
-35.76
-35.16
-32.51
-28.21
-22.79
-16.79
-10.65
-4.67
0.94
6.12
10.76
14.79
18.04
20.41
21.88
22.57
22.72
22.58
22.26
21.7
20.72
19.19
17.18
14.97
13.02
11.75
11.35
11.63
12.1
12.14
11.2
9.06
5.88
2.12
-1.66
-5.01
-7.71
-9.85
-11.67
-13.51
-15.65
-18.29
-21.5
-25.21
-29.17
-32.95
-35.91
-37.4
-36.87
-34.16
-29.52
-23.66
-17.45
-11.69
-6.82
-2.79
0.8
4.43
8.39
12.57
16.53
19.68
21.62
22.31
22.06
21.42
20.9
20.78
21.07
21.6
22.14
22.54
22.74
22.7
22.38
21.68
20.46
18.68
16.38
13.73
10.91
8.1
5.38
2.76
0.25
-2.1
-4.24
-6.17
-7.95
-9.73
-11.74
-14.13
-16.91
-19.92
-22.76
-24.89
-25.78
-25.04
-22.55
-18.55
-13.5
-8.02
-2.62
2.36
6.79
10.67
14
16.74
18.8
20.11
20.68
20.67
20.27
19.76
19.34
19.1
18.99
18.85
18.53
17.99
17.3
16.62
16.09
15.7
15.27
14.44
12.92
10.58
7.53
4.15
0.81
-2.19
-4.81
-7.21
-9.7
-12.56
-15.93
-19.8
-23.89
-27.76
-30.85
-32.56
-32.51
-30.62
-27.13
-22.63
-17.79
-13.16
-9.01
-5.32
-1.92
1.28
4.2
6.54
8
8.49
8.2
7.59
7.14
7.17
7.69
8.41
9
9.24
9.14
8.87
8.62
8.4
8.06
7.33
5.99
4.03
1.64
-0.85
-3.14
-5.1
-6.77
-8.35
-10.03
-11.94
-14.11
-16.51
-19.05
-21.63
-24.06
-26.02
-27.07
-26.81
-25.05
-21.89
-17.84
-13.51
-9.51
-6.1
-3.2
-0.41
2.66
6.21
10.09
13.85
16.94
18.98
19.91
19.96
19.55
19.06
18.74
18.64
18.65
18.61
18.4
17.94
17.2
16.19
14.92
13.39
11.58
9.5
7.17
4.7
2.21
-0.18
-2.47
-4.76
-7.31
-10.32
-13.79
-17.39
-20.47
-22.3
-22.35
-20.57
-17.33
-13.34
-9.31
-5.68
-2.59
0.16
2.8
5.45
8.03
10.32
12.04
13.06
13.43
13.34
13.05
12.72
12.41
12.02
11.47
10.75
9.92
9.09
8.29
7.45
6.42
5.05
3.31
1.26
-0.92
-3.09
-5.13
-7.01
-8.76
-10.46
-12.2
-14.09
-16.18
-18.46
-20.74
-22.68
-23.82
-23.72
-22.16
-19.27
-15.51
-11.55
-7.98
-5.14
-2.99
-1.23
0.47
2.3
4.22
6.05
7.56
8.66
9.36
9.76
9.96
9.97
9.82
9.51
9.08
8.56
8.02
7.42
6.71
5.82
4.66
3.2
1.43
-0.57
-2.67
-4.72
-6.62
-8.36
-10.04
-11.83
-13.75
-15.62
-16.98
-17.28
-16.06
-13.25
-9.22
-4.67
-0.37
3.14
5.68
7.49
8.91
10.29
11.76
13.3
14.81
16.22
17.64
19.26
21.24
23.55
25.93
27.89
28.86
28.48
26.68
23.81
20.43
17.09
14.13
11.59
9.35
7.27
5.35
3.66
2.3
1.21
0.15
-1.15
-2.83
-4.71
-6.37
-7.27
-7.06
-5.74
-3.63
-1.27
0.83
2.34
3.13
3.28
3
2.59
2.35
2.58
3.45
4.94
6.78
8.63
10.13
11.1
11.56
11.7
11.76
11.92
12.28
12.82
13.47
14.01
14.12
13.45
11.78
9.15
5.95
2.79
0.25
-1.4
-2.35
-3.2
-4.72
-7.57
-11.95
-17.52
-23.43
-28.57
-31.82
-32.47
-30.43
-26.41
-21.69
-17.69
-15.5
-15.35
-16.64
-18.14
-18.64
-17.38
-14.25
-9.75
-4.52
0.86
6.08
11
15.52
19.46
22.62
24.83
25.99
26.14
25.37
23.84
21.68
19.01
15.83
12.1
7.75
2.75
-2.84
-8.88
-15.16
-21.52
-27.76
-33.69
-39.16
-44.11
-48.56
-52.54
-55.91
-58.09
-58.1
-54.83
-47.67
-36.95
-24.03
-10.91
0.6
9.63
16.47
22.26
28.27
35.17
42.81
50.43
57.03
61.76
63.94
62.97
58.37
50.05
38.66
25.75
13.45
3.76
-2.24
-4.77
-5.12
-5.14
-6.48
-10.16
-16.4
-24.69
-33.84
-42.26
-48.3
-50.8
-49.7
-46.17
-42.36
-40.6
-42.47
-48.27
-56.92
-66.33
-73.81
-76.66
-72.73
-60.98
-41.97
-17.95
7.57
30.69
48.34
59.07
63.24
62.46
58.69
53.43
47.38
40.72
33.57
26.43
20.21
15.9
14.07
14.62
16.77
19.49
21.87
23.58
24.75
25.72
26.65
27.31
27.15
25.58
22.36
17.69
12.15
6.41
0.96
-4.02
-8.6
-12.92
-17.06
-20.92
-24.35
-27.22
-29.5
-31.27
-32.65
-33.69
-34.33
-34.49
-34.12
-33.29
-32.15
-30.78
-29.13
-26.85
-23.57
-19.07
-13.56
-7.73
-2.56
1.09
2.87
3.13
2.79
2.83
3.85
5.78
7.98
9.67
10.33
10
9.09
8.11
7.23
6.29
4.83
2.5
-0.74
-4.48
-8.08
-10.97
-12.88
-13.98
-14.67
-15.44
-16.65
-18.46
-20.79
-23.43
-26.07
-28.28
-29.61
-29.63
-28.06
-24.96
-20.66
-15.77
-10.99
-6.8
-3.44
-0.8
1.41
3.51
5.69
7.94
10
11.59
12.46
12.51
11.82
10.57
9
7.3
5.69
4.39
3.57
3.29
3.46
3.78
3.87
3.41
2.27
0.55
-1.46
-3.46
-5.24
-6.79
-8.24
-9.87
-11.91
-14.49
-17.48
-20.51
-23.07
-24.66
-24.97
-23.97
-21.9
-19.12
-16.06
-13.03
-10.23
-7.75
-5.55
-3.56
-1.7
0.07
1.68
2.99
3.87
4.32
4.42
4.39
4.4
4.52
4.73
4.9
4.98
4.94
4.83
4.68
4.5
4.22
3.78
3.04
1.95
0.47
-1.38
-3.52
-5.9
-8.47
-11.31
-14.5
-18.07
-21.85
-25.4
-28.06
-29.14
-28.21
-25.27
-20.76
-15.44
-10.13
-5.41
-1.49
1.78
4.73
7.67
10.73
13.84
16.75
19.23
21.11
22.36
23.05
23.27
23.05
22.38
21.27
19.86
18.37
17.07
16.12
15.5
14.99
14.3
13.14
11.38
9.04
6.26
3.2
0.04
-3.05
-5.92
-8.49
-10.85
-13.25
-16.05
-19.52
-23.59
-27.79
-31.28
-33.16
-32.81
-30.12
-25.53
-19.9
-14.09
-8.8
-4.33
-0.56
2.8
6.13
9.7
13.63
17.89
22.35
26.72
30.65
33.68
35.39
35.56
34.23
31.76
28.69
25.6
22.86
20.63
18.83
17.25
15.75
14.27
12.91
11.75
10.85
10.08
9.19
7.89
5.91
3.15
-0.27
-4.04
-7.65
-10.5
-12
-11.68
-9.37
-5.25
0.09
5.81
11.04
15.12
17.89
19.66
21.06
22.81
25.32
28.57
32.13
35.34
37.67
38.91
39.2
38.91
38.36
37.73
37.03
36.21
35.3
34.38
33.51
32.6
31.37
29.43
26.54
22.64
17.93
12.76
7.48
2.3
-2.75
-7.74
-12.77
-17.88
-22.97
-27.77
-31.84
-34.68
-35.81
-35.06
-32.64
-29.16
-25.42
-22.13
-19.67
-17.92
-16.5
-14.97
-13.16
-11.23
-9.56
-8.45
-7.9
-7.56
-7
-5.92
-4.43
-2.98
-2.18
-2.47
-3.86
-5.99
-8.25
-10.08
-11.19
-11.61
-11.63
-11.61
-11.84
-12.53
-13.75
-15.56
-18
-21.12
-24.8
-28.72
-32.3
-34.86
-35.74
-34.6
-31.52
-27.02
-21.86
-16.75
-12.11
-7.95
-3.96
0.19
4.66
9.26
13.55
17.05
19.49
20.91
21.62
21.98
22.25
22.48
22.58
22.43
22.02
21.42
20.74
20.01
19.16
17.99
16.36
14.28
11.9
9.52
7.39
5.63
4.09
2.43
0.2
-2.92
-6.98
-11.57
-15.95
-19.22
-20.67
-20.06
-17.69
-14.31
-10.75
-7.67
-5.28
-3.44
-1.83
-0.11
1.88
4.09
6.34
8.34
9.8
10.53
10.48
9.79
8.79
7.87
7.33
7.31
7.68
8.2
8.57
8.61
8.26
7.59
6.73
5.79
4.8
3.76
2.64
1.4
0.05
-1.38
-2.88
-4.53
-6.44
-8.69
-11.2
-13.63
-15.49
-16.24
-15.57
-13.53
-10.57
-7.23
-3.99
-1.09
1.52
3.93
6.21
8.29
10.03
11.29
12
12.16
11.81
11.01
9.88
8.62
7.47
6.62
6.13
5.92
5.77
5.43
4.72
3.55
1.93
-0.11
-2.43
-4.86
-7.09
-8.85
-9.92
-10.25
-10.06
-9.73
-9.76
-10.56
-12.33
-14.99
-18.12
-21.12
-23.27
-24.02
-23.11
-20.65
-17.07
-12.94
-8.78
-4.91
-1.46
1.63
4.45
7.11
9.67
12.15
14.54
16.75
18.67
20.09
20.89
21.01
20.55
19.73
18.83
18.05
17.49
17.04
16.55
15.83
14.76
13.31
11.54
9.51
7.31
5.06
2.88
0.91
-0.74
-2.01
-2.98
-3.81
-4.72
-5.88
-7.39
-9.24
-11.3
-13.36
-15.08
-16.12
-16.16
-15.06
-12.94
-10.11
-6.99
-3.9
-0.97
1.83
4.61
7.4
10.05
12.39
14.26
15.66
16.71
17.56
18.29
18.87
19.24
19.43
19.56
19.87
20.55
21.67
23.02
24.3
25.11
25.17
24.34
22.68
20.42
17.86
15.38
13.29
11.69
10.46
9.18
7.31
4.34
0.03
-5.46
-11.56
-17.44
-22.22
-25.16
-25.88
-24.45
-21.3
-17.14
-12.78
-8.84
-5.69
-3.41
-1.85
-0.83
-0.21
0.06
0.06
-0.15
-0.35
-0.35
0.06
0.95
2.23
3.7
5.12
6.17
6.6
6.23
4.97
2.87
0.16
-2.83
-5.74
-8.19
-9.92
-10.82
-10.95
-10.53
-9.99
-9.82
-10.58
-12.69
-16.29
-21.07
-26.31
-31
-34.13
-35.03
-33.54
-30.06
-25.38
-20.39
-15.83
-12.14
-9.4
-7.47
-5.99
-4.6
-2.95
-0.81
1.87
4.95
8.16
11.15
13.6
15.31
16.18
16.27
15.72
14.8
13.77
12.86
12.2
11.77
11.48
11.2
10.88
10.59
10.43
10.46
10.61
10.66
10.35
9.44
7.89
5.87
3.72
1.87
0.72
0.56
1.49
3.36
5.88
8.64
11.35
13.85
16.19
18.48
20.75
22.91
24.7
25.93
26.59
26.9
27.2
27.85
28.96
30.44
31.99
33.27
34.01
34.03
33.29
31.85
29.9
27.73
25.73
24.21
23.31
22.84
22.4
21.49
19.75
17.16
14.1
11.19
9.06
8.09
8.27
9.25
10.52
11.68
12.63
13.56
14.92
17.1
20.3
24.41
29.01
33.47
37.14
39.48
40.26
39.55
37.72
35.37
33.12
31.44
30.41
29.68
28.5
25.89
21.04
13.57
3.73
-7.68
-19.5
-30.62
-40.23
-47.99
-53.95
-58.44
-61.88
-64.71
-67.3
-69.98
-72.96
-76.24
-79.59
-82.53
-84.42
-84.7
-83.12
-79.83
-75.44
-70.72
-66.33
-62.51
-59
-55.21
-50.55
-44.74
-38.04
-31.11
-24.71
-19.4
-15.23
-11.83
-8.55
-4.77
-0.11
5.44
11.62
18.06
24.34
30.17
35.3
39.52
42.65
44.59
45.34
45.16
44.47
43.77
43.49
43.77
44.41
44.97
44.98
44.21
42.76
41.07
39.6
38.63
38.02
37.41
36.4
34.81
32.76
30.52
28.23
25.84
23.06
19.73
15.92
12
8.31
4.84
1.06
-3.8
-10.35
-18.5
-27.33
-35.34
-41.08
-43.68
-43.18
-40.34
-36.24
-31.88
-28.01
-25.15
-23.69
-23.87
-25.69
-28.78
-32.39
-35.72
-38.19
-39.73
-40.72
-41.61
-42.68
-43.78
-44.56
-44.8
-44.64
-44.55
-45.02
-46.05
-47.05
-47.01
-45.01
-40.7
-34.46
-27.19
-19.73
-12.62
-5.92
0.37
6.01
10.37
12.65
12.41
9.93
6.32
3.14
1.78
2.95
6.5
11.51
16.78
21.18
24.05
25.33
25.42
25.01
24.71
24.85
25.33
25.74
25.67
24.9
23.5
21.77
19.98
18.2
16.29
14.01
11.21
7.88
4.16
0.26
-3.61
-7.26
-10.51
-13.19
-15.3
-17.02
-18.74
-20.88
-23.67
-26.96
-30.23
-32.77
-33.92
-33.42
-31.5
-28.72
-25.81
-23.29
-21.31
-19.68
-17.96
-15.74
-12.81
-9.2
-5.13
-0.89
3.26
7.08
10.36
12.9
14.5
15.11
14.88
14.23
13.7
13.74
14.54
15.86
17.21
17.97
17.76
16.58
14.75
12.78
11.06
9.75
8.7
7.64
6.35
4.83
3.23
1.85
0.87
0.35
0.07
-0.34
-1.35
-3.33
-6.42
-10.45
-14.94
-19.24
-22.67
-24.71
-25.07
-23.72
-20.91
-17.08
-12.82
-8.77
-5.38
-2.85
-1.01
0.55
2.26
4.33
6.66
8.91
10.71
11.88
12.53
12.94
13.37
13.9
14.45
14.88
15.09
15.16
15.27
15.6
16.13
16.67
16.84
16.33
15.01
13
10.59
8.17
6.01
4.2
2.62
1.02
-0.82
-3.01
-5.47
-8.02
-10.44
-12.61
-14.53
-16.25
-17.73
-18.77
-19.04
-18.19
-16.09
-12.89
-9.1
-5.34
-2.14
0.24
1.9
3.14
4.28
5.53
6.83
8
8.87
9.37
9.56
9.52
9.26
8.65
7.5
5.72
3.46
1.15
-0.63
-1.45
-1.15
0.02
1.54
2.84
3.52
3.5
2.96
2.18
1.36
0.55
-0.34
-1.42
-2.74
-4.19
-5.62
-6.93
-8.11
-9.32
-10.76
-12.56
-14.74
-17.11
-19.34
-21.04
-21.85
-21.53
-20.02
-17.41
-14.02
-10.21
-6.39
-2.87
0.18
2.77
4.97
6.93
8.7
10.25
11.47
12.24
12.52
12.43
12.16
11.93
11.9
12.07
12.36
12.64
12.82
12.85
12.69
12.29
11.54
10.35
8.73
6.84
5
3.53
2.7
2.51
2.76
3.1
3.2
2.81
1.84
0.32
-1.71
-4.24
-7.19
-10.4
-13.53
-16.07
-17.5
-17.51
-16.08
-13.58
-10.61
-7.77
-5.5
-3.9
-2.78
-1.8
-0.62
0.94
2.91
5.13
7.38
9.42
11.05
12.12
12.57
12.42
11.8
10.95
10.13
9.62
9.56
9.88
10.33
10.55
10.26
9.31
7.72
5.66
3.38
1.12
-0.92
-2.63
-3.96
-5
-5.91
-6.93
-8.26
-10.02
-12.2
-14.63
-16.98
-18.83
-19.74
-19.36
-17.54
-14.47
-10.54
-6.36
-2.48
0.76
3.33
5.46
7.52
9.76
12.22
14.67
16.73
18.09
18.66
18.66
18.44
18.38
18.65
19.19
19.72
19.98
19.82
19.25
18.43
17.51
16.62
15.81
15.09
14.42
13.75
13.04
12.27
11.5
10.85
10.45
10.34
10.4
10.36
9.93
8.93
7.45
5.89
4.79
4.67
5.75
7.89
10.69
13.65
16.34
18.54
20.13
21.05
21.19
20.37
18.46
15.43
11.41
6.65
1.46
-3.88
-9.08
-13.85
-17.85
-20.83
-22.72
-23.68
-24.09
-24.36
-24.8
-25.54
-26.51
-27.59
-28.71
-29.93
-31.38
-33.14
-35.13
-37.11
-38.74
-39.74
-39.99
-39.63
-38.95
-38.28
-37.68
-36.94
-35.62
-33.25
-29.6
-24.85
-19.56
-14.43
-10.06
-6.74
-4.41
-2.77
-1.46
-0.27
0.81
1.67
2.22
2.47
2.62
2.9
3.47
4.29
5.14
5.78
6.05
6.02
5.94
6.06
6.47
7.01
7.35
7.13
6.18
4.51
2.37
0.1
-1.96
-3.58
-4.68
-5.38
-5.96
-6.79
-8.2
-10.35
-13.18
-16.35
-19.34
-21.6
-22.71
-22.49
-21.04
-18.65
-15.72
-12.64
-9.62
-6.72
-3.82
-0.72
2.71
6.47
10.44
14.39
18.08
21.36
24.24
26.83
29.22
31.49
33.57
35.27
36.4
36.82
36.52
35.57
34.12
32.2
29.79
26.78
23.1
18.78
14.05
9.31
5.03
1.64
-0.64
-1.79
-2.03
-1.78
-1.55
-1.81
-2.93
-5.04
-8.01
-11.36
-14.41
-16.39
-16.66
-14.97
-11.5
-6.82
-1.73
3
6.82
9.47
11.03
11.76
12
12.04
12.05
11.99
11.77
11.24
10.34
9.06
7.55
5.99
4.56
3.46
2.81
2.72
3.15
3.94
4.8
5.43
5.61
5.24
4.44
3.36
2.17
0.97
-0.21
-1.37
-2.48
-3.51
-4.5
-5.57
-6.91
-8.71
-10.99
-13.55
-16.02
-17.94
-18.93
-18.8
-17.51
-15.17
-11.92
-7.9
-3.32
1.48
6.04
9.89
12.71
14.47
15.45
16.14
16.93
17.99
19.11
19.9
19.97
19.13
17.49
15.33
13
10.71
8.54
6.41
4.25
1.96
-0.51
-3.23
-6.25
-9.58
-13.16
-16.78
-20.12
-22.83
-24.6
-25.31
-25.07
-24.18
-23.08
-22.21
-21.87
-22.2
-23
-23.87
-24.18
-23.33
-20.87
-16.73
-11.25
-5.14
0.72
5.58
9.08
11.35
12.9
14.42
16.4
19.01
22.03
25.02
27.43
28.79
28.77
27.24
24.38
20.77
17.28
14.87
13.96
14.18
14.11
11.8
5.64
-4.84
-18.54
-33.08
-45.75
-54.48
-58.51
-58.32
-55.06
-49.94
-43.8
-37.25
-30.96
-25.79
-22.68
-22.05
-23.47
-25.63
-26.91
-26.06
-22.74
-17.53
-11.43
-5.25
0.71
6.53
12.28
17.65
22
24.67
25.46
24.72
23.18
21.59
20.34
19.46
18.86
18.58
18.92
20.24
22.73
26.12
29.71
32.63
34.21
34.27
33.14
31.47
29.86
28.6
27.5
25.99
23.44
19.42
14.02
7.86
1.86
-3.18
-6.85
-9.31
-11.05
-12.56
-14.04
-15.27
-15.84
-15.41
-14.04
-12.15
-10.28
-8.82
-7.79
-6.93
-5.91
-4.59
-3.12
-1.88
-1.22
-1.32
-2.06
-3.11
-4.1
-4.79
-5.18
-5.44
-5.82
-6.5
-7.52
-8.78
-10.08
-11.26
-12.24
-13.01
-13.63
-14.14
-14.59
-15.01
-15.46
-16.08
-17.05
-18.54
-20.62
-23.19
-25.93
-28.37
-29.96
-30.26
-29.06
-26.45
-22.82
-18.74
-14.77
-11.3
-8.43
-5.98
-3.66
-1.18
1.53
4.3
6.77
8.59
9.57
9.77
9.45
8.97
8.61
8.49
8.56
8.69
8.74
8.62
8.27
7.62
6.61
5.2
3.4
1.34
-0.77
-2.75
-4.5
-6.09
-7.74
-9.65
-11.91
-14.34
-16.51
-17.87
-17.94
-16.52
-13.83
-10.38
-6.87
-3.87
-1.6
0.05
1.42
2.9
4.69
6.77
8.88
10.76
12.17
13.06
13.51
13.63
13.54
13.33
13.03
12.69
12.36
12.09
11.9
11.74
11.48
10.95
10.04
8.76
7.3
5.96
5.02
4.58
4.44
4.18
3.31
1.58
-0.92
-3.69
-5.99
-7.17
-6.79
-4.83
-1.66
2.08
5.66
8.46
10.18
10.9
11.01
11.11
11.7
13.02
15
17.27
19.42
21.13
22.29
22.93
23.17
23.11
22.84
22.44
21.98
21.51
21.03
20.49
19.83
18.94
17.71
16.04
13.85
11.11
7.84
4.15
0.2
-3.85
-7.89
-11.82
-15.5
-18.71
-21.17
-22.63
-23.07
-22.79
-22.26
-21.97
-22.13
-22.64
-23.12
-23.15
-22.57
-21.49
-20.24
-19.21
-18.54
-18.13
-17.66
-16.82
-15.47
-13.72
-11.84
-10.2
-9.03
-8.44
-8.32
-8.42
-8.47
-8.21
-7.53
-6.51
-5.38
-4.48
-4.07
-4.31
-5.13
-6.33
-7.67
-9
-10.24
-11.35
-12.23
-12.66
-12.39
-11.25
-9.26
-6.67
-3.83
-1.12
1.28
3.34
5.17
6.9
8.55
9.98
11.01
11.45
11.25
10.56
9.7
9.06
8.94
9.38
10.15
10.8
10.87
10.09
8.45
6.21
3.73
1.3
-0.92
-2.97
-4.94
-6.88
-8.83
-10.77
-12.72
-14.74
-16.88
-19.01
-20.85
-21.94
-21.86
-20.34
-17.42
-13.42
-8.81
-4.05
0.58
5
9.28
13.45
17.43
20.9
23.46
24.79
24.75
23.51
21.43
18.94
16.43
14.1
12.09
10.46
9.24
8.42
7.93
7.58
7.14
6.38
5.15
3.41
1.2
-1.36
-4.15
-7.06
-9.99
-12.82
-15.42
-17.57
-18.99
-19.4
-18.59
-16.54
-13.51
-9.96
-6.41
-3.21
-0.44
2.1
4.69
7.52
10.51
13.37
15.71
17.27
18.02
18.16
18.02
17.89
17.91
18.03
18.09
17.93
17.47
16.75
15.94
15.19
14.62
14.17
13.71
13.03
11.94
10.38
8.36
6.04
3.61
1.37
-0.37
-1.31
-1.27
-0.28
1.41
3.44
5.51
7.46
9.39
11.43
13.65
15.96
18.05
19.61
20.38
20.38
19.79
18.91
18.02
17.34
16.94
16.83
16.98
17.24
17.47
17.45
17.09
16.41
15.59
14.91
14.57
14.63
14.9
15.07
14.85
14.05
12.64
10.73
8.5
6.2
4.16
2.74
2.28
2.96
4.67
7.06
9.59
11.77
13.35
14.38
15.11
15.88
16.92
18.21
19.48
20.35
20.45
19.63
18.03
16
13.98
12.25
10.87
9.72
8.6
7.41
6.17
5.01
3.96
2.88
1.47
-0.55
-3.3
-6.62
-10.1
-13.3
-15.9
-17.87
-19.29
-20.3
-20.91
-21.01
-20.5
-19.36
-17.75
-15.94
-14.13
-12.38
-10.61
-8.6
-6.18
-3.31
-0.17
2.95
5.65
7.57
8.45
8.24
7.08
5.32
3.45
1.94
1.09
0.97
1.34
1.83
2.05
1.78
1.03
-0.05
-1.27
-2.54
-3.85
-5.24
-6.74
-8.24
-9.69
-11.07
-12.54
-14.29
-16.37
-18.53
-20.23
-20.85
-20.01
-17.76
-14.55
-11.04
-7.76
-4.93
-2.42
0.02
2.59
5.21
7.54
9.17
9.82
9.45
8.28
6.7
5.15
3.97
3.39
3.44
4.05
5.05
6.13
6.95
7.18
6.57
5.08
2.9
0.35
-2.18
-4.4
-6.14
-7.44
-8.46
-9.47
-10.73
-12.41
-14.49
-16.7
-18.59
-19.67
-19.61
-18.41
-16.36
-13.95
-11.62
-9.59
-7.86
-6.24
-4.59
-2.88
-1.23
0.23
1.44
2.47
3.43
4.38
5.32
6.14
6.76
7.17
7.46
7.77
8.14
8.59
9.02
9.27
9.18
8.59
7.39
5.55
3.17
0.46
-2.2
-4.42
-5.94
-6.67
-6.78
-6.69
-6.89
-7.8
-9.58
-12.1
-14.95
-17.56
-19.39
-20.05
-19.44
-17.71
-15.24
-12.52
-9.99
-7.88
-6.22
-4.81
-3.38
-1.7
0.3
2.5
4.69
6.69
8.39
9.81
11.03
12.07
12.84
13.23
13.17
12.71
12.09
11.64
11.61
12.02
12.62
13.01
12.84
11.9
10.24
8.09
5.73
3.44
1.32
-0.61
-2.44
-4.31
-6.41
-8.89
-11.86
-15.22
-18.69
-21.76
-23.84
-24.45
-23.37
-20.76
-17.1
-12.99
-9.01
-5.48
-2.51
-0.05
2.01
3.77
5.28
6.65
7.98
9.37
10.85
12.35
13.69
14.69
15.22
15.25
14.81
13.98
12.9
11.7
10.57
9.66
9.01
8.5
7.86
6.75
4.99
2.57
-0.28
-3.24
-6.03
-8.5
-10.67
-12.65
-14.58
-16.54
-18.59
-20.74
-22.98
-25.11
-26.83
-27.69
-27.3
-25.52
-22.51
-18.75
-14.82
-11.22
-8.18
-5.68
-3.49
-1.4
0.72
2.85
4.9
6.83
8.65
10.39
12.1
13.76
15.34
16.77
18.01
19.06
19.96
20.78
21.57
22.33
22.92
23.09
22.6
21.25
19.06
16.24
13.13
10.08
7.32
4.87
2.67
0.55
-1.66
-4.16
-7.18
-10.85
-15.16
-19.78
-24.1
-27.47
-29.48
-30.15
-29.88
-29.3
-28.83
-28.62
-28.46
-27.95
-26.76
-24.81
-22.22
-19.27
-16.3
-13.6
-11.4
-9.84
-8.98
-8.76
-9.03
-9.52
-9.88
-9.74
-8.82
-7.05
-4.67
-2.2
-0.27
0.69
0.62
-0.09
-0.76
-0.77
0.21
2.12
4.62
7.3
9.84
12.03
13.68
14.55
14.36
13.06
10.89
8.48
6.63
5.98
6.69
8.4
10.37
11.93
12.76
13.05
13.31
14.07
15.55
17.52
19.44
20.68
20.91
20.2
18.94
17.77
17.25
17.76
19.43
22.25
26.12
30.78
35.7
39.9
42.08
40.95
35.71
26.56
14.77
2.31
-8.78
-17.08
-22.22
-24.89
-26.49
-28.47
-31.87
-36.92
-43.1
-49.4
-54.76
-58.48
-60.47
-61.25
-61.64
-62.44
-64.06
-66.4
-68.95
-70.98
-71.73
-70.6
-67.24
-61.58
-53.81
-44.38
-33.98
-23.46
-13.75
-5.64
0.44
4.57
7.37
9.71
12.41
15.87
19.94
23.97
27.17
28.95
29.15
28.13
26.57
25.17
24.36
24.1
23.81
22.66
19.91
15.29
9.26
2.92
-2.4
-5.63
-6.39
-4.98
-2.22
1.1
4.51
7.97
11.75
16.11
21.03
26.15
30.79
34.27
36.07
36.08
34.54
31.98
29.06
26.38
24.41
23.45
23.59
24.74
26.56
28.44
29.66
29.56
27.8
24.55
20.39
16.07
12.19
8.97
6.25
3.63
0.62
-3.17
-7.93
-13.63
-19.97
-26.38
-32.13
-36.61
-39.48
-40.85
-41.15
-40.85
-40.17
-39.05
-37.3
-34.88
-32.04
-29.26
-27.01
-25.44
-24.3
-23.12
-21.48
-19.13
-16.16
-12.76
-9.11
-5.29
-1.36
2.59
6.27
9.25
11.1
11.53
10.56
8.53
5.95
3.36
1.15
-0.51
-1.72
-2.72
-3.85
-5.36
-7.4
-9.85
-12.36
-14.37
-15.32
-14.84
-13
-10.24
-7.27
-4.76
-3.08
-2.2
-1.83
-1.58
-1.2
-0.67
-0.17
0.04
-0.23
-1
-2.09
-3.18
-3.9
-3.96
-3.28
-1.97
-0.35
1.22
2.49
3.36
3.94
4.39
4.83
5.25
5.52
5.44
4.84
3.62
1.8
-0.48
-2.95
-5.24
-6.86
-7.33
-6.29
-3.64
0.36
5.13
9.83
13.72
16.3
17.51
17.69
17.29
16.71
16.07
15.24
14
12.26
10.22
8.27
6.87
6.27
6.42
7.01
7.63
8
8.03
7.8
7.47
7.09
6.57
5.72
4.36
2.52
0.38
-1.69
-3.31
-4.22
-4.31
-3.63
-2.24
-0.19
2.55
6.03
10.18
14.83
19.68
24.41
28.89
33.17
37.46
41.93
46.54
50.94
54.66
57.34
58.98
60
61.03
62.64
65.04
68.09
71.42
74.68
77.61
80.02
81.7
82.38
81.9
80.39
78.29
76.01
73.46
69.65
62.88
51.51
35.02
14.66
-6.65
-25.37
-38.7
-45.59
-46.89
-44.49
-40.22
-35.01
-28.89
-21.7
-13.83
-6.44
-0.98
1.77
2.37
2.59
4.51
9.16
15.87
22.41
26.29
26.08
22.25
16.81
12.05
9.3
8.26
7.47
5.37
1.25
-4.54
-11.08
-17.66
-24.22
-31.16
-38.65
-46.24
-52.94
-57.8
-60.5
-61.57
-62.03
-62.65
-63.57
-64.37
-64.56
-64.17
-63.81
-64.31
-66.05
-68.5
-70.37
-70.17
-67
-61.01
-53.32
-45.43
-38.51
-33.04
-28.76
-25.16
-21.9
-19.04
-16.97
-16
-16.1
-16.75
-17.2
-16.78
-15.25
-12.92
-10.48
-8.76
-8.34
-9.38
-11.59
-14.39
-17.12
-19.22
-20.33
-20.33
-19.26
-17.33
-14.78
-11.89
-8.85
-5.75
-2.6
0.58
3.67
6.37
8.31
9.17
8.93
7.94
6.87
6.4
6.97
8.59
10.81
12.95
14.34
14.57
13.5
11.32
8.41
5.19
2.1
-0.46
-2.27
-3.24
-3.57
-3.68
-4.17
-5.49
-7.79
-10.75
-13.68
-15.82
-16.64
-16.09
-14.58
-12.73
-11.1
-9.9
-9.02
-8.09
-6.77
-4.84
-2.37
0.42
3.2
5.67
7.6
8.86
9.48
9.6
9.49
9.42
9.57
9.93
10.23
10.16
9.45
8.04
6.07
3.81
1.45
-1.02
-3.72
-6.78
-10.2
-13.81
-17.38
-20.66
-23.5
-25.72
-27.1
-27.36
-26.28
-23.89
-20.46
-16.53
-12.61
-8.94
-5.48
-1.9
2.09
6.58
11.27
15.62
19
21.04
21.73
21.45
20.77
20.25
20.23
20.8
21.83
23.09
24.35
25.37
25.9
25.69
24.58
22.5
19.62
16.29
13.03
10.29
8.37
7.3
6.79
6.31
5.29
3.31
0.3
-3.38
-7.03
-9.83
-11.16
-10.82
-9.08
-6.59
-4.1
-2.2
-1.15
-0.77
-0.59
-0.07
1.24
3.39
6.08
8.82
11.1
12.6
13.23
13.03
12.1
10.43
8.02
4.97
1.57
-1.63
-4.01
-5.07
-4.59
-2.79
-0.23
2.39
4.33
5.13
4.74
3.52
2.11
1.19
1.12
1.77
2.64
3.01
2.34
0.47
-2.29
-5.34
-8.06
-9.96
-10.82
-10.7
-9.83
-8.54
-7.19
-6.04
-5.19
-4.45
-3.39
-1.52
1.49
5.58
10.26
14.77
18.31
20.32
20.64
19.44
17.17
14.43
11.8
9.81
8.78
8.71
9.25
9.8
9.76
8.82
7.04
4.83
2.58
0.47
-1.68
-4.19
-7.31
-10.98
-14.9
-18.7
-22.22
-25.53
-28.86
-32.21
-35.26
-37.32
-37.7
-36.15
-33.01
-29.2
-25.71
-23.2
-21.68
-20.61
-19.26
-17.08
-14.06
-10.61
-7.38
-4.87
-3.32
-2.58
-2.33
-2.17
-1.79
-0.99
0.23
1.72
3.18
4.3
4.86
4.75
4.1
3.16
2.19
1.45
1.02
0.98
1.28
1.85
2.51
3.02
3.13
2.69
1.76
0.61
-0.41
-1.05
-1.32
-1.49
-1.89
-2.68
-3.73
-4.6
-4.88
-4.35
-3.13
-1.54
0.12
1.78
3.59
5.77
8.4
11.28
13.97
15.97
16.93
16.77
15.71
14.13
12.47
11.11
10.25
9.95
10.12
10.57
11.04
11.24
10.95
10.05
8.57
6.72
4.82
3.25
2.22
1.76
1.65
1.54
1.08
0.07
-1.54
-3.64
-6.09
-8.69
-11.2
-13.24
-14.33
-14.09
-12.34
-9.34
-5.73
-2.33
0.18
1.55
2.05
2.31
3
4.59
7.16
10.4
13.82
16.92
19.3
20.81
21.49
21.61
21.56
21.78
22.58
24.04
25.9
27.61
28.51
28.01
25.8
21.92
16.75
10.93
5.12
-0.13
-4.56
-8.18
-11.25
-14.08
-16.97
-20
-23.07
-25.89
-28.11
-29.39
-29.53
-28.44
-26.19
-23
-19.18
-15.17
-11.37
-8.08
-5.44
-3.39
-1.77
-0.4
0.82
1.88
2.73
3.29
3.53
3.51
3.32
3.14
3.17
3.6
4.52
5.84
7.28
8.41
8.86
8.42
7.16
5.31
3.19
1.03
-1.01
-2.88
-4.57
-6.08
-7.48
-8.88
-10.42
-12.14
-13.84
-15.11
-15.45
-14.5
-12.26
-9.12
-5.68
-2.53
0.07
2.18
4.07
5.93
7.72
9.15
9.86
9.71
8.87
7.86
7.18
7.2
7.9
8.98
10.05
10.75
11
10.83
10.41
9.86
9.19
8.32
7.16
5.66
3.86
1.89
-0.13
-2.04
-3.77
-5.21
-6.23
-6.63
-6.2
-4.86
-2.66
0.11
3.03
5.69
7.85
9.46
10.67
11.7
12.74
13.82
14.77
15.36
15.4
14.84
13.89
12.9
12.26
12.18
12.55
12.94
12.8
11.67
9.4
6.27
2.84
-0.27
-2.64
-4.14
-4.95
-5.42
-5.89
-6.66
-7.9
-9.64
-11.86
-14.38
-16.89
-18.95
-20.11
-20.03
-18.66
-16.23
-13.24
-10.19
-7.37
-4.88
-2.58
-0.37
1.75
3.6
4.99
5.86
6.29
6.53
6.75
6.99
7.11
6.96
6.5
5.88
5.35
5.12
5.25
5.56
5.77
5.63
4.98
3.78
2.07
-0.12
-2.74
-5.65
-8.62
-11.28
-13.23
-14.16
-13.93
-12.61
-10.45
-7.72
-4.73
-1.75
1.06
3.55
5.69
7.5
9.04
10.33
11.36
12.04
12.3
12.17
11.82
11.55
11.62
12.17
13.07
14.08
14.83
15.08
14.72
13.81
12.49
10.92
9.19
7.3
5.25
3.05
0.73
-1.68
-4.16
-6.73
-9.41
-12.1
-14.58
-16.53
-17.6
-17.63
-16.63
-14.83
-12.53
-9.91
-6.98
-3.62
0.27
4.63
9.15
13.43
17.1
19.94
21.9
23.01
23.35
23
22.08
20.77
19.29
17.83
16.41
14.92
13.15
10.93
8.22
5.16
1.96
-1.15
-4.02
-6.57
-8.79
-10.71
-12.43
-14.1
-15.92
-18.08
-20.68
-23.59
-26.52
-28.96
-30.38
-30.37
-28.73
-25.64
-21.54
-17.02
-12.63
-8.69
-5.18
-1.88
1.56
5.26
9.07
12.63
15.52
17.47
18.53
18.99
19.18
19.3
19.39
19.35
19.16
18.9
18.74
18.84
19.19
19.56
19.67
19.24
18.16
16.56
14.6
12.44
10.17
7.8
5.34
2.87
0.53
-1.5
-3.14
-4.48
-5.79
-7.38
-9.55
-12.44
-15.91
-19.65
-23.24
-26.25
-28.35
-29.37
-29.19
-27.85
-25.45
-22.21
-18.48
-14.61
-10.91
-7.5
-4.31
-1.16
2.04
5.19
8
10.11
11.26
11.46
10.99
10.29
9.73
9.5
9.56
9.73
9.84
9.83
9.73
9.59
9.47
9.31
9.01
8.5
7.78
6.92
6.06
5.28
4.58
3.86
2.99
1.85
0.43
-1.28
-3.25
-5.52
-8.12
-11.06
-14.19
-17.17
-19.54
-20.91
-21.11
-20.3
-18.89
-17.39
-16.15
-15.19
-14.27
-12.94
-10.8
-7.75
-3.96
0.09
3.79
6.67
8.51
9.4
9.71
9.92
10.35
11.09
11.98
12.71
13
12.77
12.07
11.04
9.75
8.12
6.02
3.36
0.23
-3.06
-6.09
-8.52
-10.21
-11.31
-12.21
-13.35
-15.09
-17.6
-20.81
-24.46
-28.06
-31.01
-32.67
-32.55
-30.46
-26.67
-21.86
-16.94
-12.75
-9.68
-7.59
-5.89
-3.84
-0.9
2.94
7.19
11.07
13.78
14.93
14.62
13.39
11.95
10.87
10.43
10.56
11
11.48
11.9
12.29
12.73
13.18
13.41
13.09
11.92
9.85
7.11
4.18
1.61
-0.24
-1.29
-1.74
-1.97
-2.38
-3.21
-4.55
-6.34
-8.47
-10.85
-13.28
-15.48
-17.02
-17.48
-16.59
-14.4
-11.31
-7.94
-4.91
-2.57
-0.9
0.48
2.02
4.07
6.68
9.62
12.47
14.85
16.54
17.52
17.93
17.96
17.78
17.47
17.13
16.84
16.7
16.82
17.17
17.56
17.69
17.19
15.87
13.73
11.07
8.32
5.89
4.01
2.68
1.7
0.8
-0.29
-1.73
-3.61
-5.92
-8.56
-11.3
-13.73
-15.35
-15.7
-14.5
-11.77
-7.85
-3.24
1.46
5.81
9.58
12.79
15.61
18.26
20.75
22.97
24.64
25.5
25.45
24.62
23.29
21.75
20.13
18.38
16.34
13.93
11.21
8.41
5.74
3.25
0.78
-2.02
-5.43
-9.47
-13.82
-17.88
-21.03
-22.92
-23.62
-23.58
-23.41
-23.63
-24.45
-25.79
-27.42
-29.09
-30.61
-31.82
-32.51
-32.45
-31.43
-29.39
-26.44
-22.89
-19.09
-15.38
-11.99
-9.05
-6.57
-4.48
-2.69
-1.09
0.33
1.53
2.36
2.7
2.58
2.17
1.78
1.76
2.31
3.42
4.9
6.4
7.58
8.19
8.15
7.52
6.5
5.34
4.24
3.26
2.31
1.1
-0.68
-3.32
-6.89
-11.13
-15.49
-19.16
-21.41
-21.73
-20.03
-16.72
-12.53
-8.29
-4.66
-1.97
-0.17
0.97
1.69
2.05
1.92
1.08
-0.51
-2.7
-5.05
-7.04
-8.27
-8.61
-8.17
-7.19
-5.87
-4.3
-2.47
-0.36
1.89
4.03
5.71
6.63
6.69
5.98
4.78
3.38
1.91
0.29
-1.7
-4.34
-7.63
-11.21
-14.38
-16.27
-16.23
-14.08
-10.14
-5.18
-0.04
4.64
8.59
11.81
14.52
16.89
19.02
20.99
22.83
24.58
26.29
27.89
29.27
30.24
30.63
30.37
29.5
28.11
26.36
24.39
22.3
20.14
17.94
15.64
13.05
9.92
5.97
1.04
-4.85
-11.39
-18.07
-24.36
-29.81
-34.25
-37.71
-40.29
-42.03
-42.75
-42.15
-40.05
-36.47
-31.8
-26.58
-21.43
-16.74
-12.56
-8.66
-4.68
-0.32
4.43
9.27
13.67
17.06
19.11
19.81
19.44
18.47
17.29
16.15
15.08
13.98
12.68
11.02
8.84
6.08
2.76
-0.91
-4.59
-7.88
-10.49
-12.36
-13.7
-14.88
-16.31
-18.17
-20.39
-22.62
-24.28
-24.68
-23.23
-19.59
-13.83
-6.55
1.3
8.63
14.6
18.85
21.58
23.41
25.03
26.9
29.13
31.47
33.57
35.1
36
36.45
36.82
37.51
38.76
40.52
42.49
44.22
45.31
45.58
45.09
44.12
42.96
41.87
41.04
40.66
40.82
41.41
42.01
41.89
40.18
36.34
30.41
23.28
16.33
11.1
8.75
9.75
13.85
20.25
27.82
35.36
41.85
46.56
49.29
50.36
50.59
50.97
52.3
54.92
58.59
62.64
66.38
69.38
71.73
73.92
76.58
80.22
85
90.82
97.43
104.65
112.4
120.67
129.32
138
146.17
153.3
159.08
163.56
167.13
170.15
172.56
173.67
172.35
167.51
158.68
146.22
131.3
115.35
99.66
85.01
71.7
59.77
49.16
39.79
31.43
23.67
15.93
7.74
-0.98
-9.84
-18.08
-24.85
-29.56
-32.1
-32.93
-33.02
-33.69
-36.23
-41.65
-50.39
-62.32
-76.89
-93.54
-111.81
-131.54
-152.51
-174.15
-195.35
-214.46
-229.76
-240
-244.86
-244.99
-241.55
-235.76
-228.44
-219.95
-210.3
-199.43
-187.37
-174.23
-160.07
-144.9
-128.68
-111.58
-94.17
-77.34
-62.14
-49.43
-39.59
-32.42
-27.35
-23.7
-20.9
-18.61
-16.59
-14.64
-12.44
-9.7
-6.28
-2.35
1.62
4.87
6.58
5.96
2.38
-4.52
-14.78
-28
-43.33
-59.58
-75.44
-89.79
-101.88
-111.54
-119.14
-125.39
-131.19
-137.36
-144.43
-152.56
-161.48
-170.66
-179.46
-187.34
-193.98
-199.24
-203.11
-205.58
-206.67
-206.62
-206.14
-206.46
-209.08
-215.22
-225.4
-239.1
-254.9
-270.75
-284.29
-293.07
-294.65
-286.97
-268.79
-240.25
-203.01
-159.87
-113.95
-67.58
-21.78
23.44
68.17
111.51
151.24
184.27
207.95
221.19
225.07
222.45
216.77
210.87
206.22
202.98
200.58
198.47
196.32
193.73
189.79
182.87
171.09
153.27
129.88
103.21
76.86
54.53
38.91
31.01
30.3
35.23
43.77
53.83
63.4
70.64
74.12
73.12
67.81
59.18
48.71
37.89
27.93
19.72
13.84
10.66
10.27
12.36
16.16
20.58
24.4
26.58
26.62
24.58
21.1
17.12
13.63
11.39
10.82
12
14.74
18.74
23.66
29.19
35.03
40.9
46.56
51.75
56.18
59.58
61.76
62.64
62.4
61.42
60.22
59.38
59.34
60.34
62.38
65.24
68.59
72.17
75.84
79.65
83.63
87.77
91.86
95.55
98.54
100.76
102.46
104.23
106.65
110.06
114.38
119.14
123.72
127.73
131.2
134.6
138.56
143.47
149.17
154.87
159.36
161.22
159.12
152.09
139.74
122.58
102.08
80.55
60.57
44.28
32.7
25.56
21.48
18.61
15.3
10.52
3.96
-4.02
-12.6
-20.78
-27.74
-33.18
-37.58
-41.93
-47.17
-53.45
-59.89
-64.9
-67.12
-66.2
-63.08
-59.59
-57.58
-58.2
-61.71
-67.88
-76.3
-86.59
-97.96
-108.92
-117.26
-120.64
-117.66
-108.59
-95.37
-80.97
-68.19
-58.79
-53.09
-50.26
-48.78
-47.1
-44.06
-39.14
-32.51
-24.97
-17.68
-11.85
-8.34
-7.49
-9.02
-12.29
-16.51
-20.92
-24.97
-28.28
-30.67
-32.13
-32.75
-32.71
-32.22
-31.49
-30.69
-29.97
-29.36
-28.79
-28.17
-27.44
-26.79
-26.58
-27.29
-29.27
-32.53
-36.58
-40.48
-43.1
-43.45
-41.02
-35.9
-28.79
-20.7
-12.62
-5.26
1.12
6.63
11.57
16.15
20.28
23.63
25.74
26.33
25.43
23.48
21.09
18.8
17.01
15.86
15.52
16.2
18.23
21.89
27.18
33.74
40.86
47.8
54.06
59.5
64.36
68.93
73.31
77.13
79.53
79.23
74.96
65.76
51.34
32.15
9.44
-14.87
-38.35
-58.37
-72.66
-79.84
-79.98
-74.52
-65.78
-56.02
-46.61
-37.72
-28.7
-18.89
-8.26
2.45
12.12
19.91
25.62
29.79
33.28
36.86
40.9
45.29
49.53
52.97
55.04
55.44
54.22
51.9
49.37
47.85
48.52
52.26
59.3
69.07
80.22
90.99
99.71
105.31
107.54
106.85
103.96
99.27
92.58
83.23
70.55
54.2
34.28
11.1
-15.07
-43.94
-74.86
-106.32
-135.98
-161.13
-179.8
-191.83
-199.02
-204.34
-210.6
-219.04
-229.08
-238.99
-247.28
-253.66
-259.19
-265.47
-273.64
-283.71
-294.64
-305.05
-313.66
-319.4
-321.04
-316.99
-305.66
-286.35
-259.94
-228.82
-195.94
-163.36
-131.4
-98.85
-64.19
-27.03
11.18
47.67
79.67
105.75
126.25
142.8
157.1
170.05
181.5
190.75
197.25
201.07
202.83
203.26
202.69
200.75
196.54
189.09
177.9
163.33
146.59
129.46
113.79
100.93
91.39
84.77
80.02
75.83
71.11
65.35
58.67
51.64
44.96
39.15
34.36
30.48
27.27
24.52
22.14
20.15
18.66
17.91
18.23
20.06
23.77
29.54
37.15
46.02
55.47
64.94
74.32
83.83
93.8
104.32
115.13
125.67
135.47
144.37
152.64
160.6
168.29
175.22
180.5
183.19
182.65
178.51
170.47
158.03
140.67
118.28
91.79
63.17
34.96
9.24
-13.22
-33.02
-51.46
-69.37
-86.35
-100.81
-110.85
-115.39
-114.77
-110.5
-104.47
-98.09
-91.94
-86.04
-80.42
-75.46
-71.84
-70.01
-69.77
-70.1
-69.59
-67.12
-62.46
-56.35
-50.08
-44.88
-41.35
-39.4
-38.47
-38.07
-38
-38.39
-39.48
-41.28
-43.49
-45.63
-47.21
-48.04
-48.22
-48.05
-47.82
-47.68
-47.59
-47.38
-46.88
-45.92
