2023-01-28 10:23:50.053134,-0.010433594696223712
2023-01-28 10:23:50.058134,-0.017068058069510308
2023-01-28 10:23:50.063134,-0.0080776214599609
2023-01-28 10:23:50.068134,-0.0014692666114252924
2023-01-28 10:23:50.073134,-0.0024521350860594753
2023-01-28 10:23:50.078134,-0.0017953775947483876
2023-01-28 10:23:50.083134,0.004327297210693319
2023-01-28 10:23:50.088134,0.009222502809486893
2023-01-28 10:23:50.093134,0.009544095024466494
2023-01-28 10:23:50.098134,0.010574864452170046
2023-01-28 10:23:50.103134,0.01581867597997183
2023-01-28 10:23:50.108134,0.022031371234574368
2023-01-28 10:23:50.113134,0.02718985080718986
2023-01-28 10:23:50.118134,0.03468010948265828
2023-01-28 10:23:50.123134,0.04668673127889628
2023-01-28 10:23:50.128134,0.060563143903351054
2023-01-28 10:23:50.133134,0.07454971969127648
2023-01-28 10:23:50.138134,0.09103918449983549
2023-01-28 10:23:50.143134,0.11150002479553218
2023-01-28 10:23:50.148134,0.13331586044741092
2023-01-28 10:23:50.153134,0.15405178070068345
2023-01-28 10:23:50.158134,0.1742487749608177
2023-01-28 10:23:50.163134,0.19374272227287287
2023-01-28 10:23:50.168134,0.20938271564290062
2023-01-28 10:23:50.173134,0.21864871680736536
2023-01-28 10:23:50.178134,0.22201057422748047
2023-01-28 10:23:50.183134,0.21987478435039515
2023-01-28 10:23:50.188134,0.21065214993213022
2023-01-28 10:23:50.193134,0.19379079341888417
2023-01-28 10:23:50.198134,0.17172777624571053
2023-01-28 10:23:50.203134,0.14708003401756278
2023-01-28 10:23:50.208134,0.12056842047035952
2023-01-28 10:23:50.213134,0.09313305467367167
2023-01-28 10:23:50.218134,0.06730293959250506
2023-01-28 10:23:50.223134,0.04478752613067618
2023-01-28 10:23:50.228134,0.02501782930878214
2023-01-28 10:23:50.233134,0.007476608268916626
2023-01-28 10:23:50.238134,-0.0067241087374951625
2023-01-28 10:23:50.243134,-0.016852419823408078
2023-01-28 10:23:50.248134,-0.024001583955827077
2023-01-28 10:23:50.253134,-0.029281377792358274
2023-01-28 10:23:50.258134,-0.03252680507690602
2023-01-28 10:23:50.263134,-0.03392120450735091
2023-01-28 10:23:50.268134,-0.034948377221289
2023-01-28 10:23:50.273134,-0.03651758283376689
2023-01-28 10:23:50.278134,-0.037817825396972544
2023-01-28 10:23:50.283134,-0.03805617615580554
2023-01-28 10:23:50.288134,-0.037709903933475716
2023-01-28 10:23:50.293134,-0.03714263439178465
2023-01-28 10:23:50.298134,-0.03563427111270551
2023-01-28 10:23:50.303134,-0.03276725858449929
2023-01-28 10:23:50.308134,-0.02928733066734449
2023-01-28 10:23:50.313134,-0.025699337944388275
2023-01-28 10:23:50.318134,-0.021433113503533056
2023-01-28 10:23:50.323134,-0.01622736454010002
2023-01-28 10:23:50.328134,-0.010942471860102207
2023-01-28 10:23:50.333134,-0.006154378410428715
2023-01-28 10:23:50.338134,-0.0011949517061730433
2023-01-28 10:23:50.343134,0.0046879053115844345
2023-01-28 10:23:50.348134,0.011439651208545048
2023-01-28 10:23:50.353134,0.01906414888799181
2023-01-28 10:23:50.358134,0.02800271619726078
2023-01-28 10:23:50.363134,0.0378157719969749
2023-01-28 10:23:50.368134,0.04656610718430174
2023-01-28 10:23:50.373134,0.05221605300903324
2023-01-28 10:23:50.378134,0.05373975577720948
2023-01-28 10:23:50.383134,0.050557255744934027
2023-01-28 10:23:50.388134,0.04225130531323336
2023-01-28 10:23:50.393134,0.029617946594953502
2023-01-28 10:23:50.398134,0.014969896614048883
2023-01-28 10:23:50.403134,0.0006731351604685116
2023-01-28 10:23:50.408134,-0.01192423218252557
2023-01-28 10:23:50.413134,-0.0219490136951208
2023-01-28 10:23:50.418134,-0.028659318610255453
2023-01-28 10:23:50.423134,-0.032238364219665507
2023-01-28 10:23:50.428134,-0.03386119476478896
2023-01-28 10:23:50.433134,-0.034233730286359655
2023-01-28 10:23:50.438134,-0.0327381914146443
2023-01-28 10:23:50.443134,-0.02841591835021963
2023-01-28 10:23:50.448134,-0.02110838724362118
2023-01-28 10:23:50.453134,-0.011635622009634848
2023-01-28 10:23:50.458134,-0.002228610263996368
2023-01-28 10:23:50.463134,0.0025242567062377123
2023-01-28 10:23:50.468134,-0.003696503218054928
2023-01-28 10:23:50.473134,-0.025987824425101193
2023-01-28 10:23:50.478134,-0.06529139024744082
2023-01-28 10:23:50.483134,-0.11746208369731892
2023-01-28 10:23:50.488134,-0.17381335326522263
2023-01-28 10:23:50.493134,-0.22263944149017323
2023-01-28 10:23:50.498134,-0.2524961411037906
2023-01-28 10:23:50.503134,-0.2565606534481048
2023-01-28 10:23:50.508134,-0.23513776603579614
2023-01-28 10:23:50.513134,-0.19472837448120098
2023-01-28 10:23:50.518134,-0.14521313432372615
2023-01-28 10:23:50.523134,-0.09695550054311743
2023-01-28 10:23:50.528134,-0.057997029272028176
2023-01-28 10:23:50.533134,-0.031829677522182395
2023-01-28 10:23:50.538134,-0.0173104904272827
2023-01-28 10:23:50.543134,-0.010818243026733365
2023-01-28 10:23:50.548134,-0.008520504250856972
2023-01-28 10:23:50.553134,-0.007332365028560133
2023-01-28 10:23:50.558134,-0.00528522913356016
2023-01-28 10:23:50.563134,-0.00189920270349828
2023-01-28 10:23:50.568134,0.002142462312483559
2023-01-28 10:23:50.573134,0.006082256790250473
2023-01-28 10:23:50.578134,0.009688970449934022
2023-01-28 10:23:50.583134,0.01293381117284295
2023-01-28 10:23:50.588134,0.01579002781651407
2023-01-28 10:23:50.593134,0.01858333870768537
2023-01-28 10:23:50.598134,0.022027746199631236
2023-01-28 10:23:50.603134,0.02670904062688353
2023-01-28 10:23:50.608134,0.03291143745389508
2023-01-28 10:23:50.613134,0.0409891232848167
2023-01-28 10:23:50.618134,0.05144682825995028
2023-01-28 10:23:50.623134,0.06459693610668182
2023-01-28 10:23:50.628134,0.08052747623673594
2023-01-28 10:23:50.633134,0.09933551400899883
2023-01-28 10:23:50.638134,0.12089896047734201
2023-01-28 10:23:50.643134,0.14441153407096852
2023-01-28 10:23:50.648134,0.1684875117052714
2023-01-28 10:23:50.653134,0.19155502319335926
2023-01-28 10:23:50.658134,0.2118200784187196
2023-01-28 10:23:50.663134,0.2273513972759245
2023-01-28 10:23:50.668134,0.23699356560628754
2023-01-28 10:23:50.673134,0.24098238348960865
2023-01-28 10:23:50.678134,0.23993299613078836
2023-01-28 10:23:50.683134,0.23345768451690668
2023-01-28 10:23:50.688134,0.22059143340228402
2023-01-28 10:23:50.693134,0.20138761401176447
2023-01-28 10:23:50.698134,0.1772206148440639
2023-01-28 10:23:50.703134,0.14967641234397874
2023-01-28 10:23:50.708134,0.12015149241417274
2023-01-28 10:23:50.713134,0.09053667634725572
2023-01-28 10:23:50.718134,0.06316655373804222
2023-01-28 10:23:50.723134,0.0396428517997264
2023-01-28 10:23:50.728134,0.020291572060982806
2023-01-28 10:23:50.733134,0.004856189247220723
2023-01-28 10:23:50.738134,-0.007035089936527007
2023-01-28 10:23:50.743134,-0.01620332524180406
2023-01-28 10:23:50.748134,-0.0238256228003281
2023-01-28 10:23:50.753134,-0.030555527657270366
2023-01-28 10:23:50.758134,-0.03618919583244035
2023-01-28 10:23:50.763134,-0.04034002870321275
2023-01-28 10:23:50.768134,-0.04289026725493219
2023-01-28 10:23:50.773134,-0.04370570182800295
2023-01-28 10:23:50.778134,-0.042625688513299925
2023-01-28 10:23:50.783134,-0.04002749919891356
2023-01-28 10:23:50.788134,-0.03686266104170112
2023-01-28 10:23:50.793134,-0.03387312218546858
2023-01-28 10:23:50.798134,-0.031171072933980477
2023-01-28 10:23:50.803134,-0.028656324371695536
2023-01-28 10:23:50.808134,-0.026297624033259238
2023-01-28 10:23:50.813134,-0.023872256278991574
2023-01-28 10:23:50.818134,-0.021003763113417884
2023-01-28 10:23:50.823134,-0.01769383810460553
2023-01-28 10:23:50.828134,-0.014364933488492633
2023-01-28 10:23:50.833134,-0.011178851127624559
2023-01-28 10:23:50.838134,-0.007687865170612781
2023-01-28 10:23:50.843134,-0.003245472908019984
2023-01-28 10:23:50.848134,0.002652825870575479
2023-01-28 10:23:50.853134,0.010433594696223764
2023-01-28 10:23:50.858134,0.02020865588443174
2023-01-28 10:23:50.863134,0.03115653991699213
2023-01-28 10:23:50.868134,0.04147966811309905
2023-01-28 10:23:50.873134,0.04918694496154776
2023-01-28 10:23:50.878134,0.052761908267701337
2023-01-28 10:23:50.883134,0.051278471946716364
2023-01-28 10:23:50.888134,0.04457219861585243
2023-01-28 10:23:50.893134,0.03360867500305169
2023-01-28 10:23:50.898134,0.020310855190566173
2023-01-28 10:23:50.903134,0.006731351371854522
2023-01-28 10:23:50.908134,-0.0055567983724539634
2023-01-28 10:23:50.913134,-0.015506148338317757
2023-01-28 10:23:50.918134,-0.022667022503081738
2023-01-28 10:23:50.923134,-0.027406215667724505
2023-01-28 10:23:50.928134,-0.030610429290835715
2023-01-28 10:23:50.933134,-0.03283938020467745
2023-01-28 10:23:50.938134,-0.03381584977144844
2023-01-28 10:23:50.943134,-0.03264705464243877
2023-01-28 10:23:50.948134,-0.02829826058187942
2023-01-28 10:23:50.953134,-0.020170014351606258
2023-01-28 10:23:50.958134,-0.009124526208053709
2023-01-28 10:23:50.963134,0.0014664729824289727
2023-01-28 10:23:50.968134,0.005870722523985241
2023-01-28 10:23:50.973134,-0.002259810920804644
2023-01-28 10:23:50.978134,-0.027454285803579417
2023-01-28 10:23:50.983134,-0.07027050107717508
2023-01-28 10:23:50.988134,-0.1259447825801354
2023-01-28 10:23:50.993134,-0.18460731208324416
2023-01-28 10:23:50.998134,-0.23377344953019458
2023-01-28 10:23:51.003134,-0.2624025046825407
2023-01-28 10:23:51.008134,-0.2644983473965961
2023-01-28 10:23:51.013134,-0.24071793258190144
2023-01-28 10:23:51.018134,-0.19780745134749972
2023-01-28 10:23:51.023134,-0.1462626457214355
2023-01-28 10:23:51.028134,-0.09683952294709221
2023-01-28 10:23:51.033134,-0.05726456642150867
2023-01-28 10:23:51.038134,-0.030699982698257362
2023-01-28 10:23:51.043134,-0.016275446861982325
2023-01-28 10:23:51.048134,-0.010653341429922572
2023-01-28 10:23:51.053134,-0.009664297103881773
2023-01-28 10:23:51.058134,-0.009732336671401498
2023-01-28 10:23:51.063134,-0.008798837661743055
2023-01-28 10:23:51.068134,-0.006325039700194125
2023-01-28 10:23:51.073134,-0.002596378326416006
2023-01-28 10:23:51.078134,0.0018791191192639852
2023-01-28 10:23:51.083134,0.006563067436218243
2023-01-28 10:23:51.088134,0.011018861882255303
2023-01-28 10:23:51.093134,0.01512150000780817
2023-01-28 10:23:51.098134,0.01906213540855464
2023-01-28 10:23:51.103134,0.023151040077209358
2023-01-28 10:23:51.108134,0.027789202892366336
2023-01-28 10:23:51.113134,0.03363271802663799
2023-01-28 10:23:51.118134,0.04157023660356342
2023-01-28 10:23:51.123134,0.052432417869567795
2023-01-28 10:23:51.128134,0.06674436868595145
2023-01-28 10:23:51.133134,0.08462270349264134
2023-01-28 10:23:51.138134,0.10565195467240114
2023-01-28 10:23:51.143134,0.12880921363830555
2023-01-28 10:23:51.148134,0.1526772615523637
2023-01-28 10:23:51.153134,0.17583250999450672
2023-01-28 10:23:51.158134,0.19704079114558207
2023-01-28 10:23:51.163134,0.21521091461181632
2023-01-28 10:23:51.168134,0.22934972321318528
2023-01-28 10:23:51.173134,0.23857831954956044
2023-01-28 10:23:51.178134,0.24210343435039486
2023-01-28 10:23:51.183134,0.23922741413116444
2023-01-28 10:23:51.188134,0.2295502976885912
2023-01-28 10:23:51.193134,0.21323959529399866
2023-01-28 10:23:51.198134,0.19112157234600313
2023-01-28 10:23:51.203134,0.1645815372467041
2023-01-28 10:23:51.208134,0.13538868869464007
2023-01-28 10:23:51.213134,0.10544180870056148
2023-01-28 10:23:51.218134,0.0764495056786587
2023-01-28 10:23:51.223134,0.04971583932638156
2023-01-28 10:23:51.228134,0.02611625692223782
2023-01-28 10:23:51.233134,0.006130337715148935
2023-01-28 10:23:51.238134,-0.010142144618015232
2023-01-28 10:23:51.243134,-0.022886594757437706
2023-01-28 10:23:51.248134,-0.032419350254048136
2023-01-28 10:23:51.253134,-0.03913800045847893
2023-01-28 10:23:51.258134,-0.04355167390431554
2023-01-28 10:23:51.263134,-0.046205919235944706
2023-01-28 10:23:51.268134,-0.047548026322461946
2023-01-28 10:23:51.273134,-0.047936838120221995
2023-01-28 10:23:51.278134,-0.047719452317873126
2023-01-28 10:23:51.283134,-0.04714350029826159
2023-01-28 10:23:51.288134,-0.04621912307346054
2023-01-28 10:23:51.293134,-0.04481156915426247
2023-01-28 10:23:51.298134,-0.042845449845743074
2023-01-28 10:23:51.303134,-0.04031598567962634
2023-01-28 10:23:51.308134,-0.03723252688279311
2023-01-28 10:23:51.313134,-0.033776961266994414
2023-01-28 10:23:51.318134,-0.030442304842047282
2023-01-28 10:23:51.323134,-0.027766823768615664
2023-01-28 10:23:51.328134,-0.025944578505176064
2023-01-28 10:23:51.333134,-0.024857919663190793
2023-01-28 10:23:51.338134,-0.024355630863316973
2023-01-28 10:23:51.343134,-0.024208825081586775
2023-01-28 10:23:51.348134,-0.023863474103256142
2023-01-28 10:23:51.353134,-0.022550027817487696
2023-01-28 10:23:51.358134,-0.019652658049330723
2023-01-28 10:23:51.363134,-0.014784932136535544
2023-01-28 10:23:51.368134,-0.007666260539609443
2023-01-28 10:23:51.373134,0.0016587972640991495
2023-01-28 10:23:51.378134,0.012404072799128339
2023-01-28 10:23:51.383134,0.02307891845703123
2023-01-28 10:23:51.388134,0.03196339665253799
2023-01-28 10:23:51.393134,0.037455163896083866
2023-01-28 10:23:51.398134,0.03827262886512322
2023-01-28 10:23:51.403134,0.033897161483764676
2023-01-28 10:23:51.408134,0.02498536823058744
2023-01-28 10:23:51.413134,0.013126134872436511
2023-01-28 10:23:51.418134,0.00013812181931914462
2023-01-28 10:23:51.423134,-0.012356838211417044
2023-01-28 10:23:51.428134,-0.02305699840383329
2023-01-28 10:23:51.433134,-0.031276743859052575
2023-01-28 10:23:51.438134,-0.03721718293874325
2023-01-28 10:23:51.443134,-0.04161417484283434
2023-01-28 10:23:51.448134,-0.0449832388491188
2023-01-28 10:23:51.453134,-0.04721562191843975
2023-01-28 10:23:51.458134,-0.0475951909582041
2023-01-28 10:23:51.463134,-0.04488369077444066
2023-01-28 10:23:51.468134,-0.03777879227163094
2023-01-28 10:23:51.473134,-0.026180148124694734
2023-01-28 10:23:51.478134,-0.012555793295737328
2023-01-28 10:23:51.483134,-0.0021396081428972876
2023-01-28 10:23:51.488134,-0.00170142196110307
2023-01-28 10:23:51.493134,-0.017501514405012103
2023-01-28 10:23:51.498134,-0.05280319156758686
2023-01-28 10:23:51.503134,-0.10546585172414777
2023-01-28 10:23:51.508134,-0.16711276860129812
2023-01-28 10:23:51.513134,-0.2251156270503997
2023-01-28 10:23:51.518134,-0.2666192887949173
2023-01-28 10:23:51.523134,-0.2825484871864318
2023-01-28 10:23:51.528134,-0.2702475746800018
2023-01-28 10:23:51.533134,-0.23422698676586143
2023-01-28 10:23:51.538134,-0.1844797207443149
2023-01-28 10:23:51.543134,-0.13263165950775135
2023-01-28 10:23:51.548134,-0.08793800717484483
2023-01-28 10:23:51.553134,-0.05526920408010483
2023-01-28 10:23:51.558134,-0.03522103930735558
2023-01-28 10:23:51.563134,-0.025218527764081896
2023-01-28 10:23:51.568134,-0.021134253516296393
2023-01-28 10:23:51.573134,-0.019232433289289398
2023-01-28 10:23:51.578134,-0.01739523934032356
2023-01-28 10:23:51.583134,-0.014857053756713829
2023-01-28 10:23:51.588134,-0.011376739878794504
2023-01-28 10:23:51.593134,-0.00706791877746582
2023-01-28 10:23:51.598134,-0.0024871843968537724
2023-01-28 10:23:51.603134,0.0018751621246336752
2023-01-28 10:23:51.608134,0.0061283344607110735
2023-01-28 10:23:51.613134,0.010673999786376844
2023-01-28 10:23:51.618134,0.01571499696919469
2023-01-28 10:23:51.623134,0.021492242813110265
2023-01-28 10:23:51.628134,0.028588364784548122
2023-01-28 10:23:51.633134,0.037455163896083755
2023-01-28 10:23:51.638134,0.04800135995138601
2023-01-28 10:23:51.643134,0.06017347425222388
2023-01-28 10:23:51.648134,0.07455908756537122
2023-01-28 10:23:51.653134,0.09185890853404988
2023-01-28 10:23:51.658134,0.11209841453534992
2023-01-28 10:23:51.663134,0.1347712725400924
2023-01-28 10:23:51.668134,0.15916067726638686
2023-01-28 10:23:51.673134,0.18386206030845637
2023-01-28 10:23:51.678134,0.20652057172027533
2023-01-28 10:23:51.683134,0.22482714056968678
2023-01-28 10:23:51.688134,0.23751322229724506
2023-01-28 10:23:51.693134,0.24396340548992138
2023-01-28 10:23:51.698134,0.24355251100336733
2023-01-28 10:23:51.703134,0.2361021488904952
2023-01-28 10:23:51.708134,0.22239511140477095
2023-01-28 10:23:51.713134,0.203455090522766
2023-01-28 10:23:51.718134,0.17984419516331043
2023-01-28 10:23:51.723134,0.15236894786357857
2023-01-28 10:23:51.728134,0.12281008664372128
2023-01-28 10:23:51.733134,0.0931090116500853
2023-01-28 10:23:51.738134,0.06440520836259239
2023-01-28 10:23:51.743134,0.03759940713644022
2023-01-28 10:23:51.748134,0.014065567127124154
2023-01-28 10:23:51.753134,-0.005168716423213387
2023-01-28 10:23:51.758134,-0.020299046230855308
2023-01-28 10:23:51.763134,-0.031925838440656565
2023-01-28 10:23:51.768134,-0.04010521144427205
2023-01-28 10:23:51.773134,-0.04510005563497538
2023-01-28 10:23:51.778134,-0.04816013440052346
2023-01-28 10:23:51.783134,-0.05041301250457758
2023-01-28 10:23:51.788134,-0.051705047718984654
2023-01-28 10:23:51.793134,-0.05154291912913324
2023-01-28 10:23:51.798134,-0.050301908182110784
2023-01-28 10:23:51.803134,-0.048441689461469574
2023-01-28 10:23:51.808134,-0.045562408526894034
2023-01-28 10:23:51.813134,-0.04151801392436019
2023-01-28 10:23:51.818134,-0.0374958858707854
2023-01-28 10:23:51.823134,-0.03466646000742911
2023-01-28 10:23:51.828134,-0.03270948560652504
2023-01-28 10:23:51.833134,-0.0309401750564575
2023-01-28 10:23:51.838134,-0.02974188218401189
2023-01-28 10:23:51.843134,-0.02944966219365592
2023-01-28 10:23:51.848134,-0.029053251402569372
2023-01-28 10:23:51.853134,-0.027646621689200335
2023-01-28 10:23:51.858134,-0.02598922343827113
2023-01-28 10:23:51.863134,-0.02497812174260603
2023-01-28 10:23:51.868134,-0.023845556377533342
2023-01-28 10:23:51.873134,-0.021588405594229535
2023-01-28 10:23:51.878134,-0.018713272679518254
2023-01-28 10:23:51.883134,-0.015602311119437133
2023-01-28 10:23:51.888134,-0.010703205145873577
2023-01-28 10:23:51.893134,-0.002596378326415961
2023-01-28 10:23:51.898134,0.007545875690560211
2023-01-28 10:23:51.903134,0.017693838104605616
2023-01-28 10:23:51.908134,0.02736439321989791
2023-01-28 10:23:51.913134,0.03584444522857663
2023-01-28 10:23:51.918134,0.040083237558748694
2023-01-28 10:23:51.923134,0.03750324249267571
2023-01-28 10:23:51.928134,0.02931130770250224
2023-01-28 10:23:51.933134,0.018126567825675063
2023-01-28 10:23:51.938134,0.0044411375073539336
2023-01-28 10:23:51.943134,-0.01122693251818399
2023-01-28 10:23:51.948134,-0.025258537629428833
2023-01-28 10:23:51.953134,-0.03442605584859831
2023-01-28 10:23:51.958134,-0.04037851486885833
2023-01-28 10:23:51.963134,-0.04613379761576642
2023-01-28 10:23:51.968134,-0.050505480257431956
2023-01-28 10:23:51.973134,-0.05113422870635979
2023-01-28 10:23:51.978134,-0.05006293482913
2023-01-28 10:23:51.983134,-0.04957159608602525
2023-01-28 10:23:51.988134,-0.045246893736307636
2023-01-28 10:23:51.993134,-0.03180563449859607
2023-01-28 10:23:51.998134,-0.014324561144937091
2023-01-28 10:23:52.003134,-0.004038810729980365
2023-01-28 10:23:52.008134,-0.0037085059391415787
2023-01-28 10:23:52.013134,-0.008846919052302808
2023-01-28 10:23:52.018134,-0.02461388896715465
2023-01-28 10:23:52.023134,-0.06668846309185024
2023-01-28 10:23:52.028134,-0.13766622979673418
2023-01-28 10:23:52.033134,-0.21415314078330994
2023-01-28 10:23:52.038134,-0.2675995458293223
2023-01-28 10:23:52.043134,-0.29004913568496693
2023-01-28 10:23:52.048134,-0.2898500837839025
2023-01-28 10:23:52.053134,-0.2709609270095825
2023-01-28 10:23:52.058134,-0.23095592454176495
2023-01-28 10:23:52.063134,-0.1758565604686737
2023-01-28 10:23:52.068134,-0.12205295288444479
2023-01-28 10:23:52.073134,-0.08120894432067871
2023-01-28 10:23:52.078134,-0.05293735695900828
2023-01-28 10:23:52.083134,-0.03365675732493403
2023-01-28 10:23:52.088134,-0.023176098340471876
2023-01-28 10:23:52.093134,-0.0199296083301305
2023-01-28 10:23:52.098134,-0.01819589186566412
2023-01-28 10:23:52.103134,-0.014328162185847787
2023-01-28 10:23:52.108134,-0.010243694512273397
2023-01-28 10:23:52.113134,-0.007837216369807712
2023-01-28 10:23:52.118134,-0.005073067964207112
2023-01-28 10:23:52.123134,-0.0002644459600560651
2023-01-28 10:23:52.128134,0.00464966557366132
2023-01-28 10:23:52.133134,0.00798145961016405
2023-01-28 10:23:52.138134,0.011360602784331798
2023-01-28 10:23:52.143134,0.016371607780456484
2023-01-28 10:23:52.148134,0.021901402152013284
2023-01-28 10:23:52.153134,0.027334094047546324
2023-01-28 10:23:52.158134,0.034979840236951935
2023-01-28 10:23:52.163134,0.0468790531158447
2023-01-28 10:23:52.168134,0.06214338127443908
2023-01-28 10:23:52.173134,0.07957419008016575
2023-01-28 10:23:52.178134,0.09997541140764599
2023-01-28 10:23:52.183134,0.12368857860565174
2023-01-28 10:23:52.188134,0.1484950818474671
2023-01-28 10:23:52.193134,0.17208218574523917
2023-01-28 10:23:52.198134,0.19422307940486166
2023-01-28 10:23:52.203134,0.21463394165039051
2023-01-28 10:23:52.208134,0.2310394973682919
2023-01-28 10:23:52.213134,0.2413189411163328
2023-01-28 10:23:52.218134,0.24549736161501512
2023-01-28 10:23:52.223134,0.24389128386974318
2023-01-28 10:23:52.228134,0.23539534129921563
2023-01-28 10:23:52.233134,0.21941801905632008
2023-01-28 10:23:52.238134,0.19764404257257462
2023-01-28 10:23:52.243134,0.17220239341258992
2023-01-28 10:23:52.248134,0.1438391376392525
2023-01-28 10:23:52.253134,0.11339922994375214
2023-01-28 10:23:52.258134,0.08324616185780753
2023-01-28 10:23:52.263134,0.055509608238935415
2023-01-28 10:23:52.268134,0.03044325450656198
2023-01-28 10:23:52.273134,0.007933378219604378
2023-01-28 10:23:52.278134,-0.01097619181717799
2023-01-28 10:23:52.283134,-0.02550701424479476
2023-01-28 10:23:52.288134,-0.036548966708837574
2023-01-28 10:23:52.293134,-0.04519621655344959
2023-01-28 10:23:52.298134,-0.05126787116791797
2023-01-28 10:23:52.303134,-0.0545720271766185
2023-01-28 10:23:52.308134,-0.056184875028399535
2023-01-28 10:23:52.313134,-0.05709628388285633
2023-01-28 10:23:52.318134,-0.056882412172897016
2023-01-28 10:23:52.323134,-0.05500475689768789
2023-01-28 10:23:52.328134,-0.05217317218538188
2023-01-28 10:23:52.333134,-0.04921098798513408
2023-01-28 10:23:52.338134,-0.04583418864565442
2023-01-28 10:23:52.343134,-0.04178246110677707
2023-01-28 10:23:52.348134,-0.03795374063407307
2023-01-28 10:23:52.353134,-0.0351953506469726
2023-01-28 10:23:52.358134,-0.03308050527118854
2023-01-28 10:23:52.363134,-0.03101229667663563
2023-01-28 10:23:52.368134,-0.029418183675524383
2023-01-28 10:23:52.373134,-0.028728445991873665
2023-01-28 10:23:52.378134,-0.02827902114372461
2023-01-28 10:23:52.383134,-0.027382176369428607
2023-01-28 10:23:52.388134,-0.026475655213876275
2023-01-28 10:23:52.393134,-0.026108026504516588
2023-01-28 10:23:52.398134,-0.025733116300574923
2023-01-28 10:23:52.403134,-0.02452135086059564
2023-01-28 10:23:52.408134,-0.02237783758035538
2023-01-28 10:23:52.413134,-0.019136270508170055
2023-01-28 10:23:52.418134,-0.013763241280822867
2023-01-28 10:23:52.423134,-0.005553364753723068
2023-01-28 10:23:52.428134,0.004575092424184836
2023-01-28 10:23:52.433134,0.014833013527095422
2023-01-28 10:23:52.438134,0.023762342508234117
2023-01-28 10:23:52.443134,0.029906433075666445
2023-01-28 10:23:52.448134,0.0314176129026398
2023-01-28 10:23:52.453134,0.027286013588309184
2023-01-28 10:23:52.458134,0.01844993829976165
2023-01-28 10:23:52.463134,0.006875594612210932
2023-01-28 10:23:52.468134,-0.005818590063623465
2023-01-28 10:23:52.473134,-0.018222730606794264
2023-01-28 10:23:52.478134,-0.028728291069815053
2023-01-28 10:23:52.483134,-0.03644546121358867
2023-01-28 10:23:52.488134,-0.04198023456441006
2023-01-28 10:23:52.493134,-0.04639824479818342
2023-01-28 10:23:52.498134,-0.049852545386791784
2023-01-28 10:23:52.503134,-0.0517592839896678
2023-01-28 10:23:52.508134,-0.051477715213990666
2023-01-28 10:23:52.513134,-0.04803299903869619
2023-01-28 10:23:52.518134,-0.0401001353970039
2023-01-28 10:23:52.523134,-0.02762258052825922
2023-01-28 10:23:52.528134,-0.013510802102678335
2023-01-28 10:23:52.533134,-0.003365675685927215
2023-01-28 10:23:52.538134,-0.0038468682226034806
2023-01-28 10:23:52.543134,-0.021059513092041016
2023-01-28 10:23:52.548134,-0.05847647084986897
2023-01-28 10:23:52.553134,-0.11412044614553447
2023-01-28 10:23:52.558134,-0.1792234518551843
2023-01-28 10:23:52.563134,-0.24040541052818287
2023-01-28 10:23:52.568134,-0.2841213093724098
2023-01-28 10:23:52.573134,-0.3007231354713439
2023-01-28 10:23:52.578134,-0.287147382669766
2023-01-28 10:23:52.583134,-0.24802625179290771
2023-01-28 10:23:52.588134,-0.19417204949558353
2023-01-28 10:23:52.593134,-0.13830523192882532
2023-01-28 10:23:52.598134,-0.09048522177682991
2023-01-28 10:23:52.603134,-0.0558942556381225
2023-01-28 10:23:52.608134,-0.03503714536534621
2023-01-28 10:23:52.613134,-0.025002162903547155
2023-01-28 10:23:52.618134,-0.021256682014726646
2023-01-28 10:23:52.623134,-0.01973728463053697
2023-01-28 10:23:52.628134,-0.018165068951251705
2023-01-28 10:23:52.633134,-0.01586675643920883
2023-01-28 10:23:52.638134,-0.012889745570870323
2023-01-28 10:23:52.643134,-0.009471973404288188
2023-01-28 10:23:52.648134,-0.005875045665039342
2023-01-28 10:23:52.653134,-0.002211729763075662
2023-01-28 10:23:52.658134,0.0016561907938198884
2023-01-28 10:23:52.663134,0.006058216094970684
2023-01-28 10:23:52.668134,0.011414871057076937
2023-01-28 10:23:52.673134,0.018054446205496767
2023-01-28 10:23:52.678134,0.02602535207351039
2023-01-28 10:23:52.683134,0.03533959388732902
2023-01-28 10:23:52.688134,0.04645499760233733
2023-01-28 10:23:52.693134,0.060029231011867426
2023-01-28 10:23:52.698134,0.07612862682571757
2023-01-28 10:23:52.703134,0.09445528686046592
2023-01-28 10:23:52.708134,0.11541819740618788
2023-01-28 10:23:52.713134,0.13955533504486073
2023-01-28 10:23:52.718134,0.16521844212136022
2023-01-28 10:23:52.723134,0.18850187957286815
2023-01-28 10:23:52.728134,0.20692711222597954
2023-01-28 10:23:52.733134,0.22179803252220145
2023-01-28 10:23:52.738134,0.23504604301161483
2023-01-28 10:23:52.743134,0.24502119421958912
2023-01-28 10:23:52.748134,0.2478872548182728
2023-01-28 10:23:52.753134,0.24244885146617873
2023-01-28 10:23:52.758134,0.23082981852242881
2023-01-28 10:23:52.763134,0.2145618200302123
2023-01-28 10:23:52.768134,0.19296469763652244
2023-01-28 10:23:52.773134,0.16597589850425715
2023-01-28 10:23:52.778134,0.13589594899629642
2023-01-28 10:23:52.783134,0.10522544384002681
2023-01-28 10:23:52.788134,0.07490967022186495
2023-01-28 10:23:52.793134,0.045821271836757514
2023-01-28 10:23:52.798134,0.019952266761591075
2023-01-28 10:23:52.803134,-0.0012741487007587933
2023-01-28 10:23:52.808134,-0.018358858582812804
2023-01-28 10:23:52.813134,-0.03219028562307354
2023-01-28 10:23:52.818134,-0.0425463570036582
2023-01-28 10:23:52.823134,-0.04923502728343002
2023-01-28 10:23:52.828134,-0.053321612470102045
2023-01-28 10:23:52.833134,-0.05596637725830078
2023-01-28 10:23:52.838134,-0.05717688141951362
2023-01-28 10:23:52.843134,-0.056807797402143353
2023-01-28 10:23:52.848134,-0.055645155705681265
2023-01-28 10:23:52.853134,-0.05435566231608383
2023-01-28 10:23:52.858134,-0.05240648769374588
2023-01-28 10:23:52.863134,-0.049162905663251745
2023-01-28 10:23:52.868134,-0.04514693723042823
2023-01-28 10:23:52.873134,-0.041205488145351375
2023-01-28 10:23:52.878134,-0.037389230761749825
2023-01-28 10:23:52.883134,-0.03368079662322985
2023-01-28 10:23:52.888134,-0.030882877133959884
2023-01-28 10:23:52.893134,-0.02966602705419052
2023-01-28 10:23:52.898134,-0.02949852440999454
2023-01-28 10:23:52.903134,-0.02949774265289293
2023-01-28 10:23:52.908134,-0.029575129310832116
2023-01-28 10:23:52.913134,-0.02983431145548814
2023-01-28 10:23:52.918134,-0.02969202747086868
2023-01-28 10:23:52.923134,-0.028608243912458278
2023-01-28 10:23:52.928134,-0.02692709009340014
2023-01-28 10:23:52.933134,-0.024978121742606104
2023-01-28 10:23:52.938134,-0.02199753007541607
2023-01-28 10:23:52.943134,-0.01687645912170413
2023-01-28 10:23:52.948134,-0.00938974585601854
2023-01-28 10:23:52.953134,4.8081081331451023e-05
2023-01-28 10:23:52.958134,0.010971950879582514
2023-01-28 10:23:52.963134,0.02218941971659663
2023-01-28 10:23:52.968134,0.031218358402283975
2023-01-28 10:23:52.973134,0.03553191944956774
2023-01-28 10:23:52.978134,0.03411572989705659
2023-01-28 10:23:52.983134,0.027310054749250412
2023-01-28 10:23:52.988134,0.015983348798879325
2023-01-28 10:23:52.993134,0.0017549594631418206
2023-01-28 10:23:52.998134,-0.012779980286300783
2023-01-28 10:23:53.003134,-0.02529064938426009
2023-01-28 10:23:53.008134,-0.03501362019551269
2023-01-28 10:23:53.013134,-0.04228731244802468
2023-01-28 10:23:53.018134,-0.04744488271614359
2023-01-28 10:23:53.023134,-0.050845742225646855
2023-01-28 10:23:53.028134,-0.053130488009336015
2023-01-28 10:23:53.033134,-0.05428354069590556
2023-01-28 10:23:53.038134,-0.052811180474645385
2023-01-28 10:23:53.043134,-0.04680693149566646
2023-01-28 10:23:53.048134,-0.035796702997229334
2023-01-28 10:23:53.053134,-0.021420121192932122
2023-01-28 10:23:53.058134,-0.007400403977267281
2023-01-28 10:23:53.063134,0.0002163648605345661
2023-01-28 10:23:53.068134,-0.006129406094897689
2023-01-28 10:23:53.073134,-0.03235856816172594
2023-01-28 10:23:53.078134,-0.07916665160225525
2023-01-28 10:23:53.083134,-0.140829488635063
2023-01-28 10:23:53.088134,-0.20647079094617476
2023-01-28 10:23:53.093134,-0.2624505758285521
2023-01-28 10:23:53.098134,-0.29592549831979087
2023-01-28 10:23:53.103134,-0.2994249463081357
2023-01-28 10:23:53.108134,-0.27381597406359287
2023-01-28 10:23:53.113134,-0.2272552251815794
2023-01-28 10:23:53.118134,-0.17138723330981095
2023-01-28 10:23:53.123134,-0.1176784485578535
2023-01-28 10:23:53.128134,-0.07471071287137548
2023-01-28 10:23:53.133134,-0.04615783691406246
2023-01-28 10:23:53.138134,-0.030539245591146482
2023-01-28 10:23:53.143134,-0.02353568933904171
2023-01-28 10:23:53.148134,-0.02091306225681605
2023-01-28 10:23:53.153134,-0.01966516301035879
2023-01-28 10:23:53.158134,-0.017829476661566153
2023-01-28 10:23:53.163134,-0.014616648666560593
2023-01-28 10:23:53.168134,-0.010522054759244639
2023-01-28 10:23:53.173134,-0.006394783966243248
2023-01-28 10:23:53.178134,-0.0024121795211621494
2023-01-28 10:23:53.183134,0.0016587972640990831
2023-01-28 10:23:53.188134,0.005767564582998877
2023-01-28 10:23:53.193134,0.009904703125357617
2023-01-28 10:23:53.198134,0.014717669655180458
2023-01-28 10:23:53.203134,0.021059513092040884
2023-01-28 10:23:53.208134,0.02923574119246511
2023-01-28 10:23:53.213134,0.03933032602071756
2023-01-28 10:23:53.218134,0.05187546472692054
2023-01-28 10:23:53.223134,0.06748180091381063
2023-01-28 10:23:53.228134,0.08611050350245437
2023-01-28 10:23:53.233134,0.10731697082519517
2023-01-28 10:23:53.238134,0.13078813205427176
2023-01-28 10:23:53.243134,0.1559029072523116
2023-01-28 10:23:53.248134,0.18108526291770113
2023-01-28 10:23:53.253134,0.20432054996490462
2023-01-28 10:23:53.258134,0.2241117238370383
2023-01-28 10:23:53.263134,0.23941974341869346
2023-01-28 10:23:53.268134,0.24912316371606094
2023-01-28 10:23:53.273134,0.2523054778575896
2023-01-28 10:23:53.278134,0.24883010621485754
2023-01-28 10:23:53.283134,0.23898701369762412
2023-01-28 10:23:53.288134,0.22285081467445184
2023-01-28 10:23:53.293134,0.20064234733581526
2023-01-28 10:23:53.298134,0.1734842060462584
2023-01-28 10:23:53.303134,0.14318546652793873
2023-01-28 10:23:53.308134,0.11149743511049183
2023-01-28 10:23:53.313134,0.08007904142141331
2023-01-28 10:23:53.318134,0.050767139515872174
2023-01-28 10:23:53.323134,0.025074284523725548
2023-01-28 10:23:53.328134,0.003484449030615238
2023-01-28 10:23:53.333134,-0.014256040565669436
2023-01-28 10:23:53.338134,-0.028358667833395666
2023-01-28 10:23:53.343134,-0.03896971791982645
2023-01-28 10:23:53.348134,-0.04657982968261243
2023-01-28 10:23:53.353134,-0.05180736631155009
2023-01-28 10:23:53.358134,-0.05491615456219837
2023-01-28 10:23:53.363134,-0.05603849887847896
2023-01-28 10:23:53.368134,-0.05567961090054457
2023-01-28 10:23:53.373134,-0.05452394485473621
2023-01-28 10:23:53.378134,-0.05292125452081901
2023-01-28 10:23:53.383134,-0.05096594616770737
2023-01-28 10:23:53.388134,-0.04885112001536471
2023-01-28 10:23:53.393134,-0.046758852899074436
2023-01-28 10:23:53.398134,-0.044654508304440836
2023-01-28 10:23:53.403134,-0.04252771660685521
2023-01-28 10:23:53.408134,-0.04052627164512168
2023-01-28 10:23:53.413134,-0.03856102749705309
2023-01-28 10:23:53.418134,-0.03622852880678051
2023-01-28 10:23:53.423134,-0.03351251408457756
2023-01-28 10:23:53.428134,-0.031096826383600135
2023-01-28 10:23:53.433134,-0.029545824974775276
2023-01-28 10:23:53.438134,-0.028636045092929416
2023-01-28 10:23:53.443134,-0.02793510816991319
2023-01-28 10:23:53.448134,-0.027498924395658576
2023-01-28 10:23:53.453134,-0.027430256828665615
2023-01-28 10:23:53.458134,-0.027225997519424585
2023-01-28 10:23:53.463134,-0.02615610882639879
2023-01-28 10:23:53.468134,-0.02385304390973133
2023-01-28 10:23:53.473134,-0.01995364949107165
2023-01-28 10:23:53.478134,-0.013681116631003895
2023-01-28 10:23:53.483134,-0.0045917434617876954
2023-01-28 10:23:53.488134,0.006452156419587254
2023-01-28 10:23:53.493134,0.01757363602519026
2023-01-28 10:23:53.498134,0.02683535348828289
2023-01-28 10:23:53.503134,0.03250281140208243
2023-01-28 10:23:53.508134,0.03304719845078701
2023-01-28 10:23:53.513134,0.027887027710676134
2023-01-28 10:23:53.518134,0.01807449232954057
2023-01-28 10:23:53.523134,0.005673567764460964
2023-01-28 10:23:53.528134,-0.00742403195735497
2023-01-28 10:23:53.533134,-0.019785365089774142
2023-01-28 10:23:53.538134,-0.03020420836100606
2023-01-28 10:23:53.543134,-0.0380802154541015
2023-01-28 10:23:53.548134,-0.043863261517305525
2023-01-28 10:23:53.553134,-0.04841765016317353
2023-01-28 10:23:53.558134,-0.05195091262944348
2023-01-28 10:23:53.563134,-0.05387485027313222
2023-01-28 10:23:53.568134,-0.05328600996847307
2023-01-28 10:23:53.573134,-0.049042701721191385
2023-01-28 10:23:53.578134,-0.039975153350737
2023-01-28 10:23:53.583134,-0.026228230446576958
2023-01-28 10:23:53.588134,-0.010813052659368083
2023-01-28 10:23:53.593134,0.00040868920041242516
2023-01-28 10:23:53.598134,0.00032918575325578556
2023-01-28 10:23:53.603134,-0.017357271164655592
2023-01-28 10:23:53.608134,-0.055862975782424655
2023-01-28 10:23:53.613134,-0.11279821395874012
2023-01-28 10:23:53.618134,-0.17909626732658507
2023-01-28 10:23:53.623134,-0.24112662672996504
2023-01-28 10:23:53.628134,-0.2851420448713629
2023-01-28 10:23:53.633134,-0.3015164732933042
2023-01-28 10:23:53.638134,-0.2874001090308437
2023-01-28 10:23:53.643134,-0.2475935220718382
2023-01-28 10:23:53.648134,-0.193007448256527
2023-01-28 10:23:53.653134,-0.1365502774715423
2023-01-28 10:23:53.658134,-0.08851737126709615
2023-01-28 10:23:53.663134,-0.054187379777431446
2023-01-28 10:23:53.668134,-0.034002216116643766
2023-01-28 10:23:53.673134,-0.024881958961486806
2023-01-28 10:23:53.678134,-0.021966221619418348
2023-01-28 10:23:53.683134,-0.020771026611328104
2023-01-28 10:23:53.688134,-0.018789115393975795
2023-01-28 10:23:53.693134,-0.015409986488521004
2023-01-28 10:23:53.698134,-0.010843279492401279
2023-01-28 10:23:53.703134,-0.005577405449002924
2023-01-28 10:23:53.708134,-0.0003880463845577064
2023-01-28 10:23:53.713134,0.004062851425260315
2023-01-28 10:23:53.718134,0.007810345210925248
2023-01-28 10:23:53.723134,0.011419257149100227
2023-01-28 10:23:53.728134,0.01540875937950683
2023-01-28 10:23:53.733134,0.020290216431021572
2023-01-28 10:23:53.738134,0.026926627914575695
2023-01-28 10:23:53.743134,0.036229096353054
2023-01-28 10:23:53.748134,0.04852420088610402
2023-01-28 10:23:53.753134,0.06363531202077852
2023-01-28 10:23:53.758134,0.08140321259249435
2023-01-28 10:23:53.763134,0.10161936283111564
2023-01-28 10:23:53.768134,0.12360009690502562
2023-01-28 10:23:53.773134,0.14635881781578058
2023-01-28 10:23:53.778134,0.16910711940102044
2023-01-28 10:23:53.783134,0.19112229347228996
2023-01-28 10:23:53.788134,0.211259732881659
2023-01-28 10:23:53.793134,0.22809664905071247
2023-01-28 10:23:53.798134,0.24047433325566278
2023-01-28 10:23:53.803134,0.2474973648786543
2023-01-28 10:23:53.808134,0.24822752113821892
2023-01-28 10:23:53.813134,0.24196803569793696
2023-01-28 10:23:53.818134,0.22882589180582988
2023-01-28 10:23:53.823134,0.20958542823791493
2023-01-28 10:23:53.828134,0.1851693920316161
2023-01-28 10:23:53.833134,0.1566722095012663
2023-01-28 10:23:53.838134,0.12574187788567626
2023-01-28 10:23:53.843134,0.09435912221670147
2023-01-28 10:23:53.848134,0.06422262652595509
2023-01-28 10:23:53.853134,0.036661826074123306
2023-01-28 10:23:53.858134,0.012879778895067412
2023-01-28 10:23:53.863134,-0.006322662346064997
2023-01-28 10:23:53.868134,-0.021035456306414763
2023-01-28 10:23:53.873134,-0.03199796006083477
2023-01-28 10:23:53.878134,-0.03991021290978795
2023-01-28 10:23:53.883134,-0.045316420495510025
2023-01-28 10:23:53.888134,-0.048916194403901526
2023-01-28 10:23:53.893134,-0.0513986758887767
2023-01-28 10:23:53.898134,-0.052984060547280554
2023-01-28 10:23:53.903134,-0.05356232449412339
2023-01-28 10:23:53.908134,-0.053211886620787054
2023-01-28 10:23:53.913134,-0.052167974412441184
2023-01-28 10:23:53.918134,-0.050415852683430046
2023-01-28 10:23:53.923134,-0.047816634178161566
2023-01-28 10:23:53.928134,-0.04458911583316031
2023-01-28 10:23:53.933134,-0.041229527443647274
2023-01-28 10:23:53.938134,-0.0380185156626332
2023-01-28 10:23:53.943134,-0.03502706810832024
2023-01-28 10:23:53.948134,-0.03250715340516144
2023-01-28 10:23:53.953134,-0.030795931816100998
2023-01-28 10:23:53.958134,-0.029860029545703975
2023-01-28 10:23:53.963134,-0.029353499412536576
2023-01-28 10:23:53.968134,-0.0290750563367808
2023-01-28 10:23:53.973134,-0.028944810852408416
2023-01-28 10:23:53.978134,-0.0285742025028689
2023-01-28 10:23:53.983134,-0.027286013588309174
2023-01-28 10:23:53.988134,-0.024556615197844016
2023-01-28 10:23:53.993134,-0.020097892731428015
2023-01-28 10:23:53.998134,-0.013628518711278691
2023-01-28 10:23:54.003134,-0.005072554107755413
2023-01-28 10:23:54.008134,0.004936164968133701
2023-01-28 10:23:54.013134,0.015073418617248459
2023-01-28 10:23:54.018134,0.023860310496094748
2023-01-28 10:23:54.023134,0.02995451353490343
2023-01-28 10:23:54.028134,0.032138856727731376
2023-01-28 10:23:54.033134,0.029593905434012364
2023-01-28 10:23:54.038134,0.022358581844159498
2023-01-28 10:23:54.043134,0.011323094367980912
2023-01-28 10:23:54.048134,-0.002186163651912627
2023-01-28 10:23:54.053134,-0.01661201380193231
2023-01-28 10:23:54.058134,-0.03020392345106842
2023-01-28 10:23:54.063134,-0.04139780998229975
2023-01-28 10:23:54.068134,-0.049368193607833795
2023-01-28 10:23:54.073134,-0.054139297455549094
2023-01-28 10:23:54.078134,-0.05627754897480029
2023-01-28 10:23:54.083134,-0.056567393243312794
2023-01-28 10:23:54.088134,-0.05558220168193077
2023-01-28 10:23:54.093134,-0.05308151245117177
2023-01-28 10:23:54.098134,-0.04796638913677172
2023-01-28 10:23:54.103134,-0.03935436531901344
2023-01-28 10:23:54.108134,-0.027982564825441016
2023-01-28 10:23:54.113134,-0.016780298203229845
2023-01-28 10:23:54.118134,-0.010576167146064819
2023-01-28 10:23:54.123134,-0.015337864868342743
2023-01-28 10:23:54.128134,-0.03653265369640851
2023-01-28 10:23:54.133134,-0.07640083879232404
2023-01-28 10:23:54.138134,-0.1316243087623782
2023-01-28 10:23:54.143134,-0.19330999255180342
2023-01-28 10:23:54.148134,-0.24935953977986247
2023-01-28 10:23:54.153134,-0.2878133654594419
2023-01-28 10:23:54.158134,-0.3001884666057212
2023-01-28 10:23:54.163134,-0.28423130512237527
2023-01-28 10:23:54.168134,-0.2448100454323257
2023-01-28 10:23:54.173134,-0.19193968176841728
2023-01-28 10:23:54.178134,-0.1369966905232598
2023-01-28 10:23:54.183134,-0.08938273042440405
2023-01-28 10:23:54.188134,-0.05469996859454602
2023-01-28 10:23:54.193134,-0.034161608666181564
2023-01-28 10:23:54.198134,-0.025202385173548454
2023-01-28 10:23:54.203134,-0.02339144609868524
2023-01-28 10:23:54.208134,-0.024621509086176743
2023-01-28 10:23:54.213134,-0.026132067665457646
2023-01-28 10:23:54.218134,-0.02637344144475348
2023-01-28 10:23:54.223134,-0.024785798043012657
2023-01-28 10:23:54.228134,-0.021713849733148653
2023-01-28 10:23:54.233134,-0.017886161804199243
2023-01-28 10:23:54.238134,-0.013700522104049572
2023-01-28 10:23:54.243134,-0.009159445762634232
2023-01-28 10:23:54.248134,-0.0042898030000852036
2023-01-28 10:23:54.253134,0.0008654594421385937
2023-01-28 10:23:54.258134,0.006636027596208891
2023-01-28 10:23:54.263134,0.013655027374625196
2023-01-28 10:23:54.268134,0.02238373026644194
2023-01-28 10:23:54.273134,0.03305574506521214
2023-01-28 10:23:54.278134,0.04600078718750487
2023-01-28 10:23:54.283134,0.061543785035610074
2023-01-28 10:23:54.288134,0.07953392573303641
2023-01-28 10:23:54.293134,0.09933551400899879
2023-01-28 10:23:54.298134,0.12026782744692814
2023-01-28 10:23:54.303134,0.14167091250419606
2023-01-28 10:23:54.308134,0.1625618171252647
2023-01-28 10:23:54.313134,0.181650325655937
2023-01-28 10:23:54.318134,0.1977492941378394
2023-01-28 10:23:54.323134,0.2098498791456221
2023-01-28 10:23:54.328134,0.21685306996223788
2023-01-28 10:23:54.333134,0.21768710017204276
2023-01-28 10:23:54.338134,0.21180996838680882
2023-01-28 10:23:54.343134,0.1993441581726073
2023-01-28 10:23:54.348134,0.18079061639553184
2023-01-28 10:23:54.353134,0.1570087671279906
2023-01-28 10:23:54.358134,0.129475193729185
2023-01-28 10:23:54.363134,0.10012885183095924
2023-01-28 10:23:54.368134,0.07080469893053142
2023-01-28 10:23:54.373134,0.042984485626220724
2023-01-28 10:23:54.378134,0.017936205450534353
2023-01-28 10:23:54.383134,-0.0033897161483763417
2023-01-28 10:23:54.388134,-0.02070094081129371
2023-01-28 10:23:54.393134,-0.03428181260824193
2023-01-28 10:23:54.398134,-0.04452557468124004
2023-01-28 10:23:54.403134,-0.05180736631155011
2023-01-28 10:23:54.408134,-0.05673670510860505
2023-01-28 10:23:54.413134,-0.060101352632045725
2023-01-28 10:23:54.418134,-0.062455604467964575
2023-01-28 10:23:54.423134,-0.06401996314525599
2023-01-28 10:23:54.428134,-0.06494839264308971
2023-01-28 10:23:54.433134,-0.06534218788146964
2023-01-28 10:23:54.438134,-0.06500872228524386
2023-01-28 10:23:54.443134,-0.06361126899719227
2023-01-28 10:23:54.448134,-0.061170889857966225
2023-01-28 10:23:54.453134,-0.05815406888723368
2023-01-28 10:23:54.458134,-0.05503959897935283
2023-01-28 10:23:54.463134,-0.05207180976867674
2023-01-28 10:23:54.468134,-0.04940147565484247
2023-01-28 10:23:54.473134,-0.047095417976379304
2023-01-28 10:23:54.478134,-0.04495334414012726
2023-01-28 10:23:54.483134,-0.04264792054891578
2023-01-28 10:23:54.488134,-0.040120113706921076
2023-01-28 10:23:54.493134,-0.037551324814558015
2023-01-28 10:23:54.498134,-0.03489264222693895
2023-01-28 10:23:54.503134,-0.031685434281826026
2023-01-28 10:23:54.508134,-0.027371302950164808
2023-01-28 10:23:54.513134,-0.021540325134992485
2023-01-28 10:23:54.518134,-0.013970560052536106
2023-01-28 10:23:54.523134,-0.0048802299425004065
2023-01-28 10:23:54.528134,0.004700035410278152
2023-01-28 10:23:54.533134,0.013078054413199282
2023-01-28 10:23:54.538134,0.018577785882599607
2023-01-28 10:23:54.543134,0.020025771111249865
2023-01-28 10:23:54.548134,0.01682677962732965
2023-01-28 10:23:54.553134,0.009087324142456032
2023-01-28 10:23:54.558134,-0.0021812604768236096
2023-01-28 10:23:54.563134,-0.015289783477783174
2023-01-28 10:23:54.568134,-0.02848900011504034
2023-01-28 10:23:54.573134,-0.040340028703212655
2023-01-28 10:23:54.578134,-0.0497434306705836
2023-01-28 10:23:54.583134,-0.05613466352224337
2023-01-28 10:23:54.588134,-0.05979393306901126
2023-01-28 10:23:54.593134,-0.06161590665578832
2023-01-28 10:23:54.598134,-0.06232401945761811
2023-01-28 10:23:54.603134,-0.061904393136501215
2023-01-28 10:23:54.608134,-0.059630242095313195
2023-01-28 10:23:54.613134,-0.05440374463796606
2023-01-28 10:23:54.618134,-0.04545094830377771
2023-01-28 10:23:54.623134,-0.033632718026637975
2023-01-28 10:23:54.628134,-0.022698980625439447
2023-01-28 10:23:54.633134,-0.019088190048932953
2023-01-28 10:23:54.638134,-0.029847791146990953
2023-01-28 10:23:54.643134,-0.05971670150756823
2023-01-28 10:23:54.648134,-0.10861349512279603
2023-01-28 10:23:54.653134,-0.17032723128795615
2023-01-28 10:23:54.658134,-0.23325318174534476
2023-01-28 10:23:54.663134,-0.2836543321609496
2023-01-28 10:23:54.668134,-0.31029435499303176
2023-01-28 10:23:54.673134,-0.3080554902553557
2023-01-28 10:23:54.678134,-0.2790385742437946
2023-01-28 10:23:54.683134,-0.23134212195873252
2023-01-28 10:23:54.688134,-0.17625000755863804
2023-01-28 10:23:54.693134,-0.12455403804779043
2023-01-28 10:23:54.698134,-0.08342813949230034
2023-01-28 10:23:54.703134,-0.05543748661875717
2023-01-28 10:23:54.708134,-0.03961633271881198
2023-01-28 10:23:54.713134,-0.032983623445034055
2023-01-28 10:23:54.718134,-0.031619581617587
2023-01-28 10:23:54.723134,-0.031877756118774414
2023-01-28 10:23:54.728134,-0.03171853769852341
2023-01-28 10:23:54.733134,-0.030819972977042132
2023-01-28 10:23:54.738134,-0.029165740505406327
2023-01-28 10:23:54.743134,-0.026083987206220616
2023-01-28 10:23:54.748134,-0.021189637091060465
2023-01-28 10:23:54.753134,-0.01562635228037837
2023-01-28 10:23:54.758134,-0.011247432812554413
2023-01-28 10:23:54.763134,-0.008462270721793107
2023-01-28 10:23:54.768134,-0.005731649043228974
2023-01-28 10:23:54.773134,-0.0014905135612933904
2023-01-28 10:23:54.778134,0.004174076455980465
2023-01-28 10:23:54.783134,0.010337432846426891
2023-01-28 10:23:54.788134,0.017210914087896965
2023-01-28 10:23:54.793134,0.02644459530711168
2023-01-28 10:23:54.798134,0.039440470085669706
2023-01-28 10:23:54.803134,0.05603849887847895
2023-01-28 10:23:54.808134,0.07510654595613797
2023-01-28 10:23:54.813134,0.09580155462026586
2023-01-28 10:23:54.818134,0.1176357111801927
2023-01-28 10:23:54.823134,0.13955533504486078
2023-01-28 10:23:54.828134,0.15968744535531154
2023-01-28 10:23:54.833134,0.17621716856956482
2023-01-28 10:23:54.838134,0.18814037230488911
2023-01-28 10:23:54.843134,0.19501686096191395
2023-01-28 10:23:54.848134,0.19642700158372337
2023-01-28 10:23:54.853134,0.19201180338859541
2023-01-28 10:23:54.858134,0.1817818842237785
2023-01-28 10:23:54.863134,0.16604802012443537
2023-01-28 10:23:54.868134,0.14525159054431866
2023-01-28 10:23:54.873134,0.12025078386068341
2023-01-28 10:23:54.878134,0.09269005851133177
2023-01-28 10:23:54.883134,0.06471713632345184
2023-01-28 10:23:54.888134,0.03825858821617195
2023-01-28 10:23:54.893134,0.014664730057120275
2023-01-28 10:23:54.898134,-0.005191511489235438
2023-01-28 10:23:54.903134,-0.02091526985168443
2023-01-28 10:23:54.908134,-0.032726677532926816
2023-01-28 10:23:54.913134,-0.041277609765529556
2023-01-28 10:23:54.918134,-0.04723086621060648
2023-01-28 10:23:54.923134,-0.05115827172994606
2023-01-28 10:23:54.928134,-0.05373681969996933
2023-01-28 10:23:54.933134,-0.055677890777587766
2023-01-28 10:23:54.938134,-0.057362882740797455
2023-01-28 10:23:54.943134,-0.05875508114695534
2023-01-28 10:23:54.948134,-0.059692641175668845
2023-01-28 10:23:54.953134,-0.060053270310163345
2023-01-28 10:23:54.958134,-0.05965333962231548
2023-01-28 10:23:54.963134,-0.0582983121275901
2023-01-28 10:23:54.968134,-0.056039895241129026
2023-01-28 10:23:54.973134,-0.053177677094936274
2023-01-28 10:23:54.978134,-0.04994592800037403
2023-01-28 10:23:54.983134,-0.04639824479818343
2023-01-28 10:23:54.988134,-0.042628649890869647
2023-01-28 10:23:54.993134,-0.03884951397776596
2023-01-28 10:23:54.998134,-0.03514192184158803
2023-01-28 10:23:55.003134,-0.03130078315734852
2023-01-28 10:23:55.008134,-0.026973706027534444
2023-01-28 10:23:55.013134,-0.02175668999552722
2023-01-28 10:23:55.018134,-0.015139413573128289
2023-01-28 10:23:55.023134,-0.006683270446956063
2023-01-28 10:23:55.028134,0.003491264786239687
2023-01-28 10:23:55.033134,0.014424324035644502
2023-01-28 10:23:55.038134,0.024533075947411043
2023-01-28 10:23:55.043134,0.03199796006083483
2023-01-28 10:23:55.048134,0.035079872214049054
2023-01-28 10:23:55.053134,0.032574933022260645
2023-01-28 10:23:55.058134,0.02440055294010688
2023-01-28 10:23:55.063134,0.011803905479609907
2023-01-28 10:23:55.068134,-0.0030734818862917543
2023-01-28 10:23:55.073134,-0.01788616180419916
2023-01-28 10:23:55.078134,-0.030635874538686596
2023-01-28 10:23:55.083134,-0.040123663842677994
2023-01-28 10:23:55.088134,-0.046275930236215894
2023-01-28 10:23:55.093134,-0.049980282783508335
2023-01-28 10:23:55.098134,-0.05235307894870067
2023-01-28 10:23:55.103134,-0.0539710149168968
2023-01-28 10:23:55.108134,-0.054554373840346365
2023-01-28 10:23:55.113134,-0.05308151245117172
2023-01-28 10:23:55.118134,-0.04825705656931658
2023-01-28 10:23:55.123134,-0.039474569261074066
2023-01-28 10:23:55.128134,-0.028063994758677456
2023-01-28 10:23:55.133134,-0.017982324585318545
2023-01-28 10:23:55.138134,-0.015224893667502045
2023-01-28 10:23:55.143134,-0.02603590488433834
2023-01-28 10:23:55.148134,-0.05452078144959934
2023-01-28 10:23:55.153134,-0.1003692597150802
2023-01-28 10:23:55.158134,-0.15762457125342222
2023-01-28 10:23:55.163134,-0.2154994010925292
2023-01-28 10:23:55.168134,-0.2613907364163333
2023-01-28 10:23:55.173134,-0.28490445017814625
2023-01-28 10:23:55.178134,-0.2811508670062642
2023-01-28 10:23:55.183134,-0.2521131634712219
2023-01-28 10:23:55.188134,-0.20571925713632078
2023-01-28 10:23:55.193134,-0.15296995639801017
2023-01-28 10:23:55.198134,-0.10426336472240506
2023-01-28 10:23:55.203134,-0.06652017682790747
2023-01-28 10:23:55.208134,-0.04216656381908456
2023-01-28 10:23:55.213134,-0.029834311455488156
2023-01-28 10:23:55.218134,-0.025933740877321667
2023-01-28 10:23:55.223134,-0.026348432525992276
2023-01-28 10:23:55.228134,-0.02774376278851183
2023-01-28 10:23:55.233134,-0.028127431869506878
2023-01-28 10:23:55.238134,-0.02668190082518442
2023-01-28 10:23:55.243134,-0.023343365639448114
2023-01-28 10:23:55.248134,-0.01853373013490538
2023-01-28 10:23:55.253134,-0.012981891632079948
2023-01-28 10:23:55.258134,-0.007435622932108823
2023-01-28 10:23:55.263134,-0.002355973003432116
2023-01-28 10:23:55.268134,0.0022106174089000226
2023-01-28 10:23:55.273134,0.006611148826777865
2023-01-28 10:23:55.278134,0.011518563276558149
2023-01-28 10:23:55.283134,0.017765959724783793
2023-01-28 10:23:55.288134,0.02606481461818879
2023-01-28 10:23:55.293134,0.03680606931447977
2023-01-28 10:23:55.298134,0.0500939355013334
2023-01-28 10:23:55.303134,0.06587108224630349
2023-01-28 10:23:55.308134,0.08394512288467842
2023-01-28 10:23:55.313134,0.10395129770040502
2023-01-28 10:23:55.318134,0.12534765318092297
2023-01-28 10:23:55.323134,0.14739255607128127
2023-01-28 10:23:55.328134,0.16906585130065244
2023-01-28 10:23:55.333134,0.1890548169612884
2023-01-28 10:23:55.338134,0.20588325081216308
2023-01-28 10:23:55.343134,0.21807174384593953
2023-01-28 10:23:55.348134,0.22424822326168145
2023-01-28 10:23:55.353134,0.2233125865459442
2023-01-28 10:23:55.358134,0.21471515869738367
2023-01-28 10:23:55.363134,0.1986950635910033
2023-01-28 10:23:55.368134,0.1763223165743424
2023-01-28 10:23:55.373134,0.14936387538909907
2023-01-28 10:23:55.378134,0.12002270713148985
2023-01-28 10:23:55.383134,0.0905366763472557
2023-01-28 10:23:55.388134,0.06273869538188324
2023-01-28 10:23:55.393134,0.03781577199697489
2023-01-28 10:23:55.398134,0.016351075066562845
2023-01-28 10:23:55.403134,-0.001514554023742619
2023-01-28 10:23:55.408134,-0.015933285799040395
2023-01-28 10:23:55.413134,-0.02718985080718988
2023-01-28 10:23:55.418134,-0.03556817592020671
2023-01-28 10:23:55.423134,-0.04137377068400376
2023-01-28 10:23:55.428134,-0.045051847593621394
2023-01-28 10:23:55.433134,-0.04716753959655755
2023-01-28 10:23:55.438134,-0.04823431744557126
2023-01-28 10:23:55.443134,-0.04863401502370821
2023-01-28 10:23:55.448134,-0.048679533475745974
2023-01-28 10:23:55.453134,-0.04858593270182599
2023-01-28 10:23:55.458134,-0.048315521628597424
2023-01-28 10:23:55.463134,-0.0476002693176269
2023-01-28 10:23:55.468134,-0.04623500476330933
2023-01-28 10:23:55.473134,-0.04428267478942868
2023-01-28 10:23:55.478134,-0.04194807704846272
2023-01-28 10:23:55.483134,-0.03937840461730944
2023-01-28 10:23:55.488134,-0.03666934021157908
2023-01-28 10:23:55.493134,-0.033921204507350845
2023-01-28 10:23:55.498134,-0.031132764883436644
2023-01-28 10:23:55.503134,-0.028103392571210747
2023-01-28 10:23:55.508134,-0.024555413729611907
2023-01-28 10:23:55.513134,-0.020290216431021565
2023-01-28 10:23:55.518134,-0.01512802789458873
2023-01-28 10:23:55.523134,-0.008798837661743069
2023-01-28 10:23:55.528134,-0.001075562315322088
2023-01-28 10:23:55.533134,0.007957419380545597
2023-01-28 10:23:55.538134,0.017795370787550457
2023-01-28 10:23:55.543134,0.02755045890808099
2023-01-28 10:23:55.548134,0.03597179443359822
2023-01-28 10:23:55.553134,0.04156609624624254
2023-01-28 10:23:55.558134,0.04300919800736152
2023-01-28 10:23:55.563134,0.039642851799726354
2023-01-28 10:23:55.568134,0.03167460059743649
2023-01-28 10:23:55.573134,0.02007385157048693
2023-01-28 10:23:55.578134,0.006410974372934049
2023-01-28 10:23:55.583134,-0.007380445953458509
2023-01-28 10:23:55.588134,-0.019499058403078796
2023-01-28 10:23:55.593134,-0.028848648071289014
2023-01-28 10:23:55.598134,-0.03525220254976175
2023-01-28 10:23:55.603134,-0.03921012207865712
2023-01-28 10:23:55.608134,-0.041475674913403704
2023-01-28 10:23:55.613134,-0.04259983822703365
2023-01-28 10:23:55.618134,-0.04246289066584965
2023-01-28 10:23:55.623134,-0.040099620819091755
2023-01-28 10:23:55.628134,-0.03426474440384612
2023-01-28 10:23:55.633134,-0.024641554802656042
2023-01-28 10:23:55.638134,-0.01296991612860548
2023-01-28 10:23:55.643134,-0.0034137568436563583
2023-01-28 10:23:55.648134,-0.0019048653762128726
2023-01-28 10:23:55.653134,-0.014424324035644531
2023-01-28 10:23:55.658134,-0.04449007159565423
2023-01-28 10:23:55.663134,-0.09082516282796849
2023-01-28 10:23:55.668134,-0.1465779982011327
2023-01-28 10:23:55.673134,-0.2007865905761718
2023-01-28 10:23:55.678134,-0.24156241958654232
2023-01-28 10:23:55.683134,-0.259782075881958
2023-01-28 10:23:55.688134,-0.25201835117895055
2023-01-28 10:23:55.693134,-0.22158166766166676
2023-01-28 10:23:55.698134,-0.1770821712281269
2023-01-28 10:23:55.703134,-0.1291217505931853
2023-01-28 10:23:55.708134,-0.08676305919082027
2023-01-28 10:23:55.713134,-0.05526920408010484
2023-01-28 10:23:55.718134,-0.035596580048369346
2023-01-28 10:23:55.723134,-0.025362771004438355
2023-01-28 10:23:55.728134,-0.020713235499869212
2023-01-28 10:23:55.733134,-0.018222730606794208
2023-01-28 10:23:55.738134,-0.01591378338491842
2023-01-28 10:23:55.743134,-0.01315017603337763
2023-01-28 10:23:55.748134,-0.010010631237696266
2023-01-28 10:23:55.753134,-0.006779432296752913
2023-01-28 10:23:55.758134,-0.0036348069728061685
2023-01-28 10:23:55.763134,-0.0004567702708299883
2023-01-28 10:23:55.768134,0.0031030875349769642
2023-01-28 10:23:55.773134,0.007308324333280275
2023-01-28 10:23:55.778134,0.012183077582744256
2023-01-28 10:23:55.783134,0.017717879265546653
2023-01-28 10:23:55.788134,0.024087017549580564
2023-01-28 10:23:55.793134,0.03158926963806142
2023-01-28 10:23:55.798134,0.04055167974574062
2023-01-28 10:23:55.803134,0.0514227151870727
2023-01-28 10:23:55.808134,0.06478942070222411
2023-01-28 10:23:55.813134,0.08108874410390848
2023-01-28 10:23:55.818134,0.10031504792466413
2023-01-28 10:23:55.823134,0.12202978134155265
2023-01-28 10:23:55.828134,0.14545003692459144
2023-01-28 10:23:55.833134,0.1693656146526336
2023-01-28 10:23:55.838134,0.19213949685637385
2023-01-28 10:23:55.843134,0.2120375633239746
2023-01-28 10:23:55.848134,0.22757477778096827
2023-01-28 10:23:55.853134,0.2375445812940597
2023-01-28 10:23:55.858134,0.24097709612187285
2023-01-28 10:23:55.863134,0.23732821643352492
2023-01-28 10:23:55.868134,0.22664443574535303
2023-01-28 10:23:55.873134,0.20941714942455286
2023-01-28 10:23:55.878134,0.1864257991289315
2023-01-28 10:23:55.883134,0.1588839292526245
2023-01-28 10:23:55.888134,0.12855475187840437
2023-01-28 10:23:55.893134,0.09746035188436497
2023-01-28 10:23:55.898134,0.0674981220631122
2023-01-28 10:23:55.903134,0.04036406800150867
2023-01-28 10:23:55.908134,0.017496149286130087
2023-01-28 10:23:55.913134,-0.0003125270304734234
2023-01-28 10:23:55.918134,-0.013223874039625456
2023-01-28 10:23:55.923134,-0.022093256935477153
2023-01-28 10:23:55.928134,-0.027985240836237303
2023-01-28 10:23:55.933134,-0.03202199935913086
2023-01-28 10:23:55.938134,-0.03532949434917363
2023-01-28 10:23:55.943134,-0.038657188415527295
2023-01-28 10:23:55.948134,-0.04205595220589971
2023-01-28 10:23:55.953134,-0.045148134231567265
2023-01-28 10:23:55.958134,-0.04758858089446913
2023-01-28 10:23:55.963134,-0.049066744744777555
2023-01-28 10:23:55.968134,-0.04914883465875764
2023-01-28 10:23:55.973134,-0.04755219072103498
2023-01-28 10:23:55.978134,-0.044488977406798934
2023-01-28 10:23:55.983134,-0.04043618962168686
2023-01-28 10:23:55.988134,-0.0357266209807334
2023-01-28 10:23:55.993134,-0.030675729736685704
2023-01-28 10:23:55.998134,-0.025858509383814874
2023-01-28 10:23:56.003134,-0.021804770454764318
2023-01-28 10:23:56.008134,-0.01856803990156651
2023-01-28 10:23:56.013134,-0.015986960381269396
2023-01-28 10:23:56.018134,-0.014124666385956932
2023-01-28 10:23:56.023134,-0.012933811172842903
2023-01-28 10:23:56.028134,-0.01169411718167091
2023-01-28 10:23:56.033134,-0.009351770393550281
2023-01-28 10:23:56.038134,-0.005265866761659064
2023-01-28 10:23:56.043134,0.0008654594421385581
2023-01-28 10:23:56.048134,0.009400615358401353
2023-01-28 10:23:56.053134,0.02017001435160625
2023-01-28 10:23:56.058134,0.03161961217585237
2023-01-28 10:23:56.063134,0.04142185300588594
2023-01-28 10:23:56.068134,0.04791613397766766
2023-01-28 10:23:56.073134,0.05019664764404292
2023-01-28 10:23:56.078134,0.04723429017883681
2023-01-28 10:23:56.083134,0.03851294517517075
2023-01-28 10:23:56.088134,0.025818155513918483
2023-01-28 10:23:56.093134,0.012789567932486496
2023-01-28 10:23:56.098134,0.0017957801477460672
2023-01-28 10:23:56.103134,-0.00766893243417141
2023-01-28 10:23:56.108134,-0.01676270447850746
2023-01-28 10:23:56.113134,-0.024833878502249666
2023-01-28 10:23:56.118134,-0.03044726187443098
2023-01-28 10:23:56.123134,-0.033776961266994414
2023-01-28 10:23:56.128134,-0.03619883487740617
2023-01-28 10:23:56.133134,-0.0377676896750926
2023-01-28 10:23:56.138134,-0.036584177043195325
2023-01-28 10:23:56.143134,-0.030771892517804985
2023-01-28 10:23:56.148134,-0.020131106754659987
2023-01-28 10:23:56.153134,-0.0062265000306068975
2023-01-28 10:23:56.158134,0.007478577663780129
2023-01-28 10:23:56.163134,0.015097459778189635
2023-01-28 10:23:56.168134,0.009406579920853947
2023-01-28 10:23:56.173134,-0.0149051351472735
2023-01-28 10:23:56.178134,-0.058186962091823294
2023-01-28 10:23:56.183134,-0.11498590558767308
2023-01-28 10:23:56.188134,-0.17509082654197022
2023-01-28 10:23:56.193134,-0.22578875720500938
2023-01-28 10:23:56.198134,-0.2554892711246042
2023-01-28 10:23:56.203134,-0.25785884261131276
2023-01-28 10:23:56.208134,-0.2340300617137641
2023-01-28 10:23:56.213134,-0.1915069520473479
2023-01-28 10:23:56.218134,-0.1409826557154803
2023-01-28 10:23:56.223134,-0.09296476840972905
2023-01-28 10:23:56.228134,-0.055008646542454756
2023-01-28 10:23:56.233134,-0.030050676316022824
2023-01-28 10:23:56.238134,-0.016652144488792823
2023-01-28 10:23:56.243134,-0.011010567657649474
2023-01-28 10:23:56.248134,-0.009156098577022372
2023-01-28 10:23:56.253134,-0.008077621459960905
2023-01-28 10:23:56.258134,-0.006019559602963518
2023-01-28 10:23:56.263134,-0.002524256706237795
2023-01-28 10:23:56.268134,0.0019034987067046173
2023-01-28 10:23:56.273134,0.006539027206599625
2023-01-28 10:23:56.278134,0.010947582990314524
2023-01-28 10:23:56.283134,0.014929175376891967
2023-01-28 10:23:56.288134,0.018415601809836958
2023-01-28 10:23:56.293134,0.021660527214407893
2023-01-28 10:23:56.298134,0.02530131006457908
2023-01-28 10:23:56.303134,0.03005067631602273
2023-01-28 10:23:56.308134,0.0364828899484115
2023-01-28 10:23:56.313134,0.0451721772551536
2023-01-28 10:23:56.318134,0.056746766512433704
2023-01-28 10:23:56.323134,0.07161676883697504
2023-01-28 10:23:56.328134,0.08978737725102147
2023-01-28 10:23:56.333134,0.11097113788127885
2023-01-28 10:23:56.338134,0.13461217642903342
2023-01-28 10:23:56.343134,0.15967726707458488
2023-01-28 10:23:56.348134,0.18466173639597408
2023-01-28 10:23:56.353134,0.20797471702098838
2023-01-28 10:23:56.358134,0.22822416155087746
2023-01-28 10:23:56.363134,0.24415573477745048
2023-01-28 10:23:56.368134,0.25462782580962257
2023-01-28 10:23:56.373134,0.25882047414779646
2023-01-28 10:23:56.378134,0.2563290465701453
2023-01-28 10:23:56.383134,0.24701654911041238
2023-01-28 10:23:56.388134,0.23101733773081562
2023-01-28 10:23:56.393134,0.20900845527648917
2023-01-28 10:23:56.398134,0.18230439464473913
2023-01-28 10:23:56.403134,0.15258531272411333
2023-01-28 10:23:56.408134,0.12163954681787832
2023-01-28 10:23:56.413134,0.0913059711456298
2023-01-28 10:23:56.418134,0.06330793358637055
2023-01-28 10:23:56.423134,0.03889759629964818
2023-01-28 10:23:56.428134,0.018692218816345904
2023-01-28 10:23:56.433134,0.002812743186950642
2023-01-28 10:23:56.438134,-0.00903881295697004
2023-01-28 10:23:56.443134,-0.01764575764536845
2023-01-28 10:23:56.448134,-0.02410433605456763
2023-01-28 10:23:56.453134,-0.02935349941253661
2023-01-28 10:23:56.458134,-0.03387570354499895
2023-01-28 10:23:56.463134,-0.03776768967509258
2023-01-28 10:23:56.468134,-0.040857625511752295
2023-01-28 10:23:56.473134,-0.042744081467389956
2023-01-28 10:23:56.478134,-0.043029265201361314
2023-01-28 10:23:56.483134,-0.0417103394865989
2023-01-28 10:23:56.488134,-0.03926669241346628
2023-01-28 10:23:56.493134,-0.03634929656982414
2023-01-28 10:23:56.498134,-0.03351369160266672
2023-01-28 10:23:56.503134,-0.031180581077933263
2023-01-28 10:23:56.508134,-0.02954276009673018
2023-01-28 10:23:56.513134,-0.028391879051923665
2023-01-28 10:23:56.518134,-0.027225202444731672
2023-01-28 10:23:56.523134,-0.02562721632421014
2023-01-28 10:23:56.528134,-0.023456824833462692
2023-01-28 10:23:56.533134,-0.02072294615209102
2023-01-28 10:23:56.538134,-0.01752613960077904
2023-01-28 10:23:56.543134,-0.014135837554931622
2023-01-28 10:23:56.548134,-0.010832645606387597
2023-01-28 10:23:56.553134,-0.0075246891938148975
2023-01-28 10:23:56.558134,-0.003650326284930969
2023-01-28 10:23:56.563134,0.001490513561293388
2023-01-28 10:23:56.568134,0.008400437510314844
2023-01-28 10:23:56.573134,0.01721302792429916
2023-01-28 10:23:56.578134,0.027421014533783997
2023-01-28 10:23:56.583134,0.03759940713644019
2023-01-28 10:23:56.588134,0.04565476299067205
2023-01-28 10:23:56.593134,0.04961967468261711
2023-01-28 10:23:56.598134,0.04832665158149329
2023-01-28 10:23:56.603134,0.04161417484283437
2023-01-28 10:23:56.608134,0.030368789177930268
2023-01-28 10:23:56.613134,0.016491811722517007
2023-01-28 10:23:56.618134,0.0024047026167812943
2023-01-28 10:23:56.623134,-0.00985662173479788
2023-01-28 10:23:56.628134,-0.01923032376911276
2023-01-28 10:23:56.633134,-0.025555094704031917
2023-01-28 10:23:56.638134,-0.029314214488635665
2023-01-28 10:23:56.643134,-0.03149310871958726
2023-01-28 10:23:56.648134,-0.03312923181550463
2023-01-28 10:23:56.653134,-0.034426055848598404
2023-01-28 10:23:56.658134,-0.034272783359363256
2023-01-28 10:23:56.663134,-0.030916135758161496
2023-01-28 10:23:56.668134,-0.02329767974010084
2023-01-28 10:23:56.673134,-0.011972188949584935
2023-01-28 10:23:56.678134,0.0007326045687736062
2023-01-28 10:23:56.683134,0.010866324417293032
2023-01-28 10:23:56.688134,0.013117413465388554
2023-01-28 10:23:56.693134,0.0016828378429636216
2023-01-28 10:23:56.698134,-0.02774360608640627
2023-01-28 10:23:56.703134,-0.0752709358930587
2023-01-28 10:23:56.708134,-0.13491368040106494
2023-01-28 10:23:56.713134,-0.1951851546764372
2023-01-28 10:23:56.718134,-0.2425352610608812
2023-01-28 10:23:56.723134,-0.2660566568374632
2023-01-28 10:23:56.728134,-0.26111895944417063
2023-01-28 10:23:56.733134,-0.2305247485637663
2023-01-28 10:23:56.738134,-0.18314487471690025
2023-01-28 10:23:56.743134,-0.13070842623710632
2023-01-28 10:23:56.748134,-0.08385563158007282
2023-01-28 10:23:56.753134,-0.04904270172119139
2023-01-28 10:23:56.758134,-0.027628661365670732
2023-01-28 10:23:56.763134,-0.01711686514317978
2023-01-28 10:23:56.768134,-0.013312044620522608
2023-01-28 10:23:56.773134,-0.012212594971060708
2023-01-28 10:23:56.778134,-0.01116692636891788
2023-01-28 10:23:56.783134,-0.009159445762634248
2023-01-28 10:23:56.788134,-0.006271409936332681
2023-01-28 10:23:56.793134,-0.0028367838822304847
2023-01-28 10:23:56.798134,0.0010040804462194864
2023-01-28 10:23:56.803134,0.005240838043391735
2023-01-28 10:23:56.808134,0.009863867785333503
2023-01-28 10:23:56.813134,0.014881094917654887
2023-01-28 10:23:56.818134,0.020303916230108805
2023-01-28 10:23:56.823134,0.02610802650451659
2023-01-28 10:23:56.828134,0.032391774526966996
2023-01-28 10:23:56.833134,0.039618812501430505
2023-01-28 10:23:56.838134,0.048573387660561886
2023-01-28 10:23:56.843134,0.06005327031016335
2023-01-28 10:23:56.848134,0.07467349202285693
2023-01-28 10:23:56.853134,0.09282052516937248
2023-01-28 10:23:56.858134,0.11447756496027599
2023-01-28 10:23:56.863134,0.138978362083435
2023-01-28 10:23:56.868134,0.1650433616106859
2023-01-28 10:23:56.873134,0.19107422232627858
2023-01-28 10:23:56.878134,0.2153459281425937
2023-01-28 10:23:56.883134,0.23607811331748946
2023-01-28 10:23:56.888134,0.25166620165391324
2023-01-28 10:23:56.893134,0.26098412275314326
2023-01-28 10:23:56.898134,0.2633927687029921
2023-01-28 10:23:56.903134,0.2585319876670836
2023-01-28 10:23:56.908134,0.24632879010491304
2023-01-28 10:23:56.913134,0.2272311896085739
2023-01-28 10:23:56.918134,0.20227391000510983
2023-01-28 10:23:56.923134,0.17292360961437214
2023-01-28 10:23:56.928134,0.14099170036918823
2023-01-28 10:23:56.933134,0.10856708139181127
2023-01-28 10:23:56.938134,0.07767033888868026
2023-01-28 10:23:56.943134,0.04978796094655988
2023-01-28 10:23:56.948134,0.025756026823338624
2023-01-28 10:23:56.953134,0.005962054245173922
2023-01-28 10:23:56.958134,-0.009576385019858732
2023-01-28 10:23:56.963134,-0.02127587795257567
2023-01-28 10:23:56.968134,-0.029834317788715883
2023-01-28 10:23:56.973134,-0.03591656684875478
2023-01-28 10:23:56.978134,-0.040082994498056315
2023-01-28 10:23:56.983134,-0.042912364006042286
2023-01-28 10:23:56.988134,-0.04490869271723704
2023-01-28 10:23:56.993134,-0.04625400155782684
2023-01-28 10:23:56.998134,-0.04684802172495119
2023-01-28 10:23:57.003134,-0.04659056663513178
2023-01-28 10:23:57.008134,-0.045457622148249006
2023-01-28 10:23:57.013134,-0.043393176048994044
2023-01-28 10:23:57.018134,-0.04042679898146016
2023-01-28 10:23:57.023134,-0.03692626953125001
2023-01-28 10:23:57.028134,-0.033498897041301476
2023-01-28 10:23:57.033134,-0.030603608116507464
2023-01-28 10:23:57.038134,-0.028405286606966684
2023-01-28 10:23:57.043134,-0.026901364326477
2023-01-28 10:23:57.048134,-0.02589247155097024
2023-01-28 10:23:57.053134,-0.024857919663190793
2023-01-28 10:23:57.058134,-0.02319970797915275
2023-01-28 10:23:57.063134,-0.02072294615209095
2023-01-28 10:23:57.068134,-0.01772272407864387
2023-01-28 10:23:57.073134,-0.014640688896179027
2023-01-28 10:23:57.078134,-0.011839949583561757
2023-01-28 10:23:57.083134,-0.009568135254085026
2023-01-28 10:23:57.088134,-0.007701757780023948
2023-01-28 10:23:57.093134,-0.005433162208646507
2023-01-28 10:23:57.098134,-0.0015433857664859543
2023-01-28 10:23:57.103134,0.004808108322322269
2023-01-28 10:23:57.108134,0.013566947611992144
2023-01-28 10:23:57.113134,0.023800134658813386
2023-01-28 10:23:57.118134,0.0338103529467469
2023-01-28 10:23:57.123134,0.04132568836212151
2023-01-28 10:23:57.128134,0.04421234568423392
2023-01-28 10:23:57.133134,0.04146993160247797
2023-01-28 10:23:57.138134,0.033599041348255795
2023-01-28 10:23:57.143134,0.02214133739471427
2023-01-28 10:23:57.148134,0.009108016488774162
2023-01-28 10:23:57.153134,-0.003389716148376424
2023-01-28 10:23:57.158134,-0.013694835990272472
2023-01-28 10:23:57.163134,-0.021251838654279636
2023-01-28 10:23:57.168134,-0.026617916918594203
2023-01-28 10:23:57.173134,-0.03077189251780491
2023-01-28 10:23:57.178134,-0.03451570336088755
2023-01-28 10:23:57.183134,-0.03824850171804416
2023-01-28 10:23:57.188134,-0.04160164169058624
2023-01-28 10:23:57.193134,-0.04300852864980686
2023-01-28 10:23:57.198134,-0.0401250058727428
2023-01-28 10:23:57.203134,-0.031300783157348556
2023-01-28 10:23:57.208134,-0.017073698702409216
2023-01-28 10:23:57.213134,-0.0008654594421385677
2023-01-28 10:23:57.218134,0.011103635379497802
2023-01-28 10:23:57.223134,0.01091440580785266
2023-01-28 10:23:57.228134,-0.008360468415104965
2023-01-28 10:23:57.233134,-0.04909078404307363
2023-01-28 10:23:57.238134,-0.10687165254387813
2023-01-28 10:23:57.243134,-0.17114460468292228
2023-01-28 10:23:57.248134,-0.2281215958153163
2023-01-28 10:23:57.253134,-0.2647825181484221
2023-01-28 10:23:57.258134,-0.2730408354500006
2023-01-28 10:23:57.263134,-0.25264203548431385
2023-01-28 10:23:57.268134,-0.210930652294043
2023-01-28 10:23:57.273134,-0.15938878059387196
2023-01-28 10:23:57.278134,-0.10929618933353238
2023-01-28 10:23:57.283134,-0.0687559470534323
2023-01-28 10:23:57.288134,-0.0413460439115073
2023-01-28 10:23:57.293134,-0.026059946045279475
2023-01-28 10:23:57.298134,-0.018865788748525573
2023-01-28 10:23:57.303134,-0.015434026718139591
2023-01-28 10:23:57.308134,-0.013021792854332914
2023-01-28 10:23:57.313134,-0.01036147307604551
2023-01-28 10:23:57.318134,-0.006900512917451715
2023-01-28 10:23:57.323134,-0.002812743186950598
2023-01-28 10:23:57.328134,0.0010302061995575969
2023-01-28 10:23:57.333134,0.004110932350158578
2023-01-28 10:23:57.338134,0.007047078435353939
2023-01-28 10:23:57.343134,0.01069804094731791
2023-01-28 10:23:57.348134,0.015044460784568272
2023-01-28 10:23:57.353134,0.01988152787089333
2023-01-28 10:23:57.358134,0.026073888400361296
2023-01-28 10:23:57.363134,0.03473858162760724
2023-01-28 10:23:57.368134,0.04530955785409366
2023-01-28 10:23:57.373134,0.055990420281887034
2023-01-28 10:23:57.378134,0.06659456141708468
2023-01-28 10:23:57.383134,0.07957419008016582
2023-01-28 10:23:57.388134,0.09738337004102204
2023-01-28 10:23:57.393134,0.11979401111602779
2023-01-28 10:23:57.398134,0.14466716888972517
2023-01-28 10:23:57.403134,0.17037531733512867
2023-01-28 10:23:57.408134,0.19615394184665524
2023-01-28 10:23:57.413134,0.22059600055217726
2023-01-28 10:23:57.418134,0.24131800518252597
2023-01-28 10:23:57.423134,0.25634428858756997
2023-01-28 10:23:57.428134,0.2648673475949505
2023-01-28 10:23:57.433134,0.26646536588668807
2023-01-28 10:23:57.438134,0.2605064689872528
2023-01-28 10:23:57.443134,0.24677614867687203
2023-01-28 10:23:57.448134,0.22608469713578055
2023-01-28 10:23:57.453134,0.1998490095138548
2023-01-28 10:23:57.458134,0.1695350031777581
2023-01-28 10:23:57.463134,0.13683876395225517
2023-01-28 10:23:57.468134,0.10390388691279663
2023-01-28 10:23:57.473134,0.07279475778341295
2023-01-28 10:23:57.478134,0.0448611295598134
2023-01-28 10:23:57.483134,0.020819108933210248
2023-01-28 10:23:57.488134,0.001106244894672623
2023-01-28 10:23:57.493134,-0.014232000336050911
2023-01-28 10:23:57.498134,-0.0257774084622037
2023-01-28 10:23:57.503134,-0.03442605584859831
2023-01-28 10:23:57.508134,-0.04085594946220755
2023-01-28 10:23:57.513134,-0.04548470303416248
2023-01-28 10:23:57.518134,-0.0487286260808778
2023-01-28 10:23:57.523134,-0.05094190686941137
2023-01-28 10:23:57.528134,-0.05218611033613678
2023-01-28 10:23:57.533134,-0.05238433927297588
2023-01-28 10:23:57.538134,-0.05167572457190584
2023-01-28 10:23:57.543134,-0.05036493390798554
2023-01-28 10:23:57.548134,-0.04858684299093656
2023-01-28 10:23:57.553134,-0.04630208015441887
2023-01-28 10:23:57.558134,-0.04358775228032959
2023-01-28 10:23:57.563134,-0.04065255448222154
2023-01-28 10:23:57.568134,-0.037575625539921886
2023-01-28 10:23:57.573134,-0.03430585190653796
2023-01-28 10:23:57.578134,-0.030938245018581036
2023-01-28 10:23:57.583134,-0.027742784470319668
2023-01-28 10:23:57.588134,-0.02490661458562894
2023-01-28 10:23:57.593134,-0.022501945495605396
2023-01-28 10:23:57.598134,-0.020729316403433774
2023-01-28 10:23:57.603134,-0.019905567169189366
2023-01-28 10:23:57.608134,-0.020098397453521953
2023-01-28 10:23:57.613134,-0.020939311012625618
2023-01-28 10:23:57.618134,-0.021799217789229733
2023-01-28 10:23:57.623134,-0.021900933235883675
2023-01-28 10:23:57.628134,-0.02024786342718115
2023-01-28 10:23:57.633134,-0.01581867597997182
2023-01-28 10:23:57.638134,-0.008128521331964046
2023-01-28 10:23:57.643134,0.002404054161161137
2023-01-28 10:23:57.648134,0.014586071772001078
2023-01-28 10:23:57.653134,0.026709040626883562
2023-01-28 10:23:57.658134,0.03672352119774178
2023-01-28 10:23:57.663134,0.042647920548915766
2023-01-28 10:23:57.668134,0.04326177083761551
2023-01-28 10:23:57.673134,0.038512945175170794
2023-01-28 10:23:57.678134,0.0293219232690692
2023-01-28 10:23:57.683134,0.01718898676335812
2023-01-28 10:23:57.688134,0.003932893635249421
2023-01-28 10:23:57.693134,-0.008678635582327817
2023-01-28 10:23:57.698134,-0.01948755640683768
2023-01-28 10:23:57.703134,-0.02819955348968503
2023-01-28 10:23:57.708134,-0.035071500015073725
2023-01-28 10:23:57.713134,-0.04048427194356908
2023-01-28 10:23:57.718134,-0.044759023369911714
2023-01-28 10:23:57.723134,-0.047936838120221995
2023-01-28 10:23:57.728134,-0.04936980999244274
2023-01-28 10:23:57.733134,-0.04764835163950915
2023-01-28 10:23:57.738134,-0.041272254901175455
2023-01-28 10:23:57.743134,-0.02969006821513174
2023-01-28 10:23:57.748134,-0.014183553036585052
2023-01-28 10:23:57.753134,0.0015145540237425999
2023-01-28 10:23:57.758134,0.011168736523855012
2023-01-28 10:23:57.763134,0.007332365028560133
2023-01-28 10:23:57.768134,-0.015859658854706006
2023-01-28 10:23:57.773134,-0.059644579887390047
2023-01-28 10:23:57.778134,-0.1189855177560259
2023-01-28 10:23:57.783134,-0.18309275805950154
2023-01-28 10:23:57.788134,-0.23805469201262813
2023-01-28 10:23:57.793134,-0.2710811495780943
2023-01-28 10:23:57.798134,-0.27497778689203384
2023-01-28 10:23:57.803134,-0.2506466805934905
2023-01-28 10:23:57.808134,-0.20622470366384005
2023-01-28 10:23:57.813134,-0.15359501540660842
2023-01-28 10:23:57.818134,-0.10423183691325046
2023-01-28 10:23:57.823134,-0.06591916084289548
2023-01-28 10:23:57.828134,-0.041184405911251824
2023-01-28 10:23:57.833134,-0.02791106700897209
2023-01-28 10:23:57.838134,-0.021705435694405868
2023-01-28 10:23:57.843134,-0.018439095467328984
2023-01-28 10:23:57.848134,-0.01553509201036444
2023-01-28 10:23:57.853134,-0.011996230110525932
2023-01-28 10:23:57.858134,-0.007963588271097234
2023-01-28 10:23:57.863134,-0.004110932350158543
2023-01-28 10:23:57.868134,-0.0008875389670711616
2023-01-28 10:23:57.873134,0.001923243282362869
2023-01-28 10:23:57.878134,0.004927775514148985
2023-01-28 10:23:57.883134,0.008606513962149587
2023-01-28 10:23:57.888134,0.013239102410751078
2023-01-28 10:23:57.893134,0.019088190048932998
2023-01-28 10:23:57.898134,0.026321379022372766
2023-01-28 10:23:57.903134,0.03488282486796367
2023-01-28 10:23:57.908134,0.044789156610559655
2023-01-28 10:23:57.913134,0.05651931092143041
2023-01-28 10:23:57.918134,0.0708479568073065
2023-01-28 10:23:57.923134,0.08832494914531688
2023-01-28 10:23:57.928134,0.10907050438374133
2023-01-28 10:23:57.933134,0.13282398879528026
2023-01-28 10:23:57.938134,0.1587424339180226
2023-01-28 10:23:57.943134,0.18516024947166423
2023-01-28 10:23:57.948134,0.2099288960915167
2023-01-28 10:23:57.953134,0.23112575709819777
2023-01-28 10:23:57.958134,0.2473401783519144
2023-01-28 10:23:57.963134,0.2574982345104215
2023-01-28 10:23:57.968134,0.26087043120013015
2023-01-28 10:23:57.973134,0.25730592012405373
2023-01-28 10:23:57.978134,0.24712682610671632
2023-01-28 10:23:57.983134,0.23074111342430098
2023-01-28 10:23:57.988134,0.20866259951428578
2023-01-28 10:23:57.993134,0.1819388121366499
2023-01-28 10:23:57.998134,0.15219700379723092
2023-01-28 10:23:58.003134,0.1211402863264082
2023-01-28 10:23:58.008134,0.09025852466831913
2023-01-28 10:23:58.013134,0.06103893369436249
2023-01-28 10:23:58.018134,0.03495761727024338
2023-01-28 10:23:58.023134,0.012909770011901784
2023-01-28 10:23:58.028134,-0.005121061847481991
2023-01-28 10:23:58.033134,-0.01954495906829829
2023-01-28 10:23:58.038134,-0.030522334330158645
2023-01-28 10:23:58.043134,-0.0381523370742797
2023-01-28 10:23:58.048134,-0.043120996133519524
2023-01-28 10:23:58.053134,-0.04666268825530999
2023-01-28 10:23:58.058134,-0.049697707217139925
2023-01-28 10:23:58.063134,-0.05224009603261933
2023-01-28 10:23:58.068134,-0.05380066748746529
2023-01-28 10:23:58.073134,-0.05416333675384516
2023-01-28 10:23:58.078134,-0.05353854845610503
2023-01-28 10:23:58.083134,-0.05209585279226294
2023-01-28 10:23:58.088134,-0.049711361785494866
2023-01-28 10:23:58.093134,-0.04630208015441887
2023-01-28 10:23:58.098134,-0.04218398515023685
2023-01-28 10:23:58.103134,-0.037911932915449024
2023-01-28 10:23:58.108134,-0.03390275797589398
2023-01-28 10:23:58.113134,-0.03041128441691385
2023-01-28 10:23:58.118134,-0.027746514613249302
2023-01-28 10:23:58.123134,-0.026204189285635882
2023-01-28 10:23:58.128134,-0.02575024509842634
2023-01-28 10:23:58.133134,-0.025987824425101117
2023-01-28 10:23:58.138134,-0.02647900816995416
2023-01-28 10:23:58.143134,-0.026925405487418057
2023-01-28 10:23:58.148134,-0.027060315759600845
2023-01-28 10:23:58.153134,-0.02666096016764636
2023-01-28 10:23:58.158134,-0.02576921964078132
2023-01-28 10:23:58.163134,-0.02464155480265601
2023-01-28 10:23:58.168134,-0.023295971572754818
2023-01-28 10:23:58.173134,-0.021227797493338474
2023-01-28 10:23:58.178134,-0.017651405142697085
2023-01-28 10:23:58.183134,-0.011900067329406778
2023-01-28 10:23:58.188134,-0.0036660302148405054
2023-01-28 10:23:58.193134,0.0067073106765747036
2023-01-28 10:23:58.198134,0.017866270309662067
2023-01-28 10:23:58.203134,0.02757450006902208
2023-01-28 10:23:58.208134,0.033540064270328046
2023-01-28 10:23:58.213134,0.03428181260824197
2023-01-28 10:23:58.218134,0.029436419935920752
2023-01-28 10:23:58.223134,0.019713243469595867
2023-01-28 10:23:58.228134,0.006798160896466687
2023-01-28 10:23:58.233134,-0.0070438785478472155
2023-01-28 10:23:58.238134,-0.019770935124061886
2023-01-28 10:23:58.243134,-0.030170878395438052
2023-01-28 10:23:58.248134,-0.037824949075422984
2023-01-28 10:23:58.253134,-0.042840242385864216
2023-01-28 10:23:58.258134,-0.045795599995167434
2023-01-28 10:23:58.263134,-0.04757623001933089
2023-01-28 10:23:58.268134,-0.04876247257001705
2023-01-28 10:23:58.273134,-0.04906674474477759
2023-01-28 10:23:58.278134,-0.04743139550567406
2023-01-28 10:23:58.283134,-0.042623877525329416
2023-01-28 10:23:58.288134,-0.03394065851226608
2023-01-28 10:23:58.293134,-0.022117298096418332
2023-01-28 10:23:58.298134,-0.010343098132077923
2023-01-28 10:23:58.303134,-0.004399418830871536
2023-01-28 10:23:58.308134,-0.011071109407848872
2023-01-28 10:23:58.313134,-0.0353636369109153
2023-01-28 10:23:58.318134,-0.07792411482441183
2023-01-28 10:23:58.323134,-0.13368944823741902
2023-01-28 10:23:58.328134,-0.19232728781775843
2023-01-28 10:23:58.333134,-0.24086217582225783
2023-01-28 10:23:58.338134,-0.2679645100936008
2023-01-28 10:23:58.343134,-0.26795586943626387
2023-01-28 10:23:58.348134,-0.2424808479362997
2023-01-28 10:23:58.353134,-0.1993682086467741
2023-01-28 10:23:58.358134,-0.14962058532442188
2023-01-28 10:23:58.363134,-0.10373493283987034
2023-01-28 10:23:58.368134,-0.0685684795161519
2023-01-28 10:23:58.373134,-0.04603763669729225
2023-01-28 10:23:58.378134,-0.03409425887505819
2023-01-28 10:23:58.383134,-0.028896730393171272
2023-01-28 10:23:58.388134,-0.026661385665627306
2023-01-28 10:23:58.393134,-0.024689635261893224
2023-01-28 10:23:58.398134,-0.02180379646887889
2023-01-28 10:23:58.403134,-0.01817464828491215
2023-01-28 10:23:58.408134,-0.014519968010765893
2023-01-28 10:23:58.413134,-0.011299054138362422
2023-01-28 10:23:58.418134,-0.008535570336736742
2023-01-28 10:23:58.423134,-0.006010135170072364
2023-01-28 10:23:58.428134,-0.003273447659180585
2023-01-28 10:23:58.433134,0.0003606081008911322
2023-01-28 10:23:58.438134,0.005464708073440446
2023-01-28 10:23:58.443134,0.012140473350882468
2023-01-28 10:23:58.448134,0.0201999593700359
2023-01-28 10:23:58.453134,0.029617946594953412
2023-01-28 10:23:58.458134,0.040644905695535624
2023-01-28 10:23:58.463134,0.05365848541259758
2023-01-28 10:23:58.468134,0.06914677975805945
2023-01-28 10:23:58.473134,0.08762776851654043
2023-01-28 10:23:58.478134,0.10917446065876314
2023-01-28 10:23:58.483134,0.1329682320356368
2023-01-28 10:23:58.488134,0.15747669435977377
2023-01-28 10:23:58.493134,0.18097719550132735
2023-01-28 10:23:58.498134,0.20177618575660566
2023-01-28 10:23:58.503134,0.21821598708629597
2023-01-28 10:23:58.508134,0.2289237482691176
2023-01-28 10:23:58.513134,0.23309707641601551
2023-01-28 10:23:58.518134,0.230365908641738
2023-01-28 10:23:58.523134,0.22052387893199904
2023-01-28 10:23:58.528134,0.20370817336714855
2023-01-28 10:23:58.533134,0.18078486621379847
2023-01-28 10:23:58.538134,0.15328773535803106
2023-01-28 10:23:58.543134,0.12301544845104208
2023-01-28 10:23:58.548134,0.09185517057345498
2023-01-28 10:23:58.553134,0.06176014989614478
2023-01-28 10:23:58.558134,0.03442908661830992
2023-01-28 10:23:58.563134,0.010890364646911607
2023-01-28 10:23:58.568134,-0.008462739251227832
2023-01-28 10:23:58.573134,-0.023559730499982782
2023-01-28 10:23:58.578134,-0.034641944402354644
2023-01-28 10:23:58.583134,-0.042431555688381035
2023-01-28 10:23:58.588134,-0.04793271237980497
2023-01-28 10:23:58.593134,-0.05199968814849848
2023-01-28 10:23:58.598134,-0.05524627216772275
2023-01-28 10:23:58.603134,-0.05820214748382555
2023-01-28 10:23:58.608134,-0.06117805517619483
2023-01-28 10:23:58.613134,-0.06397187709808336
2023-01-28 10:23:58.618134,-0.066007319034739
2023-01-28 10:23:58.623134,-0.06680866330862031
2023-01-28 10:23:58.628134,-0.06618219362848418
2023-01-28 10:23:58.633134,-0.06409208476543411
2023-01-28 10:23:58.638134,-0.06073885028145703
2023-01-28 10:23:58.643134,-0.05675971508026111
2023-01-28 10:23:58.648134,-0.05299430114212151
2023-01-28 10:23:58.653134,-0.049932204186916275
2023-01-28 10:23:58.658134,-0.047548738540304385
2023-01-28 10:23:58.663134,-0.04560490697622297
2023-01-28 10:23:58.668134,-0.043811591233700785
2023-01-28 10:23:58.673134,-0.04175841808319086
2023-01-28 10:23:58.678134,-0.03910854253445175
2023-01-28 10:23:58.683134,-0.036012731492519275
2023-01-28 10:23:58.688134,-0.033049054003064585
2023-01-28 10:23:58.693134,-0.03060360811650747
2023-01-28 10:23:58.698134,-0.028479717059263564
2023-01-28 10:23:58.703134,-0.02610802650451664
2023-01-28 10:23:58.708134,-0.022808919072939856
2023-01-28 10:23:58.713134,-0.017790000885724983
2023-01-28 10:23:58.718134,-0.010401318940402556
2023-01-28 10:23:58.723134,-0.0008895000210030635
2023-01-28 10:23:58.728134,0.009183456530721978
2023-01-28 10:23:58.733134,0.01762171648442738
2023-01-28 10:23:58.738134,0.022767650849448207
2023-01-28 10:23:58.743134,0.02392033860087392
2023-01-28 10:23:58.748134,0.020856290865002812
2023-01-28 10:23:58.753134,0.013510784134268712
2023-01-28 10:23:58.758134,0.002440539319720363
2023-01-28 10:23:58.763134,-0.010673999786376858
2023-01-28 10:23:58.768134,-0.023484839144390115
2023-01-28 10:23:58.773134,-0.034161608666181516
2023-01-28 10:23:58.778134,-0.04212389752343758
2023-01-28 10:23:58.783134,-0.047768555581569644
2023-01-28 10:23:58.788134,-0.051834582454637845
2023-01-28 10:23:58.793134,-0.05507687851786612
2023-01-28 10:23:58.798134,-0.05800747599288292
2023-01-28 10:23:58.803134,-0.060317717492580344
2023-01-28 10:23:58.808134,-0.060499395953520184
2023-01-28 10:23:58.813134,-0.056495271623134495
2023-01-28 10:23:58.818134,-0.047203802901152
2023-01-28 10:23:58.823134,-0.03380100056529037
2023-01-28 10:23:58.828134,-0.02022681039432522
2023-01-28 10:23:58.833134,-0.012789567932486456
2023-01-28 10:23:58.838134,-0.018687087595256117
2023-01-28 10:23:58.843134,-0.04329701513051975
2023-01-28 10:23:58.848134,-0.08720966147611009
2023-01-28 10:23:58.853134,-0.1448202133178709
2023-01-28 10:23:58.858134,-0.20542736485281468
2023-01-28 10:23:58.863134,-0.2562240958213805
2023-01-28 10:23:58.868134,-0.28602621220559776
2023-01-28 10:23:58.873134,-0.288726896047592
2023-01-28 10:23:58.878134,-0.26524049786802756
2023-01-28 10:23:58.883134,-0.22280773520469654
2023-01-28 10:23:58.888134,-0.17195799520812677
2023-01-28 10:23:58.893134,-0.12291928380727754
2023-01-28 10:23:58.898134,-0.0830608579148653
2023-01-28 10:23:58.903134,-0.05572597309947006
2023-01-28 10:23:58.908134,-0.04033440261325171
2023-01-28 10:23:58.913134,-0.03370483964681615
2023-01-28 10:23:58.918134,-0.031992167724663526
2023-01-28 10:23:58.923134,-0.032070081681013135
2023-01-28 10:23:58.928134,-0.031877170722406964
2023-01-28 10:23:58.933134,-0.030339162796735764
2023-01-28 10:23:58.938134,-0.02734894720718142
2023-01-28 10:23:58.943134,-0.02351164817810055
2023-01-28 10:23:58.948134,-0.019544263294570683
2023-01-28 10:23:58.953134,-0.01589079760015012
2023-01-28 10:23:58.958134,-0.012798329686691895
2023-01-28 10:23:58.963134,-0.010337432846427068
2023-01-28 10:23:58.968134,-0.00813653201771507
2023-01-28 10:23:58.973134,-0.00536104058846836
2023-01-28 10:23:58.978134,-0.0011587243282888265
2023-01-28 10:23:58.983134,0.0050244731828570175
2023-01-28 10:23:58.988134,0.013588398105371519
2023-01-28 10:23:58.993134,0.02488195896148683
2023-01-28 10:23:58.998134,0.03896678163744344
2023-01-28 10:23:59.003134,0.05550960823893535
2023-01-28 10:23:59.008134,0.07405017741023899
2023-01-28 10:23:59.013134,0.09414275735616676
2023-01-28 10:23:59.018134,0.11511026381513026
2023-01-28 10:23:59.023134,0.13590118288993824
2023-01-28 10:23:59.028134,0.15531227594217303
2023-01-28 10:23:59.033134,0.17213027179241172
2023-01-28 10:23:59.038134,0.18500146096252437
2023-01-28 10:23:59.043134,0.19251665472984306
2023-01-28 10:23:59.048134,0.1936773738958425
2023-01-28 10:23:59.053134,0.1881893575191496
2023-01-28 10:23:59.058134,0.1763360624312527
2023-01-28 10:23:59.063134,0.15888392925262446
2023-01-28 10:23:59.068134,0.1371681669260866
2023-01-28 10:23:59.073134,0.11289437860250467
2023-01-28 10:23:59.078134,0.08762137759226893
2023-01-28 10:23:59.083134,0.06255348771810527
2023-01-28 10:23:59.088134,0.0387783316159887
2023-01-28 10:23:59.093134,0.017333230003714527
2023-01-28 10:23:59.098134,-0.0010787303911648156
2023-01-28 10:23:59.103134,-0.016179284080862843
2023-01-28 10:23:59.108134,-0.027903177832597454
2023-01-28 10:23:59.113134,-0.036421418190002386
2023-01-28 10:23:59.118134,-0.04240159708661612
2023-01-28 10:23:59.123134,-0.04685501381754862
2023-01-28 10:23:59.128134,-0.050562147217499326
2023-01-28 10:23:59.133134,-0.05382677167654039
2023-01-28 10:23:59.138134,-0.05670474972753847
2023-01-28 10:23:59.143134,-0.05909164994955069
2023-01-28 10:23:59.148134,-0.06060810410100783
2023-01-28 10:23:59.153134,-0.060846608132123906
2023-01-28 10:23:59.158134,-0.05984476448828792
2023-01-28 10:23:59.163134,-0.05803386494517319
2023-01-28 10:23:59.168134,-0.05576045359664797
2023-01-28 10:23:59.173134,-0.053201716393232276
2023-01-28 10:23:59.178134,-0.0506437747881817
2023-01-28 10:23:59.183134,-0.048369567841291435
2023-01-28 10:23:59.188134,-0.046286695507139305
2023-01-28 10:23:59.193134,-0.04409035295248032
2023-01-28 10:23:59.198134,-0.041736035298434664
2023-01-28 10:23:59.203134,-0.03930628299713129
2023-01-28 10:23:59.208134,-0.03650034715217595
2023-01-28 10:23:59.213134,-0.03274321556091301
2023-01-28 10:23:59.218134,-0.027716439426607464
2023-01-28 10:23:59.223134,-0.021323960274457883
2023-01-28 10:23:59.228134,-0.01334701486476142
2023-01-28 10:23:59.233134,-0.0037743649445474148
2023-01-28 10:23:59.238134,0.006607427125255213
2023-01-28 10:23:59.243134,0.016515851020812874
2023-01-28 10:23:59.248134,0.024920953457061946
2023-01-28 10:23:59.253134,0.030964216217398585
2023-01-28 10:23:59.258134,0.03349028758448562
2023-01-28 10:23:59.263134,0.031517148017883245
2023-01-28 10:23:59.268134,0.025110909609729646
2023-01-28 10:23:59.273134,0.015193621627986346
2023-01-28 10:23:59.278134,0.0028065398976083317
2023-01-28 10:23:59.283134,-0.010698040947317935
2023-01-28 10:23:59.288134,-0.023233423584513996
2023-01-28 10:23:59.293134,-0.03291150182485573
2023-01-28 10:23:59.298134,-0.03934775639370267
2023-01-28 10:23:59.303134,-0.04327297210693342
2023-01-28 10:23:59.308134,-0.0452514560628501
2023-01-28 10:23:59.313134,-0.04565298557281481
2023-01-28 10:23:59.318134,-0.04511704126624858
2023-01-28 10:23:59.323134,-0.04356145858764633
2023-01-28 10:23:59.328134,-0.039219168441867645
2023-01-28 10:23:59.333134,-0.030387243255972758
2023-01-28 10:23:59.338134,-0.01821293916082059
2023-01-28 10:23:59.343134,-0.00680347299203266
2023-01-28 10:23:59.348134,-0.0014288463558354346
2023-01-28 10:23:59.353134,-0.007981459610164077
2023-01-28 10:23:59.358134,-0.03231221837727757
2023-01-28 10:23:59.363134,-0.07625659555196755
2023-01-28 10:23:59.368134,-0.1335950598063309
2023-01-28 10:23:59.373134,-0.19210796058177929
2023-01-28 10:23:59.378134,-0.2397319243142201
2023-01-28 10:23:59.383134,-0.26723465323448164
2023-01-28 10:23:59.388134,-0.2676757387636309
2023-01-28 10:23:59.393134,-0.2396841943264006
2023-01-28 10:23:59.398134,-0.1927326082451521
2023-01-28 10:23:59.403134,-0.14354607462882985
2023-01-28 10:23:59.408134,-0.10350330960512819
2023-01-28 10:23:59.413134,-0.07241010665893546
2023-01-28 10:23:59.418134,-0.04650591784236413
2023-01-28 10:23:59.423134,-0.02752641960978508
2023-01-28 10:23:59.428134,-0.019309502861350806
2023-01-28 10:23:59.433134,-0.019376676529645854
2023-01-28 10:23:59.438134,-0.020225434041741378
2023-01-28 10:23:59.443134,-0.017910202965140332
2023-01-28 10:23:59.448134,-0.014181997910288657
2023-01-28 10:23:59.453134,-0.010698040947318039
2023-01-28 10:23:59.458134,-0.006296997593903881
2023-01-28 10:23:59.463134,-0.0005769729614256865
2023-01-28 10:23:59.468134,0.004429101040931774
2023-01-28 10:23:59.473134,0.007644891738891677
2023-01-28 10:23:59.478134,0.010671072649563797
2023-01-28 10:23:59.483134,0.01483301352709528
2023-01-28 10:23:59.488134,0.019378108116915295
2023-01-28 10:23:59.493134,0.023800134658813362
2023-01-28 10:23:59.498134,0.02934250912428818
2023-01-28 10:23:59.503134,0.03695031255483619
2023-01-28 10:23:59.508134,0.04603263322111146
2023-01-28 10:23:59.513134,0.056471228599548264
2023-01-28 10:23:59.518134,0.06979060394803673
2023-01-28 10:23:59.523134,0.08712291717529286
2023-01-28 10:23:59.528134,0.10774545586721368
2023-01-28 10:23:59.533134,0.13054013252258295
2023-01-28 10:23:59.538134,0.1550217474803112
2023-01-28 10:23:59.543134,0.17984728515148155
2023-01-28 10:23:59.548134,0.2020271529608093
2023-01-28 10:23:59.553134,0.21881699562072737
2023-01-28 10:23:59.558134,0.2291407558184632
2023-01-28 10:23:59.563134,0.2324720323085784
2023-01-28 10:23:59.568134,0.22797755213195345
2023-01-28 10:23:59.573134,0.21578788757324202
2023-01-28 10:23:59.578134,0.19770148225564987
2023-01-28 10:23:59.583134,0.17561614513397208
2023-01-28 10:23:59.588134,0.15042706720608315
2023-01-28 10:23:59.593134,0.12318372726440419
2023-01-28 10:23:59.598134,0.09592814450960009
2023-01-28 10:23:59.603134,0.07043878734111779
2023-01-28 10:23:59.608134,0.04728929399738227
2023-01-28 10:23:59.613134,0.02690136432647696
2023-01-28 10:23:59.618134,0.010280025426656972
2023-01-28 10:23:59.623134,-0.0021396081428974203
2023-01-28 10:23:59.628134,-0.011231556302649257
2023-01-28 10:23:59.633134,-0.017958283424377407
2023-01-28 10:23:59.638134,-0.02246777086926542
2023-01-28 10:23:59.643134,-0.025074284523725447
2023-01-28 10:23:59.648134,-0.026932502732894537
2023-01-28 10:23:59.653134,-0.028872689232230127
2023-01-28 10:23:59.658134,-0.030547053263363873
2023-01-28 10:23:59.663134,-0.03144502639770502
2023-01-28 10:23:59.668134,-0.03175301919967674
2023-01-28 10:23:59.673134,-0.03156523033976548
2023-01-28 10:23:59.678134,-0.03036430565641821
2023-01-28 10:23:59.683134,-0.028079351410269755
2023-01-28 10:23:59.688134,-0.025664789818594717
2023-01-28 10:23:59.693134,-0.023848216980695718
2023-01-28 10:23:59.698134,-0.022185624914284646
2023-01-28 10:23:59.703134,-0.02000172995030872
2023-01-28 10:23:59.708134,-0.0173212560125536
2023-01-28 10:23:59.713134,-0.014256040565669523
2023-01-28 10:23:59.718134,-0.010520276419857385
2023-01-28 10:23:59.723134,-0.006298621650785245
2023-01-28 10:23:59.728134,-0.0026105878848030908
2023-01-28 10:23:59.733134,2.4040540665666297e-05
2023-01-28 10:23:59.738134,0.0025315766910690577
2023-01-28 10:23:59.743134,0.006298621650785179
2023-01-28 10:23:59.748134,0.012059988364218722
2023-01-28 10:23:59.753134,0.020194053649902264
2023-01-28 10:23:59.758134,0.030911750310510966
2023-01-28 10:23:59.763134,0.043224893510341623
2023-01-28 10:23:59.768134,0.054542867764157885
2023-01-28 10:23:59.773134,0.062144797295331934
2023-01-28 10:23:59.778134,0.06456719971734265
2023-01-28 10:23:59.783134,0.061327420175075545
2023-01-28 10:23:59.788134,0.05251281175193287
2023-01-28 10:23:59.793134,0.03947456926107399
2023-01-28 10:23:59.798134,0.02497185911566953
2023-01-28 10:23:59.803134,0.011635622009634914
2023-01-28 10:23:59.808134,0.0006977132788196058
2023-01-28 10:23:59.813134,-0.00750064849853508
2023-01-28 10:23:59.818134,-0.01282678177719595
2023-01-28 10:23:59.823134,-0.015842717140913
2023-01-28 10:23:59.828134,-0.017891729206064536
2023-01-28 10:23:59.833134,-0.0196651630103588
2023-01-28 10:23:59.838134,-0.020182953493058743
2023-01-28 10:23:59.843134,-0.017741918563842694
2023-01-28 10:23:59.848134,-0.011250142868181934
2023-01-28 10:23:59.853134,-0.0004808108205907189
2023-01-28 10:23:59.858134,0.01347365904137553
2023-01-28 10:23:59.863134,0.026781162247061705
2023-01-28 10:23:59.868134,0.03270340348536891
2023-01-28 10:23:59.873134,0.02423286437988285
2023-01-28 10:23:59.878134,-0.002578654723319268
2023-01-28 10:23:59.883134,-0.047023296356201096
2023-01-28 10:23:59.888134,-0.1034139466199817
2023-01-28 10:23:59.893134,-0.16136011481285087
2023-01-28 10:23:59.898134,-0.20809831353784852
2023-01-28 10:23:59.903134,-0.23319324851036063
2023-01-28 10:23:59.908134,-0.23242973891540805
2023-01-28 10:23:59.913134,-0.20819108188152305
2023-01-28 10:23:59.918134,-0.16756437004662922
2023-01-28 10:23:59.923134,-0.12027482688426971
2023-01-28 10:23:59.928134,-0.07612449465039661
2023-01-28 10:23:59.933134,-0.04173437878489492
2023-01-28 10:23:59.938134,-0.018902007448817235
2023-01-28 10:23:59.943134,-0.006010135170072308
2023-01-28 10:23:59.948134,-0.000258769954595986
2023-01-28 10:23:59.953134,0.0015626351814717243
2023-01-28 10:23:59.958134,0.0026983706229060734
2023-01-28 10:23:59.963134,0.005096594803035221
2023-01-28 10:23:59.968134,0.008675882588948221
2023-01-28 10:23:59.973134,0.012573203071951828
2023-01-28 10:23:59.978134,0.01651023467314733
2023-01-28 10:23:59.983134,0.02043445967137806
2023-01-28 10:23:59.988134,0.02392571331768274
2023-01-28 10:23:59.993134,0.02699752710759634
2023-01-28 10:23:59.998134,0.03069619879670852
2023-01-28 10:24:00.003134,0.035916566848754786
2023-01-28 10:24:00.008134,0.04232337755630571
2023-01-28 10:24:00.013134,0.04933118820190423
2023-01-28 10:24:00.018134,0.05736540232723814
2023-01-28 10:24:00.023134,0.06724139302968975
2023-01-28 10:24:00.028134,0.07918845166481261
2023-01-28 10:24:00.033134,0.09354174137115474
2023-01-28 10:24:00.038134,0.1114388794134204
2023-01-28 10:24:00.043134,0.13344904780387873
2023-01-28 10:24:00.048134,0.158141213793435
2023-01-28 10:24:00.053134,0.18323700129985793
2023-01-28 10:24:00.058134,0.20744066586343493
2023-01-28 10:24:00.063134,0.22975544631481165
2023-01-28 10:24:00.068134,0.2478547250491696
2023-01-28 10:24:00.073134,0.2591329813003539
2023-01-28 10:24:00.078134,0.2632363225543386
2023-01-28 10:24:00.083134,0.2617534101009368
2023-01-28 10:24:00.088134,0.25525295596444336
2023-01-28 10:24:00.093134,0.24232864379882796
2023-01-28 10:24:00.098134,0.2220766456043212
2023-01-28 10:24:00.103134,0.19609868526458724
2023-01-28 10:24:00.108134,0.16733551449430895
2023-01-28 10:24:00.113134,0.13796865940093983
2023-01-28 10:24:00.118134,0.10917395396389461
2023-01-28 10:24:00.123134,0.0820263251662254
2023-01-28 10:24:00.128134,0.057661883234190636
2023-01-28 10:24:00.133134,0.03680606931447973
2023-01-28 10:24:00.138134,0.01971528220413169
2023-01-28 10:24:00.143134,0.006442864891141567
2023-01-28 10:24:00.148134,-0.00316518487578476
2023-01-28 10:24:00.153134,-0.009616216644644685
2023-01-28 10:24:00.158134,-0.013717790586008234
2023-01-28 10:24:00.163134,-0.016419690102338697
2023-01-28 10:24:00.168134,-0.018630333799909384
2023-01-28 10:24:00.173134,-0.020915269851684522
2023-01-28 10:24:00.178134,-0.0232935347341644
2023-01-28 10:24:00.183134,-0.025410851463675412
2023-01-28 10:24:00.188134,-0.026825065112521675
2023-01-28 10:24:00.193134,-0.027069648727774637
2023-01-28 10:24:00.198134,-0.025766284545289498
2023-01-28 10:24:00.203134,-0.023006796836853013
2023-01-28 10:24:00.208134,-0.019484323950739024
2023-01-28 10:24:00.213134,-0.016010999679565378
2023-01-28 10:24:00.218134,-0.013033370031691745
2023-01-28 10:24:00.223134,-0.010698040947318006
2023-01-28 10:24:00.228134,-0.009011612758397045
2023-01-28 10:24:00.233134,-0.007668932434171325
2023-01-28 10:24:00.238134,-0.006076030892539298
2023-01-28 10:24:00.243134,-0.0038945674896239996
2023-01-28 10:24:00.248134,-0.00132337783048528
2023-01-28 10:24:00.253134,0.0014183919411152601
2023-01-28 10:24:00.258134,0.004607594100699335
2023-01-28 10:24:00.263134,0.008798837661743164
2023-01-28 10:24:00.268134,0.014439274372118442
2023-01-28 10:24:00.273134,0.02190093323588375
2023-01-28 10:24:00.278134,0.03137298440784362
2023-01-28 10:24:00.283134,0.04223923012614252
2023-01-28 10:24:00.288134,0.05282320129006484
2023-01-28 10:24:00.293134,0.06111105531454084
2023-01-28 10:24:00.298134,0.06556964341247508
2023-01-28 10:24:00.303134,0.06524603068828584
2023-01-28 10:24:00.308134,0.05975188661490181
2023-01-28 10:24:00.313134,0.04969179630279546
2023-01-28 10:24:00.318134,0.03677261380517374
2023-01-28 10:24:00.323134,0.023030837997794103
2023-01-28 10:24:00.328134,0.01008369059965877
2023-01-28 10:24:00.333134,-0.0008414189214818274
2023-01-28 10:24:00.338134,-0.008845110376635228
2023-01-28 10:24:00.343134,-0.01387139223515979
2023-01-28 10:24:00.348134,-0.016889494053666996
2023-01-28 10:24:00.353134,-0.019016068428754793
2023-01-28 10:24:00.358134,-0.020550059813558997
2023-01-28 10:24:00.363134,-0.020939311012625597
2023-01-28 10:24:00.368134,-0.01914780308889932
2023-01-28 10:24:00.373134,-0.013823310844600235
2023-01-28 10:24:00.378134,-0.00399001669673509
2023-01-28 10:24:00.383134,0.009351770393550262
2023-01-28 10:24:00.388134,0.02213490978592057
2023-01-28 10:24:00.393134,0.028007229790091542
2023-01-28 10:24:00.398134,0.020412130950743398
2023-01-28 10:24:00.403134,-0.005192756652832045
2023-01-28 10:24:00.408134,-0.04915480280528035
2023-01-28 10:24:00.413134,-0.10592262446880342
2023-01-28 10:24:00.418134,-0.1645007264005869
2023-01-28 10:24:00.423134,-0.21184524893760676
2023-01-28 10:24:00.428134,-0.23736352859753027
2023-01-28 10:24:00.433134,-0.23607811331748954
2023-01-28 10:24:00.438134,-0.20978236337354927
2023-01-28 10:24:00.443134,-0.16638457775115956
2023-01-28 10:24:00.448134,-0.11717127066892946
2023-01-28 10:24:00.453134,-0.07257839292287822
2023-01-28 10:24:00.458134,-0.03885821938262051
2023-01-28 10:24:00.463134,-0.017477473244071024
2023-01-28 10:24:00.468134,-0.0064658292857336045
2023-01-28 10:24:00.473134,-0.002043446060269995
2023-01-28 10:24:00.478134,-0.0001935994141685645
2023-01-28 10:24:00.483134,0.0017790000420062786
2023-01-28 10:24:00.488134,0.004658850224647684
2023-01-28 10:24:00.493134,0.008197824470698872
2023-01-28 10:24:00.498134,0.012178594583281474
2023-01-28 10:24:00.503134,0.01646777056157584
2023-01-28 10:24:00.508134,0.020739549456416418
2023-01-28 10:24:00.513134,0.024809837341308545
2023-01-28 10:24:00.518134,0.028963750825867548
2023-01-28 10:24:00.523134,0.0335365533828735
2023-01-28 10:24:00.528134,0.03852822296733798
2023-01-28 10:24:00.533134,0.04404227063059803
2023-01-28 10:24:00.538134,0.050723977144053266
2023-01-28 10:24:00.543134,0.05933205410838125
2023-01-28 10:24:00.548134,0.07022505574455998
2023-01-28 10:24:00.553134,0.0836370438337326
2023-01-28 10:24:00.558134,0.099995026819846
2023-01-28 10:24:00.563134,0.11943340301513669
2023-01-28 10:24:00.568134,0.1412864511887235
2023-01-28 10:24:00.573134,0.16446134448051444
2023-01-28 10:24:00.578134,0.18796942652342624
2023-01-28 10:24:00.583134,0.21071533858776073
2023-01-28 10:24:00.588134,0.23119420877020466
2023-01-28 10:24:00.593134,0.24790605902671797
2023-01-28 10:24:00.598134,0.25979331718759824
2023-01-28 10:24:00.603134,0.26591241359710677
2023-01-28 10:24:00.608134,0.2650979017367312
2023-01-28 10:24:00.613134,0.2564885318279265
2023-01-28 10:24:00.618134,0.2401997549172435
2023-01-28 10:24:00.623134,0.2172062844038009
2023-01-28 10:24:00.628134,0.18896703997035658
2023-01-28 10:24:00.633134,0.15753766894340498
2023-01-28 10:24:00.638134,0.1255674113295363
2023-01-28 10:24:00.643134,0.09551306813955304
2023-01-28 10:24:00.648134,0.06885041415088991
2023-01-28 10:24:00.653134,0.046181879937648655
2023-01-28 10:24:00.658134,0.02768320267196577
2023-01-28 10:24:00.663134,0.013078054413199406
2023-01-28 10:24:00.668134,0.0015748560615797705
2023-01-28 10:24:00.673134,-0.007644891738891663
2023-01-28 10:24:00.678134,-0.01496067638080017
2023-01-28 10:24:00.683134,-0.020506581291556324
2023-01-28 10:24:00.688134,-0.024517087410772374
2023-01-28 10:24:00.693134,-0.027237933129072144
2023-01-28 10:24:00.698134,-0.028790448557248813
2023-01-28 10:24:00.703134,-0.029353499412536583
2023-01-28 10:24:00.708134,-0.029234739976530075
2023-01-28 10:24:00.713134,-0.02865632437169549
2023-01-28 10:24:00.718134,-0.027758616664912163
2023-01-28 10:24:00.723134,-0.02678116224706168
2023-01-28 10:24:00.728134,-0.02578140479296522
2023-01-28 10:24:00.733134,-0.02423286437988283
2023-01-28 10:24:00.738134,-0.021541233599992285
2023-01-28 10:24:00.743134,-0.018006365746259526
2023-01-28 10:24:00.748134,-0.01460538330765981
2023-01-28 10:24:00.753134,-0.01177986524999136
2023-01-28 10:24:00.758134,-0.009204031285790875
2023-01-28 10:24:00.763134,-0.006803472992032719
2023-01-28 10:24:00.768134,-0.005033782182380041
2023-01-28 10:24:00.773134,-0.003870527027174769
2023-01-28 10:24:00.778134,-0.0024589355762001876
2023-01-28 10:24:00.783134,-0.0001442432403563778
2023-01-28 10:24:00.788134,0.0030548189905786755
2023-01-28 10:24:00.793134,0.007404486648738259
2023-01-28 10:24:00.798134,0.013881911093406302
2023-01-28 10:24:00.803134,0.022958716377615904
2023-01-28 10:24:00.808134,0.03365738389184245
2023-01-28 10:24:00.813134,0.044306717813014894
2023-01-28 10:24:00.818134,0.05344309838644932
2023-01-28 10:24:00.823134,0.05950033664703356
2023-01-28 10:24:00.828134,0.06066801407319005
2023-01-28 10:24:00.833134,0.05606254190206517
2023-01-28 10:24:00.838134,0.046604372702885824
2023-01-28 10:24:00.843134,0.0341856479644775
2023-01-28 10:24:00.848134,0.020551602225393602
2023-01-28 10:24:00.853134,0.0073804459534584435
2023-01-28 10:24:00.858134,-0.0035785874375721108
2023-01-28 10:24:00.863134,-0.011467337608337444
2023-01-28 10:24:00.868134,-0.016968863170179198
2023-01-28 10:24:00.873134,-0.021299919113516797
2023-01-28 10:24:00.878134,-0.024931183512273993
2023-01-28 10:24:00.883134,-0.02759854122996334
2023-01-28 10:24:00.888134,-0.02865008328473066
2023-01-28 10:24:00.893134,-0.026660960167646436
2023-01-28 10:24:00.898134,-0.019644308205398645
2023-01-28 10:24:00.903134,-0.006971756927669053
2023-01-28 10:24:00.908134,0.008774249382423618
2023-01-28 10:24:00.913134,0.02204517647624006
2023-01-28 10:24:00.918134,0.02593967002262864
2023-01-28 10:24:00.923134,0.013823310844600228
2023-01-28 10:24:00.928134,-0.01847840965819566
2023-01-28 10:24:00.933134,-0.06969352811574932
2023-01-28 10:24:00.938134,-0.13172221891391359
2023-01-28 10:24:00.943134,-0.19186756014823914
2023-01-28 10:24:00.948134,-0.23711463104714683
2023-01-28 10:24:00.953134,-0.2577626705169676
2023-01-28 10:24:00.958134,-0.2499148814179444
2023-01-28 10:24:00.963134,-0.21694183349609367
2023-01-28 10:24:00.968134,-0.1684589901129515
2023-01-28 10:24:00.973134,-0.11626005172729484
2023-01-28 10:24:00.978134,-0.06991458781660789
2023-01-28 10:24:00.983134,-0.034882824867963645
2023-01-28 10:24:00.988134,-0.01266400544259803
2023-01-28 10:24:00.993134,-0.0013222297420724467
2023-01-28 10:24:00.998134,0.003295513077384972
2023-01-28 10:24:01.003134,0.005192756652832012
2023-01-28 10:24:01.008134,0.00651974810677829
2023-01-28 10:24:01.013134,0.008053581230342369
2023-01-28 10:24:01.018134,0.010328808849051654
2023-01-28 10:24:01.023134,0.013534824363887414
2023-01-28 10:24:01.028134,0.01713602189774132
2023-01-28 10:24:01.033134,0.02065082453191286
2023-01-28 10:24:01.038134,0.024426049174971282
2023-01-28 10:24:01.043134,0.028968852013349505
2023-01-28 10:24:01.048134,0.034123133448009046
2023-01-28 10:24:01.053134,0.03966689109802242
2023-01-28 10:24:01.058134,0.04610996507484359
2023-01-28 10:24:01.063134,0.05411525815725319
2023-01-28 10:24:01.068134,0.06375139001959021
2023-01-28 10:24:01.073134,0.07512669265270228
2023-01-28 10:24:01.078134,0.08911977933941488
2023-01-28 10:24:01.083134,0.10657171905040733
2023-01-28 10:24:01.088134,0.1272284520629651
2023-01-28 10:24:01.093134,0.15018126368522636
2023-01-28 10:24:01.098134,0.17466256546678238
2023-01-28 10:24:01.103134,0.199560523033142
2023-01-28 10:24:01.108134,0.22284305193139933
2023-01-28 10:24:01.113134,0.2424728870391845
2023-01-28 10:24:01.118134,0.25745597332482717
2023-01-28 10:24:01.123134,0.2672587037086487
2023-01-28 10:24:01.128134,0.2708833288325478
2023-01-28 10:24:01.133134,0.26742696762084955
2023-01-28 10:24:01.138134,0.25694452583397037
2023-01-28 10:24:01.143134,0.23990055918693534
2023-01-28 10:24:01.148134,0.21647835526863093
2023-01-28 10:24:01.153134,0.18744409084320052
2023-01-28 10:24:01.158134,0.15510935180216484
2023-01-28 10:24:01.163134,0.12243847548961621
2023-01-28 10:24:01.168134,0.09163594423652394
2023-01-28 10:24:01.173134,0.06426036357879622
2023-01-28 10:24:01.178134,0.04176558196874778
2023-01-28 10:24:01.183134,0.024713676422834254
2023-01-28 10:24:01.188134,0.012019799080173275
2023-01-28 10:24:01.193134,0.0020674865227192168
2023-01-28 10:24:01.198134,-0.005852110259271162
2023-01-28 10:24:01.203134,-0.011948148719966434
2023-01-28 10:24:01.208134,-0.016889226555541037
2023-01-28 10:24:01.213134,-0.021227797493338536
2023-01-28 10:24:01.218134,-0.02455832215505372
2023-01-28 10:24:01.223134,-0.026372473686933507
2023-01-28 10:24:01.228134,-0.027141779693266394
2023-01-28 10:24:01.233134,-0.027526419609784948
2023-01-28 10:24:01.238134,-0.02723118775254782
2023-01-28 10:24:01.243134,-0.025747418403625374
2023-01-28 10:24:01.248134,-0.02349831844975111
2023-01-28 10:24:01.253134,-0.0211075954139231
2023-01-28 10:24:01.258134,-0.01828265110324448
2023-01-28 10:24:01.263134,-0.014616648666560527
2023-01-28 10:24:01.268134,-0.010754051957012426
2023-01-28 10:24:01.273134,-0.007548729889094801
2023-01-28 10:24:01.278134,-0.004829540197146668
2023-01-28 10:24:01.283134,-0.002211729763075702
2023-01-28 10:24:01.288134,-0.0002501422803266138
2023-01-28 10:24:01.293134,0.0006010135402902535
2023-01-28 10:24:01.298134,0.0013902570394513868
2023-01-28 10:24:01.303134,0.0036782026290893507
2023-01-28 10:24:01.308134,0.007955406135731405
2023-01-28 10:24:01.313134,0.014304121956229213
2023-01-28 10:24:01.318134,0.023470498521722172
2023-01-28 10:24:01.323134,0.035531919449567705
2023-01-28 10:24:01.328134,0.04833911451141417
2023-01-28 10:24:01.333134,0.058947406709194065
2023-01-28 10:24:01.338134,0.0658154417350339
2023-01-28 10:24:01.343134,0.0682030171155929
2023-01-28 10:24:01.348134,0.0648211719467525
2023-01-28 10:24:01.353134,0.055245161056518506
2023-01-28 10:24:01.358134,0.041679370823903474
2023-01-28 10:24:01.363134,0.027189850807189837
2023-01-28 10:24:01.368134,0.013076176579681126
2023-01-28 10:24:01.373134,-0.0001202027051476433
2023-01-28 10:24:01.378134,-0.010561878857521596
2023-01-28 10:24:01.383134,-0.01680433750152588
2023-01-28 10:24:01.388134,-0.02033075359705607
2023-01-28 10:24:01.393134,-0.023463567718863383
2023-01-28 10:24:01.398134,-0.025791090442589027
2023-01-28 10:24:01.403134,-0.025603175163269057
2023-01-28 10:24:01.408134,-0.023333390703478216
2023-01-28 10:24:01.413134,-0.019737284630537023
2023-01-28 10:24:01.418134,-0.012258253814538619
2023-01-28 10:24:01.423134,0.0013703107833861453
2023-01-28 10:24:01.428134,0.016030701158852745
2023-01-28 10:24:01.433134,0.021396081894636106
2023-01-28 10:24:01.438134,0.01218730602644481
2023-01-28 10:24:01.443134,-0.009231567382812476
2023-01-28 10:24:01.448134,-0.041669565490456514
2023-01-28 10:24:01.453134,-0.0891904085874557
2023-01-28 10:24:01.458134,-0.15141371898976247
2023-01-28 10:24:01.463134,-0.21463394165039051
2023-01-28 10:24:01.468134,-0.2589058759011295
2023-01-28 10:24:01.473134,-0.27259570360183705
2023-01-28 10:24:01.478134,-0.2565981843759358
2023-01-28 10:24:01.483134,-0.21790346503257743
2023-01-28 10:24:01.488134,-0.16528567785140313
2023-01-28 10:24:01.493134,-0.11003355681896192
2023-01-28 10:24:01.498134,-0.06378924170271175
2023-01-28 10:24:01.503134,-0.032502811402082395
2023-01-28 10:24:01.508134,-0.014627117949241495
2023-01-28 10:24:01.513134,-0.005697607994079438
2023-01-28 10:24:01.518134,-0.002178572051981367
2023-01-28 10:24:01.523134,-0.0010097026824950413
2023-01-28 10:24:01.528134,0.0008264242497769866
2023-01-28 10:24:01.533134,0.004471540451049795
2023-01-28 10:24:01.538134,0.008790042327043437
2023-01-28 10:24:01.543134,0.01281360816210495
2023-01-28 10:24:01.548134,0.017077157060185005
2023-01-28 10:24:01.553134,0.022069215774536105
2023-01-28 10:24:01.558134,0.02719704934106277
2023-01-28 10:24:01.563134,0.03207008168101306
2023-01-28 10:24:01.568134,0.03732056143219428
2023-01-28 10:24:01.573134,0.04346529766917218
2023-01-28 10:24:01.578134,0.05029200339535373
2023-01-28 10:24:01.583134,0.05800982564687719
2023-01-28 10:24:01.588134,0.06779329276402696
2023-01-28 10:24:01.593134,0.08055984973907472
2023-01-28 10:24:01.598134,0.09620948799374414
2023-01-28 10:24:01.603134,0.11448105424642563
2023-01-28 10:24:01.608134,0.1354523449141958
2023-01-28 10:24:01.613134,0.15866756439208976
2023-01-28 10:24:01.618134,0.1827153826623011
2023-01-28 10:24:01.623134,0.20614764094352714
2023-01-28 10:24:01.628134,0.22799384879485746
2023-01-28 10:24:01.633134,0.24704059958457938
2023-01-28 10:24:01.638134,0.26152857671788615
2023-01-28 10:24:01.643134,0.2700473964214324
2023-01-28 10:24:01.648134,0.27205817252258363
2023-01-28 10:24:01.653134,0.26728272438049316
2023-01-28 10:24:01.658134,0.255399529825072
2023-01-28 10:24:01.663134,0.23672720789909354
2023-01-28 10:24:01.668134,0.21253229827735268
2023-01-28 10:24:01.673134,0.18434286117553703
2023-01-28 10:24:01.678134,0.1535595054443356
2023-01-28 10:24:01.683134,0.12190958112478241
2023-01-28 10:24:01.688134,0.09149640052021508
2023-01-28 10:24:01.693134,0.06397187709808332
2023-01-28 10:24:01.698134,0.04010503261236166
2023-01-28 10:24:01.703134,0.02026617527008049
2023-01-28 10:24:01.708134,0.004672238712123676
2023-01-28 10:24:01.713134,-0.007043878547847195
2023-01-28 10:24:01.718134,-0.015824394321656825
2023-01-28 10:24:01.723134,-0.022405784577131205
2023-01-28 10:24:01.728134,-0.0269812302767299
2023-01-28 10:24:01.733134,-0.029738148674368785
2023-01-28 10:24:01.738134,-0.03113542545112644
2023-01-28 10:24:01.743134,-0.03146906942129124
2023-01-28 10:24:01.748134,-0.030736987263524668
2023-01-28 10:24:01.753134,-0.029137134552001877
2023-01-28 10:24:01.758134,-0.027165451415024775
2023-01-28 10:24:01.763134,-0.025026202201843224
2023-01-28 10:24:01.768134,-0.022456831575554205
2023-01-28 10:24:01.773134,-0.019328594207763557
2023-01-28 10:24:01.778134,-0.015956983894928143
2023-01-28 10:24:01.783134,-0.012693405151367096
2023-01-28 10:24:01.788134,-0.009714621297981849
2023-01-28 10:24:01.793134,-0.00733236502856008
2023-01-28 10:24:01.798134,-0.005938967736209168
2023-01-28 10:24:01.803134,-0.005409121513366647
2023-01-28 10:24:01.808134,-0.004994364572159526
2023-01-28 10:24:01.813134,-0.0039666891098022435
2023-01-28 10:24:01.818134,-0.001938643777468973
2023-01-28 10:24:01.823134,0.0015145540237425834
2023-01-28 10:24:01.828134,0.006965427291435202
2023-01-28 10:24:01.833134,0.01461664866656062
2023-01-28 10:24:01.838134,0.02405331445434522
2023-01-28 10:24:01.843134,0.034570299088954856
2023-01-28 10:24:01.848134,0.045220403408230046
2023-01-28 10:24:01.853134,0.054427783936262075
2023-01-28 10:24:01.858134,0.060188811379761106
2023-01-28 10:24:01.863134,0.06106297299265854
2023-01-28 10:24:01.868134,0.05677379594323401
2023-01-28 10:24:01.873134,0.04791279882192614
2023-01-28 10:24:01.878134,0.03563698338679531
2023-01-28 10:24:01.883134,0.02173264883458604
2023-01-28 10:24:01.888134,0.008233465523781612
2023-01-28 10:24:01.893134,-0.0035099189262836556
2023-01-28 10:24:01.898134,-0.013151027702434566
2023-01-28 10:24:01.903134,-0.020722946152091044
2023-01-28 10:24:01.908134,-0.02621118928646018
2023-01-28 10:24:01.913134,-0.02978622913360586
2023-01-28 10:24:01.918134,-0.03169178124778043
2023-01-28 10:24:01.923134,-0.03149310871958727
2023-01-28 10:24:01.928134,-0.02795187349283163
2023-01-28 10:24:01.933134,-0.02009789273142811
2023-01-28 10:24:01.938134,-0.008321075425353161
2023-01-28 10:24:01.943134,0.005288918968290016
2023-01-28 10:24:01.948134,0.016678365625844713
2023-01-28 10:24:01.953134,0.01964112184941761
2023-01-28 10:24:01.958134,0.0072055787505420875
2023-01-28 10:24:01.963134,-0.02509832382202137
2023-01-28 10:24:01.968134,-0.07632877838875003
2023-01-28 10:24:01.973134,-0.1395553350448607
2023-01-28 10:24:01.978134,-0.2032329127579422
2023-01-28 10:24:01.983134,-0.2537238597869873
2023-01-28 10:24:01.988134,-0.2792353699888886
2023-01-28 10:24:01.993134,-0.2743266224861144
2023-01-28 10:24:01.998134,-0.24198204696415904
2023-01-28 10:24:02.003134,-0.19157907366752605
2023-01-28 10:24:02.008134,-0.1348620575369142
2023-01-28 10:24:02.013134,-0.08267541974782935
2023-01-28 10:24:02.018134,-0.042585376150220344
2023-01-28 10:24:02.023134,-0.016996663063764572
2023-01-28 10:24:02.028134,-0.003344339456190198
2023-01-28 10:24:02.033134,0.002884864807128925
2023-01-28 10:24:02.038134,0.005165422990208279
2023-01-28 10:24:02.043134,0.00576972961425785
2023-01-28 10:24:02.048134,0.006782966235005252
2023-01-28 10:24:02.053134,0.009423892013728567
2023-01-28 10:24:02.058134,0.012932071283956884
2023-01-28 10:24:02.063134,0.01591483876109116
2023-01-28 10:24:02.068134,0.018691256576458405
2023-01-28 10:24:02.073134,0.02281447313725942
2023-01-28 10:24:02.078134,0.02853636992307834
2023-01-28 10:24:02.083134,0.034570299088954905
2023-01-28 10:24:02.088134,0.040434862579680625
2023-01-28 10:24:02.093134,0.047167539596557576
2023-01-28 10:24:02.098134,0.055452638779485586
2023-01-28 10:24:02.103134,0.0650296658277511
2023-01-28 10:24:02.108134,0.07645141317058918
2023-01-28 10:24:02.113134,0.09118577092885967
2023-01-28 10:24:02.118134,0.10891937239414234
2023-01-28 10:24:02.123134,0.1269821375608444
2023-01-28 10:24:02.128134,0.14410675098996187
2023-01-28 10:24:02.133134,0.16280254721641538
2023-01-28 10:24:02.138134,0.18576695524983536
2023-01-28 10:24:02.143134,0.2112923115491867
2023-01-28 10:24:02.148134,0.23460926710794425
2023-01-28 10:24:02.153134,0.25283437967300404
2023-01-28 10:24:02.158134,0.2660444630077287
2023-01-28 10:24:02.163134,0.2740381360054015
2023-01-28 10:24:02.168134,0.2750005956149743
2023-01-28 10:24:02.173134,0.26788374781608587
2023-01-28 10:24:02.178134,0.2537565990001352
2023-01-28 10:24:02.183134,0.23396253585815413
2023-01-28 10:24:02.188134,0.20882385390539904
2023-01-28 10:24:02.193134,0.17910203337669373
2023-01-28 10:24:02.198134,0.14714200124065355
2023-01-28 10:24:02.203134,0.1154907569289207
2023-01-28 10:24:02.208134,0.08552065948800394
2023-01-28 10:24:02.213134,0.058202147483825524
2023-01-28 10:24:02.218134,0.034962541220683596
2023-01-28 10:24:02.223134,0.016708176583051636
2023-01-28 10:24:02.228134,0.002885188544800725
2023-01-28 10:24:02.233134,-0.007572770118713329
2023-01-28 10:24:02.238134,-0.015123140602592865
2023-01-28 10:24:02.243134,-0.02017001435160629
2023-01-28 10:24:02.248134,-0.023820644834835206
2023-01-28 10:24:02.253134,-0.027093689888715657
2023-01-28 10:24:02.258134,-0.02993586387148298
2023-01-28 10:24:02.263134,-0.031781595200300126
2023-01-28 10:24:02.268134,-0.032488968351684785
2023-01-28 10:24:02.273134,-0.03202199935913072
2023-01-28 10:24:02.278134,-0.029914615594818707
2023-01-28 10:24:02.283134,-0.02596378326416007
2023-01-28 10:24:02.288134,-0.021012701983376
2023-01-28 10:24:02.293134,-0.016275446861982287
2023-01-28 10:24:02.298134,-0.012262310106263963
2023-01-28 10:24:02.303134,-0.008967122063040686
2023-01-28 10:24:02.308134,-0.006548772601112508
2023-01-28 10:24:02.313134,-0.005048513412475491
2023-01-28 10:24:02.318134,-0.0038661830532830095
2023-01-28 10:24:02.323134,-0.002283851383253932
2023-01-28 10:24:02.328134,-0.00017700787237295875
2023-01-28 10:24:02.333134,0.0024521350860595135
2023-01-28 10:24:02.338134,0.00625679101161711
2023-01-28 10:24:02.343134,0.012140473350882558
2023-01-28 10:24:02.348134,0.02032849249977202
2023-01-28 10:24:02.353134,0.03036320209503177
2023-01-28 10:24:02.358134,0.041532420620897764
2023-01-28 10:24:02.363134,0.05255262181162827
2023-01-28 10:24:02.368134,0.061197640227551836
2023-01-28 10:24:02.373134,0.06512582302093504
2023-01-28 10:24:02.378134,0.0631366712874765
2023-01-28 10:24:02.383134,0.055341325700282995
2023-01-28 10:24:02.388134,0.04264365198777171
2023-01-28 10:24:02.393134,0.02675712108612062
2023-01-28 10:24:02.398134,0.010287850343209863
2023-01-28 10:24:02.403134,-0.004207094665616708
2023-01-28 10:24:02.408134,-0.015435484181920528
2023-01-28 10:24:02.413134,-0.023391446098685216
2023-01-28 10:24:02.418134,-0.028571555352647948
2023-01-28 10:24:02.423134,-0.03168543428182598
2023-01-28 10:24:02.428134,-0.03359835576749595
2023-01-28 10:24:02.433134,-0.034570299088954884
2023-01-28 10:24:02.438134,-0.033524745593849464
2023-01-28 10:24:02.443134,-0.02872844599187367
2023-01-28 10:24:02.448134,-0.019403581593982464
2023-01-28 10:24:02.453134,-0.006755392067134259
2023-01-28 10:24:02.458134,0.005731474388721987
2023-01-28 10:24:02.463134,0.012188553810119563
2023-01-28 10:24:02.468134,0.0052566338351304
2023-01-28 10:24:02.473134,-0.021059513092040967
2023-01-28 10:24:02.478134,-0.06790352734403758
2023-01-28 10:24:02.483134,-0.12993912398815147
2023-01-28 10:24:02.488134,-0.19627751482546735
2023-01-28 10:24:02.493134,-0.25305074453353876
2023-01-28 10:24:02.498134,-0.28717842828232476
2023-01-28 10:24:02.503134,-0.2908184230327606
2023-01-28 10:24:02.508134,-0.26435639438902747
2023-01-28 10:24:02.513134,-0.21578788757324202
2023-01-28 10:24:02.518134,-0.15715403927888646
2023-01-28 10:24:02.523134,-0.10056158155202856
2023-01-28 10:24:02.528134,-0.05514532881386943
2023-01-28 10:24:02.533134,-0.025074284523725548
2023-01-28 10:24:02.538134,-0.009268084418855077
2023-01-28 10:24:02.543134,-0.003365675685927196
2023-01-28 10:24:02.548134,-0.002522798119320721
2023-01-28 10:24:02.553134,-0.002956986427307124
2023-01-28 10:24:02.558134,-0.0021738510743616263
2023-01-28 10:24:02.563134,0.0008895000210030896
