22.11
23.32
24.27
24.99
25.54
26.04
26.5
26.7
26.11
24.01
19.9
13.79
6.41
-1.07
-7.44
-12.05
-14.98
-16.9
-18.59
-20.49
-22.57
-24.46
-25.87
-26.79
-27.55
-28.5
-29.78
-31.06
-31.64
-30.77
-28.01
-23.51
-18.03
-12.67
-8.45
-5.92
-5.01
-5.15
-5.63
-5.92
-5.9
-5.86
-6.32
-7.8
-10.54
-14.47
-19.09
-23.6
-27.12
-28.93
-28.65
-26.37
-22.53
-17.83
-13.03
-8.89
-6.02
-4.74
-4.83
-5.47
-5.38
-3.33
1.21
7.6
14.1
18.59
19.56
16.74
11.27
5
-0.41
-4.23
-6.82
-9.11
-12
-15.82
-20.32
-24.91
-29.15
-32.83
-35.98
-38.6
-40.54
-41.51
-41.21
-39.6
-36.84
-33.33
-29.49
-25.69
-22.1
-18.77
-15.62
-12.55
-9.47
-6.36
-3.21
-0.13
2.78
5.41
7.73
9.72
11.35
12.55
13.22
13.25
12.63
11.52
10.16
8.85
7.78
6.97
6.25
5.35
4.04
2.21
0
-2.36
-4.58
-6.5
-8.13
-9.57
-10.92
-12.23
-13.43
-14.38
-14.99
-15.14
-14.68
-13.38
-10.95
-7.25
-2.34
3.39
9.41
15.19
20.45
25.15
29.45
33.51
37.4
41.16
44.77
48.32
51.95
55.85
60.15
64.87
69.9
74.91
79.48
83.07
85.23
85.7
84.59
82.45
80.15
78.69
78.8
80.72
84.16
88.53
93.33
98.41
104.04
110.51
117.7
124.67
129.81
131.26
127.85
119.7
108.37
96.35
86.09
79.05
75.21
73.22
71.05
66.89
59.73
49.6
37.44
24.71
13.09
4.18
-0.9
-1.89
0.26
3.44
5.07
3.12
-2.75
-10.79
-17.57
-19.41
-13.88
-0.83
17.51
37.44
55.1
67.56
73.39
72.45
65.52
53.8
38.72
21.89
4.98
-10.36
-22.85
-31.79
-37.2
-39.84
-40.93
-41.75
-43.28
-45.81
-48.83
-51.19
-51.56
-48.95
-43.12
-34.73
-24.98
-15.13
-5.91
2.7
11.35
21.01
32.49
46.14
61.61
77.82
93.18
105.83
114.01
116.43
112.63
103.2
89.87
75.25
62.25
53.11
48.45
46.77
44.8
38.73
25.64
4.77
-22.07
-51.03
-77.63
-98.1
-110.55
-115.2
-114.04
-110.05
-106.18
-104.51
-105.89
-109.83
-115.17
-120.8
-126.45
-133.11
-142.9
-158.67
-183.24
-218.26
-262.92
-312.97
-360.76
-396.69
-411.86
-400.97
-364.29
-307.76
-241.14
-174.9
-117.4
-73.15
-42.8
-24.09
-13.38
-6.81
-1.11
6.06
15.81
27.98
41.28
53.72
63.18
68.09
67.9
63.28
55.93
48
41.49
37.6
36.45
37.13
38.17
38.08
35.95
31.72
26.12
20.35
15.7
13.04
12.66
14.21
16.88
19.71
21.89
23.05
23.31
23.23
23.43
24.32
25.87
27.58
28.8
28.98
27.97
25.98
23.53
21.14
19.12
17.57
16.43
15.54
14.79
14.08
13.33
12.4
11.16
9.48
7.33
4.84
2.23
-0.22
-2.31
-4.02
-5.49
-6.97
-8.78
-11.12
-14.04
-17.38
-20.75
-23.64
-25.51
-25.95
-24.83
-22.34
-19
-15.4
-12.07
-9.27
-7.03
-5.18
-3.56
-2.12
-0.94
-0.16
0.15
-0.01
-0.53
-1.28
-2.16
-3.21
-4.49
-6.16
-8.3
-10.92
-13.91
-17.02
-19.96
-22.52
-24.73
-27.01
-30.09
-34.83
-41.83
-51.14
-62.02
-73.24
-83.53
-92.07
-98.83
-104.5
-110.06
-116.23
-123.13
-130.29
-136.81
-141.83
-144.74
-145.29
-143.5
-139.57
-133.61
-125.64
-115.32
-101.96
-84.48
-61.81
-33.49
-0.25
35.63
70.6
100.72
122.75
135.11
138.13
133.62
123.99
111.41
97.26
82.11
66.34
50.7
36.77
26.72
22.67
25.7
35.28
49.3
64.65
78.19
87.64
91.9
90.99
85.55
76.47
64.75
51.4
37.61
24.67
13.81
5.94
1.54
0.47
1.97
4.89
7.9
9.93
10.42
9.46
7.7
6.02
5.26
6
8.41
12.13
16.35
19.86
21.45
20.28
16.26
10.17
3.33
-2.83
-7.34
-9.89
-10.72
-10.3
-9.05
-7.2
-4.98
-2.74
-1.09
-0.72
-2.2
-5.79
-11.29
-18.21
-25.9
-33.71
-41.08
-47.52
-52.56
-55.77
-56.83
-55.65
-52.43
-47.69
-42.16
-36.54
-31.31
-26.59
-22.07
-17.22
-11.56
-4.86
2.65
10.37
17.49
23.29
27.35
29.61
30.27
29.69
28.13
25.77
22.66
18.8
14.14
8.67
2.41
-4.62
-12.18
-19.89
-27.15
-33.32
-37.99
-41.2
-43.51
-45.8
-48.87
-53.1
-58.2
-63.37
-67.6
-70.07
-70.38
-68.62
-65.25
-60.97
-56.49
-52.37
-48.87
-45.84
-42.77
-38.91
-33.6
-26.61
-18.35
-9.83
-2.3
3.18
6.22
7.17
7.1
7.4
9.5
14.45
22.83
34.52
48.72
64.06
78.81
91.3
100.33
105.41
106.84
105.34
101.73
96.62
90.37
83.21
75.55
68.08
61.67
57.18
55.13
55.52
57.8
61.02
64.13
66.3
67.12
66.71
65.54
64.18
63.01
62.05
60.96
59.17
56.2
51.83
46.25
39.94
33.5
27.44
22.05
17.43
13.58
10.48
8.18
6.69
5.94
5.75
5.81
5.83
5.55
4.82
3.51
1.61
-0.85
-3.72
-6.85
-10.12
-13.52
-17.1
-20.78
-24.22
-26.74
-27.54
-26.04
-22.22
-16.7
-10.6
-5.07
-0.87
1.89
3.61
4.92
6.33
8
9.8
11.47
12.88
14.05
15.08
16.03
16.8
17.16
16.96
16.26
15.32
14.55
14.23
14.43
14.93
15.33
15.31
14.71
13.64
12.26
10.8
9.36
7.93
6.42
4.76
2.86
0.71
-1.68
-4.25
-6.76
-8.84
-9.97
-9.72
-7.87
-4.58
-0.35
4.16
8.34
11.88
14.74
17.08
19.1
20.96
22.69
24.26
25.64
26.76
27.56
28.01
28.07
27.81
27.32
26.76
26.22
25.69
24.99
23.81
21.88
19.09
15.55
11.58
7.62
3.99
0.92
-1.6
-3.66
-5.43
-7.04
-8.61
-10.24
-11.96
-13.7
-15.27
-16.3
-16.41
-15.28
-12.82
-9.22
-4.89
-0.35
3.92
7.59
10.5
12.69
14.25
15.29
15.88
16.03
15.65
14.7
13.22
11.35
9.34
7.4
5.69
4.19
2.79
1.29
-0.37
-2.15
-3.9
-5.43
-6.61
-7.47
-8.1
-8.61
-9.02
-9.29
-9.24
-8.7
-7.53
-5.72
-3.46
-1.08
1.03
2.53
3.29
3.38
3.08
2.7
2.47
2.53
2.97
3.92
5.62
8.24
11.78
15.87
19.86
23.01
24.76
24.97
23.89
22.04
19.88
17.73
15.72
13.83
12.04
10.36
8.79
7.26
5.62
3.74
1.58
-0.77
-3.03
-4.87
-5.99
-6.24
-5.7
-4.59
-3.28
-2.12
-1.35
-1.02
-0.99
-1.04
-0.94
-0.63
-0.19
0.22
0.44
0.36
-0.04
-0.78
-1.87
-3.31
-4.98
-6.58
-7.72
-7.98
-7.18
-5.45
-3.21
-0.97
0.85
2.11
2.85
3.23
3.37
3.27
2.93
2.34
1.58
0.8
0.11
-0.44
-0.83
-1.12
-1.26
-1.25
-1.1
-0.87
-0.69
-0.74
-1.14
-1.86
-2.77
-3.66
-4.37
-4.85
-5.15
-5.39
-5.68
-6.06
-6.48
-6.89
-7.21
-7.42
-7.55
-7.65
-7.81
-8.17
-8.83
-9.78
-10.86
-11.72
-11.95
-11.26
-9.62
-7.3
-4.76
-2.42
-0.55
0.83
1.8
2.48
2.87
2.97
2.8
2.44
2.05
1.76
1.57
1.37
1.01
0.41
-0.33
-1.04
-1.48
-1.51
-1.14
-0.55
0.02
0.34
0.28
-0.2
-0.98
-1.9
-2.75
-3.31
-3.52
-3.45
-3.32
-3.39
-3.87
-4.77
-5.91
-7.03
-7.91
-8.46
-8.77
-9.07
-9.57
-10.41
-11.58
-12.92
-14.14
-14.94
-15.04
-14.28
-12.73
-10.6
-8.22
-5.95
-4.05
-2.63
-1.65
-0.96
-0.36
0.27
0.98
1.71
2.38
2.92
3.34
3.7
4.05
4.43
4.82
5.19
5.51
5.77
5.98
6.14
6.22
6.16
5.88
5.29
4.39
3.19
1.8
0.38
-0.88
-1.84
-2.48
-2.9
-3.27
-3.75
-4.43
-5.28
-6.19
-7.01
-7.6
-7.96
-8.2
-8.51
-9.09
-10.07
-11.39
-12.82
-14
-14.62
-14.45
-13.48
-11.86
-9.85
-7.75
-5.79
-4.16
-2.93
-2.06
-1.46
-1.02
-0.65
-0.33
-0.08
0.07
0.12
0.14
0.23
0.45
0.78
1.17
1.54
1.86
2.13
2.38
2.58
2.65
2.52
2.13
1.59
1
0.53
0.25
0.12
-0.02
-0.35
-0.96
-1.8
-2.69
-3.4
-3.8
-3.88
-3.82
-3.84
-4.15
-4.83
-5.88
-7.19
-8.67
-10.18
-11.53
-12.47
-12.73
-12.08
-10.52
-8.27
-5.69
-3.21
-1.18
0.25
1.09
1.49
1.67
1.83
2.19
2.86
3.93
5.35
7.06
8.95
10.87
12.68
14.27
15.59
16.66
17.61
18.56
19.57
20.57
21.38
21.82
21.81
21.38
20.64
19.68
18.5
17.14
15.62
14.12
12.81
11.67
10.41
8.48
5.3
0.45
-6.18
-14.42
-23.83
-33.8
-43.42
-51.54
-56.83
-58.07
-54.68
-46.97
-36.16
-24.02
-12.25
-2
6.38
13.12
18.68
23.34
27.12
29.85
31.43
31.96
31.76
31.22
30.5
29.52
27.99
25.62
22.36
18.48
14.48
10.87
7.95
5.68
3.76
1.77
-0.6
-3.37
-6.28
-8.91
-10.88
-12.02
-12.49
-12.69
-13.06
-13.93
-15.41
-17.42
-19.69
-21.92
-23.82
-25.13
-25.62
-25.14
-23.58
-21.01
-17.68
-14
-10.41
-7.3
-4.88
-3.16
-2.04
-1.37
-1.01
-0.9
-0.98
-1.17
-1.39
-1.54
-1.58
-1.52
-1.43
-1.41
-1.48
-1.64
-1.78
-1.81
-1.64
-1.3
-0.9
-0.65
-0.75
-1.27
-2.18
-3.28
-4.34
-5.19
-5.83
-6.43
-7.24
-8.46
-10.19
-12.36
-14.74
-16.97
-18.66
-19.46
-19.11
-17.57
-15.01
-11.77
-8.27
-4.89
-1.82
0.91
3.38
5.66
7.75
9.54
10.87
11.66
11.95
11.91
11.82
11.89
12.19
12.61
12.92
12.97
12.69
12.24
11.8
11.55
11.48
11.38
10.98
10.04
8.45
6.26
3.73
1.13
-1.28
-3.38
-5.21
-6.97
-8.94
-11.35
-14.28
-17.53
-20.67
-23.09
-24.18
-23.56
-21.2
-17.46
-12.92
-8.25
-3.95
-0.3
2.67
5.09
7.07
8.69
9.93
10.76
11.19
11.26
11.07
10.75
10.42
10.14
9.92
9.66
9.25
8.63
7.83
7.04
6.45
6.19
6.21
6.3
6.17
5.56
4.37
2.67
0.62
-1.56
-3.66
-5.53
-7.08
-8.34
-9.48
-10.83
-12.74
-15.44
-18.89
-22.75
-26.35
-28.97
-30
-29.14
-26.5
-22.5
-17.74
-12.84
-8.26
-4.25
-0.85
2.08
4.68
7.08
9.27
11.15
12.61
13.6
14.18
14.51
14.74
14.97
15.16
15.22
15.1
14.85
14.6
14.47
14.45
14.37
14.03
13.23
11.95
10.31
8.53
6.74
4.96
3.1
1.06
-1.16
-3.44
-5.58
-7.42
-8.91
-10.2
-11.56
-13.28
-15.61
-18.57
-21.93
-25.13
-27.45
-28.17
-26.86
-23.56
-18.79
-13.35
-8.04
-3.4
0.43
3.62
6.42
8.99
11.32
13.27
14.73
15.7
16.31
16.71
17.06
17.44
17.82
18.13
18.23
18.03
17.53
16.77
15.92
15.15
14.55
14.12
13.69
13.01
11.86
10.14
7.92
5.42
2.93
0.68
-1.23
-2.88
-4.5
-6.42
-8.92
-12.13
-15.88
-19.72
-22.87
-24.55
-24.15
-21.49
-16.93
-11.3
-5.47
-0.16
4.4
8.41
12.34
16.62
21.4
26.48
31.39
35.61
38.65
40.27
40.42
39.35
37.52
35.53
33.95
33.09
32.87
32.76
31.98
29.89
26.24
21.31
15.76
10.36
5.58
1.53
-2.04
-5.49
-9.08
-12.88
-16.88
-21.07
-25.51
-30.34
-35.65
-41.39
-47.41
-53.45
-59.18
-64.16
-67.79
-69.36
-68.27
-64.26
-57.6
-49.12
-39.96
-31.16
-23.41
-16.86
-11.32
-6.47
-2.19
1.49
4.38
6.43
7.72
8.45
8.82
8.86
8.45
7.52
6.22
4.99
4.47
5.22
7.47
10.96
15.05
18.91
21.87
23.55
23.94
23.37
22.3
21.18
20.33
19.86
19.65
19.44
18.93
17.9
16.23
13.92
11
7.58
3.82
0.05
-3.2
-5.32
-5.76
-4.31
-1.21
2.91
7.17
10.76
13.23
14.51
14.9
14.76
14.42
13.94
13.25
12.2
10.76
9.08
7.44
6.17
5.43
5.26
5.5
5.95
6.47
6.99
7.5
8.01
8.46
8.72
8.69
8.23
7.34
6.07
4.55
2.93
1.34
-0.16
-1.52
-2.74
-3.85
-4.89
-5.94
-7.11
-8.48
-10.16
-12.21
-14.67
-17.46
-20.4
-23.15
-25.23
-26.14
-25.55
-23.49
-20.3
-16.59
-12.96
-9.81
-7.19
-4.89
-2.6
-0.07
2.74
5.7
8.53
10.99
12.94
14.45
15.69
16.9
18.2
19.58
20.91
22.05
22.93
23.64
24.32
24.99
25.54
25.72
25.3
24.22
22.71
21.13
19.8
18.88
18.22
17.51
16.45
14.82
12.64
10.07
7.42
4.95
2.86
1.22
-0.09
-1.27
-2.55
-4.15
-6.15
-8.54
-11.21
-13.91
-16.28
-17.88
-18.25
-17.09
-14.39
-10.46
-5.89
-1.3
2.87
6.43
9.42
11.94
14.09
15.83
17.1
17.92
18.34
18.48
18.39
18.09
17.56
16.86
16.12
15.55
15.29
15.32
15.47
15.5
15.23
14.64
13.89
13.19
12.74
12.6
12.64
12.66
12.51
12.1
11.5
10.79
9.99
9.04
7.86
6.37
4.48
2.04
-1.28
-5.8
-11.6
-18.16
-24.25
-28.16
-28.18
-23.26
-13.38
0.45
16.6
33.26
48.88
62.32
72.84
80.07
83.98
85
83.83
81.35
78.24
74.77
70.78
65.72
59.1
50.66
40.6
29.47
17.98
6.8
-3.67
-13.26
-22.01
-30.02
-37.36
-43.97
-49.71
-54.38
-57.84
-59.99
-60.85
-60.48
-59.01
-56.65
-53.69
-50.52
-47.61
-45.39
-44.11
-43.8
-44.27
-45.22
-46.37
-47.52
-48.52
-49.18
-49.16
-48.09
-45.67
-41.86
-36.9
-31.25
-25.46
-20
-15.16
-11.08
-7.77
-5.22
-3.42
-2.33
-1.86
-1.83
-2.04
-2.27
-2.32
-2.14
-1.76
-1.27
-0.78
-0.34
0.07
0.54
1.12
1.81
2.51
3.04
3.22
2.97
2.3
1.32
0.16
-1.13
-2.48
-3.91
-5.39
-6.82
-8.11
-9.17
-10.05
-10.89
-11.93
-13.4
-15.42
-17.95
-20.68
-23.18
-24.94
-25.51
-24.69
-22.55
-19.45
-15.91
-12.42
-9.29
-6.67
-4.52
-2.75
-1.26
0.01
1.11
2.09
2.97
3.79
4.53
5.15
5.64
5.98
6.19
6.3
6.34
6.39
6.5
6.73
7.04
7.38
7.61
7.62
7.37
6.91
6.39
5.95
5.67
5.48
5.24
4.75
3.89
2.66
1.18
-0.34
-1.68
-2.74
-3.53
-4.19
-4.91
-5.85
-7.09
-8.58
-10.11
-11.35
-11.91
-11.5
-9.99
-7.49
-4.35
-0.99
2.18
4.88
7
8.56
9.64
10.35
10.8
11.09
11.3
11.48
11.59
11.6
11.46
11.2
10.92
10.74
10.7
10.76
10.81
10.69
10.33
9.72
8.92
8.04
7.15
6.3
5.47
4.64
3.74
2.75
1.67
0.53
-0.63
-1.8
-2.98
-4.2
-5.45
-6.71
-7.91
-9.01
-10.06
-11.21
-12.6
-14.29
-16.11
-17.64
-18.35
-17.76
-15.72
-12.47
-8.58
-4.72
-1.46
0.95
2.56
3.6
4.33
4.9
5.33
5.65
5.88
6.09
6.33
6.59
6.8
6.88
6.77
6.53
6.3
6.2
6.31
6.61
7
7.35
7.5
7.35
6.88
6.09
5.09
3.99
2.94
2.04
1.29
0.6
-0.19
-1.2
-2.46
-3.86
-5.22
-6.35
-7.17
-7.77
-8.37
-9.24
-10.6
-12.49
-14.77
-17.09
-19.04
-20.18
-20.19
-18.97
-16.67
-13.63
-10.37
-7.32
-4.83
-2.98
-1.68
-0.73
0.07
0.84
1.64
2.45
3.22
3.9
4.45
4.86
5.17
5.41
5.61
5.78
5.93
6.06
6.19
6.41
6.81
7.4
8.1
8.68
8.9
8.61
7.85
6.87
5.97
5.34
4.97
4.66
4.14
3.2
1.84
0.21
-1.44
-2.88
-4.03
-4.9
-5.63
-6.39
-7.35
-8.67
-10.43
-12.58
-14.9
-17
-18.42
-18.73
-17.78
-15.68
-12.84
-9.77
-6.91
-4.55
-2.75
-1.43
-0.48
0.2
0.67
0.93
0.98
0.86
0.64
0.46
0.44
0.67
1.13
1.77
2.41
2.96
3.39
3.78
4.21
4.69
5.11
5.28
5.09
4.52
3.74
2.97
2.42
2.12
1.98
1.79
1.39
0.68
-0.29
-1.41
-2.55
-3.61
-4.56
-5.44
-6.32
-7.34
-8.61
-10.21
-12.09
-14.09
-15.89
-17.1
-17.34
-16.37
-14.24
-11.2
-7.73
-4.3
-1.29
1.15
3.08
4.66
6.04
7.27
8.4
9.4
10.3
11.11
11.84
12.44
12.86
13.06
13.06
12.95
12.8
12.64
12.38
11.9
11.07
9.81
8.16
6.2
4.11
2.01
0.03
-1.78
-3.44
-4.98
-6.49
-7.97
-9.43
-10.83
-12.1
-13.19
-14.1
-14.87
-15.59
-16.41
-17.5
-18.95
-20.75
-22.7
-24.42
-25.45
-25.39
-24.05
-21.49
-18.01
-14.03
-9.97
-6.2
-2.95
-0.33
1.69
3.25
4.56
5.84
7.22
8.73
10.25
11.6
12.62
13.21
13.39
13.3
13.08
12.9
12.82
12.81
12.8
12.7
12.45
12.04
11.51
10.85
10.08
9.1
7.84
6.23
4.29
2.13
-0.07
-2.11
-3.86
-5.31
-6.56
-7.7
-8.89
-10.21
-11.74
-13.54
-15.66
-18.02
-20.34
-22.16
-22.95
-22.29
-20.11
-16.75
-12.79
-8.91
-5.58
-2.95
-0.9
0.83
2.49
4.16
5.81
7.37
8.74
9.88
10.8
11.52
12.06
12.41
12.53
12.4
12.02
11.48
10.9
10.42
10.11
9.91
9.69
9.22
8.36
7.07
5.44
3.68
1.99
0.51
-0.73
-1.85
-3.04
-4.47
-6.24
-8.29
-10.46
-12.57
-14.51
-16.35
-18.23
-20.37
-22.87
-25.76
-28.88
-32
-34.81
-36.98
-38.12
-37.97
-36.37
-33.44
-29.58
-25.33
-21.24
-17.67
-14.67
-12.08
-9.64
-7.17
-4.67
-2.23
0.03
2.1
4.07
6.03
7.98
9.77
11.13
11.88
11.98
11.64
11.17
10.85
10.74
10.76
10.66
10.27
9.51
8.4
7.02
5.4
3.58
1.58
-0.48
-2.43
-4.08
-5.28
-5.96
-6.21
-6.19
-6.12
-6.26
-6.82
-8
-9.92
-12.59
-15.87
-19.46
-22.86
-25.51
-26.84
-26.51
-24.51
-21.19
-17.21
-13.26
-9.89
-7.34
-5.53
-4.16
-2.88
-1.43
0.3
2.25
4.29
6.25
8.01
9.57
11.01
12.5
14.12
15.89
17.71
19.38
20.75
21.7
22.28
22.56
22.65
22.63
22.51
22.24
21.76
21.01
19.96
18.62
17.02
15.18
13.16
10.97
8.69
6.39
4.14
1.95
-0.26
-2.71
-5.65
-9.16
-13.03
-16.73
-19.48
-20.61
-19.81
-17.31
-13.71
-9.76
-5.98
-2.55
0.68
3.94
7.36
10.85
14.22
17.25
19.86
22.08
23.97
25.61
27
28.13
29.05
29.83
30.53
31.19
31.77
32.18
32.33
32.2
31.79
31.12
30.21
29.03
27.5
25.56
23.2
20.52
17.7
14.95
12.46
10.25
8.31
6.54
4.84
3.17
1.46
-0.39
-2.53
-5.16
-8.38
-12.13
-16.12
-19.85
-22.79
-24.53
-24.92
-24.16
-22.67
-20.92
-19.23
-17.63
-15.95
-13.89
-11.25
-7.99
-4.34
-0.6
2.91
5.98
8.52
10.51
11.97
12.95
13.53
13.86
14.13
14.55
15.21
16.05
16.92
17.61
17.98
18.06
17.94
17.73
17.47
17.06
16.39
15.42
14.14
12.64
11.02
9.31
7.49
5.52
3.38
1.07
-1.46
-4.36
-7.84
-12.07
-16.96
-22.1
-26.74
-30.08
-31.43
-30.49
-27.4
-22.65
-16.99
-11.16
-5.81
-1.36
1.97
4.2
5.5
6.15
6.44
6.6
6.72
6.8
6.69
6.24
5.34
4.01
2.43
0.83
-0.54
-1.54
-2.22
-2.78
-3.44
-4.43
-5.81
-7.54
-9.48
-11.46
-13.31
-14.93
-16.25
-17.25
-17.95
-18.37
-18.57
-18.56
-18.37
-18.05
-17.69
-17.4
-17.34
-17.66
-18.46
-19.75
-21.36
-22.93
-24
-24.03
-22.62
-19.66
-15.36
-10.25
-4.97
-0.06
4.15
7.64
10.6
13.27
15.82
18.24
20.38
21.99
22.89
23.01
22.46
21.46
20.3
19.21
18.3
17.59
17.02
16.49
15.98
15.51
15.09
14.74
14.4
13.99
13.42
12.6
11.54
10.27
8.86
7.39
5.95
4.59
3.34
2.18
0.99
-0.35
-2
-4.04
-6.44
-9.07
-11.63
-13.77
-15.04
-15.04
-13.5
-10.4
-6.04
-1.01
3.96
8.27
11.61
14.07
15.94
17.58
19.17
20.71
22.04
22.99
23.48
23.55
23.29
22.81
22.12
21.18
19.93
18.31
16.28
13.9
11.24
8.43
5.58
2.84
0.3
-1.96
-3.93
-5.64
-7.17
-8.57
-9.9
-11.11
-12.11
-12.78
-12.93
-12.31
-10.68
-7.85
-3.84
1.03
6.11
10.6
13.76
15.18
14.9
13.36
11.28
9.37
8.21
8.12
9.08
10.84
12.99
15.08
16.77
17.94
18.63
19.01
19.26
19.51
19.8
20.07
20.22
20.13
19.74
19.03
18.12
17.15
16.25
15.46
14.7
13.85
12.78
11.46
9.96
8.38
6.78
5.21
3.64
2.03
0.34
-1.47
-3.44
-5.61
-7.94
-10.3
-12.49
-14.33
-15.74
-16.84
-17.88
-19.12
-20.76
-22.77
-24.91
-26.78
-27.97
-28.1
-27.04
-24.86
-21.83
-18.34
-14.81
-11.57
-8.88
-6.83
-5.39
-4.41
-3.71
-3.08
-2.44
-1.74
-1.07
-0.47
0.04
0.52
1.03
1.6
2.17
2.61
2.82
2.77
2.55
2.31
2.17
2.13
2.02
1.65
0.82
-0.57
-2.46
-4.72
-7.15
-9.63
-12.03
-14.28
-16.29
-18.04
-19.54
-20.94
-22.4
-24.03
-25.72
-27.11
-27.68
-26.99
-24.83
-21.38
-17.13
-12.75
-8.81
-5.69
-3.49
-2.08
-1.21
-0.59
-0.01
0.67
1.44
2.24
2.92
3.38
3.53
3.34
2.83
2.04
1.11
0.2
-0.46
-0.75
-0.64
-0.25
0.22
0.55
0.57
0.27
-0.29
-0.99
-1.64
-2.12
-2.33
-2.26
-2
-1.76
-1.81
-2.4
-3.64
-5.44
-7.48
-9.25
-10.2
-9.89
-8.12
-5.07
-1.21
2.79
6.3
8.93
10.62
11.56
12.03
12.27
12.36
12.24
11.82
11.04
9.95
8.68
7.36
6.09
4.93
3.88
3.01
2.4
2.15
2.26
2.61
2.94
2.96
2.53
1.69
0.63
-0.4
-1.23
-1.88
-2.51
-3.28
-4.3
-5.53
-6.84
-8.11
-9.25
-10.26
-11.2
-12.17
-13.25
-14.45
-15.71
-16.83
-17.53
-17.52
-16.62
-14.82
-12.38
-9.69
-7.14
-4.97
-3.24
-1.77
-0.35
1.18
2.81
4.41
5.8
6.85
7.54
7.94
8.2
8.43
8.72
9.04
9.39
9.7
9.93
10.05
10.01
9.75
9.22
8.41
7.4
6.36
5.47
4.86
4.54
4.36
4.09
3.51
2.51
1.16
-0.32
-1.7
-2.83
-3.7
-4.46
-5.31
-6.46
-7.99
-9.84
-11.83
-13.65
-14.99
-15.48
-14.92
-13.2
-10.49
-7.12
-3.58
-0.32
2.38
4.39
5.78
6.71
7.31
7.65
7.77
7.66
7.33
6.84
6.27
5.73
5.31
5.05
4.95
4.93
4.92
4.83
4.65
4.39
4.08
3.69
3.13
2.32
1.17
-0.26
-1.83
-3.38
-4.78
-5.99
-7.07
-8.13
-9.25
-10.48
-11.81
-13.17
-14.47
-15.62
-16.51
-17.12
-17.46
-17.61
-17.7
-17.85
-18.21
-18.9
-19.97
-21.23
-22.26
-22.47
-21.3
-18.51
-14.33
-9.41
-4.57
-0.46
2.62
4.79
6.34
7.56
8.57
9.35
9.82
9.98
9.87
9.53
8.99
8.18
7.03
5.48
3.58
1.42
-0.82
-3.01
-5.04
-6.85
-8.43
-9.81
-11.09
-12.38
-13.76
-15.2
-16.59
-17.71
-18.4
-18.57
-18.28
-17.63
-16.78
-15.84
-14.87
-13.95
-13.21
-12.82
-12.85
-13.24
-13.75
-14.11
-14.14
-13.87
-13.52
-13.39
-13.75
-14.68
-16.02
-17.41
-18.41
-18.55
-17.52
-15.25
-11.94
-8.04
-4.09
-0.61
2.12
4.1
5.51
6.62
7.62
8.59
9.47
10.19
10.67
10.95
11.1
11.22
11.36
11.51
11.63
11.66
11.6
11.45
11.34
11.34
11.48
11.71
11.83
11.62
10.93
9.79
8.39
7.08
6.14
5.69
5.62
5.65
5.44
4.77
3.62
2.17
0.68
-0.63
-1.66
-2.49
-3.35
-4.47
-6.08
-8.29
-11.06
-14.24
-17.48
-20.33
-22.3
-23.03
-22.33
-20.31
-17.31
-13.78
-10.17
-6.78
-3.76
-1.13
1.17
3.21
5.04
6.69
8.2
9.59
10.89
12.1
13.2
14.16
14.94
15.5
15.85
16.05
16.26
16.71
17.55
18.86
20.54
22.34
23.99
25.25
26.02
26.27
26.06
25.42
24.35
22.79
20.67
17.91
14.46
10.35
5.71
0.75
-4.3
-9.2
-13.79
-18.01
-21.83
-25.27
-28.38
-31.21
-33.76
-35.88
-37.33
-37.77
-36.95
-34.76
-31.41
-27.29
-22.87
-18.5
-14.35
-10.43
-6.69
-3.12
0.21
3.15
5.56
7.39
8.62
9.32
9.58
9.51
9.22
8.8
8.32
7.8
7.3
6.85
6.55
6.47
6.68
7.19
7.93
8.73
9.38
9.74
9.73
9.42
8.98
8.55
8.21
7.87
7.4
6.64
5.56
4.24
2.85
1.56
0.47
-0.44
-1.3
-2.29
-3.69
-5.75
-8.59
-12.11
-15.89
-19.3
-21.66
-22.55
-21.87
-19.95
-17.29
-14.41
-11.62
-9.03
-6.57
-4.15
-1.74
0.6
2.76
4.64
6.25
7.66
8.97
10.24
11.45
12.51
13.33
13.88
14.24
14.58
15.09
15.88
16.91
18.02
18.93
19.45
19.45
18.95
18.05
16.82
15.36
13.67
11.79
9.79
7.73
5.69
3.68
1.71
-0.24
-2.16
-4.02
-5.8
-7.54
-9.31
-11.23
-13.43
-16
-18.93
-22.08
-25.1
-27.5
-28.77
-28.54
-26.8
-23.94
-20.65
-17.7
-15.65
-14.71
-14.72
-15.32
-16.11
-16.76
-17.06
-16.95
-16.41
-15.43
-14.02
-12.16
-9.88
-7.25
-4.41
-1.58
1.03
3.22
4.92
6.19
7.15
7.95
8.67
9.3
9.79
10.08
10.14
9.96
9.6
9.16
8.75
8.51
8.53
8.81
9.28
9.72
9.94
9.76
9.17
8.19
6.96
5.51
3.87
1.96
-0.27
-2.92
-6.04
-9.69
-13.79
-18.12
-22.25
-25.63
-27.7
-28.14
-26.94
-24.42
-21.08
-17.45
-13.94
-10.76
-8.04
-5.81
-4.02
-2.6
-1.41
-0.25
1.01
2.4
3.89
5.34
6.63
7.71
8.62
9.47
10.39
11.46
12.69
14.04
15.41
16.72
17.9
18.92
19.76
20.37
20.75
20.87
20.74
20.39
19.9
19.34
18.74
18.06
17.26
16.3
15.23
14.12
13.03
11.98
10.85
9.47
7.69
5.45
2.83
0.09
-2.45
-4.41
-5.49
-5.51
-4.51
-2.67
-0.33
2.14
4.47
6.44
7.92
8.77
8.93
8.38
7.27
5.96
4.88
4.47
4.95
6.3
8.3
10.64
13.08
15.49
17.91
20.43
23.17
26.19
29.43
32.77
36.01
38.95
41.34
42.92
43.4
42.48
40
35.99
30.73
24.73
18.49
12.49
6.95
1.95
-2.54
-6.5
-9.92
-12.75
-15.03
-16.94
-18.69
-20.53
-22.6
-24.87
-27.15
-29.04
-30.08
-29.75
-27.7
-23.87
-18.53
-12.34
-6.12
-0.64
3.59
6.47
8.16
9.04
9.42
9.49
9.27
8.74
7.88
6.67
5.16
3.41
1.55
-0.24
-1.73
-2.67
-2.88
-2.33
-1.14
0.42
2.06
3.54
4.66
5.39
5.82
6.11
6.48
7.12
8.14
9.52
11.17
12.97
14.79
16.57
18.23
19.67
20.76
21.29
21.11
20.08
18.12
15.24
11.55
7.26
2.76
-1.42
-4.66
-6.47
-6.61
-5.21
-2.75
0.16
2.93
5.23
6.97
8.25
9.21
9.96
10.53
10.93
11.15
11.25
11.32
11.45
11.7
12.04
12.32
12.32
11.82
10.68
8.85
6.39
3.39
-0.09
-4.08
-8.64
-13.78
-19.35
-25.12
-30.79
-36.15
-41.1
-45.66
-49.82
-53.46
-56.32
-58.06
-58.45
-57.46
-55.38
-52.7
-50
-47.68
-45.87
-44.32
-42.56
-40.09
-36.62
-32.21
-27.15
-21.91
-16.85
-12.16
-7.86
-3.88
-0.21
3.13
6.08
8.66
10.95
13.04
14.99
16.79
18.39
19.76
20.95
22.02
23.02
23.98
24.84
25.56
26.09
26.44
26.6
26.59
26.43
26.16
25.82
25.51
25.23
24.97
24.62
24.08
23.25
22.1
20.7
19.19
17.75
16.52
15.57
14.78
13.87
12.48
10.24
6.89
2.41
-2.97
-8.75
-14.24
-18.71
-21.57
-22.48
-21.54
-19.19
-16.14
-13.08
-10.51
-8.56
-7.12
-5.88
-4.58
-3.12
-1.56
-0.08
1.23
2.31
3.25
4.12
4.93
5.58
5.94
5.94
5.6
5.12
4.7
4.5
4.49
4.49
4.25
3.57
2.43
0.95
-0.61
-2.01
-3.08
-3.73
-3.99
-3.93
-3.7
-3.46
-3.36
-3.54
-4.06
-4.88
-5.93
-7.05
-8.02
-8.56
-8.32
-7.04
-4.62
-1.25
2.63
6.5
9.89
12.56
14.54
16
17.12
17.96
18.45
18.47
17.93
16.85
15.37
13.7
12.06
10.57
9.26
8.05
6.81
5.43
3.93
2.38
0.89
-0.41
-1.51
-2.48
-3.45
-4.53
-5.77
-7.1
-8.38
-9.48
-10.29
-10.79
-11.01
-11.04
-11.05
-11.2
-11.63
-12.43
-13.49
-14.58
-15.3
-15.25
-14.2
-12.18
-9.45
-6.42
-3.51
-0.99
1.03
2.57
3.71
4.52
5.05
5.31
5.38
5.33
5.27
5.26
5.3
5.33
5.29
5.12
4.79
4.41
4.07
3.9
3.96
4.18
4.46
4.62
4.54
4.12
3.36
2.31
1.1
-0.11
-1.17
-1.99
-2.61
-3.15
-3.86
-4.94
-6.49
-8.39
-10.3
-11.76
-12.37
-11.94
-10.52
-8.42
-6.02
-3.71
-1.68
0.02
1.46
2.74
3.9
4.88
5.59
5.96
5.99
5.78
5.46
5.19
5.1
5.24
5.57
5.99
6.37
6.61
6.69
6.61
6.45
6.25
6.01
5.68
5.22
4.57
3.74
2.75
1.66
0.52
-0.61
-1.7
-2.68
-3.56
-4.39
-5.29
-6.4
-7.86
-9.73
-11.94
-14.27
-16.3
-17.58
-17.72
-16.57
-14.33
-11.45
-8.54
-6.05
-4.19
-2.85
-1.78
-0.76
0.3
1.35
2.26
2.96
3.44
3.76
3.98
4.13
4.23
4.3
4.35
4.42
4.49
4.51
4.41
4.18
3.82
3.38
2.93
2.48
1.98
1.4
0.71
-0.05
-0.81
-1.51
-2.18
-2.84
-3.59
-4.46
-5.44
-6.47
-7.43
-8.27
-8.96
-9.55
-10.13
-10.8
-11.68
-12.83
-14.26
-15.92
-17.63
-19.17
-20.22
-20.5
-19.78
-18.03
-15.45
-12.46
-9.55
-7.17
-5.51
-4.48
-3.79
-3.09
-2.17
-0.94
0.48
1.9
3.18
4.23
5.06
5.72
6.27
6.77
7.25
7.73
8.2
8.65
9.07
9.46
9.83
10.18
10.47
10.55
10.35
9.78
8.9
7.86
6.86
6.07
5.51
5.06
4.5
3.63
2.33
0.66
-1.21
-3.06
-4.68
-5.93
-6.83
-7.47
-8.11
-9.01
-10.46
-12.61
-15.37
-18.4
-21.16
-23.06
-23.66
-22.81
-20.71
-17.8
-14.63
-11.67
-9.18
-7.18
-5.52
-3.93
-2.23
-0.39
1.52
3.34
4.96
6.31
7.42
8.31
9
9.46
9.7
9.72
9.61
9.46
9.35
9.29
9.23
9.11
8.85
8.42
7.85
7.24
6.66
6.19
5.83
5.52
5.09
4.45
3.53
2.42
1.25
0.15
-0.83
-1.76
-2.81
-4.14
-5.83
-7.84
-10.04
-12.19
-14.05
-15.32
-15.77
-15.26
-13.83
-11.71
-9.25
-6.83
-4.66
-2.81
-1.2
0.3
1.76
3.16
4.4
5.42
6.18
6.71
7.02
7.1
6.97
6.61
6.09
5.51
4.99
4.63
4.46
4.46
4.55
4.67
4.74
4.69
4.45
4
3.36
2.62
1.9
1.31
0.85
0.42
-0.16
-1.05
-2.31
-3.83
-5.38
-6.76
-7.86
-8.71
-9.5
-10.51
-12.01
-14.18
-17.04
-20.39
-23.79
-26.68
-28.51
-28.92
-27.8
-25.38
-22.1
-18.44
-14.83
-11.55
-8.74
-6.41
-4.46
-2.74
-1.1
0.6
2.42
4.35
6.32
8.24
10.04
11.64
13.01
14.12
14.98
15.61
16.11
16.64
17.3
18.12
18.99
19.65
19.81
19.23
17.89
15.93
13.69
11.51
9.62
8.09
6.78
5.49
4.03
2.29
0.29
-1.88
-4.04
-6.02
-7.71
-9.11
-10.41
-11.87
-13.74
-16.11
-18.78
-21.32
-23.18
-23.88
-23.19
-21.15
-18.08
-14.41
-10.58
-6.95
-3.79
-1.2
0.83
2.46
3.92
5.37
6.89
8.41
9.72
10.65
11.12
11.21
11.15
11.14
11.3
11.61
11.95
12.18
12.21
12.09
11.89
11.69
11.52
11.32
11.01
10.49
9.75
8.86
7.92
7.06
6.37
5.84
5.4
4.95
4.39
3.67
2.8
1.81
0.76
-0.38
-1.64
-3.08
-4.76
-6.65
-8.69
-10.87
-13.24
-15.85
-18.72
-21.72
-24.46
-26.5
-27.37
-26.87
-25.08
-22.35
-19.16
-15.91
-12.88
-10.2
-7.9
-5.96
-4.35
-3
-1.81
-0.64
0.58
1.87
3.14
4.28
5.22
5.96
6.55
7.06
7.54
8.05
8.58
9.16
9.8
10.49
11.19
11.86
12.43
12.86
13.12
13.15
12.89
12.35
11.56
10.66
9.81
9.09
8.5
7.93
7.22
6.25
4.97
3.39
1.58
-0.39
-2.44
-4.44
-6.29
-7.97
-9.55
-11.24
-13.3
-15.94
-19.18
-22.79
-26.29
-29.06
-30.56
-30.43
-28.67
-25.57
-21.63
-17.43
-13.43
-9.96
-7.15
-4.98
-3.29
-1.89
-0.58
0.77
2.21
3.67
5.05
6.22
7.12
7.76
8.22
8.65
9.18
9.91
10.86
11.96
13.1
14.14
14.98
15.59
15.92
15.97
15.73
15.2
14.44
13.52
12.51
11.47
10.42
9.32
8.1
6.7
5.04
3.1
0.96
-1.22
-3.23
-4.86
-6
-6.76
-7.42
-8.36
-9.93
-12.32
-15.47
-19
-22.33
-24.76
-25.66
-24.72
-21.95
-17.77
-12.86
-7.92
-3.48
0.2
3.13
5.47
7.41
9.13
10.71
12.19
13.53
14.72
15.71
16.51
17.12
17.58
17.94
18.27
18.54
18.73
18.81
18.75
18.61
18.44
18.29
18.17
18
17.67
17.05
16.07
14.74
13.15
11.4
9.63
7.93
6.38
4.97
3.66
2.39
1.03
-0.48
-2.2
-4.1
-6.09
-8.05
-9.84
-11.39
-12.73
-14.03
-15.5
-17.35
-19.63
-22.19
-24.59
-26.27
-26.66
-25.42
-22.53
-18.34
-13.42
-8.47
-4
-0.32
2.55
4.79
6.68
8.46
10.27
12.15
14.05
15.94
17.71
19.3
20.57
21.42
21.78
21.71
21.37
21.01
20.91
21.2
21.89
22.76
23.5
23.8
23.52
22.71
21.59
20.46
19.45
18.54
17.51
16.12
14.2
11.76
8.95
5.99
3.01
0.07
-2.88
-5.83
-8.7
-11.35
-13.63
-15.5
-17.08
-18.6
-20.32
-22.44
-25.03
-28.02
-31.19
-34.21
-36.59
-37.76
-37.15
-34.4
-29.53
-23.04
-15.83
-8.92
-3.18
0.95
3.46
4.71
5.18
5.28
5.31
5.46
5.85
6.58
7.72
9.2
10.87
12.51
13.9
14.95
15.69
16.28
16.91
17.71
18.65
19.54
20.04
19.79
18.57
16.36
13.36
9.99
6.67
3.68
1.05
-1.39
-3.93
-6.77
-9.83
-12.87
-15.53
-17.6
-19.12
-20.41
-21.87
-23.9
-26.65
-30.01
-33.68
-37.19
-39.99
-41.57
-41.45
-39.38
-35.39
-29.84
-23.41
-16.9
-10.96
-6.02
-2.1
1.04
3.79
6.47
9.23
12.02
14.62
16.8
18.43
19.5
20.1
20.34
20.27
19.89
19.25
18.42
17.59
16.99
16.74
16.81
16.97
16.92
16.41
15.36
13.92
12.32
10.85
9.65
8.69
7.79
6.71
5.26
3.44
1.42
-0.55
-2.26
-3.67
-4.92
-6.31
-8.13
-10.56
-13.65
-17.26
-21.11
-24.77
-27.71
-29.3
-29.03
-26.64
-22.32
-16.62
-10.38
-4.41
0.75
4.88
8.09
10.59
12.6
14.24
15.53
16.49
17.19
17.74
18.24
18.78
19.36
19.86
20.14
20.07
19.64
18.97
18.28
17.82
17.72
17.96
18.33
18.54
18.3
17.51
16.21
14.59
12.85
11.14
9.49
7.9
6.35
4.82
3.33
1.86
0.34
-1.3
-3.07
-4.96
-6.88
-8.73
-10.55
-12.41
-14.55
-17.12
-20.13
-23.35
-26.23
-28.06
-28.2
-26.28
-22.36
-16.95
-10.83
-4.81
0.42
4.54
7.45
9.31
10.42
11.13
11.75
12.54
13.59
14.83
16.08
17.17
18
18.58
18.96
19.2
19.34
19.42
19.5
19.67
19.97
20.35
20.62
20.5
19.78
18.36
16.37
14.09
11.83
9.83
8.14
6.72
5.38
3.96
2.35
0.54
-1.37
-3.25
-4.93
-6.28
-7.25
-7.9
-8.38
-8.91
-9.7
-10.9
-12.5
-14.33
-15.99
-16.96
-16.72
-14.9
-11.45
-6.68
-1.19
4.31
9.21
13.22
16.3
18.66
20.54
22.11
23.34
24.1
24.18
23.52
22.17
20.32
18.28
16.32
14.61
13.2
12
10.88
9.68
8.24
6.48
4.33
1.83
-0.92
-3.72
-6.29
-8.39
-9.86
-10.69
-10.98
-10.88
-10.56
-10.16
-9.84
-9.7
-9.81
-10.13
-10.57
-11.02
-11.49
-12.13
-13.16
-14.82
-17.23
-20.32
-23.89
-27.64
-31.26
-34.33
-36.35
-36.84
-35.46
-32.21
-27.46
-21.91
-16.31
-11.19
-6.72
-2.81
0.78
4.21
7.48
10.46
13.01
15.03
16.56
17.7
18.58
19.32
20
20.66
21.3
21.93
22.52
23.05
23.48
23.7
23.58
23.01
21.92
20.37
18.49
16.45
14.42
12.47
10.6
8.7
6.67
4.39
1.83
-0.98
-3.94
-6.93
-9.95
-13.05
-16.45
-20.31
-24.64
-29.2
-33.48
-36.9
-39.02
-39.71
-39.24
-38.08
-36.71
-35.42
-34.2
-32.81
-30.9
-28.17
-24.5
-19.95
-14.78
-9.33
-3.95
1.09
5.65
9.7
13.21
16.16
18.47
20.11
21.07
21.5
21.59
21.58
21.63
21.73
21.8
21.66
21.15
20.14
18.57
16.44
13.78
10.72
7.4
3.98
0.58
-2.72
-5.87
-8.84
-11.59
-14.1
-16.34
-18.28
-19.89
-21.03
-21.48
-20.99
-19.38
-16.68
-13.19
-9.41
-5.83
-2.75
-0.22
1.95
4.05
6.25
8.62
11.03
13.34
15.4
17.19
18.78
20.33
21.99
23.91
26.15
28.68
31.41
34.18
36.84
39.23
41.22
42.68
43.5
43.56
42.8
41.16
38.65
35.35
31.41
27.1
22.74
18.61
14.9
11.63
8.62
5.57
2.14
-1.95
-6.8
-12.26
-17.97
-23.38
-27.93
-31.17
-32.99
-33.53
-33.15
-32.19
-30.9
-29.3
-27.35
-25.02
-22.44
-19.91
-17.79
-16.4
-15.91
-16.31
-17.46
-19.06
-20.77
-22.27
-23.21
-23.37
-22.64
-21.06
-18.87
-16.38
-13.89
-11.61
-9.61
-7.86
-6.26
-4.7
-3.14
-1.57
-0.04
1.43
2.75
3.88
4.72
5.14
5.08
4.56
3.66
2.46
1.07
-0.48
-2.1
-3.65
-4.91
-5.55
-5.3
-4.06
-1.99
0.51
2.92
4.79
5.82
5.98
5.46
4.56
3.63
2.92
2.58
2.64
3.02
3.63
4.34
5.08
5.78
6.39
6.87
7.2
7.38
7.43
7.37
7.19
6.88
6.44
5.9
5.34
4.84
4.48
4.22
3.99
3.65
3.09
2.31
1.4
0.49
-0.3
-0.93
-1.49
-2.11
-2.99
-4.26
-5.97
-8.02
-10.17
-12.06
-13.3
-13.64
-12.96
-11.38
-9.19
-6.76
-4.44
-2.45
-0.89
0.28
1.18
1.98
2.78
3.62
4.48
5.28
5.96
6.5
6.92
7.26
7.57
7.9
8.23
8.53
8.74
8.8
8.64
8.27
7.71
7.04
6.31
5.55
4.75
3.86
2.9
1.91
0.95
0.04
-0.89
-1.96
-3.28
-4.86
-6.62
-8.42
-10.19
-11.95
-13.86
-16.02
-18.4
-20.74
-22.52
-23.26
-22.65
-20.77
-18.02
-15.01
-12.3
-10.2
-8.77
-7.84
-7.2
-6.69
-6.24
-5.86
-5.55
-5.28
-5.02
-4.77
-4.53
-4.29
-3.97
-3.38
-2.23
-0.29
2.49
5.95
9.65
13.03
15.54
16.86
16.94
16
14.34
12.29
10.06
7.8
5.62
3.63
1.92
0.54
-0.59
-1.68
-2.98
-4.73
-6.97
-9.56
-12.18
-14.37
-15.71
-15.92
-14.89
-12.78
-9.9
-6.69
-3.53
-0.68
1.77
3.9
5.85
7.68
9.37
10.8
11.84
12.44
12.69
12.71
12.64
12.54
12.38
12.1
11.64
10.98
10.21
9.41
8.67
8
7.39
6.72
5.88
4.8
3.47
1.95
0.37
-1.15
-2.57
-3.92
-5.28
-6.7
-8.21
-9.74
-11.25
-12.71
-14.17
-15.76
-17.58
-19.63
-21.76
-23.64
-24.87
-25.08
-24.12
-22.07
-19.26
-16.12
-13.03
-10.24
-7.78
-5.57
-3.53
-1.62
0.11
1.58
2.77
3.73
4.58
5.41
6.25
7.03
7.59
7.85
7.79
7.55
7.33
7.33
7.63
8.16
8.73
9.12
9.14
8.76
8.08
7.24
6.46
5.79
5.23
4.68
4.04
3.25
2.36
1.46
0.59
-0.22
-0.99
-1.78
-2.71
-3.85
-5.31
-7.13
-9.25
-11.46
-13.47
-14.85
-15.31
-14.63
-12.9
-10.36
-7.43
-4.55
-2.07
-0.19
1.06
1.84
2.4
2.95
3.65
4.48
5.38
6.23
6.98
7.61
8.16
8.66
9.14
9.57
9.94
10.26
10.53
10.78
11
11.16
11.23
11.18
11.03
10.74
10.32
9.75
9.02
8.2
7.32
6.45
5.61
4.78
3.96
3.17
2.42
1.74
1.07
0.32
-0.6
-1.76
-3.13
-4.61
-6.09
-7.49
-8.85
-10.24
-11.8
-13.55
-15.44
-17.22
-18.5
-18.86
-18.03
-15.96
-12.94
-9.48
-6.13
-3.3
-1.18
0.27
1.23
1.89
2.4
2.86
3.36
3.95
4.65
5.44
6.22
6.94
7.53
8.02
8.47
8.95
9.5
10.06
10.53
10.79
10.72
10.35
9.81
9.27
8.88
8.6
8.3
7.76
6.89
5.76
4.62
3.74
3.25
3.07
2.96
2.73
2.29
1.73
1.19
0.76
0.47
0.25
0.01
-0.29
-0.71
-1.31
-2.16
-3.31
-4.71
-6.14
-7.29
-7.83
-7.54
-6.39
-4.56
-2.34
-0.06
2.01
3.75
5.15
6.3
7.31
8.28
9.26
10.26
11.26
12.22
13.08
13.78
14.26
14.47
14.38
14.04
13.47
12.75
11.95
11.15
10.39
9.7
9.08
8.47
7.84
7.16
6.43
5.67
4.95
4.27
3.66
3.1
2.53
1.86
0.97
-0.29
-2
-4.13
-6.58
-9.19
-11.78
-14.25
-16.49
-18.32
-19.49
-19.69
-18.68
-16.44
-13.26
-9.66
-6.19
-3.33
-1.31
-0.08
0.56
0.87
1.06
1.21
1.31
1.28
1.09
0.72
0.24
-0.28
-0.75
-1.13
-1.43
-1.67
-1.86
-1.95
-1.87
-1.59
-1.16
-0.7
-0.37
-0.27
-0.39
-0.62
-0.79
-0.82
-0.73
-0.66
-0.75
-1.07
-1.55
-2.07
-2.51
-2.89
-3.31
-3.91
-4.7
-5.56
-6.22
-6.42
-6
-5
-3.65
-2.19
-0.81
0.45
1.62
2.77
3.91
4.98
5.9
6.6
7.03
7.18
7
6.45
5.51
4.24
2.79
1.33
-0
-1.14
-2.07
-2.85
-3.49
-3.98
-4.3
-4.43
-4.48
-4.55
-4.83
-5.42
-6.34
-7.49
-8.69
-9.73
-10.45
-10.81
-10.87
-10.77
-10.7
-10.86
-11.42
-12.46
-13.91
-15.54
-16.96
-17.7
-17.44
-16.07
-13.81
-11.1
-8.47
-6.29
-4.69
-3.55
-2.61
-1.67
-0.64
0.42
1.41
2.22
2.88
3.49
4.2
5.1
6.22
7.47
8.69
9.72
10.44
10.84
10.96
10.87
10.63
10.26
9.8
9.29
8.76
8.22
7.64
6.92
6.01
4.91
3.71
2.52
1.43
0.46
-0.46
-1.48
-2.74
-4.36
-6.39
-8.78
-11.33
-13.72
-15.52
-16.36
-16.02
-14.58
-12.35
-9.8
-7.34
-5.25
-3.62
-2.4
-1.53
-0.94
-0.61
-0.49
-0.52
-0.57
-0.47
-0.13
0.48
1.28
2.18
3.01
3.66
4.05
4.17
4.04
3.72
3.29
2.84
2.45
2.18
2.07
2.08
2.16
2.2
2.11
1.83
1.34
0.64
-0.25
-1.29
-2.39
-3.46
-4.37
-5.11
-5.72
-6.34
-7.13
-8.2
-9.57
-11.19
-12.99
-14.8
-16.42
-17.53
-17.83
-17.08
-15.32
-12.81
-10.01
-7.34
-5.01
-3.03
-1.25
0.43
1.97
3.21
4
4.32
4.32
4.24
4.27
4.47
4.72
4.9
4.94
4.92
5
5.28
5.79
6.42
6.98
7.34
7.43
7.3
7.02
6.65
6.19
5.62
4.9
4.09
3.21
2.31
1.44
0.55
-0.37
-1.38
-2.48
-3.69
-5.01
-6.44
-7.99
-9.64
-11.31
-12.8
-13.88
-14.27
-13.78
-12.39
-10.25
-7.65
-5
-2.61
-0.68
0.8
1.99
3.07
4.17
5.29
6.35
7.17
7.64
7.74
7.59
7.32
7.1
7
7.05
7.18
7.32
7.43
7.5
7.54
7.56
7.56
7.47
7.23
6.77
6.13
5.39
4.71
4.22
3.97
3.92
3.89
3.73
3.31
2.6
1.67
0.61
-0.5
-1.66
-2.91
-4.33
-5.98
-7.91
-10.11
-12.49
-14.85
-16.91
-18.28
-18.65
-17.8
-15.79
-12.9
-9.61
-6.44
-3.76
-1.73
-0.29
0.82
1.83
2.93
4.1
5.21
6.08
6.58
6.72
6.64
6.55
6.6
6.89
7.4
8.06
8.82
9.62
10.44
11.19
11.77
12.1
12.14
11.91
11.5
10.99
10.42
9.76
8.96
8.02
7
6.02
5.18
4.44
3.69
2.76
1.54
0.05
-1.58
-3.13
-4.46
-5.58
-6.59
-7.7
-9.04
-10.66
-12.45
-14.19
-15.63
-16.5
-16.57
-15.7
-13.88
-11.27
-8.2
-5.02
-2.04
0.56
2.75
4.62
6.23
7.62
8.76
9.6
10.13
10.44
10.63
10.8
11.03
11.3
11.54
11.69
11.71
11.61
11.43
11.24
11.04
10.8
10.4
9.75
8.81
7.66
6.47
5.39
4.48
3.69
2.88
1.9
0.68
-0.72
-2.19
-3.55
-4.7
-5.57
-6.19
-6.64
-7.05
-7.58
-8.37
-9.53
-11.08
-12.94
-14.89
-16.54
-17.45
-17.23
-15.71
-13.02
-9.58
-5.93
-2.55
0.28
2.49
4.22
5.63
6.78
7.71
8.38
8.77
8.92
8.93
8.95
9.07
9.33
9.65
9.9
9.96
9.75
9.33
8.83
8.37
7.99
7.7
7.45
7.18
6.9
6.6
6.27
5.86
5.25
4.35
3.15
1.71
0.18
-1.28
-2.64
-3.88
-5.11
-6.42
-7.84
-9.29
-10.67
-11.92
-13.06
-14.29
-15.84
-17.85
-20.22
-22.58
-24.35
-24.98
-24.13
-21.79
-18.31
-14.23
-10.12
-6.43
-3.36
-0.96
0.88
2.32
3.5
4.48
5.33
6.1
6.83
7.56
8.27
8.9
9.36
9.59
9.58
9.47
9.43
9.58
9.95
10.41
10.77
10.85
10.6
10.07
9.39
8.69
8.09
7.6
7.15
6.66
6.01
5.18
4.19
3.14
2.13
1.21
0.38
-0.47
-1.44
-2.62
-3.96
-5.37
-6.75
-8.07
-9.39
-10.78
-12.36
-14.18
-16.27
-18.61
-21.1
-23.49
-25.41
-26.4
-26.03
-24.15
-20.91
-16.81
-12.47
-8.49
-5.23
-2.77
-0.97
0.41
1.63
2.88
4.23
5.66
7.05
8.27
9.23
9.91
10.35
10.64
10.83
11
11.16
11.35
11.61
11.9
12.15
12.2
11.88
11.15
10.1
8.94
7.92
7.22
6.83
6.6
6.28
5.63
4.5
2.95
1.13
-0.69
-2.24
-3.37
-4.05
-4.39
-4.65
-5.03
-5.71
-6.71
-7.93
-9.22
-10.44
-11.5
-12.42
-13.36
-14.57
-16.35
-18.9
-22.13
-25.64
-28.71
-30.53
-30.49
-28.44
-24.67
-19.9
-14.89
-10.26
-6.37
-3.31
-1
0.73
2.07
3.22
4.36
5.61
6.95
8.31
9.55
10.57
11.34
11.9
12.32
12.6
12.73
12.69
12.46
12.08
11.55
10.89
10.06
9.04
7.81
6.39
4.84
3.23
1.7
0.35
-0.7
-1.37
-1.69
-1.79
-1.89
-2.2
-2.79
-3.61
-4.53
-5.4
-6.2
-7.05
-8.14
-9.64
-11.66
-14.24
-17.3
-20.69
-24.09
-27.03
-28.9
-29.18
-27.55
-24.15
-19.55
-14.54
-9.92
-6.2
-3.53
-1.71
-0.35
0.89
2.24
3.71
5.25
6.71
8
9.08
9.97
10.74
11.39
11.96
12.43
12.78
13.04
13.24
13.42
13.55
13.57
13.32
12.65
11.46
9.83
7.92
5.99
4.23
2.68
1.27
-0.17
-1.79
-3.65
-5.69
-7.71
-9.58
-11.21
-12.64
-14.03
-15.6
-17.55
-20.02
-22.95
-26.04
-28.8
-30.6
-30.86
-29.23
-25.71
-20.72
-14.93
-9.07
-3.71
0.8
4.43
7.28
9.51
11.24
12.58
13.6
14.4
15.03
15.51
15.84
16
16.02
16.02
16.1
16.37
16.81
17.28
17.61
17.65
17.34
16.74
15.96
15.06
14.06
12.87
11.41
9.64
7.61
5.43
3.21
1.09
-0.88
-2.74
-4.59
-6.57
-8.81
-11.41
-14.41
-17.84
-21.65
-25.66
-29.43
-32.33
-33.65
-32.85
-29.76
-24.76
-18.65
-12.37
-6.75
-2.25
1.13
3.7
5.85
7.86
9.77
11.43
12.62
13.23
13.37
13.33
13.44
13.88
14.56
15.16
15.35
15
14.25
13.43
12.87
12.63
12.51
12.11
11.09
9.31
6.94
4.28
1.64
-0.82
-3.13
-5.36
-7.6
-9.89
-12.3
-14.95
-17.96
-21.31
-24.71
-27.59
-29.17
-28.8
-26.18
-21.61
-15.83
-9.78
-4.3
0.21
3.76
6.68
9.37
12.06
14.69
17.01
18.66
19.44
19.41
18.85
18.17
17.68
17.5
17.47
17.34
16.93
16.21
15.36
14.58
13.94
13.31
12.43
11.04
8.99
6.35
3.34
0.26
-2.64
-5.24
-7.56
-9.71
-11.93
-14.51
-17.67
-21.57
-26.11
-30.93
-35.36
-38.6
-39.93
-38.9
-35.55
-30.39
-24.22
-17.84
-11.85
-6.5
-1.77
2.48
6.39
9.99
13.19
15.9
18.07
19.69
20.83
21.61
22.16
22.58
22.96
23.31
23.58
23.7
23.6
23.23
22.59
21.66
20.43
18.83
16.79
14.25
11.21
7.84
4.39
1.18
-1.5
-3.5
-4.91
-5.94
-6.93
-8.15
-9.83
-12.08
-14.97
-18.55
-22.69
-27.06
-30.99
-33.65
-34.25
-32.39
-28.21
-22.37
-15.79
-9.35
-3.61
1.26
5.34
8.85
11.97
14.83
17.5
19.98
22.25
24.24
25.9
27.21
28.21
28.98
29.54
29.92
30.1
30.09
29.94
29.7
29.37
28.84
27.94
26.53
24.62
22.4
20.11
17.93
15.89
13.91
11.81
9.44
6.77
3.86
0.77
-2.37
-5.46
-8.39
-11.07
-13.52
-15.87
-18.38
-21.33
-24.9
-28.98
-33.12
-36.59
-38.52
-38.21
-35.38
-30.27
-23.58
-16.23
-9.12
-2.82
2.48
6.89
10.7
14.14
17.32
20.19
22.62
24.46
25.68
26.39
26.79
27.12
27.55
28.13
28.77
29.3
29.63
29.72
29.61
29.39
29.06
28.53
27.62
26.17
24.12
21.6
18.85
16.2
13.92
12.11
10.69
9.42
8
6.16
3.83
1.13
-1.7
-4.39
-6.75
-8.72
-10.36
-11.82
-13.27
-14.93
-17.03
-19.83
-23.44
-27.72
-32.15
-35.88
-37.9
-37.48
-34.36
-28.96
-22.16
-14.99
-8.27
-2.43
2.5
6.74
10.53
14.02
17.2
19.98
22.27
24.04
25.31
26.19
26.82
27.3
27.67
27.95
28.08
28.05
27.85
27.53
27.1
26.51
25.6
24.19
22.14
19.49
16.38
13.07
9.84
6.83
4.11
1.6
-0.79
-3.07
-5.25
-7.25
-9.08
-10.79
-12.57
-14.66
-17.24
-20.41
-24.01
-27.69
-30.85
-32.8
-32.89
-30.77
-26.49
-20.54
-13.74
-6.96
-0.88
4.15
8.17
11.41
14.12
16.41
18.3
19.7
20.61
21.09
21.33
21.47
21.61
21.75
21.82
21.74
21.47
21.02
20.42
19.76
19.08
18.4
17.7
16.93
16
14.78
13.15
10.99
8.32
5.28
2.13
-0.82
-3.33
-5.35
-7.03
-8.68
-10.63
-13.13
-16.24
-19.82
-23.54
-26.84
-29.06
-29.59
-28.04
-24.41
-19.18
-13.14
-7.13
-1.8
2.52
5.84
8.36
10.3
11.85
13.11
14.18
15.07
15.78
16.24
16.39
16.25
15.9
15.47
15.1
14.85
14.73
14.71
14.74
14.79
14.79
14.64
14.13
13.1
11.44
9.19
6.58
3.89
1.39
-0.82
-2.82
-4.83
-7.06
-9.6
-12.31
-14.94
-17.21
-19
-20.41
-21.67
-23.05
-24.74
-26.86
-29.34
-31.96
-34.28
-35.69
-35.6
-33.61
-29.73
-24.41
-18.38
-12.43
-7.1
-2.58
1.16
4.31
7.04
9.46
11.63
13.57
15.35
16.92
18.23
19.16
19.6
19.54
19.05
18.3
17.48
16.81
16.38
16.22
16.2
16.13
15.78
14.97
13.65
11.92
9.97
8.04
6.28
4.73
3.37
2.12
0.98
-0.03
-0.92
-1.72
-2.61
-3.71
-5.09
-6.66
-8.2
-9.46
-10.33
-10.88
-11.37
-12.11
-13.41
-15.46
-18.27
-21.63
-25.14
-28.24
-30.31
-30.87
-29.72
-27.04
-23.32
-19.25
-15.39
-12.1
-9.44
-7.2
-5.14
-3.06
-0.95
1.09
2.85
4.21
5.16
5.84
6.49
7.32
8.43
9.73
11.08
12.25
13.12
13.64
13.87
13.89
13.73
13.4
12.88
12.17
11.28
10.24
9.1
7.85
6.53
5.2
3.9
2.67
1.45
0.13
-1.39
-3.18
-5.16
-7.1
-8.79
-10.07
-10.95
-11.63
-12.39
-13.53
-15.26
-17.59
-20.3
-22.95
-24.96
-25.74
-24.88
-22.35
-18.49
-13.93
-9.37
-5.36
-2.14
0.33
2.28
3.92
5.42
6.8
8.05
9.14
10.02
10.65
11
11.06
10.9
10.64
10.39
10.21
10.07
9.92
9.72
9.49
9.3
9.15
8.93
8.45
7.54
6.16
4.51
2.84
1.37
0.15
-0.96
-2.17
-3.64
-5.32
-7.07
-8.65
-9.91
-10.84
-11.55
-12.23
-13.08
-14.27
-15.89
-17.89
-20.07
-22.06
-23.37
-23.49
-22.14
-19.34
-15.48
-11.21
-7.22
-4.04
-1.82
-0.41
0.58
1.52
2.64
3.96
5.33
6.59
7.64
8.45
9.07
9.52
9.81
9.93
9.88
9.73
9.59
9.58
9.75
10.05
10.32
10.36
10.04
9.26
8.11
6.72
5.29
3.96
2.8
1.8
0.89
0.01
-0.86
-1.7
-2.45
-3.04
-3.45
-3.75
-4.06
-4.58
-5.53
-7.04
-9.07
-11.38
-13.56
-15.13
-15.66
-14.94
-13.01
-10.22
-7.08
-4.1
-1.68
-0.01
0.94
1.38
1.56
1.7
1.93
2.28
2.64
2.9
2.97
2.87
2.72
2.7
2.91
3.38
3.94
4.4
4.61
4.58
4.41
4.24
4.09
3.85
3.32
2.36
0.97
-0.67
-2.3
-3.71
-4.83
-5.74
-6.57
-7.43
-8.39
-9.47
-10.72
-12.19
-13.9
-15.75
-17.51
-18.84
-19.37
-18.88
-17.35
-15.01
-12.19
-9.24
-6.44
-3.93
-1.82
-0.16
1.05
1.91
2.54
3.11
3.68
4.21
4.54
4.53
4.14
3.47
2.71
2.04
1.53
1.13
0.75
0.31
-0.15
-0.6
-0.98
-1.33
-1.76
-2.39
-3.27
-4.38
-5.57
-6.7
-7.65
-8.38
-8.92
-9.31
-9.63
-9.96
-10.39
-11.03
-12.02
-13.41
-15.16
-17.08
-18.8
-19.92
-20.07
-19.09
-17.12
-14.51
-11.75
-9.22
-7.12
-5.41
-3.91
-2.42
-0.82
0.88
2.58
4.1
5.35
6.24
6.77
7
7.05
7.04
7.04
7.12
7.33
7.68
8.17
8.76
9.35
9.77
9.86
9.54
8.87
7.99
7.08
6.24
5.48
4.72
3.82
2.71
1.41
0.04
-1.23
-2.32
-3.26
-4.2
-5.39
-7.02
-9.14
-11.56
-13.9
-15.59
-16.14
-15.24
-12.91
-9.53
-5.74
-2.19
0.63
2.52
3.57
4.1
4.41
4.75
5.21
5.75
6.3
6.81
7.24
7.56
7.7
7.58
7.12
6.36
5.44
4.63
4.19
4.29
4.89
5.75
6.55
7.03
7.1
6.89
6.62
6.5
6.59
6.83
7.04
6.99
6.56
5.69
4.48
3.09
1.74
0.56
-0.43
-1.34
-2.4
-3.88
-5.89
-8.38
-11.07
-13.52
-15.25
-15.91
-15.35
-13.71
-11.34
-8.72
-6.29
-4.34
-2.96
-2.03
-1.35
-0.77
-0.21
0.3
0.72
1.04
1.34
1.72
2.28
3.04
3.93
4.83
5.65
6.35
6.94
7.45
7.96
8.48
9.07
9.76
10.55
11.36
12.03
12.31
12.06
11.27
10.14
8.96
7.97
7.26
6.72
6.07
5.05
3.49
1.39
-1.06
-3.59
-5.85
-7.51
-8.3
-8.1
-7.01
-5.26
-3.18
-1.09
0.77
2.32
3.56
4.57
5.46
6.31
7.18
8.07
8.93
9.71
10.35
10.8
11.07
11.12
10.97
10.64
10.16
9.63
9.14
8.74
8.38
7.96
7.31
6.29
4.89
3.21
1.41
-0.26
-1.67
-2.75
-3.62
-4.48
-5.54
-6.96
-8.75
-10.77
-12.71
-14.2
-14.87
-14.51
-13.1
-10.89
-8.26
-5.66
-3.47
-1.8
-0.59
0.39
1.38
2.48
3.66
4.77
5.63
6.18
6.46
6.55
6.54
6.48
6.29
5.88
5.23
4.43
3.64
3.05
2.72
2.54
2.27
1.58
0.32
-1.49
-3.61
-5.68
-7.43
-8.74
-9.72
-10.64
-11.81
-13.46
-15.63
-18.13
-20.52
-22.27
-22.87
-22.04
-19.8
-16.5
-12.7
-8.99
-5.79
-3.26
-1.32
0.24
1.63
2.96
4.25
5.42
6.39
7.11
7.61
7.96
8.18
8.26
8.12
7.69
6.96
6.1
5.35
4.97
5.03
5.43
5.85
5.9
5.33
4.05
2.22
0.08
-2.06
-4.03
-5.72
-7.16
-8.42
-9.69
-11.13
-12.92
-15.14
-17.65
-20.1
-21.96
-22.69
-21.96
-19.73
-16.39
-12.53
-8.8
-5.62
-3.15
-1.26
0.32
1.82
3.31
4.75
6.07
7.19
8.15
9.01
9.79
10.46
10.95
11.17
11.13
10.88
10.52
10.21
10.04
10.1
10.4
10.8
11.08
10.97
10.25
8.91
7.13
5.29
3.74
2.64
1.91
1.26
0.37
-0.95
-2.66
-4.48
-6.1
-7.29
-8.05
-8.58
-9.15
-10.02
-11.36
-13.14
-15.24
-17.4
-19.29
-20.55
-20.84
-19.95
-17.89
-14.9
-11.4
-7.87
-4.65
-1.91
0.35
2.28
4.04
5.75
7.45
9.13
10.67
11.99
13
13.71
14.18
14.58
15.02
15.57
16.16
16.69
17.04
17.15
17.06
16.83
16.52
16.15
15.67
15.06
14.29
13.42
12.51
11.6
10.7
9.76
8.69
7.47
6.06
4.52
2.91
1.31
-0.21
-1.56
-2.73
-3.72
-4.6
-5.5
-6.59
-8.04
-9.97
-12.37
-15.07
-17.69
-19.72
-20.65
-20.11
-18.1
-14.93
-11.17
-7.43
-4.15
-1.53
0.46
1.96
3.14
4.11
4.93
5.64
6.27
6.82
7.26
7.53
7.64
7.62
7.57
7.6
7.74
7.94
8.12
8.21
8.23
8.27
8.42
8.66
8.87
8.87
8.49
7.66
6.48
5.12
3.82
2.68
1.67
0.65
-0.5
-1.79
-3.11
-4.21
-4.93
-5.26
-5.39
-5.62
-6.21
-7.28
-8.8
-10.65
-12.68
-14.79
-16.82
-18.56
-19.66
-19.7
-18.44
-15.93
-12.6
-9.18
-6.37
-4.6
-3.88
-3.83
-3.91
-3.68
-2.98
-1.94
-0.89
-0.09
0.31
0.41
0.42
0.55
0.95
1.64
2.6
3.75
4.99
6.21
7.26
7.99
8.35
8.36
8.19
8.02
8.01
8.13
8.28
8.29
8.08
7.63
7.02
6.33
5.57
4.69
3.6
2.29
0.82
-0.66
-2.05
-3.3
-4.44
-5.6
-6.87
-8.34
-10.03
-11.95
-14.17
-16.67
-19.41
-22.12
-24.4
-25.76
-25.8
-24.42
-21.87
-18.65
-15.35
-12.41
-10
-8.08
-6.47
-4.99
-3.57
-2.19
-0.84
0.54
2.07
3.84
5.87
8.08
10.31
12.41
14.32
16
17.52
18.89
20.11
21.17
22.05
22.73
23.22
23.5
23.54
23.29
22.77
22
21.02
19.85
18.52
17
15.33
13.59
11.87
10.26
8.74
7.23
5.64
3.89
2.01
0.08
-1.8
-3.6
-5.3
-7
-8.76
-10.7
-12.84
-15.15
-17.42
-19.33
-20.47
-20.52
-19.36
-17.17
-14.33
-11.31
-8.52
-6.17
-4.36
-3.04
-2.14
-1.55
-1.17
-0.87
-0.55
-0.15
0.27
0.63
0.85
0.89
0.82
0.75
0.76
0.91
1.19
1.61
2.18
2.9
3.74
4.64
5.52
6.33
7.07
7.77
8.46
9.09
9.59
9.85
9.81
9.41
8.69
7.62
6.2
4.44
2.45
0.43
-1.35
-2.7
-3.58
-4.13
-4.61
-5.26
-6.19
-7.37
-8.67
-9.99
-11.32
-12.7
-14.16
-15.55
-16.57
-16.81
-15.98
-14.08
-11.41
-8.47
-5.78
-3.64
-2.11
-1.04
-0.19
0.64
1.52
2.45
3.42
4.36
5.23
5.96
6.49
6.75
6.77
6.58
6.27
5.9
5.48
5
4.43
3.8
3.14
2.48
1.81
1.03
0.08
-1.06
-2.31
-3.49
-4.45
-5.17
-5.77
-6.39
-7.13
-7.89
-8.51
-8.82
-8.81
-8.7
-8.84
-9.56
-11.02
-13.13
-15.57
-17.88
-19.53
-20.1
-19.33
-17.19
-13.93
-10
-5.93
-2.16
1.04
3.58
5.57
7.1
8.3
9.25
9.99
10.61
11.18
11.77
12.38
13.01
13.55
13.95
14.15
14.16
14.04
13.86
13.67
13.47
13.21
12.82
12.26
11.54
10.69
9.76
8.78
7.74
6.6
5.38
4.13
2.99
2.04
1.27
0.55
-0.33
-1.58
-3.33
-5.56
-8.13
-10.8
-13.32
-15.37
-16.67
-16.97
-16.12
-14.22
-11.63
-8.87
-6.5
-4.9
-4.13
-3.96
-3.99
-3.83
-3.28
-2.34
-1.18
-0.03
1
1.86
2.61
3.3
3.95
4.56
5.09
5.5
5.83
6.13
6.45
6.85
7.22
7.43
7.27
6.63
5.48
3.94
2.2
0.44
-1.22
-2.76
-4.19
-5.5
-6.7
-7.84
-9.05
-10.52
-12.45
-14.9
-17.7
-20.41
-22.44
-23.23
-22.47
-20.18
-16.73
-12.78
-8.99
-5.88
-3.68
-2.28
-1.37
-0.6
0.32
1.44
2.69
3.89
4.86
5.54
5.94
6.14
6.22
6.29
6.38
6.53
6.76
7
7.13
7
6.49
5.58
4.39
3.14
2
1.07
0.26
-0.61
-1.78
-3.37
-5.41
-7.76
-10.24
-12.68
-14.98
-17.14
-19.26
-21.42
-23.7
-26.1
-28.45
-30.45
-31.66
-31.69
-30.29
-27.53
-23.72
-19.38
-15.03
-11.04
-7.51
-4.41
-1.57
1.14
3.77
6.27
8.53
10.45
11.93
12.97
13.64
14.02
14.25
14.43
14.58
14.68
14.71
14.64
14.46
14.15
13.63
12.8
11.64
10.21
8.67
7.25
6.08
5.14
4.26
3.22
1.85
0.17
-1.67
-3.39
-4.79
-5.82
-6.62
-7.43
-8.51
-10.01
-11.95
-14.19
-16.42
-18.23
-19.18
-18.88
-17.15
-14.07
-10.04
-5.59
-1.3
2.46
5.59
8.22
10.56
12.8
14.94
16.84
18.33
19.23
19.53
19.3
18.65
17.76
16.75
15.75
14.85
14.14
13.65
13.39
13.28
13.2
13
12.56
11.84
10.91
9.93
9.06
8.45
8.11
7.94
7.82
7.56
7.07
6.31
5.32
4.18
2.97
1.77
0.6
-0.55
-1.8
-3.27
-5.11
-7.39
-10.08
-12.97
-15.71
-17.89
-19.08
-19
-17.56
-14.93
-11.51
-7.85
-4.44
-1.61
0.56
2.26
3.74
5.24
6.87
8.54
10.07
11.3
12.17
12.7
13
13.16
13.22
13.19
13.11
13.01
12.94
12.93
12.95
12.93
12.8
12.5
12.02
11.43
10.76
10.1
9.49
8.91
8.35
7.75
7.08
6.31
5.39
4.31
3.06
1.65
0.17
-1.24
-2.45
-3.34
-3.94
-4.4
-4.95
-5.83
-7.2
-9.05
-11.23
-13.47
-15.41
-16.66
-16.91
-15.97
-13.85
-10.81
-7.24
-3.61
-0.32
2.41
4.55
6.22
7.64
9
10.37
11.69
12.79
13.52
13.87
13.92
13.89
13.93
14.1
14.28
14.31
14.1
13.69
13.23
12.83
12.56
12.31
11.93
11.28
10.32
9.14
7.89
6.75
5.81
5.07
4.46
3.83
3.07
2.11
0.99
-0.2
-1.32
-2.27
-3.01
-3.63
-4.22
-4.9
-5.74
-6.72
-7.76
-8.78
-9.77
-10.77
-11.92
-13.31
-14.91
-16.51
-17.74
-18.22
-17.7
-16.21
-13.99
-11.45
-9
-6.95
-5.38
-4.26
-3.4
-2.67
-1.94
-1.17
-0.42
0.25
0.77
1.1
1.29
1.44
1.65
2
2.47
3.04
3.67
4.35
5.07
5.81
6.53
7.13
7.52
7.68
7.65
7.5
7.32
7.12
6.88
6.53
6.03
5.44
4.86
4.42
4.16
4.06
4
3.87
3.6
3.21
2.78
2.38
2.03
1.73
1.42
1.15
0.92
0.73
0.48
-0
-0.87
-2.17
-3.66
-4.97
-5.65
-5.39
-4.16
-2.23
-0.04
2
3.59
4.75
5.61
6.38
7.15
7.87
8.39
8.59
8.48
8.2
8.04
8.22
8.76
9.46
10
10.06
9.53
8.57
7.5
6.71
6.44
6.65
7.11
7.45
7.39
6.84
5.92
4.83
3.78
2.89
2.17
1.57
1.04
0.53
0.02
-0.52
-1.15
-1.93
-2.84
-3.79
-4.68
-5.41
-5.96
-6.45
-7.07
-7.95
-9.15
-10.54
-11.85
-12.8
-13.15
-12.82
-11.87
-10.47
-8.87
-7.29
-5.91
-4.83
-4.09
-3.67
-3.54
-3.63
-3.85
-4.1
-4.27
-4.3
-4.15
-3.87
-3.52
-3.18
-2.94
-2.83
-2.85
-2.98
-3.14
-3.22
-3.18
-3.01
-2.76
-2.55
-2.45
-2.49
-2.61
-2.76
-2.85
-2.85
-2.74
-2.51
-2.14
-1.65
-1.09
-0.57
-0.19
-0.07
-0.26
-0.74
-1.45
-2.31
-3.24
-4.15
-5.06
-6.03
-7.17
-8.61
-10.3
-12.04
-13.49
-14.31
-14.3
-13.54
-12.29
-10.89
-9.6
-8.47
-7.46
-6.43
-5.34
-4.22
-3.18
-2.26
-1.47
-0.69
0.17
1.2
2.39
3.67
4.91
5.98
6.8
7.35
7.71
8.01
8.34
8.76
9.19
9.45
9.32
8.74
7.76
6.6
5.52
4.68
4.1
3.62
3.03
2.18
1.02
-0.37
-1.87
-3.35
-4.69
-5.77
-6.53
-6.93
-7.09
-7.21
-7.58
-8.43
-9.81
-11.58
-13.41
-14.9
-15.72
-15.65
-14.66
-12.9
-10.61
-8.11
-5.7
-3.66
-2.15
-1.19
-0.66
-0.39
-0.18
0.03
0.22
0.28
0.16
-0.11
-0.42
-0.66
-0.75
-0.73
-0.66
-0.57
-0.44
-0.19
0.22
0.8
1.45
2.07
2.53
2.78
2.84
2.76
2.64
2.53
2.47
2.4
2.25
1.94
1.45
0.83
0.19
-0.39
-0.89
-1.37
-1.93
-2.65
-3.55
-4.59
-5.72
-6.88
-8.08
-9.31
-10.47
-11.36
-11.69
-11.23
-9.92
-7.96
-5.71
-3.62
-1.96
-0.78
0.1
0.92
1.86
2.96
4.13
5.25
6.23
7.02
7.63
8.07
8.4
8.66
8.9
9.15
9.4
9.62
9.72
9.65
9.39
8.95
8.36
7.66
6.84
5.9
4.88
3.84
2.87
2.04
1.3
0.5
-0.56
-2.03
-3.87
-5.88
-7.78
-9.29
-10.29
-10.87
-11.26
-11.69
-12.36
-13.31
-14.54
-16
-17.5
-18.77
-19.44
-19.16
-17.72
-15.23
-12.06
-8.76
-5.81
-3.49
-1.75
-0.33
1.04
2.46
3.86
5.04
5.83
6.21
6.29
6.22
6.15
6.12
6.12
6.1
6.08
6.05
6.04
6.02
5.93
5.74
5.44
5.06
4.62
4.08
3.36
2.39
1.18
-0.16
-1.46
-2.59
-3.51
-4.3
-5.14
-6.19
-7.55
-9.23
-11.12
-13.05
-14.78
-16.01
-16.42
-15.73
-13.79
-10.71
-6.85
-2.76
1.02
4.13
6.46
8.15
9.44
10.52
11.43
12.11
12.5
12.59
12.45
12.22
11.95
11.62
11.18
10.62
10.01
9.51
9.22
9.13
9.04
8.69
7.86
6.47
4.65
2.67
0.79
-0.81
-2.08
-3.13
-4.15
-5.37
-6.98
-9.08
-11.64
-14.46
-17.18
-19.36
-20.55
-20.42
-18.85
-16
-12.27
-8.23
-4.39
-1.11
1.48
3.52
5.24
6.86
8.49
10.06
11.44
12.48
13.15
13.5
13.67
13.76
13.81
13.84
13.84
13.85
13.87
13.9
13.9
13.78
13.44
12.81
11.86
10.61
9.09
7.39
5.6
3.84
2.21
0.69
-0.85
-2.65
-4.96
-7.93
-11.51
-15.45
-19.31
-22.62
-24.9
-25.76
-25.01
-22.7
-19.12
-14.79
-10.3
-6.16
-2.67
0.2
2.65
4.98
7.36
9.75
11.94
13.69
14.85
15.45
15.71
15.84
15.96
16.06
16.04
15.87
15.67
15.64
15.97
16.64
17.37
17.74
17.4
16.25
14.5
12.52
10.69
9.2
7.98
6.87
5.7
4.38
2.92
1.37
-0.27
-2.02
-3.88
-5.82
-7.72
-9.53
-11.31
-13.26
-15.66
-18.67
-22.19
-25.79
-28.79
-30.47
-30.31
-28.21
-24.51
-19.88
-15.12
-10.82
-7.29
-4.45
-2.04
0.26
2.65
5.18
7.71
10.03
11.96
13.45
14.51
15.27
15.78
16.06
16.02
15.59
14.75
13.66
12.52
11.54
10.81
10.25
9.72
9.08
8.35
7.62
7.02
6.64
6.44
6.37
6.4
6.57
6.99
7.72
8.68
9.67
10.38
10.56
10.13
9.2
8.03
6.92
6.04
5.43
4.88
4.12
2.87
0.94
-1.67
-4.8
-8.03
-10.83
-12.62
-12.94
-11.61
-8.8
-4.96
-0.75
3.21
6.46
8.75
10.14
10.87
11.32
11.87
12.77
14.05
15.58
17.1
18.34
19.17
19.56
19.58
19.29
18.79
18.14
17.46
16.89
16.54
16.45
16.48
16.43
16.02
15.14
13.81
12.19
10.51
8.92
7.47
6.11
4.75
3.34
1.85
0.3
-1.27
-2.82
-4.32
-5.73
-7.05
-8.29
-9.48
-10.66
-11.94
-13.42
-15.22
-17.34
-19.65
-21.8
-23.27
-23.58
-22.42
-19.81
-16.13
-11.94
-7.83
-4.23
-1.34
0.81
2.3
3.24
3.77
4
4.05
4.03
4.01
4.06
4.23
4.54
5.02
5.64
6.35
7.09
7.79
8.36
8.75
8.88
8.7
8.13
7.18
5.91
4.47
3.04
1.78
0.81
0.15
-0.24
-0.45
-0.6
-0.86
-1.44
-2.47
-4.04
-6.1
-8.48
-10.94
-13.21
-15.12
-16.57
-17.61
-18.38
-19.05
-19.81
-20.81
-22.08
-23.49
-24.8
-25.61
-25.54
-24.31
-21.89
-18.53
-14.66
-10.86
-7.54
-4.95
-3.03
-1.53
-0.13
1.44
3.25
5.22
7.19
8.99
10.5
11.72
12.69
13.45
14.01
14.33
14.44
14.39
14.3
14.3
14.53
15.01
15.66
16.31
16.72
16.67
16.06
14.92
13.39
11.72
10.12
8.69
7.44
6.23
4.91
3.33
1.44
-0.77
-3.17
-5.57
-7.74
-9.48
-10.71
-11.51
-12.06
-12.65
-13.48
-14.7
-16.27
-17.97
-19.49
-20.42
-20.4
-19.27
-17.09
-14.18
-11.01
-8.02
-5.5
-3.53
-2.02
-0.79
0.35
1.52
2.79
4.17
5.6
6.97
8.12
8.89
9.18
9.01
8.52
7.92
7.36
6.93
6.6
6.33
6.06
5.77
5.49
5.17
4.75
4.13
3.3
2.37
1.57
1.15
1.22
1.75
2.5
3.26
3.85
4.23
4.37
4.21
3.67
2.66
1.22
-0.46
-2.1
-3.5
-4.63
-5.69
-6.91
-8.44
-10.24
-12.04
-13.56
-14.48
-14.63
-13.96
-12.49
-10.32
-7.66
-4.8
-2.11
0.14
1.79
2.88
3.6
4.13
4.61
5.04
5.37
5.54
5.54
5.44
5.29
5.17
5.1
5.1
5.15
5.24
5.38
5.55
5.72
5.92
6.13
6.34
6.47
6.43
6.13
5.59
4.92
4.29
3.86
3.62
3.45
3.11
2.48
1.53
0.45
-0.54
-1.23
-1.6
-1.8
-2.06
-2.64
-3.66
-5.09
-6.73
-8.25
-9.26
-9.47
-8.79
-7.33
-5.42
-3.46
-1.78
-0.55
0.25
0.77
1.18
1.58
2.03
2.51
3
3.52
4.04
4.51
4.86
4.98
4.83
4.44
3.89
3.33
2.91
2.67
2.59
2.55
2.48
2.28
1.96
1.57
1.19
0.9
0.7
0.57
0.42
0.17
-0.26
-0.91
-1.71
-2.56
-3.32
-3.93
-4.38
-4.77
-5.26
-6.03
-7.19
-8.72
-10.44
-11.98
-12.94
-12.96
-11.9
-9.9
-7.31
-4.6
-2.16
-0.27
1.01
1.78
2.2
2.44
2.64
2.89
3.2
3.58
4.02
4.49
5.02
5.62
6.28
6.94
7.53
8
8.36
8.68
9.01
9.38
9.71
9.91
9.91
9.72
9.4
9
8.52
7.89
7.05
5.95
4.66
3.26
1.84
0.42
-1.01
-2.46
-3.9
-5.25
-6.48
-7.63
-8.85
-10.34
-12.19
-14.34
-16.49
-18.25
-19.22
-19.15
-18.07
-16.24
-14.08
-12.06
-10.53
-9.61
-9.17
-8.92
-8.56
-7.86
-6.78
-5.44
-4
-2.62
-1.35
-0.22
0.79
1.68
2.43
3.03
3.52
3.97
4.42
4.85
5.2
5.39
5.35
5.03
4.41
3.49
2.3
0.91
-0.53
-1.83
-2.83
-3.48
-3.81
-4.01
-4.23
-4.57
-5.06
-5.65
-6.27
-6.88
-7.48
-8.09
-8.8
-9.69
-10.9
-12.48
-14.35
-16.22
-17.66
-18.19
-17.54
-15.72
-13.06
-10.07
-7.26
-4.98
-3.32
-2.21
-1.45
-0.87
-0.31
0.31
0.99
1.71
2.44
3.14
3.8
4.41
4.96
5.44
5.83
6.15
6.42
6.68
6.94
7.13
7.17
6.97
6.53
5.9
5.18
4.51
3.95
3.52
3.2
2.93
2.68
2.44
2.19
1.87
1.45
0.85
0.08
-0.82
-1.75
-2.6
-3.28
-3.82
-4.36
-5.07
-6.17
-7.78
-9.92
-12.42
-14.95
-17.07
-18.3
-18.31
-16.98
-14.52
-11.34
-8
-4.99
-2.63
-1
0.01
0.6
1.01
1.37
1.73
2.05
2.29
2.47
2.69
3.07
3.64
4.33
4.97
5.36
5.39
5.15
4.85
4.7
4.82
5.1
5.33
5.26
4.77
3.98
3.13
2.49
2.21
2.24
2.46
2.66
2.71
2.56
2.19
1.62
0.84
-0.16
-1.35
-2.59
-3.74
-4.66
-5.37
-6.04
-6.91
-8.21
-9.95
-11.92
-13.68
-14.77
-14.81
-13.7
-11.61
-8.87
-5.93
-3.2
-0.96
0.68
1.77
2.49
3.1
3.8
4.7
5.75
6.8
7.68
8.27
8.55
8.56
8.42
8.23
8.08
8.04
8.18
8.53
9.1
9.77
10.36
10.63
10.38
9.53
8.14
6.45
4.72
3.2
2.02
1.14
0.41
-0.36
-1.31
-2.51
-3.9
-5.33
-6.67
-7.83
-8.81
-9.75
-10.83
-12.22
-13.98
-15.97
-17.9
-19.34
-19.91
-19.35
-17.64
-14.99
-11.75
-8.37
-5.21
-2.54
-0.5
0.91
1.8
2.4
2.96
3.64
4.5
5.44
6.3
6.95
7.38
7.7
8.09
8.63
9.29
9.89
10.26
10.28
10.01
9.6
9.22
8.96
8.8
8.62
8.27
7.63
6.72
5.61
4.43
3.34
2.42
1.71
1.14
0.61
0.01
-0.74
-1.68
-2.79
-4.02
-5.33
-6.68
-8.07
-9.51
-11.09
-12.91
-15.11
-17.75
-20.73
-23.75
-26.33
-27.9
-27.97
-26.35
-23.2
-19
-14.43
-10.12
-6.53
-3.8
-1.79
-0.22
1.18
2.55
3.87
5.01
5.83
6.23
6.26
6.01
5.65
5.34
5.18
5.15
5.19
5.15
4.92
4.43
3.72
2.87
1.96
1.03
0.06
-0.99
-2.15
-3.39
-4.66
-5.91
-7.17
-8.49
-9.95
-11.62
-13.51
-15.6
-17.81
-20.1
-22.48
-25.03
-27.89
-31.15
-34.74
-38.37
-41.52
-43.65
-44.24
-43.05
-40.07
-35.48
-29.54
-22.58
-14.94
-7.06
0.55
7.38
13.04
17.37
20.47
22.59
24.08
25.18
26.03
26.65
27
27.08
26.94
26.74
26.62
26.67
26.83
26.97
26.92
26.57
25.9
24.91
23.63
22.02
20.07
17.83
15.44
13.15
11.17
9.59
8.3
7.05
5.55
3.65
1.36
-1.12
-3.53
-5.61
-7.27
-8.58
-9.78
-11.16
-12.95
-15.23
-17.88
-20.59
-22.94
-24.45
-24.74
-23.59
-21.03
-17.28
-12.79
-8.1
-3.72
-0.04
2.79
4.82
6.31
7.58
8.87
10.32
11.89
13.4
14.69
15.65
16.23
16.47
16.44
16.24
15.93
15.63
15.38
15.24
15.16
15.04
14.74
14.16
13.27
12.17
11
9.88
8.9
8.01
7.13
6.18
5.05
3.71
2.17
0.48
-1.27
-2.98
-4.54
-5.96
-7.3
-8.73
-10.48
-12.69
-15.32
-18.08
-20.46
-21.81
-21.59
-19.51
-15.68
-10.61
-5.01
0.35
4.89
8.43
11.06
13.15
15.05
17.04
19.2
21.52
23.92
26.4
28.94
31.49
33.86
35.78
36.98
37.35
37.04
36.4
35.78
35.39
35.14
34.74
33.88
32.46
30.6
28.61
26.75
25.05
23.34
21.3
18.6
15.07
10.69
5.54
-0.2
-6.28
-12.29
-17.7
-21.96
-24.6
-25.43
-24.6
-22.58
-20.07
-17.9
-16.85
-17.5
-20
-23.98
-28.54
-32.53
-34.9
-35.07
-33.08
-29.5
-25.13
-20.72
-16.81
-13.59
-11.09
-9.16
-7.66
-6.37
-5.16
-3.97
-2.88
-2.06
-1.71
-1.93
-2.62
-3.6
-4.59
-5.38
-5.91
-6.24
-6.6
-7.32
-8.71
-10.94
-13.97
-17.5
-20.97
-23.72
-25.19
-24.97
-22.95
-19.23
-13.98
-7.41
0.36
9.22
18.96
29.23
39.44
48.89
56.96
63.21
67.52
70.13
71.59
72.74
74.42
77.23
81.22
85.66
89.25
90.59
88.75
83.75
76.49
68.41
60.76
54.23
48.82
44.15
39.8
35.6
31.65
28.08
24.89
21.85
18.56
14.66
10.04
4.82
-0.63
-5.88
-10.65
-14.88
-18.77
-22.58
-26.42
-30.11
-33.16
-34.99
-35.27
-34.11
-32.2
-30.57
-30.25
-31.88
-35.45
-40.27
-45.24
-49.16
-51.1
-50.64
-47.93
-43.56
-38.4
-33.28
-28.84
-25.32
-22.59
-20.29
-18.02
-15.52
-12.8
-10.08
-7.64
-5.63
-3.97
-2.48
-0.97
0.55
1.86
2.66
2.75
2.19
1.33
0.63
0.43
0.84
1.68
2.63
3.38
3.81
3.84
3.52
2.85
1.83
0.45
-1.23
-3.08
-4.92
-6.63
-8.15
-9.59
-11.02
-12.55
-14.15
-15.67
-16.86
-17.42
-17.11
-15.8
-13.5
-10.45
-7.03
-3.71
-0.92
1.11
2.42
3.3
4.11
5.16
6.53
8.09
9.62
10.9
11.8
12.32
12.5
12.39
12.01
11.4
10.64
9.88
9.29
9.01
9.07
9.39
9.74
9.86
9.52
8.67
7.39
5.9
4.44
3.17
2.1
1.12
0.09
-1.1
-2.45
-3.85
-5.18
-6.33
-7.29
-8.1
-8.85
-9.64
-10.57
-11.69
-13.05
-14.68
-16.51
-18.39
-20.03
-21.02
-20.97
-19.71
-17.32
-14.19
-10.87
-7.85
-5.48
-3.84
-2.79
-2.11
-1.61
-1.19
-0.82
-0.51
-0.26
-0.06
0.1
0.21
0.25
0.19
0.06
-0.14
-0.36
-0.61
-0.89
-1.25
-1.71
-2.27
-2.91
-3.57
-4.23
-4.82
-5.3
-5.59
-5.63
-5.36
-4.86
-4.27
-3.79
-3.55
-3.57
-3.74
-3.91
-3.92
-3.74
-3.5
-3.41
-3.66
-4.37
-5.49
-6.83
-8.08
-8.99
-9.34
-9.07
-8.21
-6.87
-5.27
-3.59
-2.06
-0.84
-0.01
0.47
0.75
1.01
1.39
1.9
2.45
2.91
3.17
3.24
3.18
3.06
2.96
2.93
2.97
3.11
3.39
3.78
4.2
4.52
4.58
4.28
3.64
2.75
1.78
0.89
0.19
-0.31
-0.69
-1.06
-1.53
-2.13
-2.85
-3.6
-4.26
-4.73
-5.01
-5.15
-5.34
-5.76
-6.55
-7.74
-9.26
-10.85
-12.23
-13.01
-12.93
-11.86
-9.88
-7.3
-4.57
-2.14
-0.3
0.82
1.35
1.49
1.5
1.51
1.58
1.7
1.86
2.09
2.43
2.89
3.41
3.86
4.14
4.18
4.06
3.97
4.1
4.54
5.23
5.94
6.42
6.48
6.08
5.33
4.43
3.57
2.89
2.44
2.24
2.17
2.11
1.91
1.44
0.66
-0.35
-1.44
-2.46
-3.29
-3.92
-4.4
-4.84
-5.38
-6.16
-7.25
-8.66
-10.23
-11.67
-12.6
-12.65
-11.68
-9.79
-7.32
-4.72
-2.41
-0.65
0.5
1.14
1.44
1.56
1.6
1.58
1.54
1.5
1.5
1.56
1.69
1.83
1.9
1.87
1.73
1.53
1.4
1.43
1.64
1.96
2.21
2.22
1.9
1.23
0.36
-0.56
-1.42
-2.17
-2.87
-3.57
-4.31
-5.04
-5.7
-6.26
-6.77
-7.29
-7.88
-8.54
-9.21
-9.85
-10.51
-11.27
-12.28
-13.59
-15.14
-16.75
-18.11
-18.93
-19.01
-18.3
-16.86
-14.95
-12.82
-10.72
-8.86
-7.31
-6.12
-5.25
-4.62
-4.11
-3.57
-2.89
-1.99
-0.89
0.3
1.44
2.43
3.21
3.83
4.34
4.78
5.15
5.38
5.42
5.26
5
4.76
4.67
4.77
4.95
5.03
4.87
4.43
3.81
3.18
2.71
2.42
2.25
2.05
1.68
1.05
0.14
-0.95
-2.12
-3.21
-4.12
-4.85
-5.53
-6.35
-7.57
-9.31
-11.52
-13.96
-16.24
-17.9
-18.63
-18.28
-16.89
-14.71
-12.11
-9.46
-7.12
-5.26
-3.91
-2.94
-2.13
-1.31
-0.38
0.6
1.55
2.29
2.73
2.84
2.71
2.5
2.44
2.65
3.15
3.79
4.28
4.37
3.9
2.88
1.45
-0.22
-1.98
-3.75
-5.48
-7.05
-8.35
-9.27
-9.78
-9.98
-10.03
-10.07
-10.14
-10.16
-10
-9.58
-8.94
-8.28
-7.9
-8.07
-8.9
-10.26
-11.77
-12.92
-13.28
-12.59
-10.89
-8.42
-5.62
-2.94
-0.77
0.67
1.36
1.47
1.26
1
0.87
0.89
0.98
1.02
0.96
0.81
0.61
0.46
0.37
0.39
0.55
0.89
1.4
2.05
2.76
3.44
4.02
4.48
4.8
4.92
4.77
4.27
3.47
2.47
1.43
0.48
-0.37
-1.22
-2.24
-3.52
-5.11
-6.99
-9.15
-11.64
-14.44
-17.41
-20.14
-22.06
-22.56
-21.32
-18.47
-14.57
-10.4
-6.66
-3.74
-1.64
-0.14
1.05
2.12
3.13
4.06
4.92
5.7
6.45
7.2
7.96
8.71
9.48
10.24
11.02
11.81
12.6
13.37
14.07
14.68
15.13
15.39
15.36
15.01
14.29
13.18
11.69
9.83
7.71
5.43
3.17
1.05
-0.84
-2.54
-4.17
-5.9
-7.9
-10.29
-13.06
-16.1
-19.12
-21.74
-23.48
-23.96
-22.96
-20.5
-16.91
-12.72
-8.48
-4.59
-1.26
1.56
4.01
6.2
8.13
9.7
10.8
11.44
11.8
12.18
12.82
13.78
14.95
16.08
16.94
17.46
17.69
17.79
17.87
17.92
17.82
17.38
16.48
15.15
13.56
12.02
10.75
9.9
9.38
8.96
8.33
7.29
5.79
3.97
2.07
0.3
-1.27
-2.71
-4.23
-6.07
-8.47
-11.6
-15.47
-19.9
-24.41
-28.34
-30.92
-31.61
-30.23
-27.06
-22.76
-18.06
-13.57
-9.62
-6.23
-3.25
-0.45
2.31
5.06
7.71
10.16
12.35
14.28
16.03
17.67
19.21
20.61
21.77
22.63
23.21
23.62
23.99
24.36
24.61
24.51
23.77
22.24
19.98
17.27
14.51
12
9.91
8.17
6.62
5.08
3.49
1.9
0.4
-0.96
-2.23
-3.53
-5
-6.77
-8.96
-11.67
-14.95
-18.68
-22.49
-25.79
-27.87
-28.16
-26.39
-22.78
-17.99
-12.91
-8.38
-4.88
-2.51
-0.95
0.26
1.58
3.19
5.07
7.04
8.9
10.52
11.88
13.04
14.08
15.05
15.99
16.88
17.74
18.56
19.35
20.07
20.65
20.95
20.8
20.08
18.78
17
14.98
12.98
11.2
9.7
8.38
7.06
5.62
4.01
2.25
0.43
-1.43
-3.34
-5.38
-7.69
-10.37
-13.47
-16.94
-20.51
-23.7
-25.89
-26.48
-25.13
-21.93
-17.37
-12.2
-7.13
-2.65
1.11
4.28
7.08
9.63
11.91
13.83
15.3
16.34
17.1
17.75
18.43
19.15
19.84
20.41
20.85
21.22
21.65
22.2
22.86
23.52
24.04
24.28
24.12
23.51
22.43
20.92
19.11
17.17
15.33
13.71
12.3
10.91
9.31
7.28
4.83
2.13
-0.48
-2.67
-4.28
-5.31
-6.04
-6.83
-8.09
-10.15
-13.16
-17
-21.22
-25.1
-27.77
-28.5
-26.92
-23.19
-17.94
-12.04
-6.3
-1.24
2.97
6.41
9.26
11.67
13.64
15.15
16.19
16.87
17.37
17.9
18.62
19.51
20.41
21.11
21.44
21.36
20.98
20.5
20.11
19.86
19.68
19.37
18.73
17.65
16.14
14.32
12.4
10.58
8.98
7.6
6.36
5.15
3.88
2.56
1.25
0.03
-1.08
-2.12
-3.18
-4.4
-5.87
-7.66
-9.79
-12.27
-15.03
-17.79
-20.12
-21.43
-21.21
-19.16
-15.41
-10.46
-5.11
-0.12
3.94
6.86
8.74
9.89
10.58
11.03
11.31
11.45
11.5
11.55
11.7
12
12.42
12.79
12.92
12.71
12.16
11.41
10.69
10.15
9.9
9.87
9.92
9.87
9.56
8.97
8.13
7.13
6.07
4.95
3.71
2.3
0.67
-1.07
-2.75
-4.19
-5.32
-6.2
-7.03
-8.06
-9.48
-11.34
-13.52
-15.69
-17.47
-18.43
-18.28
-16.98
-14.72
-11.94
-9.15
-6.83
-5.31
-4.66
-4.76
-5.33
-6.06
-6.65
-6.94
-6.86
-6.42
-5.66
-4.62
-3.34
-1.89
-0.36
1.11
2.4
3.52
4.57
5.68
6.91
8.18
9.26
9.92
10.05
9.74
9.25
8.85
8.65
8.52
8.17
7.26
5.58
3.18
0.32
-2.64
-5.4
-7.81
-9.92
-11.84
-13.71
-15.6
-17.49
-19.27
-20.74
-21.58
-21.41
-19.87
-16.81
-12.4
-7.15
-1.8
2.97
6.74
9.41
11.2
12.43
13.38
14.16
14.75
15.04
14.98
14.57
13.88
13
11.99
10.85
9.56
8.12
6.62
5.18
3.93
2.86
1.84
0.65
-0.9
-2.87
-5.12
-7.39
-9.47
-11.25
-12.76
-14.08
-15.24
-16.14
-16.57
-16.32
-15.34
-13.73
-11.78
-9.88
-8.4
-7.55
-7.42
-7.88
-8.64
-9.24
-9.24
-8.3
-6.37
-3.7
-0.81
1.7
3.36
3.99
3.7
2.75
1.41
-0.17
-1.92
-3.84
-5.88
-7.92
-9.78
-11.33
-12.5
-13.26
-13.63
-13.56
-13.07
-12.18
-10.99
-9.64
-8.29
-6.98
-5.65
-4.17
-2.51
-0.74
0.88
2.05
2.59
2.54
2.19
1.86
1.81
2.03
2.34
2.47
2.26
1.72
1.05
0.46
0.14
0.21
0.8
2.1
4.3
7.54
11.72
16.46
21.2
25.38
28.63
30.89
32.35
33.35
34.15
34.87
35.45
35.72
35.51
34.69
33.22
31.07
28.31
25.03
21.45
17.8
14.4
11.44
8.97
6.87
4.89
2.84
0.57
-1.91
-4.5
-7.13
-9.75
-12.36
-14.97
-17.57
-20.15
-22.7
-25.25
-27.81
-30.31
-32.55
-34.23
-35.04
-34.81
-33.55
-31.45
-28.78
-25.82
-22.75
-19.69
-16.69
-13.8
-11.05
-8.47
-6.04
-3.76
-1.66
0.18
1.65
2.64
3.12
3.2
3.06
2.91
2.9
3.11
3.46
3.76
3.8
3.37
2.36
0.81
-1.1
-3.06
-4.81
-6.17
-7.11
-7.81
-8.48
-9.36
-10.59
-12.17
-13.98
-15.71
-16.94
-17.2
-16.15
-13.69
-10.09
-5.94
-1.97
1.21
3.4
4.77
5.73
6.7
7.87
9.17
10.38
11.3
11.88
12.22
12.48
12.8
13.17
13.58
13.98
14.42
14.92
15.5
16.04
16.31
16.01
14.93
13.02
10.45
7.57
4.73
2.2
0.08
-1.71
-3.33
-4.95
-6.73
-8.76
-11.09
-13.71
-16.42
-18.83
-20.42
-20.66
-19.26
-16.34
-12.42
-8.27
-4.6
-1.84
-0.04
1.12
2.09
3.21
4.6
6.1
7.43
8.32
8.63
8.42
7.94
7.5
7.32
7.49
7.92
8.42
8.78
8.9
8.76
8.42
7.92
7.25
6.38
5.29
4.08
2.87
1.8
0.89
0.04
-0.98
-2.34
-4.1
-6.09
-8.05
-9.73
-11.08
-12.24
-13.46
-14.96
-16.73
-18.46
-19.67
-19.85
-18.72
-16.32
-13
-9.28
-5.65
-2.45
0.21
2.35
4.07
5.44
6.54
7.46
8.34
9.29
10.37
11.53
12.64
13.5
13.99
14.1
13.9
13.57
13.23
12.94
12.64
12.23
11.63
10.83
9.95
9.09
8.35
7.76
7.2
6.56
5.75
4.79
3.74
2.73
1.83
1
0.15
-0.85
-2.05
-3.35
-4.61
-5.64
-6.37
-6.88
-7.41
-8.21
-9.52
-11.36
-13.59
-15.93
-17.96
-19.32
-19.63
-18.7
-16.55
-13.42
-9.76
-6.13
-2.99
-0.58
1.09
2.24
3.15
4.1
5.27
6.68
8.21
9.67
10.85
11.61
11.93
11.95
11.82
11.72
11.71
11.74
11.71
11.59
11.41
11.25
11.14
11.02
10.7
10.02
8.89
7.42
5.89
4.6
3.76
3.38
3.19
2.85
2.05
0.68
-1.11
-3
-4.65
-5.89
-6.79
-7.59
-8.59
-9.97
-11.74
-13.8
-15.96
-18.05
-19.88
-21.19
-21.66
-21.03
-19.22
-16.44
-13.16
-9.95
-7.3
-5.37
-4.04
-3.02
-1.98
-0.75
0.66
2.07
3.28
4.12
4.57
4.71
4.71
4.78
5.04
5.51
6.12
6.72
7.2
7.48
7.52
7.3
6.82
6.1
5.24
4.34
3.56
2.98
2.54
2.11
1.45
0.42
-1.06
-2.85
-4.7
-6.33
-7.56
-8.36
-8.83
-9.21
-9.75
-10.66
-12.06
-13.86
-15.84
-17.56
-18.58
-18.52
-17.25
-14.93
-11.94
-8.71
-5.62
-2.89
-0.58
1.34
2.95
4.3
5.44
6.39
7.21
7.9
8.44
8.84
9.08
9.15
9.1
8.95
8.75
8.54
8.35
8.2
8.14
8.2
8.39
8.66
8.96
9.13
9.08
8.71
8.03
7.12
6.09
5.05
4.05
3.07
2.03
0.89
-0.35
-1.63
-2.84
-3.93
-4.88
-5.77
-6.73
-7.91
-9.35
-11.06
-12.97
-15
-17.04
-18.95
-20.44
-21.15
-20.7
-18.88
-15.85
-12.02
-8.06
-4.54
-1.83
0.06
1.37
2.45
3.57
4.76
5.9
6.77
7.21
7.2
6.91
6.59
6.43
6.48
6.64
6.77
6.78
6.7
6.69
6.89
7.35
7.96
8.5
8.77
8.67
8.24
7.59
6.86
6.12
5.34
4.47
3.47
2.35
1.23
0.23
-0.53
-1.01
-1.29
-1.48
-1.73
-2.17
-2.85
-3.8
-5.01
-6.4
-7.87
-9.29
-10.56
-11.63
-12.54
-13.46
-14.6
-16.15
-18.14
-20.36
-22.31
-23.35
-22.95
-20.9
-17.42
-13.08
-8.62
-4.67
-1.59
0.58
2
2.9
3.49
3.9
4.25
4.63
5.13
5.77
6.53
7.35
8.11
8.71
9.1
9.27
9.25
9.15
9.08
9.16
9.41
9.76
10.01
9.94
9.38
8.36
7.07
5.8
4.79
4.12
3.74
3.49
3.25
2.93
2.56
2.15
1.68
1.12
0.43
-0.36
-1.2
-2.02
-2.8
-3.6
-4.52
-5.66
-7
-8.48
-9.96
-11.31
-12.44
-13.38
-14.25
-15.29
-16.73
-18.68
-21.04
-23.37
-25.04
-25.39
-24.05
-21.1
-17.07
-12.78
-8.94
-5.97
-3.81
-2.14
-0.55
1.15
2.89
4.43
5.51
6.04
6.14
6.06
6.08
6.36
6.91
7.61
8.3
8.85
9.19
9.28
9.2
8.98
8.74
8.56
8.53
8.7
8.98
9.23
9.26
8.93
8.25
7.38
6.57
6
5.66
5.39
4.94
4.18
3.14
2.02
1.05
0.32
-0.25
-0.85
-1.7
-2.85
-4.2
-5.59
-6.91
-8.15
-9.38
-10.73
-12.26
-14.01
-15.98
-18.18
-20.6
-23.14
-25.57
-27.47
-28.39
-27.93
-25.94
-22.63
-18.48
-14.1
-10.07
-6.72
-4.11
-2.1
-0.43
1.09
2.58
4.06
5.46
6.72
7.74
8.5
9.03
9.41
9.74
10.09
10.48
10.88
11.23
11.46
11.57
11.62
11.69
11.78
11.84
11.76
11.42
10.77
9.86
8.79
7.65
6.5
5.31
4.08
2.77
1.39
-0.07
-1.59
-3.17
-4.73
-6.21
-7.54
-8.72
-9.88
-11.24
-13.01
-15.32
-18.07
-21
-23.71
-25.78
-26.9
-26.86
-25.6
-23.16
-19.72
-15.55
-11.06
-6.72
-2.95
-0.03
1.97
3.24
4.07
4.78
5.58
6.54
7.59
8.63
9.6
10.48
11.26
11.94
12.52
13
13.47
13.99
14.64
15.36
16.02
16.4
16.35
15.77
14.69
13.23
11.57
9.91
8.4
7.13
6.08
5.11
4.01
2.62
0.89
-1.08
-3.11
-5.05
-6.86
-8.59
-10.39
-12.39
-14.65
-17.23
-20.08
-23.11
-26.02
-28.37
-29.57
-29.12
-26.81
-22.81
-17.75
-12.43
-7.54
-3.49
-0.31
2.21
4.34
6.22
7.92
9.39
10.6
11.58
12.39
13.07
13.66
14.14
14.51
14.77
14.95
15.07
15.15
15.21
15.27
15.36
15.48
15.51
15.35
14.84
13.93
12.66
11.14
9.54
8
6.58
5.27
4
2.66
1.16
-0.58
-2.59
-4.83
-7.17
-9.43
-11.5
-13.29
-14.87
-16.44
-18.28
-20.63
-23.61
-27.13
-30.82
-34.16
-36.46
-37.17
-35.94
-32.74
-27.92
-22.06
-15.88
-10.06
-5.12
-1.27
1.57
3.71
5.52
7.3
9.18
11.12
12.97
14.62
16.02
17.23
18.3
19.27
20.14
20.84
21.35
21.7
21.94
22.15
22.34
22.47
22.43
22.07
21.26
19.92
18.08
15.87
13.48
11.11
8.87
6.81
4.85
2.9
0.87
-1.23
-3.3
-5.26
-7.03
-8.63
-10.17
-11.78
-13.54
-15.39
-17.25
-19.09
-21.02
-23.28
-26.09
-29.5
-33.22
-36.55
-38.67
-38.81
-36.59
-32.1
-25.89
-18.78
-11.62
-5.13
0.21
4.28
7.21
9.31
10.99
12.61
14.36
16.32
18.42
20.54
22.53
24.3
25.74
26.79
27.41
27.62
27.47
27.04
26.41
25.61
24.65
23.44
21.88
19.87
17.36
14.38
11.07
7.66
4.38
1.41
-1.17
-3.4
-5.38
-7.25
-9.07
-10.84
-12.53
-14.06
-15.41
-16.6
-17.71
-18.88
-20.32
-22.2
-24.64
-27.6
-30.85
-33.93
-36.18
-36.96
-35.8
-32.58
-27.61
-21.51
-15.09
-9.06
-3.9
0.21
3.34
5.75
7.72
9.45
11.1
12.73
14.33
15.87
17.28
18.49
19.45
20.13
20.52
20.73
20.87
21.07
21.4
21.77
21.96
21.71
20.79
19.17
17.02
14.62
12.28
10.19
8.42
6.9
5.48
4
2.32
0.37
-1.8
-4.09
-6.34
-8.4
-10.3
-12.21
-14.5
-17.51
-21.43
-26.07
-30.82
-34.77
-36.95
-36.63
-33.56
-28.14
-21.25
-14.04
-7.5
-2.18
1.93
5.25
8.39
11.73
15.3
18.77
21.67
23.57
24.3
24
22.94
21.54
20.15
19.11
18.62
18.83
19.73
21.18
22.92
24.62
25.87
26.33
25.7
23.89
21.02
17.4
13.52
9.82
6.6
3.87
1.43
-0.99
-3.56
-6.23
-8.73
-10.72
-12.03
-12.69
-13.06
-13.62
-14.86
-17.11
-20.52
-24.95
-29.98
-34.94
-38.93
-41.03
-40.54
-37.27
-31.65
-24.67
-17.5
-11.14
-6.12
-2.42
0.31
2.55
4.62
6.62
8.43
9.94
11.08
11.92
12.63
13.44
14.49
15.85
17.47
19.23
20.99
22.65
24.19
25.68
27.2
28.75
30.26
31.53
32.3
32.35
31.61
30.14
28.12
25.75
23.16
20.38
17.3
13.82
9.89
5.62
1.28
-2.8
-6.32
-9.12
-11.32
-13.25
-15.42
-18.32
-22.25
-27.08
-32.18
-36.52
-38.97
-38.62
-35.11
-28.72
-20.3
-10.95
-1.75
6.52
13.45
18.99
23.34
26.81
29.7
32.22
34.42
36.3
37.82
39.02
40.05
41.1
42.31
43.69
45.09
46.25
46.95
47.08
46.69
45.86
44.74
43.39
41.83
40.01
37.82
35.18
32.02
28.29
24.02
19.23
14.02
8.47
2.69
-3.28
-9.44
-15.81
-22.46
-29.34
-36.35
-43.26
-49.8
-55.7
-60.79
-65.05
-68.64
-71.83
-75.05
-78.67
-82.95
-87.78
-92.64
-96.58
-98.39
-97
-91.82
-83
-71.43
-58.51
-45.65
-33.94
-23.87
-15.41
-8.21
-1.81
4.09
9.58
14.59
18.99
22.69
25.72
28.18
30.21
31.94
33.48
34.83
36
36.97
37.74
38.34
38.76
38.99
38.95
38.57
37.81
36.7
35.32
33.79
32.22
30.68
29.14
27.56
25.83
23.87
21.68
19.31
16.87
14.47
12.23
10.19
8.35
6.62
4.85
2.82
0.26
-3.03
-7.17
-12
-17.02
-21.51
-24.58
-25.5
-23.88
-19.9
-14.16
-7.63
-1.26
4.2
8.39
11.39
13.54
15.29
16.96
18.68
20.35
21.78
22.8
23.38
23.59
23.6
23.46
23.15
22.57
21.68
20.52
19.27
18.08
17.02
16
14.81
13.29
11.38
9.28
7.25
5.6
4.38
3.46
2.52
1.19
-0.72
-3.22
-6.1
-9.05
-11.77
-14.08
-16
-17.67
-19.35
-21.3
-23.8
-26.95
-30.64
-34.43
-37.59
-39.25
-38.69
-35.63
-30.36
-23.69
-16.65
-10.18
-4.81
-0.64
2.6
5.3
7.73
9.95
11.85
13.3
14.28
14.9
15.34
15.8
16.33
16.83
17.17
17.26
17.15
16.99
16.98
17.18
17.52
17.77
17.67
17.01
15.76
13.98
11.81
9.39
6.86
4.3
1.81
-0.51
-2.58
-4.36
-5.96
-7.6
-9.6
-12.24
-15.6
-19.45
-23.18
-25.98
-27.07
-26.03
-22.92
-18.34
-13.1
-8.05
-3.74
-0.38
2.06
3.77
4.91
5.6
5.92
5.92
5.65
5.12
4.37
3.46
2.51
1.67
1.06
0.7
0.41
-0.05
-0.96
-2.41
-4.36
-6.6
-8.91
-11.21
-13.56
-16.17
-19.35
-23.39
-28.51
-34.74
-41.79
-49.03
-55.57
-60.41
-62.77
-62.32
-59.32
-54.59
-49.2
-44.19
-40.23
-37.41
-35.29
-33.09
-29.96
-25.43
-19.5
-12.69
-5.77
0.55
5.85
10.11
13.51
16.3
18.64
20.62
22.29
23.75
25.13
26.55
28.01
29.39
30.52
31.32
31.9
32.54
33.53
35.04
36.92
38.76
40.01
40.2
39.19
37.2
34.72
32.31
30.35
28.96
27.97
27.12
26.23
25.25
24.26
23.28
22.19
20.68
18.39
15.01
10.48
5.05
-0.83
-6.49
-11.3
-14.69
-16.37
-16.39
-15.18
-13.38
-11.67
-10.46
-9.8
-9.34
-8.55
-7.01
-4.51
-1.12
2.93
