-91.01
-94.61
-97.13
-98.92
-100.47
-102.4
-105.21
-109.27
-114.65
-121.21
-128.49
-135.7
-141.72
-145.09
-144.29
-138.25
-126.77
-110.76
-92.06
-72.78
-54.5
-37.77
-22.07
-6.42
9.83
26.44
42.38
56.37
67.67
76.52
83.89
90.87
97.91
104.67
110.23
113.79
115.2
115.11
114.55
114.41
114.94
115.7
115.87
114.67
111.75
107.21
101.52
95.32
89.3
84.2
80.75
79.44
80.25
82.34
84.18
83.94
80.34
73.1
63.18
52.22
41.66
32.06
22.79
12.67
0.81
-12.67
-26.56
-39.22
-49.51
-57.53
-64.58
-72.65
-83.57
-98.43
-117.31
-139.22
-161.95
-182.03
-195.04
-196.5
-183.68
-157.05
-120.83
-81.97
-47.69
-22.98
-9.17
-4.17
-4.17
-5.57
-6.18
-5.33
-3.14
0.22
4.72
10.26
16.32
21.95
25.97
27.57
26.53
23.3
18.76
13.83
9.31
5.57
2.6
0.05
-2.63
-5.85
-9.74
-14.01
-18.1
-21.48
-23.84
-25.23
-25.89
-25.88
-24.66
-21.01
-13.13
0.56
20.67
46.13
74.15
100.84
122.41
136.47
142.63
142.41
138.3
132.71
127.25
122.65
119.1
116.54
114.71
112.96
110.17
104.86
95.8
82.59
65.91
47.45
29.36
13.73
2.12
-4.68
-6.72
-4.84
-0.47
4.72
9.26
12.14
12.98
11.8
8.83
4.34
-1.4
-8.02
-15.07
-22.09
-28.75
-35.01
-41.05
-47.12
-53.35
-59.58
-65.25
-69.63
-71.99
-71.97
-69.79
-66.19
-62.18
-58.59
-55.72
-53.23
-50.45
-46.79
-42.06
-36.56
-30.9
-25.63
-21
-16.93
-13.23
-9.75
-6.51
-3.65
-1.35
0.33
1.47
2.28
2.96
3.61
4.26
4.81
5.16
5.18
4.77
3.85
2.36
0.26
-2.43
-5.55
-8.78
-11.61
-13.53
-14.12
-13.3
-11.32
-8.73
-6.19
-4.23
-3.12
-2.88
-3.36
-4.32
-5.62
-7.15
-8.82
-10.57
-12.36
-14.23
-16.37
-19.1
-22.76
-27.57
-33.55
-40.36
-47.49
-54.4
-60.72
-66.42
-71.8
-77.4
-83.73
-91.13
-99.52
-108.5
-117.39
-125.54
-132.5
-138.16
-142.77
-146.83
-150.83
-155.13
-159.79
-164.54
-168.73
-171.49
-172.02
-170.2
-167.21
-165.48
-167.97
-176.51
-190.31
-205.4
-215.74
-215.25
-200.02
-169.44
-125.87
-73.33
-16.12
41.96
97.71
148.48
192.44
228.99
258.96
284.11
306.03
325.05
339.88
348.26
348.21
339.19
322.46
300.68
277.1
254.54
234.93
219.19
207.17
197.9
189.73
180.81
169.58
155.28
138.09
118.9
98.86
78.97
59.85
41.9
25.42
10.59
-2.86
-15.84
-29.59
-44.86
-60.97
-75.63
-85.69
-88.81
-84.88
-76.36
-67.28
-61.35
-60.43
-64
-69.86
-75.4
-78.56
-78.25
-73.97
-65.54
-52.97
-36.62
-17.4
3.22
23.57
42.16
57.9
70.17
78.7
83.56
85.18
84.41
82.45
80.61
79.94
80.87
83.07
85.39
86.18
83.77
76.91
65.21
49.36
30.95
12.13
-5
-18.85
-28.7
-34.78
-37.93
-39.27
-39.8
-40.18
-40.62
-41.04
-41.26
-41.18
-40.84
-40.35
-39.79
-39.09
-38.08
-36.57
-34.47
-31.94
-29.26
-26.76
-24.59
-22.75
-21.06
-19.3
-17.32
-15.12
-12.87
-10.78
-9.03
-7.7
-6.76
-6.16
-5.86
-5.88
-6.27
-7.15
-8.61
-10.7
-13.39
-16.52
-19.92
-23.34
-26.58
-29.45
-31.8
-33.5
-34.43
-34.6
-34.07
-33.07
-31.83
-30.62
-29.55
-28.58
-27.61
-26.57
-25.54
-24.8
-24.75
-25.73
-27.8
-30.64
-33.57
-35.72
-36.33
-34.95
-31.62
-26.7
-20.64
-13.82
-6.5
0.99
8.24
14.76
20.26
24.9
29.28
34.05
39.41
44.79
49.01
50.93
50.12
47.22
43.65
40.83
39.41
39.07
38.84
37.88
35.98
33.59
31.44
30.01
29.15
28.27
26.71
24.16
20.85
17.37
14.32
11.99
10.25
8.72
6.91
4.6
1.81
-1.17
-3.9
-6.03
-7.32
-7.79
-7.66
-7.3
-7.07
-7.25
-7.96
-9.17
-10.73
-12.42
-14.01
-15.27
-15.98
-15.94
-15.08
-13.45
-11.24
-8.75
-6.25
-3.91
-1.78
0.15
1.84
3.13
3.81
3.7
2.8
1.34
-0.32
-1.82
-2.94
-3.68
-4.16
-4.53
-4.84
-5.05
-5.07
-4.89
-4.58
-4.25
-4.02
-3.95
-4.09
-4.46
-5.13
-6.17
-7.52
-9.02
-10.35
-11.11
-10.96
-9.72
-7.48
-4.55
-1.38
1.6
4.09
6.03
7.53
8.8
10.02
11.27
12.52
13.65
14.59
15.35
16.02
16.75
17.61
18.66
19.94
21.48
23.33
25.48
27.82
30.1
31.97
33.15
33.47
32.94
31.65
29.66
26.91
23.26
18.6
13.01
6.74
0.23
-6.01
-11.55
-16.03
-19.29
-21.33
-22.32
-22.54
-22.34
-22.07
-21.96
-22.18
-22.75
-23.67
-24.86
-26.23
-27.64
-28.96
-30.05
-30.75
-30.92
-30.41
-29.15
-27.14
-24.48
-21.35
-17.87
-14.1
-9.96
-5.43
-0.7
3.89
7.96
11.28
13.98
16.39
18.91
21.68
24.48
26.92
28.61
29.4
29.33
28.52
27.02
24.78
21.73
17.98
13.83
9.71
5.96
2.81
0.29
-1.58
-2.78
-3.3
-3.17
-2.58
-1.89
-1.56
-2
-3.41
-5.83
-9.08
-12.95
-17.19
-21.65
-26.15
-30.54
-34.61
-38.22
-41.23
-43.66
-45.56
-46.98
-47.89
-48.21
-47.87
-46.9
-45.5
-43.98
-42.58
-41.39
-40.3
-39.01
-37.15
-34.44
-30.78
-26.27
-21.2
-15.98
-10.98
-6.45
-2.56
0.57
2.74
3.62
2.96
0.73
-2.71
-6.61
-10
-11.98
-11.86
-9.16
-3.68
4.57
15.21
27.41
39.91
51.3
60.35
66.41
69.56
70.36
69.64
68.04
65.92
63.41
60.47
57.11
53.35
49.21
44.66
39.66
34.23
28.58
23.03
18
13.74
10.29
7.42
4.84
2.28
-0.36
-3.01
-5.47
-7.48
-8.72
-8.91
-7.8
-5.29
-1.47
3.44
9.1
15.22
21.63
28.27
35.08
41.9
48.46
54.46
59.62
63.87
67.37
70.4
73.26
76.11
78.92
81.38
83.04
83.48
82.39
79.7
75.62
70.51
64.74
58.53
51.81
44.22
35.17
24.09
10.62
-5.2
-22.92
-41.81
-61.06
-80.01
-98.09
-114.84
-129.68
-141.92
-150.77
-155.57
-156.03
-152.37
-145.27
-135.65
-124.48
-112.58
-100.54
-88.78
-77.64
-67.41
-58.34
-50.59
-44.15
-38.89
-34.57
-30.89
-27.61
-24.6
-21.86
-19.57
-18.02
-17.56
-18.47
-20.79
-24.21
-28.09
-31.56
-33.78
-34.18
-32.58
-29.16
-24.35
-18.62
-12.42
-6.12
-0.03
5.53
10.3
14.08
16.84
18.65
19.68
20.13
20.17
19.89
19.37
18.67
17.84
16.91
15.86
14.6
13
10.94
8.32
5.18
1.65
-2.06
-5.71
-9.06
-11.9
-14
-15.14
-15.15
-14.02
-11.87
-9.05
-5.95
-2.97
-0.4
1.63
3.12
4.15
4.83
5.25
5.46
5.54
5.5
5.38
5.15
4.79
4.29
3.7
3.04
2.39
1.79
1.26
0.78
0.36
-0.04
-0.44
-0.94
-1.67
-2.72
-4.11
-5.7
-7.2
-8.26
-8.58
-8
-6.6
-4.65
-2.55
-0.66
0.72
1.47
1.62
1.27
0.6
-0.25
-1.2
-2.23
-3.34
-4.58
-5.92
-7.38
-8.93
-10.58
-12.31
-14.07
-15.71
-17.01
-17.78
-17.94
-17.64
-17.21
-17.07
-17.54
-18.69
-20.36
-22.07
-23.25
-23.35
-22.03
-19.29
-15.57
-11.61
-8.28
-6.25
-5.81
-6.75
-8.46
-10.17
-11.22
-11.22
-10.11
-8.08
-5.52
-2.88
-0.63
0.84
1.27
0.61
-1.03
-3.44
-6.35
-9.44
-12.28
-14.32
-14.95
-13.55
-9.65
-2.96
6.63
19.04
33.91
50.54
67.83
84.45
99.1
110.96
119.81
125.99
129.98
132.03
132.07
129.84
125.46
119.57
113.34
107.92
103.92
101.19
99.02
96.63
93.7
90.42
87.2
84.18
80.95
76.53
69.87
60.31
47.88
33.2
17.25
1.01
-14.69
-29.16
-41.85
-52.34
-60.39
-65.96
-69.2
-70.31
-69.39
-66.46
-61.56
-54.88
-46.83
-38.03
-29.08
-20.39
-12.12
-4.32
2.96
9.54
15.18
19.7
23.1
25.65
27.69
29.52
31.21
32.61
33.4
33.29
32.14
29.99
27.08
23.8
20.55
17.66
15.3
13.33
11.31
8.61
4.66
-0.84
-7.74
-15.5
-23.45
-31.08
-38.3
-45.42
-52.95
-61.22
-70.17
-79.23
-87.54
-94.26
-98.92
-101.58
-102.8
-103.45
-104.37
-106.11
-108.8
-112.06
-115.18
-117.47
-118.46
-118.19
-117.14
-115.95
-114.94
-113.82
-111.64
-107.07
-99.02
-87.08
-71.69
-53.9
-34.9
-15.62
3.44
22.07
40.07
57.11
72.69
86.4
98.06
107.82
116.08
123.24
129.49
134.58
137.98
139.01
137.31
132.98
126.75
119.64
112.49
105.6
98.43
89.85
78.64
64
46
25.63
4.49
-15.57
-32.9
-46.42
-55.68
-60.89
-62.72
-62.01
-59.53
-55.8
-51.16
-45.81
-39.98
-33.91
-27.87
-22
-16.37
-11.02
-6.07
-1.82
1.29
2.82
2.54
0.57
-2.53
-5.95
-8.89
-10.83
-11.73
-11.95
-12.07
-12.61
-13.77
-15.46
-17.37
-19.14
-20.51
-21.25
-21.21
-20.26
-18.38
-15.7
-12.56
-9.35
-6.49
-4.27
-2.74
-1.83
-1.35
-1.1
-0.92
-0.75
-0.58
-0.48
-0.51
-0.69
-0.97
-1.28
-1.54
-1.76
-1.99
-2.26
-2.56
-2.87
-3.13
-3.37
-3.66
-4.09
-4.74
-5.62
-6.64
-7.68
-8.52
-8.89
-8.52
-7.21
-4.94
-1.9
1.5
4.83
7.74
10.01
11.65
12.71
13.27
13.34
12.93
12.05
10.74
9.05
7.02
4.71
2.19
-0.4
-2.93
-5.27
-7.37
-9.17
-10.67
-11.88
-12.81
-13.51
-14.08
-14.67
-15.35
-16.12
-16.82
-17.18
-16.92
-15.8
-13.82
-11.14
-8.11
-5.17
-2.65
-0.78
0.45
1.15
1.49
1.61
1.57
1.45
1.36
1.48
1.91
2.69
3.66
4.57
5.19
5.43
5.46
5.53
5.93
6.79
8.03
9.43
10.72
11.71
12.35
12.76
13.19
13.99
15.49
17.94
21.45
25.85
30.81
35.96
40.97
45.66
50
53.98
57.6
60.8
63.51
65.67
67.27
68.32
68.79
68.53
67.27
64.65
60.41
54.44
46.85
37.95
28.13
17.84
7.51
-2.49
-11.84
-20.28
-27.66
-33.92
-39.15
-43.52
-47.19
-50.16
-52.27
-53.25
-52.85
-51.01
-47.92
-43.98
-39.68
-35.46
-31.63
-28.32
-25.52
-23.14
-21.08
-19.16
-17.23
-15.14
-12.81
-10.25
-7.57
-4.88
-2.29
0.11
2.24
3.95
5.1
5.56
5.25
4.23
2.61
0.59
-1.6
-3.69
-5.45
-6.73
-7.47
-7.78
-7.86
-7.99
-8.39
-9.24
-10.71
-12.93
-16.07
-20.21
-25.29
-30.88
-36.25
-40.48
-42.75
-42.61
-40.23
-36.31
-31.86
-27.83
-24.83
-23.04
-22.23
-21.99
-21.89
-21.64
-21.13
-20.36
-19.48
-18.63
-17.89
-17.22
-16.43
-15.27
-13.58
-11.32
-8.67
-5.93
-3.39
-1.25
0.43
1.63
2.3
2.33
1.59
0.05
-2.09
-4.43
-6.41
-7.56
-7.64
-6.67
-4.9
-2.7
-0.36
1.87
3.81
5.26
6.03
5.99
5.15
3.69
1.94
0.3
-0.89
-1.41
-1.28
-0.78
-0.37
-0.48
-1.37
-2.92
-4.7
-6.1
-6.67
-6.32
-5.27
-3.99
-2.85
-2.05
-1.59
-1.38
-1.31
-1.26
-1.12
-0.73
0.09
1.38
3.06
4.95
6.81
8.44
9.71
10.51
10.74
10.34
9.32
7.86
6.28
4.93
4.12
4.02
4.61
5.73
7.15
8.65
10.07
11.37
12.56
13.67
14.64
15.32
15.51
15.11
14.18
12.99
11.91
11.26
11.15
11.42
11.71
11.62
10.92
9.59
7.83
5.94
4.19
2.73
1.51
0.39
-0.83
-2.27
-3.9
-5.58
-7.04
-7.98
-8.17
-7.53
-6.16
-4.36
-2.46
-0.71
0.78
2.02
3.13
4.15
5.03
5.7
6.12
6.4
6.71
7.22
7.99
8.94
9.83
10.41
10.51
10.06
9.13
7.83
6.31
4.71
3.14
1.64
0.21
-1.18
-2.58
-3.97
-5.24
-6.23
-6.74
-6.6
-5.8
-4.46
-2.81
-1.15
0.28
1.4
2.27
3
3.75
4.54
5.29
5.8
5.9
5.49
4.6
3.34
1.83
0.13
-1.72
-3.71
-5.76
-7.75
-9.52
-10.97
-12.09
-12.97
-13.78
-14.67
-15.75
-17.05
-18.5
-19.96
-21.15
-21.79
-21.61
-20.53
-18.68
-16.39
-14.03
-11.85
-9.86
-7.7
-4.88
-0.88
4.53
11.23
18.7
26.23
33.14
38.98
43.59
47.03
49.4
50.67
50.67
49.2
46.21
41.94
36.87
31.59
26.57
22.05
18.03
14.45
11.25
8.53
6.48
5.35
5.32
6.46
8.65
11.56
14.74
17.68
19.96
21.45
22.23
22.61
22.84
23.08
23.2
22.97
22.09
20.42
17.97
14.85
11.28
7.42
3.45
-0.45
-4.09
-7.28
-9.87
-11.8
-13.18
-14.28
-15.49
-17.24
-19.93
-23.87
-29.2
-35.79
-43.25
-50.83
-57.53
-62.31
-64.41
-63.6
-60.34
-55.53
-50.33
-45.78
-42.67
-41.5
-42.38
-45.1
-49.04
-53.22
-56.44
-57.55
-55.57
-49.9
-40.38
-27.33
-11.7
5
20.85
33.97
43.11
48.06
49.55
48.92
47.46
45.94
44.5
42.87
40.73
37.98
34.77
31.38
28.11
25.18
22.64
20.4
18.24
15.84
12.92
9.3
5.04
0.39
-4.26
-8.51
-12.05
-14.71
-16.42
-17.18
-17.08
-16.27
-15.07
-13.9
-13.18
-13.12
-13.67
-14.53
-15.25
-15.5
-15.16
-14.41
-13.57
-12.98
-12.86
-13.25
-14.01
-14.83
-15.39
-15.34
-14.49
-12.78
-10.42
-7.78
-5.24
-3.07
-1.28
0.31
1.96
3.78
5.69
7.46
8.87
9.86
10.58
11.35
12.39
13.78
15.35
16.74
17.64
17.87
17.47
16.6
15.47
14.26
13.04
11.89
10.87
10.05
9.47
9.09
8.73
8.18
7.27
5.97
4.42
2.9
1.74
1.16
1.3
2.1
3.38
4.85
6.23
7.27
7.82
7.92
7.71
7.38
7.13
7.06
7.15
7.24
7.12
6.6
5.59
4.17
2.61
1.23
0.31
-0.02
0.14
0.51
0.75
0.6
-0.13
-1.41
-3.09
-4.9
-6.53
-7.72
-8.32
-8.39
-8.08
-7.65
-7.32
-7.22
-7.38
-7.79
-8.41
-9.27
-10.36
-11.66
-13.04
-14.3
-15.23
-15.65
-15.55
-15.02
-14.34
-13.79
-13.67
-14.13
-15.16
-16.62
-18.27
-19.8
-20.98
-21.64
-21.71
-21.26
-20.39
-19.22
-17.86
-16.34
-14.66
-12.79
-10.73
-8.52
-6.25
-4.04
-1.95
-0.02
1.81
3.57
5.23
6.69
7.84
8.61
9.05
9.26
9.37
9.5
9.66
9.82
9.91
9.86
9.61
9.12
8.32
7.16
5.66
3.9
2.07
0.45
-0.59
-0.66
0.55
3.14
6.85
11.12
15.18
18.28
19.98
20.24
19.33
17.76
15.96
14.21
12.58
11.05
9.61
8.28
7.13
6.17
5.38
4.7
4.03
3.32
2.52
1.6
0.53
-0.71
-2.09
-3.54
-4.99
-6.37
-7.67
-8.87
-9.89
-10.57
-10.65
-9.98
-8.59
-6.8
-5.06
-3.76
-3.07
-2.9
-2.97
-3.01
-2.89
-2.58
-2.06
-1.21
0.17
2.25
5.01
8.19
11.43
14.42
17.03
19.34
21.47
23.45
25.16
26.35
26.86
26.63
25.78
24.51
23.01
21.48
20.09
19.07
18.64
18.98
20.12
21.96
24.32
27.01
29.97
33.26
37.01
41.32
46.14
51.16
55.86
59.55
61.57
61.52
59.4
55.62
50.8
45.48
39.95
34.15
27.85
20.87
13.32
5.61
-1.7
-8.12
-13.42
-17.59
-20.81
-23.15
-24.52
-24.7
-23.51
-21
-17.5
-13.44
-9.14
-4.64
0.01
4.46
7.76
8.5
5.45
-1.77
-12.15
-23.59
-33.59
-40.36
-43.34
-43.19
-41.18
-38.5
-35.84
-33.43
-31.39
-29.95
-29.48
-30.24
-32.12
-34.58
-36.86
-38.26
-38.49
-37.69
-36.32
-34.88
-33.63
-32.51
-31.19
-29.25
-26.38
-22.53
-17.98
-13.15
-8.55
-4.57
-1.44
0.75
2.06
2.6
2.58
2.24
1.83
1.57
1.6
1.92
2.37
2.72
2.8
2.53
2.02
1.46
1.03
0.81
0.7
0.51
0.01
-0.9
-2.21
-3.78
-5.4
-6.84
-7.91
-8.45
-8.4
-7.84
-7
-6.15
-5.56
-5.37
-5.5
-5.8
-6.04
-6.12
-6.08
-6.07
-6.29
-6.84
-7.71
-8.8
-9.97
-11.14
-12.27
-13.46
-14.76
-16.15
-17.51
-18.63
-19.38
-19.76
-19.98
-20.4
-21.32
-22.88
-24.98
-27.31
-29.5
-31.2
-32.12
-32.11
-31.13
-29.33
-26.99
-24.47
-22.08
-19.96
-18
-15.98
-13.67
-11
-8.07
-5.04
-2.12
0.61
3.08
5.24
6.99
8.24
8.97
9.27
9.35
9.41
9.59
9.88
10.18
10.41
10.59
10.87
11.48
12.55
14.08
15.87
17.58
18.93
19.74
20.1
20.22
20.33
20.52
20.7
20.68
20.28
19.48
18.38
17.12
15.8
14.41
12.91
11.28
9.57
7.88
6.27
4.78
3.43
2.23
1.23
0.45
-0.14
-0.66
-1.23
-1.93
-2.68
-3.32
-3.62
-3.47
-2.81
-1.68
-0.2
1.43
2.9
3.79
3.73
2.56
0.54
-1.67
-3.26
-3.57
-2.38
0.04
3.1
6.2
8.95
11.24
13.11
14.59
15.62
16.07
15.88
15.14
14.09
13.01
12.08
11.32
10.58
9.69
8.5
7.02
5.33
3.63
2.09
0.83
-0.08
-0.65
-0.92
-1.01
-1.07
-1.33
-2
-3.18
-4.84
-6.75
-8.58
-10.1
-11.2
-12.01
-12.8
-13.82
-15.15
-16.67
-18.05
-18.92
-19.05
-18.36
-17.01
-15.2
-13.1
-10.82
-8.38
-5.9
-3.55
-1.6
-0.25
0.46
0.68
0.7
0.79
1.06
1.45
1.79
1.88
1.62
0.99
0.05
-1.14
-2.52
-3.98
-5.41
-6.64
-7.53
-7.99
-8.03
-7.72
-7.2
-6.56
-5.88
-5.24
-4.68
-4.23
-3.88
-3.58
-3.21
-2.61
-1.66
-0.33
1.29
3.03
4.64
5.93
6.81
7.32
7.55
7.59
7.5
7.28
6.94
6.5
6.06
5.71
5.51
5.38
5.15
4.63
3.76
2.68
1.68
1.11
1.18
1.86
2.88
3.82
4.36
4.4
4.02
3.46
2.91
2.42
1.94
1.39
0.76
0.13
-0.38
-0.68
-0.75
-0.7
-0.68
-0.82
-1.18
-1.79
-2.61
-3.57
-4.61
-5.63
-6.55
-7.3
-7.8
-8
-7.92
-7.69
-7.48
-7.43
-7.53
-7.54
-7.11
-5.9
-3.72
-0.65
2.99
6.8
10.42
13.62
16.32
18.53
20.37
22.03
23.73
25.61
27.67
29.71
31.44
32.71
33.61
34.64
36.48
39.69
44.38
50.07
55.78
60.46
63.35
64.25
63.46
61.52
58.87
55.76
52.19
48.21
44
39.92
36.28
33.23
30.63
28.17
25.59
22.8
19.93
17.13
14.45
11.63
8.27
3.85
-1.91
-9.02
-17.13
-25.71
-34.24
-42.36
-49.9
-56.78
-62.89
-68.05
-72.03
-74.7
-76
-75.93
-74.27
-70.68
-64.74
-56.32
-45.78
-33.92
-21.67
-9.66
1.99
13.56
25.34
37.33
49.06
59.69
68.3
74.02
76.26
74.61
68.97
59.62
47.32
33.23
18.7
4.91
-7.3
-17.58
-25.89
-32.45
-37.57
-41.62
-44.92
-47.77
-50.25
-52.27
-53.57
-53.8
-52.73
-50.33
-46.82
-42.62
-38.23
-34.1
-30.54
-27.71
-25.63
-24.2
-23.2
-22.31
-21.17
-19.52
-17.21
-14.36
-11.32
-8.5
-6.25
-4.66
-3.58
-2.71
-1.82
-0.79
0.26
1.11
1.59
1.64
1.33
0.79
0.08
-0.79
-1.88
-3.19
-4.7
-6.27
-7.79
-9.16
-10.38
-11.53
-12.69
-13.94
-15.28
-16.7
-18.15
-19.63
-21.13
-22.63
-23.99
-25.02
-25.48
-25.21
-24.17
-22.5
-20.46
-18.3
-16.2
-14.22
-12.35
-10.63
-9.17
-8.12
-7.6
-7.62
-8.02
-8.54
-8.93
-9.03
-8.87
-8.68
-8.75
-9.3
-10.31
-11.4
-11.85
-10.75
-7.41
-1.66
5.99
14.41
22.27
28.48
32.58
34.79
35.83
36.67
38.23
41.19
45.9
52.35
60.24
69.02
78.09
86.95
95.27
102.91
109.74
115.49
119.64
121.34
119.59
113.53
102.77
87.68
69.48
49.97
31.02
14.13
0.02
-11.2
-19.8
-25.97
-29.72
-30.96
-29.86
-27.07
-23.71
-21.08
-20.18
-21.44
-24.66
-29.19
-34.2
-39.02
-43.24
-46.66
-49.17
-50.71
-51.18
-50.57
-49.03
-46.88
-44.58
-42.56
-41.09
-40.19
-39.66
-39.18
-38.45
-37.28
-35.62
-33.55
-31.17
-28.63
-26.04
-23.53
-21.18
-19.06
-17.16
-15.39
-13.61
-11.73
-9.75
-7.75
-5.92
-4.41
-3.32
-2.65
-2.4
-2.56
-3.17
-4.22
-5.6
-7.04
-8.13
-8.44
-7.76
-6.12
-3.9
-1.6
0.31
1.61
2.35
2.77
3.05
3.25
3.22
2.76
1.8
0.49
-0.89
-2.05
-2.85
-3.4
-3.97
-4.85
-6.2
-7.99
-9.99
-11.93
-13.55
-14.7
-15.39
-15.67
-15.73
-15.71
-15.76
-15.99
-16.48
-17.24
-18.18
-19.09
-19.61
-19.32
-17.91
-15.29
-11.7
-7.66
-3.75
-0.44
2.05
3.8
5.01
5.9
6.61
7.16
7.55
7.76
7.85
7.93
8.07
8.25
8.36
8.25
7.78
7.01
6.12
5.39
5
4.93
4.92
4.56
3.56
1.84
-0.35
-2.62
-4.58
-6.03
-6.96
-7.44
-7.52
-7.11
-6.08
-4.32
-1.96
0.7
3.24
5.29
6.67
7.4
7.56
7.29
6.65
5.65
4.36
2.91
1.46
0.12
-1.08
-2.24
-3.56
-5.2
-7.21
-9.49
-11.84
-14.05
-15.94
-17.41
-18.49
-19.2
-19.58
-19.62
-19.22
-18.2
-16.36
-13.57
-9.81
-5.23
-0.17
4.98
9.83
14.09
17.59
20.29
22.17
23.21
23.36
22.64
21.11
19.04
16.73
14.52
12.58
10.93
9.43
7.94
6.4
4.91
3.58
2.51
1.66
0.87
-0.04
-1.21
-2.64
-4.21
-5.7
-6.8
-7.21
-6.64
-4.93
-2.08
1.72
6.13
10.78
15.41
19.91
24.34
28.82
33.47
38.3
43.16
47.85
52.14
55.88
59.01
61.54
63.46
64.64
64.82
63.67
60.92
56.43
50.27
42.62
33.79
24.12
14.03
4.04
-5.29
-13.38
-19.81
-24.4
-27.17
-28.32
-28.14
-26.91
-24.92
-22.46
-19.81
-17.22
-14.86
-12.78
-10.97
-9.42
-8.1
-7.06
-6.32
-5.84
-5.52
-5.21
-4.79
-4.18
-3.36
-2.35
-1.13
0.36
2.16
4.25
6.5
8.68
10.58
12.14
13.46
14.8
16.49
18.67
21.38
24.46
27.76
31.22
34.86
38.78
43.07
47.8
53.03
58.87
65.51
73.05
81.39
90.08
98.41
105.48
110.59
113.43
114.23
113.63
112.43
111.2
110.09
108.77
106.52
102.44
95.65
85.45
71.48
53.89
33.41
11.29
-10.91
-31.72
-50.11
-65.67
-78.61
-89.42
-98.56
-106.32
-112.73
-117.73
-121.27
-123.49
-124.61
-125.01
-125.03
-124.92
-124.77
-124.42
-123.59
-121.94
-119.17
-115.07
-109.51
-102.45
-94
-84.5
-74.57
-65.12
-57.1
-51.25
-47.82
-46.46
-46.31
-46.26
-45.31
-42.83
-38.69
-33.24
-27.09
-20.94
-15.31
-10.43
-6.32
-2.84
0.16
2.75
4.9
6.59
7.85
8.81
9.66
10.6
11.71
12.99
14.35
15.71
17.04
18.37
19.73
21.08
22.31
23.2
23.61
23.5
23.05
22.57
22.38
22.66
23.37
24.22
24.81
24.79
23.94
22.29
20.1
17.8
15.82
14.48
13.86
13.77
13.87
13.77
13.22
12.2
10.85
9.41
8.12
7.11
6.51
6.4
6.86
7.87
9.37
11.21
13.22
15.3
17.39
19.42
21.21
22.4
22.49
20.99
17.57
12.22
5.31
-2.45
-10.18
-17.07
-22.49
-26.24
-28.47
-29.63
-30.22
-30.68
-31.18
-31.73
-32.15
-32.19
-31.6
-30.22
-27.96
-24.92
-21.34
-17.6
-14.12
-11.25
-9.18
-7.94
-7.46
-7.64
-8.39
-9.63
-11.24
-13.01
-14.68
-15.99
-16.81
-17.25
-17.62
-18.31
-19.63
-21.66
-24.16
-26.69
-28.77
-30.03
-30.34
-29.82
-28.75
-27.42
-26.11
-24.98
-24.04
-23.18
-22.09
-20.35
-17.51
-13.3
-7.79
-1.45
5.02
10.98
16.12
20.63
24.99
29.65
34.64
39.34
42.7
43.67
41.76
37.25
31
23.98
16.75
9.35
1.65
-6.22
-13.47
-18.86
-21.19
-19.97
-15.69
-9.56
-2.95
3.16
8.41
12.86
16.62
19.56
21.37
21.84
21.02
19.34
17.4
15.82
14.97
15
15.81
17.09
18.43
19.37
19.51
18.7
17.03
14.87
12.74
11.11
10.31
10.47
11.49
13.14
15.07
16.88
18.28
19.1
19.35
19.17
18.73
18.16
17.45
16.47
15.12
13.41
11.5
9.68
8.28
7.6
7.77
8.78
10.52
12.74
15.14
17.33
18.97
19.79
19.74
18.96
17.72
16.27
14.74
13.05
11.06
8.67
5.97
3.19
0.61
-1.66
-3.74
-5.95
-8.67
-12.12
-16.2
-20.48
-24.31
-27.08
-28.37
-28.11
-26.58
-24.21
-21.51
-18.87
-16.56
-14.68
-13.32
-12.56
-12.5
-13.27
-14.97
-17.61
-21.02
-24.98
-29.18
-33.33
-37.14
-40.28
-42.34
-42.79
-41.12
-36.98
-30.3
-21.3
-10.44
1.82
14.99
28.65
42.26
55.15
66.56
75.83
82.63
87.12
89.82
91.4
92.35
92.78
92.41
90.77
87.56
82.81
76.94
70.55
64.14
57.92
51.8
45.6
39.26
32.98
27.07
21.81
17.27
13.21
9.24
5.02
0.46
-4.32
-9
-13.38
-17.42
-21.3
-25.29
-29.61
-34.26
-38.99
-43.42
-47.18
-50.13
-52.36
-54.21
-56.04
-58.14
-60.56
-63.12
-65.52
-67.46
-68.68
-69.1
-68.74
-67.75
-66.34
-64.76
-63.23
-61.92
-60.79
-59.7
-58.34
-56.35
-53.53
-49.84
-45.47
-40.77
-36.18
-32.03
-28.56
-25.83
-23.77
-22.2
-20.93
-19.86
-19
-18.52
-18.65
-19.59
-21.35
-23.64
-25.89
-27.42
-27.65
-26.22
-23.17
-18.83
-13.73
-8.45
-3.43
1.05
4.91
8.15
10.8
12.85
14.21
14.76
14.38
13.01
10.63
7.35
3.37
-1.05
-5.54
-9.61
-12.79
-14.65
-14.94
-13.75
-11.42
-8.51
-5.59
-3.09
-1.11
0.46
1.85
3.29
4.82
6.35
7.71
8.74
9.4
9.71
9.8
9.84
10.04
10.6
11.69
13.39
15.67
18.34
21.15
23.89
26.43
28.74
30.87
32.88
34.83
36.75
38.61
40.29
41.54
42
41.32
39.34
36.27
32.68
29.35
26.93
25.65
25.21
24.94
24.09
22.17
19.04
14.89
9.96
4.42
-1.78
-8.79
-16.82
-25.98
-36.28
-47.57
-59.47
-71.42
-82.67
-92.34
-99.63
-104
-105.36
-104.09
-101
-96.97
-92.77
-88.72
-84.71
-80.31
-75.08
-68.83
-61.73
-54.21
-46.76
-39.67
-32.94
-26.4
-19.91
-13.58
-7.82
-3.16
0.05
1.88
2.95
4.21
6.52
10.21
14.97
20.01
24.42
27.62
29.57
30.65
31.38
32.1
32.87
33.47
33.63
33.2
32.29
31.21
30.41
30.2
30.6
31.28
31.6
30.92
28.85
25.5
21.39
17.25
13.69
10.94
8.9
7.26
5.73
4.15
2.49
0.68
-1.37
-3.81
-6.64
-9.66
-12.38
-14.21
-14.63
-13.45
-10.84
-7.31
-3.46
0.21
3.47
6.35
9.07
11.85
14.72
17.55
20.1
22.15
23.62
24.61
25.3
25.88
26.44
27.02
27.59
28.15
28.67
29.13
29.46
29.57
29.39
28.87
28.09
27.17
26.29
25.59
25.16
24.97
24.91
24.79
24.44
23.71
22.65
21.45
20.54
20.43
21.5
23.86
27.22
30.97
34.36
36.79
38.01
38.17
37.69
37.04
36.54
36.29
36.26
36.43
36.88
37.75
39.15
40.96
42.88
44.5
45.52
45.84
45.62
45.14
44.58
43.88
42.67
40.49
36.98
32.13
26.29
20.12
14.22
8.94
4.21
-0.38
-5.32
-10.99
-17.43
-24.4
-31.53
-38.42
-44.79
-50.4
-55.02
-58.46
-60.65
-61.79
-62.45
-63.39
-65.4
-68.97
-74.07
-80.21
-86.56
-92.26
-96.57
-98.99
-99.17
-96.83
-91.79
-84.1
-74.15
-62.74
-50.86
-39.38
-28.69
-18.64
-8.7
1.68
12.75
24.31
35.82
46.65
56.31
64.54
71.24
76.39
79.97
81.94
82.34
81.31
79.07
75.87
71.94
67.48
62.71
57.91
53.51
50.07
48.16
48.29
50.61
54.73
59.8
64.68
68.39
70.42
70.9
70.47
69.84
69.41
69.13
68.5
66.83
63.55
58.34
51.22
42.5
32.69
22.46
12.38
2.84
-6.14
-14.85
-23.68
-32.73
-41.69
-49.83
-56.29
-60.5
-62.36
-62.4
-61.49
-60.62
-60.55
-61.64
-63.77
-66.35
-68.56
-69.64
-69.18
-67.34
-64.87
-62.81
-62.07
-63.02
-65.31
-68.06
-70.18
-70.82
-69.57
-66.51
-62
-56.44
-50.15
-43.34
-36.21
-29.03
-22.2
-16.13
-11.21
-7.57
-5.09
-3.42
-2.1
-0.74
0.81
2.41
3.73
4.48
4.55
4.16
3.74
3.74
4.36
5.46
6.6
7.27
7.16
6.3
5.05
3.92
3.33
3.39
3.88
4.37
4.39
3.66
2.15
0.02
-2.42
-4.86
-7.01
-8.62
-9.48
-9.39
-8.25
-6.11
-3.18
0.19
3.59
6.73
9.4
11.61
13.41
14.89
16.08
16.96
17.49
17.66
17.51
17.14
16.66
16.09
15.41
14.56
13.51
12.34
11.22
10.34
9.83
9.66
9.63
9.45
8.86
7.78
6.32
4.73
3.25
2.01
0.99
0.02
-1.04
-2.3
-3.74
-5.32
-6.98
-8.62
-10.1
-11.13
-11.34
-10.38
-8.15
-4.88
-1.13
2.42
5.23
7.07
8.08
8.61
9.02
9.48
9.97
10.31
10.31
9.88
9.05
7.95
6.73
5.53
4.46
3.6
3.04
2.79
2.86
3.16
3.51
3.66
3.39
2.57
1.22
-0.51
-2.37
-4.16
-5.76
-7.18
-8.51
-9.79
-10.96
-11.86
-12.21
-11.8
-10.54
-8.56
-6.19
-3.79
-1.7
-0.02
1.3
2.44
3.56
4.68
5.7
6.43
6.75
6.66
6.25
5.74
5.31
5.12
5.23
5.64
6.27
6.97
7.56
7.86
7.76
7.24
6.43
5.5
4.64
3.94
3.37
2.81
2.06
0.99
-0.43
-2.04
-3.59
-4.7
-5.07
-4.51
-3
-0.72
2.05
4.96
7.76
10.28
12.48
14.38
15.98
17.25
18.14
18.69
18.94
18.97
18.78
18.31
17.42
16.07
14.34
12.51
10.84
9.51
8.5
7.61
6.62
5.41
4.02
2.59
1.28
0.16
-0.79
-1.62
-2.4
-3.22
-4.14
-5.3
-6.78
-8.61
-10.61
-12.47
-13.76
-14.1
-13.27
-11.37
-8.73
-5.89
-3.34
-1.44
-0.21
0.51
1.05
1.63
2.31
2.97
3.38
3.38
2.93
2.14
1.24
0.42
-0.15
-0.41
-0.36
-0.02
0.54
1.19
1.75
1.97
1.63
0.6
-1.07
-3.11
-5.13
-6.72
-7.63
-7.81
-7.49
-7.03
-6.82
-7.12
-8.03
-9.46
-11.14
-12.7
-13.75
-13.92
-12.94
-10.74
-7.49
-3.56
0.53
4.29
7.3
9.44
10.72
11.28
11.26
10.78
9.91
8.77
7.59
6.59
5.93
5.6
5.43
5.2
4.74
4.03
3.24
2.56
2.12
1.93
1.83
1.61
1.13
0.34
-0.72
-1.91
-3.14
-4.34
-5.52
-6.68
-7.87
-9.1
-10.39
-11.79
-13.3
-14.95
-16.64
-18.19
-19.29
-19.64
-19.03
-17.42
-14.93
-11.79
-8.25
-4.52
-0.74
2.98
6.52
9.75
12.59
15.04
17.17
19.06
20.77
22.27
23.46
24.31
24.79
24.99
25
24.88
24.56
23.92
22.78
20.98
18.54
15.55
12.27
8.98
5.93
3.26
0.95
-1.11
-2.99
-4.66
-5.97
-6.76
-6.89
-6.47
-5.76
-5.13
-4.85
-5.03
-5.53
-5.98
-6
-5.23
-3.53
-0.98
2.12
5.34
8.25
10.57
12.2
13.19
13.68
13.81
13.67
13.31
12.79
12.13
11.35
10.36
9.05
7.29
5.04
2.45
-0.25
-2.81
-5.07
-7.06
-8.89
-10.67
-12.38
-13.85
-14.85
-15.16
-14.71
-13.61
-12.1
-10.48
-8.95
-7.61
-6.43
-5.34
-4.28
-3.32
-2.53
-2.07
-2.04
-2.49
-3.4
-4.66
-6.11
-7.49
-8.53
-8.98
-8.77
-7.97
-6.83
-5.69
-4.81
-4.26
-3.99
-3.82
-3.61
-3.32
-2.97
-2.62
-2.29
-1.96
-1.6
-1.2
-0.8
-0.43
-0.17
-0.05
-0.08
-0.25
-0.57
-1.05
-1.77
-2.81
-4.23
-6
-7.92
-9.7
-11.06
-11.87
-12.21
-12.32
-12.47
-12.81
-13.32
-13.84
-14.23
-14.49
-14.72
-15.08
-15.62
-16.22
-16.62
-16.49
-15.58
-13.81
-11.34
-8.44
-5.49
-2.77
-0.42
1.61
3.45
5.22
6.94
8.54
9.94
11.07
11.96
12.68
13.31
13.9
14.49
15.13
15.84
16.64
17.49
18.24
18.75
18.98
19.01
19.02
19.23
19.66
20.1
20.21
19.6
18.11
15.89
13.28
10.7
8.43
6.53
4.87
3.3
1.72
0.12
-1.46
-2.98
-4.39
-5.68
-6.75
-7.48
-7.72
-7.47
-6.88
-6.2
-5.72
-5.6
-5.88
-6.46
-7.21
-8.03
-8.87
-9.71
-10.56
-11.38
-12.13
-12.73
-13.03
-12.92
-12.33
-11.26
-9.84
-8.32
-7.05
-6.39
-6.65
-7.94
-10.2
-13.18
-16.53
-19.88
-22.92
-25.43
-27.36
-28.74
-29.71
-30.46
-31.2
-32.15
-33.39
-34.86
-36.27
-37.21
-37.35
-36.58
-35.18
-33.72
-32.84
-32.87
-33.67
-34.65
-34.97
-33.94
-31.26
-27.11
-21.91
-16.16
-10.19
-4.15
1.82
7.57
12.79
17.14
20.36
22.42
23.51
23.89
23.84
23.44
22.62
21.23
19.14
16.44
13.41
10.46
7.98
6.16
4.96
4.11
3.25
1.99
0.14
-2.3
-5.05
-7.71
-9.79
-10.93
-11
-10.09
-8.51
-6.64
-4.84
-3.38
-2.39
-1.92
-1.91
-2.25
-2.74
-3.16
-3.33
-3.12
-2.53
-1.63
-0.61
0.37
1.15
1.65
1.88
1.93
1.93
2.06
2.47
3.31
4.72
6.76
9.44
12.61
16.01
19.31
22.27
24.83
27.07
29.04
30.56
31.17
30.28
27.51
22.93
17.13
10.99
5.26
0.35
-3.7
-7.03
-9.56
-10.96
-10.74
-8.61
-4.77
0.05
4.84
8.65
10.92
11.59
10.95
9.5
7.6
5.47
3.1
0.45
-2.47
-5.46
-8.12
-9.94
-10.52
-9.68
-7.66
-4.95
-2.18
0.19
1.98
3.28
4.24
5
5.47
5.52
5.06
4.16
3.05
2.03
1.37
1.24
1.69
2.62
3.77
4.74
4.96
3.9
1.23
-3.05
-8.57
-14.76
-21.06
-27.09
-32.63
-37.61
-41.94
-45.52
-48.32
-50.49
-52.46
-54.79
-57.99
-62.24
-67.33
-72.76
-77.95
-82.52
-86.44
-89.93
-93.3
-96.72
-100.11
-103.22
-105.73
-107.38
-107.94
-107.11
-104.47
-99.5
-91.72
-80.82
-66.83
-50.08
-31.24
-11.11
9.38
29.24
47.5
63.28
75.95
85.25
91.31
94.6
95.78
95.54
94.39
92.71
90.63
88.23
85.48
82.45
79.21
75.88
72.56
69.31
66.17
63.15
60.24
57.46
54.87
52.46
50.15
47.81
45.26
42.4
39.27
36.07
33.08
30.5
28.4
26.62
24.86
22.78
20.16
16.95
13.28
9.43
5.77
2.7
0.62
-0.2
0.26
1.74
3.72
5.63
7.05
7.81
8.09
8.23
8.56
9.28
10.37
11.68
13.02
14.23
15.22
15.94
16.37
16.52
16.47
16.34
16.27
16.4
16.78
17.35
17.93
18.27
18.14
17.43
16.26
14.87
13.58
12.61
12.02
11.72
11.5
11.15
10.52
9.55
8.21
6.51
4.5
2.28
0.07
-1.85
-3.15
-3.61
-3.19
-2.08
-0.61
0.86
2.08
3.03
3.82
4.65
5.67
6.92
8.33
9.84
11.43
13.14
15.01
17.06
19.21
21.38
23.44
25.39
27.27
29.15
31.07
32.96
34.63
35.8
36.22
35.78
34.57
32.82
30.84
28.85
26.96
25.12
23.19
21.09
18.74
16.24
13.72
11.43
9.58
8.28
7.51
7.07
6.66
6.02
5.02
3.75
2.46
1.45
0.91
0.84
1.1
1.47
1.77
1.94
2.01
2.04
2.12
2.36
2.84
3.62
4.71
5.98
7.26
8.31
8.93
9.02
8.57
7.68
6.48
5.16
3.85
2.67
1.6
0.55
-0.6
-1.82
-2.89
-3.35
-2.68
-0.52
3.23
8.3
14.16
20.09
25.27
28.81
29.85
27.8
22.53
14.52
4.81
-5.35
-14.84
-23.05
-29.78
-35.18
-39.4
-42.49
-44.36
-44.97
-44.46
-43.1
-41.21
-39.04
-36.6
-33.79
-30.46
-26.55
-22.2
-17.72
-13.5
-9.87
-7.04
-4.98
-3.55
-2.61
-2.08
-2.03
-2.61
-3.93
-5.92
-8.32
-10.78
-12.98
-14.8
-16.26
-17.58
-18.9
-20.34
-21.86
-23.37
-24.75
-25.9
-26.73
-27.22
-27.38
-27.26
-26.97
-26.6
-26.27
-26.01
-25.77
-25.41
-24.78
-23.8
-22.49
-21.01
-19.61
-18.51
-17.87
-17.63
-17.59
-17.4
-16.75
-15.49
-13.65
-11.49
-9.31
-7.37
-5.75
-4.44
-3.29
-2.22
-1.22
-0.38
0.18
0.37
0.16
-0.43
-1.3
-2.3
-3.23
-3.79
-3.69
-2.74
-0.96
1.42
4.01
6.43
8.47
10.04
11.23
12.11
12.67
12.85
12.55
11.78
10.68
9.48
8.36
7.46
6.78
6.27
5.9
5.67
5.59
5.63
5.74
5.8
5.76
5.58
5.32
5.06
4.87
4.74
4.65
4.55
4.46
4.42
4.41
4.43
4.41
4.27
3.97
3.54
3.05
2.53
2.03
1.56
1.24
1.23
1.81
3.16
5.29
7.99
10.8
13.33
15.28
16.6
17.36
17.63
17.38
16.45
14.69
12.12
9.05
5.96
3.35
1.55
0.6
0.37
0.65
1.37
2.48
3.91
5.39
6.48
6.75
6.04
4.61
3.08
2.16
2.28
3.52
5.56
8.04
10.74
13.65
16.85
20.28
23.62
26.43
28.32
29.19
29.3
29.15
29.3
30.14
31.77
34.03
36.59
39.05
41.2
42.95
44.42
45.77
47.11
48.47
49.72
50.75
51.48
51.93
52.09
51.94
51.33
50.1
48.17
45.57
42.43
38.87
34.87
30.28
24.85
18.44
11.09
3.12
-5
-12.76
-19.81
-26.01
-31.38
-36.05
-40.12
-43.59
-46.4
-48.53
-49.99
-50.86
-51.3
-51.4
-51.29
-51.1
-51.01
-51.24
-51.94
-53.01
-54.13
-54.79
-54.51
-53.12
-50.79
-48.05
-45.48
-43.56
-42.45
-42.01
-41.98
-42.09
-42.14
-42.01
-41.57
-40.66
-39.16
-37.1
-34.71
-32.38
-30.47
-29.15
-28.34
-27.77
-27.14
-26.38
-25.57
-24.95
-24.63
-24.54
-24.44
-24
-23.04
-21.54
-19.7
-17.78
-15.99
-14.45
-13.15
-12
-10.91
-9.8
-8.6
-7.25
-5.64
-3.63
-1.05
2.15
5.88
9.82
13.54
16.57
18.64
19.75
20.09
19.97
19.64
19.15
18.46
17.42
15.96
14.13
12.15
10.28
8.75
7.73
7.25
7.26
7.64
8.23
8.85
9.32
9.42
9
8
6.5
4.7
2.91
1.37
0.23
-0.49
-0.92
-1.23
-1.63
-2.3
-3.34
-4.77
-6.5
-8.26
-9.73
-10.57
-10.55
-9.66
-8.08
-6.16
-4.33
-2.92
-2.09
-1.77
-1.68
-1.39
-0.56
1.04
3.37
6.22
9.27
12.25
14.96
17.24
18.94
19.93
20.11
19.48
18.18
16.35
14.02
10.93
6.66
0.7
-7.21
-16.91
-27.75
-38.77
-48.95
-57.48
-63.86
-67.92
-69.72
-69.42
-67.26
-63.53
-58.64
-53.05
-47.2
-41.37
-35.61
-29.77
-23.67
-17.24
-10.72
-4.55
0.79
5.04
8.26
10.92
13.6
16.76
20.56
24.84
29.17
33.06
36.04
37.78
38.11
36.99
34.61
31.32
27.66
24.2
21.47
19.76
19.12
19.33
20.02
20.71
20.96
20.43
18.99
16.69
13.73
10.3
6.42
1.92
-3.53
-10.16
-17.84
-25.97
-33.46
-39.13
-41.96
-41.45
-37.77
-31.66
-24.18
-16.39
-9.02
-2.42
3.43
8.71
13.57
18.07
22.2
26
29.54
32.93
36.2
39.28
42.01
44.25
45.96
47.2
48.05
48.45
48.22
47.12
44.95
41.72
37.58
32.76
27.5
22.02
16.53
11.29
6.59
2.71
-0.23
-2.27
-3.67
-4.76
-5.84
-7.05
-8.38
-9.64
-10.63
-11.22
-11.39
-11.24
-10.94
-10.6
-10.23
-9.75
-9
-7.89
-6.48
-4.99
-3.72
-2.93
-2.72
-2.95
-3.34
-3.58
-3.54
-3.3
-3.13
-3.37
-4.25
-5.82
-7.94
-10.37
-12.84
-15.12
-17.1
-18.75
-20.09
-21.22
-22.2
-23.06
-23.79
-24.32
-24.54
-24.34
-23.52
-21.9
-19.3
-15.68
-11.19
-6.22
-1.31
2.98
6.23
8.3
9.35
9.69
9.69
9.65
9.72
9.92
10.14
10.2
9.92
9.13
7.79
6.01
4.01
2.12
0.67
-0.13
-0.24
0.15
0.68
0.96
0.65
-0.4
-2.12
-4.31
-6.76
-9.28
-11.85
-14.48
-17.26
-20.21
-23.34
-26.59
-29.78
-32.66
-34.84
-35.95
-35.77
-34.33
-31.96
-29.14
-26.32
-23.81
-21.6
-19.56
-17.49
-15.33
-13.18
-11.25
-9.76
-8.81
-8.35
-8.13
-7.87
-7.31
-6.32
-4.94
-3.3
-1.62
-0.04
1.37
2.64
3.86
5.13
6.45
7.77
8.96
9.86
10.39
10.52
10.36
10.04
9.69
9.34
8.9
8.17
6.97
5.17
2.81
0.06
-2.81
-5.45
-7.51
-8.7
-8.83
-7.87
-5.95
-3.35
-0.44
2.48
5.18
7.6
9.7
11.49
12.93
13.92
14.41
14.42
14.07
13.56
13.07
12.67
12.38
12.11
11.82
11.51
11.28
11.25
11.46
11.83
12.16
12.25
11.96
11.31
10.46
9.61
8.9
8.32
7.78
7.15
6.37
5.45
4.47
3.47
2.46
1.37
0.11
-1.4
-3.23
-5.38
-7.79
-10.26
-12.43
-13.89
-14.2
-13.1
-10.67
-7.25
-3.36
0.47
3.9
6.81
9.27
11.37
13.18
14.71
15.88
16.62
16.92
16.81
16.39
15.78
15.13
14.56
14.17
13.99
13.94
13.87
13.62
13.09
12.25
11.17
9.96
8.71
7.51
6.39
5.32
4.23
3
1.5
-0.32
-2.39
-4.52
-6.48
-8.05
-9.19
-10
-10.72
-11.67
-13.12
-15.26
-18.12
-21.52
-25
-27.92
-29.52
-29.22
-26.77
-22.35
-16.51
-9.91
-3.11
3.64
10.28
16.87
23.39
29.66
35.37
40.18
43.95
46.72
48.77
50.41
51.87
53.16
54.08
54.28
53.43
51.39
48.28
44.35
39.9
35.14
30.13
24.86
19.43
14.05
9.03
4.63
0.92
-2.24
-5.19
-8.28
-11.76
-15.71
-20.04
-24.6
-29.14
-33.44
-37.21
-40.19
-42.18
-43.07
-42.89
-41.74
-39.78
-37.14
-33.93
-30.35
-26.69
-23.34
-20.64
-18.8
-17.79
-17.33
-17.1
-16.82
-16.42
-16.04
-15.83
-15.9
-16.23
-16.65
-16.95
-16.96
-16.56
-15.72
-14.49
-12.96
-11.32
-9.77
-8.53
-7.71
-7.24
-6.87
-6.27
-5.16
-3.52
-1.57
0.25
1.54
2.09
2.02
1.75
1.78
2.57
4.31
6.94
10.21
13.76
17.3
20.59
23.58
26.3
28.8
31.12
33.19
34.86
35.99
36.52
36.53
36.21
35.75
35.31
34.88
34.42
33.83
33.11
32.3
31.49
30.73
29.99
29.19
28.24
27.04
25.58
23.95
22.26
20.7
19.38
18.35
17.58
16.92
16.25
15.45
14.5
13.46
12.49
11.69
11.14
10.78
10.44
9.88
8.86
7.22
5.02
2.47
-0.04
-2.13
-3.58
-4.45
-5.01
-5.65
-6.66
-8.1
-9.83
-11.55
-13.02
-14.19
-15.13
-15.96
-16.76
-17.46
-17.94
-18.15
-18.15
-18.09
-18.13
-18.28
-18.43
-18.39
-18.05
-17.53
-17.07
-17
-17.52
-18.6
-20.04
-21.49
-22.63
-23.18
-23
-22.04
-20.4
-18.29
-15.98
-13.72
-11.62
-9.64
-7.62
-5.51
-3.37
-1.4
0.14
1.17
1.69
1.84
1.63
0.91
-0.6
-3.11
-6.61
-10.76
-15.02
-18.79
-21.57
-23.04
-23.02
-21.47
-18.56
-14.84
-11.26
-9.13
-9.73
-13.82
-21.29
-31.05
-41.33
-50.25
-56.28
-58.59
-57.04
-52
-44.03
-33.84
-22.19
-9.98
1.83
12.33
20.96
27.63
32.68
36.7
40.2
43.41
46.24
48.4
49.69
50.13
50.01
49.77
49.79
50.36
51.64
53.71
56.58
60.18
64.27
68.48
72.38
75.55
77.67
78.53
78.04
76.21
73.15
69.11
64.41
59.41
54.41
49.54
44.79
40.09
35.38
30.69
26.13
21.84
17.84
14.03
10.25
6.24
1.77
-3.27
-8.8
-14.52
-19.92
-24.47
-27.73
-29.52
-29.98
-29.51
-28.55
-27.41
-26.18
-24.75
-22.99
-20.99
-19.11
-17.89
-17.77
-18.81
-20.6
-22.4
-23.5
-23.56
-22.72
-21.52
-20.51
-19.95
-19.58
-18.73
-16.72
-13.2
-8.48
-3.49
0.37
1.58
-1.22
-8.88
-21.49
-38.11
-56.81
-74.84
-89.28
-97.77
-99.11
-93.6
-82.78
-68.92
-54.32
-40.85
-29.62
-21.02
-14.87
-10.53
-7.16
-3.9
-0.11
4.52
9.83
15.31
20.23
23.87
25.78
25.9
24.59
22.55
20.5
18.93
18
17.43
16.76
15.52
13.45
10.56
7.02
3.21
-0.49
-3.64
-5.89
-7.01
-7.09
-6.5
-5.78
-5.47
-5.87
-6.88
-8.14
-9.17
-9.58
-9.22
-8.19
-6.78
-5.4
-4.53
-4.5
-5.46
-7.29
-9.55
-11.67
-13.16
-13.73
-13.37
-12.3
-10.83
-9.28
-7.87
-6.74
-5.92
-5.38
-4.97
-4.57
-4.08
-3.53
-3.02
-2.67
-2.56
-2.61
-2.73
-2.88
-3.13
-3.65
-4.57
-5.92
-7.53
-9.13
-10.56
-11.81
-13.1
-14.69
-16.76
-19.24
-21.85
-24.24
-26.16
-27.52
-28.42
-29.04
-29.51
-29.89
-30.13
-30.21
-30.11
-29.82
-29.36
-28.68
-27.68
-26.26
-24.38
-22.13
-19.69
-17.28
-15.06
-13.04
-11.05
-8.83
-6.16
-2.94
0.75
4.7
8.67
12.44
15.91
19.01
21.61
23.51
24.49
24.42
23.35
21.55
19.29
16.87
14.4
11.97
9.67
7.72
6.36
5.76
5.83
6.17
6.24
5.63
4.17
2.03
-0.46
-3.06
-5.62
-8.06
-10.2
-11.58
-11.54
-9.49
-5.22
0.78
7.44
13.29
16.94
17.37
14.18
7.73
-0.98
-10.45
-19.03
-25.28
-28.23
-27.49
-23.25
-16.11
-6.95
3.25
13.49
22.92
30.92
37.25
42.05
45.67
48.48
50.61
51.99
52.4
51.74
50.11
47.75
44.85
41.36
37.04
31.48
24.47
16.17
7.23
-1.37
-8.65
-13.91
-17
-18.2
-18.12
-17.34
-16.31
-15.26
-14.29
-13.45
-12.86
-12.65
-12.91
-13.59
-14.45
-15.19
-15.51
-15.27
-14.55
-13.52
-12.43
-11.43
-10.6
-9.9
-9.3
-8.85
-8.67
-8.91
-9.68
-10.91
-12.45
-14.02
-15.43
-16.54
-17.46
-18.4
-19.68
-21.45
-23.66
-25.94
-27.72
-28.4
-27.62
-25.38
-22.05
-18.23
-14.5
-11.2
-8.37
-5.82
-3.27
-0.53
2.36
5.23
7.8
9.87
11.37
12.39
13.16
13.97
15.1
16.75
18.95
21.47
23.72
24.87
24.03
20.56
14.45
6.4
-2.24
-9.88
-15.24
-17.7
-17.47
-15.33
-12.29
-9.18
-6.48
-4.31
-2.53
-0.9
0.82
2.74
4.81
6.83
8.4
9.12
8.76
7.35
5.24
2.92
0.92
-0.39
-0.83
-0.35
0.98
3.04
5.67
8.62
11.65
14.61
17.48
20.37
23.49
27
30.94
35.24
39.69
44.09
48.32
52.26
55.78
58.67
60.66
61.5
61.15
59.7
57.47
54.76
51.72
48.34
44.51
40.21
35.66
31.27
27.44
24.31
21.6
18.67
14.81
9.63
3.29
-3.58
-10.08
-15.51
-19.62
-22.74
-25.61
-29.04
-33.52
-39.02
-45
-50.57
-54.85
-57.28
-57.79
-56.88
-55.43
-54.49
-55.01
-57.61
-62.42
-68.94
-76.02
-82.08
-85.42
-84.86
-80.2
-72.44
-63.51
-55.5
-49.97
-47.39
-47.2
-48.28
-49.55
-50.33
-50.34
-49.45
-47.39
-43.81
-38.55
-31.88
-24.62
-17.83
-12.36
-8.47
-5.77
-3.43
-0.69
2.87
7.11
11.48
15.31
18.08
19.6
20.04
19.8
19.3
18.87
18.61
18.44
18.19
17.72
17.03
16.24
15.5
14.89
14.37
13.79
12.97
11.77
10.16
8.19
5.94
3.48
0.92
-1.65
-4.07
-6.19
-7.85
-8.98
-9.5
-9.35
-8.39
-6.47
-3.52
0.39
4.93
9.59
13.82
17.23
19.69
21.36
22.51
23.36
23.97
24.23
23.97
23.16
21.92
20.58
19.48
18.81
18.57
18.54
18.44
18.11
17.54
16.9
16.33
15.87
15.41
14.74
13.71
12.31
10.67
9
7.51
6.28
5.26
4.3
3.2
1.75
-0.17
-2.57
-5.29
-7.99
-10.19
-11.38
-11.15
-9.37
-6.23
-2.18
2.22
6.44
10.14
13.22
15.73
17.8
19.55
20.99
22.07
22.68
22.72
22.1
20.78
18.75
16.07
12.84
9.24
5.48
1.78
-1.7
-4.85
-7.6
-9.9
-11.67
-12.81
-13.27
-13.05
-12.29
-11.25
-10.27
-9.78
-10.17
-11.64
-14.11
-17.17
-20.05
-21.89
-22.04
-20.27
-16.94
-12.78
-8.66
-5.21
-2.6
-0.68
0.86
2.2
3.25
3.77
3.57
2.71
1.56
0.63
0.32
0.73
1.64
2.61
3.3
3.59
3.6
3.56
3.7
4.08
4.67
5.38
6.16
7.01
7.9
8.79
9.63
10.42
11.21
12.09
13.18
14.58
16.33
18.4
20.7
22.98
24.87
26.02
26.18
25.34
23.62
21.26
18.35
14.82
10.54
5.51
0.17
-4.65
-7.88
-8.63
-6.53
-1.85
4.61
11.86
19.06
25.77
31.86
37.31
42.07
45.92
48.61
50
50.23
49.62
48.59
47.36
45.88
43.85
40.83
36.47
30.58
23.23
14.63
5.22
-4.44
-13.71
-21.92
-28.59
-33.51
-36.82
-38.93
-40.35
-41.51
-42.58
-43.52
-44.15
-44.29
-43.82
-42.66
-40.72
-37.89
-34.04
-29.11
-23.28
-17
-10.95
-5.82
-2.15
-0.07
0.62
0.48
0.18
0.27
1.07
2.57
4.45
6.22
7.45
7.85
7.41
6.27
4.62
2.55
0.01
-3.09
-6.75
-10.75
-14.64
-17.8
-19.66
-19.9
-18.48
-15.74
-12.18
-8.34
-4.64
-1.31
1.59
4.12
6.34
8.28
9.92
11.25
12.31
13.15
13.85
14.47
15.02
15.53
16.02
16.5
17.03
17.65
18.4
19.28
20.19
20.97
21.42
21.34
20.66
19.47
17.97
16.45
15.08
13.89
12.67
11.07
8.74
5.48
1.32
-3.38
-8.01
-11.87
-14.33
-15.02
-13.91
-11.36
-7.92
-4.26
-1.01
1.38
2.6
2.55
1.31
-0.87
-3.61
-6.43
-8.89
-10.74
-11.98
-12.91
-13.96
-15.52
-17.69
-20.27
-22.76
-24.66
-25.62
-25.6
-24.94
-24.11
-23.64
-23.89
-24.97
-26.72
-28.74
-30.55
-31.69
-31.88
-31.1
-29.59
-27.73
-25.85
-24.07
-22.28
-20.15
-17.33
-13.6
-8.97
-3.64
2.03
7.65
12.82
17.23
20.65
23.05
24.54
25.37
25.86
26.28
26.77
27.25
27.57
27.49
26.88
25.71
24.13
22.32
20.42
18.51
16.55
14.52
12.35
10.07
7.71
5.34
3.05
0.94
-0.77
-1.87
-2.21
-1.81
-0.88
0.18
0.97
1.24
1.01
0.51
0.14
0.28
1.2
3
5.54
8.54
11.62
14.39
16.59
18.08
18.89
19.12
18.93
18.49
17.98
17.57
17.44
17.72
18.42
19.51
20.9
22.51
24.31
26.26
28.32
30.33
32.07
33.29
33.76
33.35
32.04
29.96
27.28
24.25
21.07
17.91
14.88
12
9.25
6.61
4.06
1.64
-0.6
-2.64
-4.52
-6.32
-8.14
-10.07
-12.15
-14.36
-16.67
-18.99
-21.16
-22.96
-24.11
-24.36
-23.55
-21.65
-18.82
-15.3
-11.31
-7.03
-2.57
1.98
6.48
10.74
14.56
17.85
20.6
22.94
25.06
27.12
29.22
31.39
33.65
35.98
38.36
40.67
42.72
44.21
44.82
44.37
42.83
40.38
37.3
33.86
30.25
26.55
22.81
19.18
15.83
12.98
10.69
8.88
7.27
5.56
3.5
0.98
-1.95
-5.09
-8.13
-10.64
-12.2
-12.43
-11.18
-8.54
-4.85
-0.56
3.93
8.3
12.36
15.86
18.53
20.05
20.18
18.93
16.53
13.38
9.88
6.32
2.81
-0.63
-4.01
-7.25
-10.21
-12.78
-14.92
-16.7
-18.25
-19.72
-21.25
-22.88
-24.59
-26.33
-28.01
-29.49
-30.61
-31.27
-31.48
-31.37
-31.22
-31.31
-31.82
-32.76
-33.91
-34.98
-35.67
-35.81
-35.38
-34.48
-33.24
-31.81
-30.31
-28.77
-27.2
-25.55
-23.81
-22
-20.23
-18.64
-17.29
-16.19
-15.28
-14.47
-13.72
-13.07
-12.59
-12.32
-12.2
-12.08
-11.76
-11.11
-10.11
-8.9
-7.76
-6.95
-6.61
-6.7
-7.01
-7.3
-7.42
-7.42
-7.48
-7.84
-8.59
-9.69
-10.89
-11.88
-12.36
-12.17
-11.3
-9.89
-8.18
-6.41
-4.8
-3.47
-2.43
-1.68
-1.15
-0.81
-0.64
-0.57
-0.54
-0.46
-0.25
0.09
0.53
1.02
1.49
1.87
2.15
2.31
2.41
2.48
2.59
2.76
2.97
3.15
3.21
3.07
2.65
1.93
0.95
-0.23
-1.46
-2.6
-3.54
-4.24
-4.76
-5.15
-5.49
-5.79
-6.04
-6.21
-6.32
-6.43
-6.61
-6.89
-7.3
-7.85
-8.56
-9.46
-10.51
-11.57
-12.41
-12.74
-12.37
-11.28
-9.66
-7.86
-6.2
-4.89
-3.99
-3.43
-3.08
-2.81
-2.53
-2.2
-1.78
-1.26
-0.67
-0.1
0.32
0.46
0.23
-0.34
-1.07
-1.7
-2.01
-1.84
-1.27
-0.5
0.12
0.31
-0.08
-0.96
-2.05
-3.02
-3.62
-3.77
-3.61
-3.33
-3.09
-2.93
-2.77
-2.53
-2.17
-1.8
-1.56
-1.56
-1.87
-2.41
-3.12
-3.9
-4.64
-5.2
-5.39
-5.01
-3.96
-2.28
-0.17
2.11
4.3
6.17
7.65
8.68
9.35
9.81
10.25
10.9
11.89
13.15
14.49
15.62
16.3
16.48
16.23
15.71
15.06
14.34
13.59
12.85
12.23
11.84
11.74
11.82
11.85
11.56
10.81
9.62
8.23
6.95
6.01
5.49
5.28
5.17
4.9
4.29
3.29
2
0.62
-0.62
-1.55
-2.1
-2.34
-2.46
-2.69
-3.22
-4.12
-5.3
-6.53
-7.46
-7.75
-7.18
-5.74
-3.66
-1.33
0.83
2.53
3.63
4.19
4.37
4.34
4.29
4.3
4.43
4.65
4.93
5.17
5.32
5.36
5.3
5.21
5.18
5.27
5.5
5.84
6.2
6.47
6.6
6.56
6.42
6.24
6.07
5.84
5.46
4.84
4
3.05
2.14
1.38
0.76
0.2
-0.39
-1.05
-1.7
-2.26
-2.67
-2.94
-3.19
-3.54
-4.07
-4.79
-5.65
-6.57
-7.52
-8.49
-9.54
-10.67
-11.89
-13.1
-14.14
-14.82
-15
-14.61
-13.69
-12.33
-10.67
-8.85
-7.03
-5.33
-3.85
-2.63
-1.68
-0.95
-0.35
0.18
0.72
1.29
1.91
2.59
3.27
3.86
4.25
4.39
4.31
4.14
4.01
4
4.08
4.14
4.09
3.92
3.74
3.66
3.74
3.91
4.03
3.97
3.66
3.19
2.65
2.12
1.61
1.06
0.42
-0.32
-1.1
-1.9
-2.71
-3.58
-4.54
-5.57
-6.57
-7.43
-8.06
-8.5
-8.88
-9.36
-10.08
-11.08
-12.31
-13.59
-14.68
-15.32
-15.25
-14.34
-12.65
-10.44
-8.13
-6.13
-4.72
-3.91
-3.5
-3.19
-2.74
-2.05
-1.16
-0.24
0.58
1.23
1.72
2.1
2.4
2.66
2.9
3.11
3.3
3.48
3.68
3.93
4.24
4.58
4.93
5.25
5.51
5.71
5.86
5.94
5.93
5.81
5.61
5.35
5.09
4.86
4.7
4.56
4.38
4.11
3.68
3.07
2.32
1.5
0.74
0.16
-0.15
-0.19
-0.01
0.27
0.52
0.63
0.51
0.1
-0.57
-1.35
-1.93
-1.92
-1.01
0.93
3.75
7.07
10.42
13.46
16.02
18.12
19.92
21.6
23.27
24.96
26.59
28.07
29.26
30.1
30.57
30.72
30.6
30.25
29.67
28.78
27.57
26.05
24.29
22.43
20.53
18.65
16.76
14.86
12.96
11.11
9.33
7.63
5.97
4.32
2.62
0.88
-0.92
-2.79
-4.8
-7
-9.43
-12.06
-14.79
-17.46
-19.92
-22.1
-24.03
-25.87
-27.82
-30.05
-32.54
-35.1
-37.36
-38.93
-39.49
-38.99
-37.56
-35.53
-33.28
-31.09
-29.17
-27.55
-26.24
-25.16
-24.24
-23.34
-22.29
-20.99
-19.42
-17.72
-16.14
-14.93
-14.21
-13.89
-13.74
-13.5
-12.96
-12.08
-10.94
-9.63
-8.2
-6.69
-5.13
-3.57
-2.12
-0.87
0.14
0.93
1.61
2.25
2.89
3.51
4.02
4.29
4.18
3.56
2.38
0.68
-1.39
-3.6
-5.72
-7.59
-9.15
-10.4
-11.42
-12.29
-13.13
-14.07
-15.12
-16.17
-16.91
-16.89
-15.62
-12.87
-8.8
-4.02
0.55
3.99
5.68
5.48
3.74
1.1
-1.69
-4.05
-5.62
-6.3
-6.14
-5.34
-4.08
-2.57
-1.01
0.43
1.58
2.34
2.66
2.57
2.19
1.68
1.2
0.87
0.72
0.74
0.87
1.1
1.39
1.71
1.99
2.16
2.18
2.09
1.95
1.86
1.87
1.97
2.05
2.02
1.8
1.37
0.7
-0.18
-1.21
-2.33
-3.48
-4.65
-5.89
-7.39
-9.33
-11.79
-14.67
-17.6
-20.07
-21.56
-21.75
-20.56
-18.21
-15.06
-11.53
-7.94
-4.52
-1.39
1.39
3.81
5.89
7.66
9.16
10.41
11.44
12.29
13.05
13.81
14.61
15.48
16.38
17.33
18.33
19.4
20.52
21.64
22.65
23.48
24.1
24.57
24.96
25.27
25.47
25.46
25.15
24.5
23.58
22.42
21.07
19.55
17.83
15.9
13.75
11.45
9.06
6.66
4.29
1.93
-0.43
-2.86
-5.4
-8.12
-11.1
-14.38
-17.95
-21.56
-24.79
-27.01
-27.68
-26.49
-23.55
-19.31
-14.44
-9.51
-4.88
-0.66
3.22
6.77
9.97
12.71
14.91
16.6
17.89
18.98
20.03
21.13
22.25
23.3
24.14
24.65
24.74
24.37
23.61
22.53
21.27
19.92
18.52
17.05
15.42
13.55
11.38
8.95
6.37
3.84
1.55
-0.37
-1.93
-3.23
-4.44
-5.69
-7.09
-8.73
-10.74
-13.26
-16.36
-19.92
-23.51
-26.44
-28
-27.67
-25.38
-21.49
-16.69
-11.73
-7.15
-3.21
0.11
3.03
5.76
8.45
11.14
13.82
16.42
18.86
21.04
22.85
24.24
25.24
26.02
26.81
27.83
29.14
30.69
32.25
33.59
34.53
34.99
34.99
34.57
33.82
32.75
31.4
29.75
27.74
25.32
22.44
19.16
15.62
12.04
8.62
5.42
2.32
-0.92
-4.59
-8.9
-13.94
-19.59
-25.48
-31.02
-35.43
-37.95
-38.11
-35.92
-31.91
-26.98
-22.08
-17.88
-14.59
-11.98
-9.65
-7.27
-4.75
-2.25
0.01
1.82
3.13
4
4.55
4.86
5
5.08
5.2
5.54
6.22
7.27
8.56
9.86
10.91
11.51
11.55
11.07
10.16
9
7.75
6.54
5.4
4.27
2.98
1.34
-0.82
-3.49
-6.49
-9.49
-12.2
-14.41
-16.14
-17.63
-19.24
-21.31
-24.09
-27.5
-31.18
-34.46
-36.58
-36.84
-34.94
-31.03
-25.69
-19.73
-13.88
-8.62
-4.09
-0.21
3.2
6.29
9.13
11.77
14.18
16.31
18.07
19.34
20.07
20.29
20.16
19.86
19.54
19.29
19.06
18.81
18.5
18.13
17.73
17.31
16.81
16.11
15.1
13.7
11.92
9.9
7.78
5.72
3.84
2.14
0.56
-1.02
-2.74
-4.69
-6.88
-9.25
-11.7
-14.05
-16.17
-18.01
-19.68
-21.4
-23.47
-26.13
-29.53
-33.56
-37.86
-41.84
-44.81
-46.14
-45.57
-43.22
-39.6
-35.46
-31.5
-28.23
-25.81
-24.06
-22.62
-21.04
-18.94
-16.09
-12.54
-8.45
-4.1
0.3
4.73
9.3
14.16
19.36
24.77
30.09
35.01
39.29
42.77
45.43
47.26
48.23
48.34
47.68
46.41
44.79
43.05
41.27
39.36
37.1
34.31
30.96
27.24
23.51
20.15
17.36
15.18
13.47
12.01
10.61
9.09
7.27
4.99
2.18
-1.01
-4.15
-6.59
-7.68
-7.08
-4.9
-1.72
1.62
4.37
6.1
6.82
6.87
6.73
6.87
7.57
8.81
10.28
11.36
11.32
9.47
5.45
-0.62
-8.13
-16.19
-23.87
-30.45
-35.58
-39.23
-41.58
-42.88
-43.35
-43.16
-42.49
-41.48
-40.27
-38.94
-37.53
-35.99
-34.22
-32.17
-29.82
-27.23
-24.52
-21.83
-19.3
-17.07
-15.32
-14.24
-14
-14.65
-16
-17.64
-19.09
-19.88
-19.68
-18.41
-16.12
-13.06
-9.58
-6.08
-2.92
-0.31
1.74
3.47
5.17
7.03
9.07
11.16
13.13
14.91
16.55
18.14
19.69
21.08
22.15
22.79
22.98
22.84
22.5
22.05
21.52
20.85
19.94
18.75
17.26
15.51
13.62
11.71
9.86
8.07
6.22
4.18
1.87
-0.65
-3.14
-5.24
-6.6
-6.99
-6.38
-4.92
-2.93
-0.79
1.19
2.79
4.02
5.05
6.13
7.49
9.22
11.28
13.54
15.87
18.2
20.54
22.92
25.29
27.54
29.5
31.1
32.39
33.5
34.57
35.67
36.67
37.34
37.46
36.87
35.52
33.43
30.61
27.05
22.72
17.57
11.55
4.57
-3.37
-12.06
-21
-29.42
-36.45
-41.52
-44.56
-46.08
-46.89
-47.77
-49.1
-50.85
-52.73
-54.46
-55.99
-57.55
-59.58
-62.7
-67.6
-74.88
-84.8
-96.96
-110.18
-122.55
-131.96
-136.63
-135.65
-129.13
-117.86
-102.89
-85.19
-65.6
-45
-24.53
-5.57
10.41
22.29
29.56
32.42
31.73
29
26.24
25.78
29.76
39.41
54.48
73.06
92.12
108.5
120.11
126.47
128.59
128.18
126.68
124.71
122.18
118.83
114.89
111.31
109.31
109.89
113.17
118.3
123.78
128.08
130.11
129.39
125.91
119.83
111.25
100.23
86.87
71.47
54.48
36.54
18.36
0.67
-15.83
-30.5
-42.98
-53.22
-61.51
-68.32
-74.1
-79.02
-82.96
-85.61
-86.67
-86.01
-83.7
-79.88
-74.71
-68.26
-60.59
-51.87
-42.54
-33.31
-25.06
-18.58
-14.27
-12.04
-11.3
-11.23
-11.06
-10.34
-8.97
-7.13
-5.21
-3.64
-2.88
-3.25
-4.84
-7.42
-10.43
-13.19
-15.11
-16.02
-16.15
-16.02
-16.16
-16.83
-17.99
-19.39
-20.67
-21.57
-21.85
-21.38
-20.03
-17.8
-14.82
-11.26
-7.32
-3.06
1.58
6.77
12.54
18.69
24.65
29.69
33.17
34.79
34.73
33.49
31.65
29.57
27.3
24.65
21.44
17.68
13.66
9.78
6.34
3.39
0.73
-1.89
-4.6
-7.35
-9.98
-12.4
-14.72
-17.17
-19.94
-22.99
-25.97
-28.38
-29.81
-30.17
-29.68
-28.78
-27.93
-27.36
-27.17
-27.33
-27.75
-28.27
-28.58
-28.24
-26.8
-24.01
-20.07
-15.56
-11.34
-8.25
-6.78
-6.94
-8.24
-9.86
-10.95
-10.9
-9.57
-7.37
-5.13
-3.82
-4.23
-6.62
-10.74
-15.85
-21.16
-25.93
-29.71
-32.22
-33.33
-33.05
-31.48
-28.96
-25.91
-22.81
-20
-17.61
-15.57
-13.75
-12.06
-10.46
-8.95
-7.5
-6.07
-4.58
-2.99
-1.39
0.05
1.03
1.25
0.49
-1.28
-3.77
-6.51
-8.99
-10.88
-12.04
-12.55
-12.53
-11.94
-10.63
-8.43
-5.38
-1.78
1.77
4.69
6.51
7.12
6.62
5.3
3.44
1.26
-1.08
-3.43
-5.63
-7.53
-8.95
-9.8
-10.04
-9.74
-9.06
-8.29
-7.73
-7.63
-8.08
-8.96
-9.95
-10.72
-11
-10.75
-10.11
-9.27
-8.41
-7.68
-7.11
-6.68
-6.3
-5.79
-4.9
-3.36
-1.06
1.92
5.23
8.4
10.95
12.58
13.17
12.79
11.71
10.23
8.7
7.38
6.44
5.83
5.45
5.13
4.76
4.34
3.93
3.6
3.35
3.15
2.94
2.69
2.43
2.22
2.12
2.1
2.1
2.01
1.77
1.4
0.96
0.54
0.22
-0.01
-0.23
-0.52
-1
-1.72
-2.64
-3.61
-4.44
-4.95
-4.97
-4.47
-3.5
-2.2
-0.73
0.77
2.2
3.49
4.55
5.33
5.78
5.91
5.75
5.35
4.75
4.02
3.24
2.56
2.09
1.92
2.03
2.23
2.31
2.15
1.73
1.21
0.78
0.51
0.36
0.13
-0.34
-1.12
-2.14
-3.19
-4.11
-4.84
-5.46
-6.11
-6.91
-7.93
-9.12
-10.43
-11.82
-13.29
-14.83
-16.36
-17.7
-18.54
-18.61
-17.81
-16.28
-14.35
-12.43
-10.72
-9.24
-7.87
-6.54
-5.41
-4.88
-5.36
-6.97
-9.41
-11.93
-13.68
-14
-12.59
-9.47
-4.85
1.09
8.16
16.04
24.11
31.48
37.18
40.45
41.06
39.29
35.88
31.69
27.47
23.68
20.46
17.74
15.34
13.07
10.78
8.34
5.65
2.65
-0.64
-4.01
-7.09
-9.41
-10.58
-10.43
-9.15
-7.16
-4.97
-2.98
-1.36
-0
1.35
2.94
4.86
6.99
9.1
10.9
12.2
13
13.46
13.84
14.36
15.11
15.99
16.84
17.51
17.98
18.34
18.75
19.25
19.84
20.34
20.56
20.31
19.46
17.96
15.8
12.99
9.57
5.59
1.09
-3.83
-9.15
-14.8
-20.67
-26.56
-32.18
-37.16
-41.14
-43.89
-45.38
-45.79
-45.45
-44.7
-43.75
-42.51
-40.6
-37.46
-32.54
-25.57
-16.72
-6.57
4.01
14.1
22.99
30.29
36
40.36
43.78
46.59
49.02
51.11
52.75
53.76
53.92
53.03
50.93
47.58
43.18
38.19
33.27
29.04
25.75
23.13
20.38
16.53
10.89
3.37
-5.47
-14.64
-23.17
-30.37
-35.94
-39.85
-42.11
-42.64
-41.3
-38.02
-32.91
-26.31
-18.71
-10.61
-2.5
5.31
12.64
19.38
25.55
31.16
36.27
40.99
45.45
49.74
53.86
57.56
60.27
61.26
59.81
55.62
49.15
41.64
34.9
30.73
30.31
33.82
40.3
47.97
54.78
58.9
59.13
55.08
47.21
36.63
24.82
13.27
3.12
-5.19
-11.84
-17.53
-22.98
-28.62
-34.39
-39.85
-44.43
-47.81
-50.12
-51.87
-53.76
-56.29
-59.43
-62.67
-65.15
-65.95
-64.5
-60.69
-54.83
-47.53
-39.46
-31.23
-23.38
-16.46
-11.03
-7.66
-6.75
-8.35
-12.14
-17.48
-23.58
-29.77
-35.66
-41.13
-46.26
-51.09
-55.51
-59.25
-61.95
-63.25
-62.93
-61.02
-57.77
-53.71
-49.53
-45.94
-43.52
-42.44
-42.46
-42.94
-43.09
-42.17
-39.8
-35.96
-31.01
-25.53
-20.14
-15.34
-11.42
-8.43
-6.23
-4.58
-3.21
-2
-0.96
-0.26
-0.12
-0.62
-1.69
-2.96
-3.91
-3.99
-2.85
-0.46
2.8
6.35
9.61
12.24
14.22
15.79
17.25
18.79
20.45
22.08
23.51
24.63
25.38
25.8
25.98
26.06
26.21
26.61
27.34
28.32
29.38
30.27
30.89
31.31
31.78
32.5
33.47
34.47
35.13
35.21
34.69
33.87
33.2
33.05
33.5
34.36
35.21
35.66
35.52
34.78
33.56
32.02
30.2
28.11
25.73
23.05
20.05
16.56
12.24
6.63
-0.56
-9.19
-18.51
-27.33
-34.43
-38.98
-40.85
-40.55
-38.92
-36.7
-34.34
-31.87
-29.09
-25.82
-22.04
-17.89
-13.66
-9.56
-5.74
-2.2
1.12
4.21
6.92
8.9
9.77
9.2
7.1
3.69
-0.54
-4.95
-9
-12.27
-14.57
-15.78
-15.79
-14.42
-11.5
-6.93
-0.93
5.96
12.83
18.67
22.62
24.21
23.48
20.94
17.3
13.22
9.12
5.19
1.44
-2.15
-5.57
-8.75
-11.68
-14.37
-16.84
-19
-20.55
-21.04
-20.06
-17.48
-13.59
-9.12
-4.94
-1.77
0.1
0.81
0.81
0.63
0.62
0.92
1.47
2.14
2.82
3.46
4.02
4.47
4.72
4.71
4.45
4.13
4.04
4.52
5.81
7.91
10.54
13.19
15.34
16.61
16.96
16.61
15.93
15.25
14.66
14.1
13.34
12.2
10.64
8.83
7.08
5.7
4.93
4.78
5.07
5.45
5.5
4.81
3.09
0.3
-3.31
-7.16
-10.45
-12.41
-12.5
-10.67
-7.35
-3.31
0.67
4.12
7.02
9.74
12.77
16.44
20.77
25.49
30.19
34.57
38.55
42.33
46.23
50.54
55.41
60.77
66.36
71.74
76.39
79.76
81.33
80.73
77.89
73.03
66.65
59.38
51.81
44.34
37.1
29.9
22.36
14.07
4.79
-5.48
-16.58
-28.31
-40.6
-53.42
-66.56
-79.38
-90.8
-99.55
-104.7
-106.08
-104.24
-100.06
-94.14
-86.39
-76.3
-63.5
-48.3
-31.92
-16.02
-1.96
9.73
19.57
28.59
37.81
47.62
57.71
67.21
75.03
80.17
81.89
79.81
73.96
64.76
53
39.79
26.5
14.53
5.22
-0.51
-2.32
-0.61
3.58
8.94
14.22
18.58
21.58
23.09
22.99
21.11
17.23
11.24
3.36
-5.86
-15.63
-25.05
-33.27
-39.6
-43.56
-45.09
-44.57
-42.81
-40.86
-39.64
-39.53
-40.18
-40.56
-39.41
-35.81
-29.62
-21.53
-12.74
-4.44
2.67
8.44
13.06
16.64
19.1
20.16
19.7
18.01
15.82
14
13.22
13.62
14.82
16.21
17.29
17.89
18.15
18.37
18.8
19.55
20.58
21.75
22.79
23.38
23.11
21.63
18.75
14.56
9.46
4.01
-1.22
-5.9
-9.99
-13.74
-17.51
-21.56
-25.87
-30.07
-33.51
-35.42
-35.23
-32.75
-28.31
-22.69
-16.84
-11.56
-7.23
-3.74
-0.62
2.66
6.44
10.72
15.18
19.44
23.12
26.09
28.37
30.07
31.22
31.72
31.34
29.84
27.07
23.05
18
12.23
6.13
0.09
-5.51
-10.19
-13.48
-15.01
-14.65
-12.64
-9.58
-6.22
-3.23
-0.94
0.61
1.66
2.47
3.12
3.55
3.53
2.83
1.36
-0.87
-3.68
-6.78
-9.83
-12.52
-14.62
-16.11
-17.13
-17.98
-18.92
-20
-21.08
-21.78
-21.73
-20.71
-18.73
-16.05
-13.05
-10.07
-7.35
-4.95
-2.8
-0.75
1.35
3.64
6.18
8.96
11.84
14.68
17.3
19.54
21.33
22.59
23.35
23.64
23.55
23.25
22.89
22.59
22.33
21.95
21.16
19.65
17.19
13.68
9.29
4.29
-0.93
-6.03
-10.84
-15.36
-19.76
-24.27
-29.02
-33.9
-38.54
-42.37
-44.85
-45.66
-44.77
-42.48
-39.27
-35.59
-31.78
-28.01
-24.27
-20.49
-16.58
-12.58
-8.61
-4.88
-1.61
1.01
2.93
4.23
5.02
5.45
5.59
5.46
5.09
4.57
4.07
3.81
3.98
4.7
5.87
7.31
8.76
10.05
11.15
12.1
12.97
13.76
14.4
14.76
14.81
14.56
14.15
13.65
13.1
12.41
11.46
10.18
8.63
6.92
5.19
3.48
1.7
-0.27
-2.48
-4.77
-6.8
-8.15
-8.5
-7.76
-6.18
-4.15
-2.12
-0.42
0.83
1.69
2.33
2.95
3.64
4.4
5.14
5.77
6.23
6.54
6.78
7.09
7.55
8.19
8.98
9.86
10.8
11.82
12.88
13.98
15.03
16.01
17
18.21
19.88
22.22
25.24
28.72
32.31
35.61
38.34
40.38
41.73
42.37
42.22
41.16
39.06
35.95
32
27.53
22.8
17.99
13.11
8.17
3.26
-1.33
-5.17
-7.82
-9.04
-8.88
-7.72
-6.15
-4.83
-4.29
-4.85
-6.54
-9.12
-12.22
-15.4
-18.29
-20.72
-22.72
-24.4
-25.94
-27.42
-28.83
-30.08
-31.01
-31.4
-31.01
-29.65
-27.25
-23.93
-20.01
-15.92
-12.09
-8.8
-6.1
-3.91
-2.03
-0.31
1.34
2.92
4.42
5.78
7.02
8.14
9.14
10.01
10.63
10.78
10.21
8.74
6.32
3.14
-0.49
-4.25
-7.92
-11.47
-15.02
-18.74
-22.69
-26.79
-30.82
-34.42
-37.23
-38.89
-39.18
-38.03
-35.6
-32.26
-28.42
-24.44
-20.52
-16.72
-12.97
-9.28
-5.71
-2.39
0.55
3.03
5.09
6.81
8.31
9.66
10.95
12.23
13.55
14.91
16.29
17.68
19.11
20.65
22.37
24.3
26.31
28.23
29.83
30.9
31.37
31.21
30.5
29.38
28.03
26.66
25.46
24.52
23.8
23.21
22.63
22.05
21.58
21.43
21.73
22.46
23.36
24.01
23.98
22.88
20.55
17.04
12.61
7.68
2.69
-1.99
-6.15
-9.7
-12.71
-15.27
-17.43
-19.22
-20.63
-21.67
-22.41
-22.94
-23.33
-23.58
-23.59
-23.17
-22.12
-20.36
-18.02
-15.36
-12.73
-10.43
-8.55
-7.06
-5.84
-4.86
-4.23
-4.18
-4.85
-6.22
-8.04
-9.9
-11.41
-12.29
-12.45
-11.96
-10.94
-9.56
-7.94
-6.2
-4.45
-2.81
-1.39
-0.28
0.44
0.71
0.49
-0.18
-1.13
-2.11
-2.8
-2.92
-2.33
-1.04
0.77
2.87
4.96
6.78
8.11
8.78
8.78
8.19
7.26
6.32
5.64
5.39
5.58
6.17
7.08
8.25
9.58
10.93
12.1
12.9
13.21
13.03
12.51
11.87
11.26
10.69
10.06
9.22
8.06
6.6
4.95
3.26
1.66
0.16
-1.27
-2.65
-3.93
-5.02
-5.83
-6.38
-6.82
-7.37
-8.2
-9.34
-10.68
-12.05
-13.28
-14.38
-15.5
-16.78
-18.28
-19.83
-21.11
-21.8
-21.73
-20.95
-19.7
-18.28
-16.89
-15.59
-14.35
-13.18
-12.11
-11.17
-10.39
-9.68
-8.92
-8.01
-7.01
-6.04
-5.25
-4.72
-4.41
-4.21
-4.01
-3.79
-3.6
-3.48
-3.43
-3.39
-3.27
-3.04
-2.71
-2.39
-2.21
-2.27
-2.62
-3.23
-3.99
-4.77
-5.46
-6.01
-6.52
-7.09
-7.86
-8.84
-9.95
-11.05
-12
-12.76
-13.39
-14.02
-14.79
-15.75
-16.85
-17.95
-18.87
-19.4
-19.39
-18.77
-17.55
-15.84
-13.84
-11.74
-9.74
-7.95
-6.4
-5.03
-3.72
-2.35
-0.78
1.02
2.98
4.99
6.93
8.67
10.18
11.46
12.52
13.4
14.15
14.81
15.43
16.07
16.69
17.16
17.31
16.97
16.11
14.85
13.39
11.92
10.55
9.2
7.73
6.07
4.21
2.28
0.37
-1.5
-3.53
-5.98
-9.05
-12.76
-16.84
-20.82
-24.24
-26.75
-28.29
-29.07
-29.49
-30.03
-31.09
-32.92
-35.51
-38.58
-41.64
-44.04
-45.15
-44.53
-42.03
-37.84
-32.39
-26.25
-19.97
-13.97
-8.49
-3.6
0.76
4.66
8.18
11.3
13.99
16.21
17.96
19.33
20.45
21.42
22.32
23.17
23.99
24.78
25.54
26.25
26.84
27.24
27.4
27.33
27.11
26.77
26.32
25.73
25.04
24.41
24.1
24.35
25.16
26.26
27.18
27.46
26.81
25.25
22.97
20.19
17.03
13.47
9.53
5.33
1.15
-2.69
-5.98
-8.72
-11.09
-13.32
-15.53
-17.68
-19.6
-21.16
-22.32
-23.19
-23.91
-24.66
-25.54
-26.56
-27.61
-28.5
-28.9
-28.44
-26.81
-23.94
-20.03
-15.57
-11.17
-7.36
-4.43
-2.39
-1.11
-0.41
-0.18
-0.41
-1.12
-2.27
-3.69
-5.11
-6.15
-6.54
-6.16
-5.1
-3.66
-2.21
-1.07
-0.41
-0.22
-0.4
-0.8
-1.28
-1.75
-2.15
-2.39
-2.4
-2.19
-1.8
-1.41
-1.22
-1.46
-2.24
-3.58
-5.32
-7.21
-9.01
-10.55
-11.78
-12.8
-13.78
-14.85
-16.04
-17.23
-18.24
-18.89
-19.06
-18.71
-17.87
-16.62
-15.08
-13.33
-11.42
-9.41
-7.31
-5.09
-2.71
-0.12
2.74
5.89
9.38
13.29
17.79
23.07
29.26
36.25
43.54
50.21
55.19
57.49
56.71
53.17
47.92
42.38
37.82
34.98
33.81
33.72
33.91
33.75
32.98
31.63
29.77
27.35
24.19
20.13
15.3
10.1
5.15
0.99
-2.11
-4.11
-5.13
-5.28
-4.55
-2.95
-0.59
2.3
5.45
8.63
11.7
14.6
17.24
19.43
20.94
21.59
21.41
20.6
19.45
18.15
16.75
15.14
13.23
11.07
8.92
7.2
6.28
6.31
7.11
8.21
9.07
9.27
8.64
7.33
5.64
3.91
2.34
0.98
-0.28
-1.55
-2.92
-4.33
-5.66
-6.77
-7.65
-8.48
-9.64
-11.55
-14.52
-18.54
-23.27
-28.08
-32.28
-35.36
-37.09
-37.54
-36.93
-35.52
-33.53
-31.12
-28.45
-25.72
-23.12
-20.83
-18.92
-17.36
-16.08
-15.01
-14.13
-13.43
-12.94
-12.65
-12.58
-12.77
-13.31
-14.21
-15.38
-16.52
-17.25
-17.23
-16.32
-14.69
-12.75
-10.98
-9.72
-9.05
-8.77
-8.56
-8.13
-7.37
-6.37
-5.41
-4.72
-4.46
-4.61
-4.99
-5.44
-5.82
-6.08
-6.23
-6.3
-6.25
-6.07
-5.72
-5.22
-4.61
-3.97
-3.39
-2.94
-2.68
-2.61
-2.73
-3
-3.38
-3.88
-4.49
-5.24
-6.06
-6.87
-7.53
-7.99
-8.29
-8.58
-9.01
-9.65
-10.44
-11.19
-11.69
-11.78
-11.4
-10.59
-9.46
-8.15
-6.81
-5.55
-4.45
-3.53
-2.74
-2.07
-1.49
-1.01
-0.66
-0.4
-0.15
0.17
0.66
1.28
1.91
2.36
2.53
2.36
1.99
1.57
1.26
1.13
1.16
1.26
1.36
1.43
1.45
1.44
1.36
1.16
0.75
0.04
-0.97
-2.21
-3.5
-4.66
-5.51
-6.03
-6.29
-6.47
-6.7
-7
-7.24
-7.13
-6.44
-5.05
-3.01
-0.48
2.33
5.18
7.87
10.1
11.54
11.94
11.17
9.43
7.11
4.74
2.75
1.37
0.58
0.27
0.31
0.57
0.9
1.02
0.57
-0.84
-3.42
-7.1
-11.52
-16.17
-20.54
-24.29
-27.29
-29.49
-30.87
-31.35
-30.69
-28.58
-24.71
-18.84
-10.98
-1.33
9.64
21.21
32.42
42.22
49.63
54.03
55.4
54.34
51.82
48.73
45.51
42.02
37.9
33.01
27.88
23.8
22.27
24.4
30.35
39.17
49.14
58.42
65.56
69.84
71.21
70.03
66.78
61.93
56.07
50.01
44.77
41.42
40.56
42.05
44.79
47.13
47.42
44.65
38.63
30.01
19.84
9.25
-0.76
-9.36
-15.92
-20.18
-22.33
-23.05
-23.24
-23.64
-24.44
-25.32
-25.73
-25.33
-24.29
-23.2
-22.71
-23.15
-24.31
-25.64
-26.47
-26.42
-25.47
-23.9
-21.99
-19.82
-17.15
-13.54
-8.52
-1.86
6.24
15.13
23.88
31.52
37.36
41.08
42.72
42.53
40.79
37.68
33.37
28.18
22.56
17.08
12.21
8.11
4.6
1.23
-2.48
-6.84
-11.87
-17.38
-23.11
-28.86
-34.52
-40.03
-45.27
-50.05
-54.12
-57.24
-59.28
-60.26
-60.35
-59.79
-58.93
-58.04
-57.33
-56.86
-56.53
-56.15
-55.43
-54.15
-52.24
-49.87
-47.37
-45.26
-44.05
-44.17
-45.77
-48.68
-52.33
-55.94
-58.67
-59.82
-59.01
-56.18
-51.46
-45.18
-37.73
-29.66
-21.53
-13.87
-7.01
-1.03
4.21
8.84
12.81
15.82
17.5
17.65
16.46
14.42
12.23
10.46
9.42
9.13
9.39
9.87
10.21
10.06
9.14
7.43
5.17
2.9
1.31
1.01
2.27
5.02
8.82
13.1
17.35
21.18
24.4
26.92
28.66
29.57
29.63
28.89
27.45
25.46
23.04
20.37
17.72
15.44
13.99
13.72
14.73
16.79
19.41
22.02
24.19
25.64
26.19
25.64
23.78
20.48
15.9
10.59
5.34
0.96
-2.03
-3.6
-4.05
-3.86
-3.38
-2.76
-1.99
-1.04
-0.04
0.71
0.87
0.09
-1.7
-4.4
-7.63
-10.93
-13.84
-16
-17.18
-17.29
-16.4
-14.7
-12.5
-10.23
-8.33
-7.12
-6.73
-6.95
-7.39
-7.6
-7.16
-5.84
-3.67
-0.86
2.14
4.79
6.49
6.72
5.24
2.18
-1.91
-6.14
-9.49
-11.03
-10.08
-6.3
0.27
9.23
19.95
31.66
43.67
55.5
66.88
77.7
87.79
96.88
104.56
110.53
114.74
117.52
119.47
121.3
123.52
126.19
128.93
130.93
131.25
129.13
124.36
117.35
108.99
100.28
91.74
83.13
73.53
61.81
47.17
29.35
8.54
-14.84
-40.06
-65.81
-89.93
-109.57
-122.02
-125.89
-121.87
-112.57
-101.51
-91.72
-84.73
-80.56
-78.35
-77.27
-76.91
-77.22
-78.02
-78.71
-78.5
-76.7
-73.15
-68.27
-62.87
-57.69
-53.11
-49.04
-45.05
-40.68
-35.69
-30.24
-24.78
-19.88
-15.92
-12.95
-10.7
-8.74
-6.69
-4.37
-1.78
0.9
3.37
5.39
6.77
7.52
7.84
8.11
8.78
10.19
12.42
15.25
18.27
21.15
23.79
26.4
29.38
33.05
37.42
42.16
46.74
50.64
53.64
55.91
57.88
59.93
62.18
64.27
65.52
65.23
63.05
59.16
54.31
49.41
45.27
42.33
40.63
40.01
40.36
41.66
43.9
46.85
49.88
52.06
52.39
50.29
45.76
39.38
31.92
24.03
15.97
7.76
-0.54
-8.6
-15.81
-21.56
-25.63
-28.4
-30.65
-33.18
-36.37
-39.94
-43.2
-45.46
-46.41
-46.24
-45.47
-44.58
-43.81
-43.12
-42.34
-41.42
-40.48
-39.77
-39.52
-39.8
-40.51
-41.45
-42.39
-43.2
-43.7
-43.8
-43.35
-42.28
-40.59
-38.3
-35.44
-31.95
-27.76
-22.88
-17.59
-12.49
-8.42
-6.15
-6.06
-7.89
-10.84
-13.82
-15.9
-16.65
-16.23
-15.23
-14.27
-13.75
-13.75
-14.04
-14.36
-14.45
-14.15
-13.29
-11.74
-9.43
-6.5
-3.3
-0.33
1.93
3.17
3.42
2.93
2.13
1.4
0.98
0.91
1.08
1.34
1.5
1.51
1.39
1.19
0.92
0.43
-0.57
-2.4
-5.26
-9.13
-13.8
-19.05
-24.67
-30.54
-36.6
-42.76
-48.89
-54.84
-60.57
-66.09
-71.38
-76.3
-80.49
-83.47
-84.81
-84.3
-82.03
-78.28
-73.42
-67.74
-61.42
-54.59
-47.38
-39.94
-32.47
-25.14
-18.19
-11.86
-6.41
-2.01
1.38
4.04
6.48
9.16
12.38
16.09
19.98
23.6
26.61
28.82
30.28
31.15
31.6
31.81
31.86
31.84
31.7
31.32
30.47
28.9
26.37
22.82
18.31
13.1
7.6
2.34
-2.13
-5.29
-6.85
-6.86
-5.71
-4.11
-2.86
-2.6
-3.62
-5.77
-8.54
-11.23
-13.12
-13.62
-12.39
-9.37
-4.78
0.83
6.8
12.42
17.13
20.68
23.13
24.76
25.92
26.84
27.57
28.04
28.16
27.95
27.6
27.41
27.65
28.45
29.75
31.26
32.65
33.6
33.99
33.92
33.62
33.37
33.32
33.43
33.46
33.03
31.83
29.65
26.5
22.64
18.48
14.51
11.13
8.53
6.63
5.12
3.6
1.76
-0.56
-3.34
-6.44
-9.7
-12.86
-15.61
-17.63
-18.69
-18.8
-18.24
-17.53
-17.15
-17.35
-18.1
-19.1
-20.04
-20.77
-21.31
-21.84
-22.53
-23.41
-24.3
-24.9
-24.85
-23.86
-21.92
-19.32
-16.67
-14.66
-13.84
-14.36
-15.96
-18.06
-20.1
-21.81
-23.29
-25.01
-27.46
-30.95
-35.5
-40.81
-46.54
-52.35
-58.07
-63.54
-68.61
-73.1
-76.79
-79.66
-81.82
-83.64
-85.55
-87.87
-90.57
-93.28
-95.26
-95.74
-94.08
-90.04
-83.8
-75.76
-66.3
-55.44
-42.93
-28.44
-12
5.86
24
41.04
55.73
67.22
75.2
79.83
81.57
81.14
79.44
77.5
76.21
76.12
77.18
78.77
79.95
79.88
78.16
75.04
71.25
67.7
65.1
63.68
63.22
63.14
62.85
61.94
60.29
58
55.26
52.32
49.37
46.68
44.52
43.11
42.57
42.75
43.22
43.37
42.58
40.43
36.85
32.12
26.77
21.43
16.55
12.43
9.04
6.24
3.85
1.78
0.03
-1.29
-2.08
-2.26
-1.85
-0.89
0.58
2.42
4.41
6.16
7.19
7.01
5.24
1.76
-3.28
-9.44
-16.08
-22.44
-27.75
-31.39
-33.03
-32.74
-30.98
-28.44
-25.79
-23.47
-21.6
-20.07
-18.76
-17.65
-16.85
-16.44
-16.31
-16.18
-15.65
-14.48
-12.7
-10.65
-8.76
-7.33
-6.48
-6.07
-5.93
-5.98
-6.23
-6.74
-7.46
-8.2
-8.65
-8.56
-7.87
-6.8
-5.73
-5.15
-5.38
-6.53
-8.44
-10.77
-13.18
-15.47
-17.59
-19.6
-21.58
-23.46
-25.03
-25.99
-26.12
-25.31
-23.63
-21.12
-17.8
-13.62
-8.58
-2.91
2.97
8.47
13.01
16.17
17.86
18.23
17.66
16.67
15.68
14.96
14.54
14.2
13.61
12.44
10.54
8.07
5.37
2.86
0.87
-0.44
-1.12
-1.3
-1.21
-1.11
-1.24
-1.83
-2.98
-4.54
-6.05
-6.88
-6.38
-4.2
-0.43
4.43
9.63
14.44
18.38
21.23
22.98
23.82
24.03
23.97
24.07
24.72
26.1
28.18
30.68
33.22
35.46
37.16
38.23
38.66
38.47
37.68
36.25
34.12
31.18
27.42
22.95
18.08
13.28
9.03
5.6
2.93
0.62
-1.89
-5.02
-8.92
-13.38
-17.92
-22.03
-25.32
-27.55
-28.67
-28.78
-28.16
-27.24
-26.51
-26.33
-26.73
-27.33
-27.41
-26.27
-23.55
-19.42
-14.58
-9.89
-5.97
-3.03
-0.8
1.18
3.34
5.79
8.4
10.87
12.94
14.47
15.47
16.08
16.41
16.57
16.57
16.41
16.05
15.49
14.76
13.97
13.28
12.89
12.98
13.7
15.09
17.06
19.46
22.01
24.47
26.6
28.27
29.39
29.91
29.88
29.32
28.32
26.95
25.26
23.24
20.84
18.01
14.83
11.56
8.64
6.58
5.67
5.92
7.04
8.55
10.1
11.49
12.74
13.96
15.11
15.99
16.22
15.47
13.62
10.87
7.74
4.86
2.83
1.98
2.41
3.96
6.39
9.41
12.8
16.35
19.95
23.51
27.01
30.47
33.86
37.06
39.82
41.84
42.82
42.7
41.63
39.98
38.12
36.21
34.06
31.13
26.68
20.07
10.98
-0.28
-12.8
-25.23
-36.08
-44.22
-49.15
-51.11
-50.96
-49.8
-48.57
-47.87
-47.87
-48.5
-49.62
-51.11
-52.89
-54.75
-56.29
-57.03
-56.55
-54.7
-51.68
-47.98
-44.15
-40.65
-37.64
-35
-32.43
-29.74
-26.87
-24.04
-21.58
-19.8
-18.84
-18.6
-18.75
-18.88
-18.67
-17.99
-16.92
-15.69
-14.6
-13.94
-13.92
-14.68
-16.22
-18.37
-20.76
-22.88
-24.26
-24.51
-23.54
-21.52
-18.84
-15.97
-13.27
-10.95
-8.98
-7.25
-5.6
-3.94
-2.28
-0.73
0.58
1.58
2.25
2.7
3.06
3.5
4.1
4.87
5.74
6.56
7.2
7.6
7.84
8.02
8.28
8.71
9.29
9.95
10.61
11.21
11.72
12.1
12.24
11.93
10.95
9.11
6.47
3.35
0.25
-2.34
-4.15
-5.3
-6.2
-7.34
-9.08
-11.38
-13.83
-15.8
-16.73
-16.36
-14.79
-12.48
-10.01
-7.87
-6.32
-5.31
-4.61
-3.91
-3
-1.79
-0.36
1.08
2.3
3.09
3.34
3.05
2.41
1.64
0.98
0.6
0.5
0.59
0.72
0.81
0.83
0.87
0.97
1.15
1.35
1.42
1.25
0.81
0.13
-0.69
-1.55
-2.42
-3.31
-4.26
-5.32
-6.46
-7.59
-8.6
-9.37
-9.88
-10.16
-10.36
-10.65
-11.13
-11.81
-12.55
-13.14
-13.27
-12.75
-11.43
-9.34
-6.61
-3.47
-0.25
2.75
5.26
7.19
8.65
9.89
11.17
12.59
14.03
15.23
15.97
16.19
16.01
15.71
15.49
15.43
15.41
15.27
14.92
14.36
13.67
12.92
12.13
11.2
10.08
8.72
7.22
5.76
4.55
3.72
3.32
3.23
3.23
3.09
2.63
1.81
0.69
-0.58
-1.91
-3.32
-4.89
-6.66
-8.47
-9.93
-10.57
-10.01
-8.2
-5.5
-2.44
0.42
2.79
4.68
6.31
7.95
9.7
11.45
12.95
13.97
14.38
14.26
13.82
13.35
13.01
12.84
12.72
12.46
11.87
10.87
9.5
7.91
6.29
4.85
3.8
3.26
3.23
3.58
4.08
4.45
4.52
4.24
3.74
3.19
2.78
2.54
2.34
1.97
1.2
-0.15
-2.14
-4.75
-7.89
-11.37
-14.92
-18.17
-20.73
-22.26
-22.6
-21.87
-20.36
-18.5
-16.68
-15.05
-13.6
-12.11
-10.38
-8.29
-5.86
-3.3
-0.8
1.47
3.48
5.31
7.06
8.76
10.32
11.61
12.49
12.97
13.21
13.42
13.78
14.26
14.64
14.63
14.07
13
11.7
10.51
9.67
9.16
8.81
8.34
7.53
6.29
4.61
2.54
0.19
-2.33
-4.81
-7.06
-8.93
-10.46
-11.87
-13.52
-15.71
-18.58
-21.96
-25.42
-28.36
-30.18
-30.46
-29.04
-26.09
-22.02
-17.36
-12.62
-8.12
-4.02
-0.29
3.18
6.53
9.83
13.12
16.35
19.43
22.27
24.76
26.84
28.48
29.69
30.44
30.67
30.35
29.53
28.31
26.9
25.49
24.18
22.99
21.82
20.54
19.1
17.5
15.82
14.15
12.57
11.16
9.95
8.98
8.16
7.38
6.45
5.26
3.78
2.07
0.26
-1.54
-3.23
-4.83
-6.36
-7.9
-9.57
-11.55
-14.04
-17.21
-21.02
-25.14
-28.92
-31.53
-32.27
-30.83
-27.46
-22.87
-17.97
-13.61
-10.22
-7.84
-6.11
-4.56
-2.8
-0.61
1.99
4.8
7.59
10.14
12.34
14.17
15.71
17.09
18.47
19.95
21.57
23.23
24.75
25.92
26.57
26.71
26.46
26.03
25.58
25.17
24.68
23.98
22.9
21.41
19.54
17.35
14.95
12.43
9.88
7.4
5.08
2.95
0.97
-0.94
-2.84
-4.79
-6.82
-8.93
-11.16
-13.6
-16.34
-19.41
-22.71
-25.91
-28.49
-29.88
-29.61
-27.51
-23.81
-19.05
-13.93
-9.04
-4.77
-1.24
1.66
4.11
6.23
8.12
9.8
11.26
12.56
13.69
14.68
15.53
16.19
16.63
16.85
16.9
16.89
16.88
16.79
16.44
15.59
14.12
12.11
9.87
7.79
6.16
4.98
4.02
2.92
1.4
-0.59
-2.89
-5.23
-7.38
-9.24
-10.89
-12.49
-14.23
-16.24
-18.63
-21.37
-24.38
-27.36
-29.87
-31.32
-31.18
-29.12
-25.25
-20.09
-14.43
-9.13
-4.75
-1.46
0.99
3
4.95
7
9.04
10.84
12.2
13.13
13.78
14.4
15.19
16.16
17.19
18.06
18.61
18.78
18.7
18.57
18.57
18.77
19.06
19.26
19.16
18.67
17.82
16.75
15.67
14.66
13.72
12.7
11.44
9.83
7.91
5.83
3.79
1.91
0.25
-1.29
-2.82
-4.52
-6.56
-9.11
-12.24
-15.9
-19.76
-23.26
-25.66
-26.36
-25.1
-22.1
-17.97
-13.5
-9.39
-6.02
-3.49
-1.62
-0.18
1.05
2.24
3.42
4.59
5.7
6.71
7.58
8.36
9.11
9.89
10.72
11.49
12.12
12.55
12.79
12.95
13.18
13.55
14.05
14.55
14.88
14.86
14.42
13.59
12.49
11.34
10.36
9.75
9.58
9.79
10.24
10.71
10.98
10.86
10.21
8.94
7.06
4.61
1.71
-1.57
-5.22
-9.31
-13.88
-18.86
-23.91
-28.42
-31.62
-32.84
-31.77
-28.57
-23.89
-18.6
-13.53
-9.27
-6.02
-3.62
-1.72
-0
1.73
3.45
5
6.17
6.88
7.21
7.36
7.57
7.95
8.44
8.87
9.05
8.9
8.53
8.12
7.8
7.59
7.32
6.8
5.88
4.59
3.1
1.61
0.26
-0.95
-2.1
-3.33
-4.7
-6.22
-7.89
-9.67
-11.57
-13.61
-15.85
-18.35
-21.17
-24.43
-28.16
-32.3
-36.64
-40.83
-44.42
-46.99
-48.21
-47.86
-45.85
-42.24
-37.26
-31.37
-25.19
-19.35
-14.38
-10.48
-7.56
-5.23
-3.07
-0.74
1.85
4.58
7.21
9.49
11.22
12.39
13.09
13.59
14.2
15.24
16.91
19.11
21.55
23.77
25.35
26.08
25.99
25.38
24.56
23.75
22.94
22.02
20.79
19.19
17.27
15.14
12.93
10.67
8.34
5.88
3.27
0.52
-2.35
-5.45
-9.05
-13.4
-18.48
-23.74
-28.03
-29.96
-28.49
-23.44
-15.73
-7.11
0.63
6.28
9.6
11.21
12.04
12.83
13.83
14.9
15.81
16.5
17.13
17.91
18.96
20.12
21.08
21.53
21.35
20.64
19.69
18.75
17.97
17.3
16.54
15.46
13.89
11.78
9.19
6.34
3.49
1.07
-0.47
-0.74
0.4
2.77
5.9
9.11
11.85
13.81
14.94
15.37
15.23
14.6
13.51
12.12
10.7
9.63
9.16
9.26
9.61
9.66
8.97
7.36
5.02
2.32
-0.27
-2.44
-4.1
-5.34
-6.38
-7.4
-8.5
-9.63
-10.61
-11.22
-11.21
-10.45
-8.87
-6.6
-3.85
-0.99
1.6
3.57
4.7
4.96
4.53
3.77
3.1
2.85
3.16
3.91
4.77
5.29
5.11
4.06
2.23
-0.1
-2.53
-4.72
-6.4
-7.47
-7.95
-7.96
-7.67
-7.21
-6.63
-5.85
-4.71
-3.1
-1.03
1.35
3.78
5.99
7.82
9.18
10.1
10.55
10.48
9.82
8.51
6.59
4.2
1.53
-1.24
-3.97
-6.65
-9.34
-12.16
-15.21
-18.52
-21.98
-25.3
-28.15
-30.21
-31.32
-31.59
-31.32
-30.96
-30.94
-31.57
-32.9
-34.76
-36.83
-38.75
-40.29
-41.41
-42.26
-43.09
-44.11
-45.45
-47.1
-49.06
-51.34
-54.04
-57.16
-60.51
-63.61
-65.71
-66.05
-64.09
-59.69
-53.11
-44.86
-35.39
-25.03
-13.97
-2.49
8.9
19.5
28.56
35.59
40.54
43.86
46.36
48.88
52.01
56.04
60.84
66.05
71.32
76.42
81.32
86.13
90.91
95.59
99.9
103.57
106.41
108.45
109.82
110.54
110.35
108.82
105.72
101.42
97.02
94.05
93.83
96.96
102.99
110.69
118.39
124.35
127.12
125.47
118.56
106.03
88.16
66.14
42.02
18.39
-2.22
-18.19
-29.3
-36.68
-42.32
-48.07
-54.85
-62.37
-69.59
-75.5
-79.83
-83.1
-86
-88.61
-89.9
-88.12
-81.63
-69.94
-54.08
-36.26
-19.13
-4.82
5.6
12.14
15.61
17.06
17.44
17.35
17.08
16.75
16.46
16.4
16.8
17.83
19.47
21.45
23.33
24.65
25.14
24.82
23.89
22.66
21.31
19.81
17.93
15.41
12.29
8.99
6.4
5.42
6.52
9.26
12.24
13.62
11.91
6.65
-1.41
-10.71
-19.48
-26.36
-30.57
-31.76
-29.89
-25.22
-18.52
-11.14
-4.85
-1.28
-1.33
-4.93
-11.06
-18.27
-25.21
-30.9
-34.69
-36.18
-35.14
-31.62
-26.08
-19.58
-13.5
-9.15
-7.29
-7.8
-9.83
-12.24
-14.18
-15.49
-16.62
-18.37
-21.32
-25.52
-30.46
-35.31
-39.18
-41.42
-41.63
-39.66
-35.58
-29.66
-22.43
-14.6
-6.99
-0.34
4.85
8.45
10.73
12.16
13.27
14.36
15.48
16.45
17.11
17.5
17.88
18.72
20.35
22.88
25.96
28.99
31.4
32.98
33.93
34.74
35.72
36.65
36.78
35.03
30.54
23.22
13.88
4.02
-4.74
-11.34
-15.54
-17.88
-19.33
-20.85
-23.09
-26.3
-30.47
-35.42
-40.93
-46.75
-52.54
-57.94
-62.55
-66.08
-68.45
-69.79
-70.36
-70.49
-70.45
-70.45
-70.53
-70.58
-70.44
-70.12
-69.9
-70.36
-72.09
-75.25
-79.17
-82.37
-83
-79.55
-71.5
-59.43
-44.76
-29.14
-13.96
-0.08
12.1
22.46
31.18
38.71
45.89
53.64
62.65
73
83.9
93.85
101.08
104.02
101.75
94.2
82.05
66.61
49.49
32.4
16.84
3.97
-5.58
-11.68
-14.73
-15.46
-14.83
-13.88
-13.6
-14.85
-18.14
-23.57
-30.66
-38.44
-45.67
-51.24
-54.43
-55.14
-53.83
-51.29
-48.3
-45.4
-42.84
-40.61
-38.63
-36.84
-35.34
-34.26
-33.74
-33.72
-33.97
-34.05
-33.47
-31.81
-28.89
-24.97
-20.71
-16.99
-14.65
-14.11
-15.2
-17.17
-19.03
-19.87
-19.24
-17.26
-14.57
-12.09
-10.78
-11.29
-13.79
-17.79
-22.2
-25.64
-26.85
-25.2
-20.78
-14.42
-7.16
0.14
6.99
13.31
19.07
24.11
28.06
30.49
31.04
29.61
26.3
21.5
15.85
10.27
5.87
3.58
3.88
6.44
10.3
14.17
16.98
18.22
17.94
16.48
14.09
10.79
6.43
1.01
-5.18
-11.55
-17.4
-22.24
-25.89
-28.48
-30.23
-31.29
-31.67
-31.26
-30
-27.97
-25.37
-22.51
-19.65
-16.99
-14.55
-12.29
-10.06
-7.8
-5.49
-3.26
-1.32
0.12
1.01
1.42
1.62
1.89
2.44
3.36
4.56
5.87
7.11
8.13
8.78
9
8.77
8.13
7.23
6.19
5.14
4.08
2.88
1.38
-0.53
-2.84
-5.4
-7.9
-10.09
-11.82
-13.13
-14.26
-15.5
-17.05
-18.92
-20.89
-22.53
-23.43
-23.23
-21.74
-18.97
-15
-10.03
-4.29
1.84
7.93
13.49
18.15
21.72
24.24
25.89
26.88
27.33
27.23
26.46
24.96
22.7
19.76
16.31
12.57
8.78
5.22
2.13
-0.27
-1.9
-2.86
-3.32
-3.51
-3.61
-3.68
-3.64
-3.33
-2.58
-1.27
0.49
2.44
4.19
5.38
5.82
5.57
4.89
4.16
3.64
3.34
2.99
2.13
0.3
-2.71
-6.67
-10.96
-14.81
-17.56
-18.99
-19.33
-19.14
-19.02
-19.36
-20.14
-21.08
-21.72
-21.72
-20.94
-19.48
-17.63
-15.71
-13.92
-12.33
-10.81
-9.08
-6.82
-3.76
0.16
4.75
9.57
13.98
17.35
19.24
19.5
18.43
16.56
14.56
13
12.19
12.17
12.8
13.85
15.08
16.31
17.42
18.29
18.85
19.03
18.76
18.04
16.88
15.33
13.44
11.24
8.71
5.89
2.91
0.08
-2.22
-3.58
-3.74
-2.64
-0.48
2.32
5.22
7.59
8.89
8.79
7.31
4.79
1.78
-1.17
-3.76
-5.93
-7.84
-9.63
-11.4
-13.18
-15.01
-17.07
-19.61
-22.77
-26.46
-30.23
-33.42
-35.47
-36.24
-36.21
-36.31
-37.55
-40.45
-44.78
-49.57
-53.43
-55.19
-54.23
-50.67
-45.04
-38.02
-30.12
-21.68
-13.06
-4.78
2.49
8.1
11.73
13.52
14.09
14.33
15.18
17.31
21.05
26.33
32.84
40.13
47.72
55.19
62.22
68.56
74.07
78.7
82.49
85.48
87.68
88.95
89.12
88.03
85.78
82.75
79.41
76.11
72.76
68.89
63.89
57.43
49.71
41.38
33.21
25.73
19.03
12.82
6.8
0.92
-4.53
-9.01
-11.95
-13.12
-12.62
-10.94
-8.71
-6.47
-4.5
-2.68
-0.69
1.71
4.38
6.74
7.98
7.54
5.53
2.75
0.35
-0.77
-0.41
0.86
2.06
2.32
1.33
-0.65
-3.11
-5.61
-8.09
-10.84
-14.16
-18.11
-22.3
-26.08
-28.79
-30.12
-30.24
-29.59
-28.71
-27.83
-26.81
-25.28
-22.93
-19.78
-16.23
-12.95
-10.48
-9.02
-8.32
-7.8
-6.81
-4.93
-2.03
1.57
5.22
8.04
9.17
8.03
4.58
-0.74
-7.04
-13.49
-19.5
-24.95
-30.01
-34.92
-39.83
-44.64
-49.1
-52.89
-55.6
-56.79
-55.92
-52.55
-46.58
-38.49
-29.21
-19.98
-11.79
-5.17
-0.08
3.83
6.96
9.59
11.88
14.05
16.44
19.5
23.51
28.47
33.94
39.3
43.96
47.61
50.29
52.21
53.58
54.45
54.63
53.8
51.69
48.23
43.61
38.25
32.71
27.52
23.05
19.46
16.65
14.4
12.31
9.98
6.99
2.98
-2.31
-8.94
-16.7
-25.05
-33.1
-39.73
-43.87
-44.71
-41.98
-36.01
-27.55
-17.56
-6.96
3.52
13.23
21.62
28.2
32.72
35.31
36.55
37.26
38.23
39.82
41.82
43.61
44.48
44.02
42.33
39.96
37.63
35.92
