71.46
79.35
84.23
87.92
91.89
96.95
102.78
108.51
112.95
115.34
115.92
116.06
116.99
119.69
124.31
130
135.36
138.71
138.48
133.52
126.09
117.56
108.84
100.16
91.08
80.85
68.77
54.6
38.73
22.18
5.69
-10.23
-25.63
-41.19
-57.84
-76.41
-97.14
-119.62
-142.86
-166.01
-188.42
-209.93
-230.84
-251.95
-274.33
-299.3
-328.04
-360.73
-395.89
-429.66
-456.37
-470.18
-467.2
-447.01
-412.83
-370.24
-324.86
-280.71
-239.72
-202.51
-169.58
-141.8
-120.06
-104.53
-94.44
-87.73
-82.03
-75.76
-68.58
-61.17
-54.6
-49.6
-46.41
-45.8
-48.31
-54.17
-62.94
-73.04
-81.96
-86.82
-85.31
-76.52
-61.94
-43.58
-23.09
-1.22
22.13
47.1
73.12
98.67
126.56
155.2
180.8
199.28
208.39
208.87
203.29
194.6
184.93
175.1
164.08
151.17
136.51
121.39
108.19
99.54
97.64
104.03
119.64
144.03
175.78
211.52
242.71
259.85
255.4
227.39
181.01
126.99
76.97
39.36
16.61
5.61
0.93
-2.21
-6
-10.08
-13
-13.95
-13.16
-11.78
-11.14
-11.98
-14.76
-19.58
-26.55
-35.76
-46.84
-58.38
-67.77
-71.6
-66.54
-51.13
-27.2
-0.16
22.58
34.57
33.23
21.17
5.12
-7.19
-10.65
-4.88
6.29
16.75
22.05
21.41
17.35
13.5
12.41
14.86
19.38
24.32
28.83
33.02
37.42
42.6
48.97
56.6
65.46
75.62
87.42
101.04
115.84
129.39
137.58
135.28
117.77
82.38
29.68
-36.13
-107.36
-172.75
-220.97
-243.62
-237.51
-205.79
-157.19
-103.59
-56.91
-26.15
-15.76
-25.51
-51.35
-87
-125.6
-161.4
-190.82
-212.78
-227.98
-237.83
-243.49
-245.43
-243.78
-238.88
-231.46
-222.15
-210.52
-194.76
-172.29
-141.37
-102.41
-58.27
-13.34
28.15
63.71
93.24
118.77
143.46
170.62
202.83
241.19
284.55
328.98
368.22
394.95
402.97
389.36
355.51
306.62
249.8
191.85
137.7
90
49.78
17.27
-7.51
-24.74
-35.06
-39.54
-39.53
-36.26
-30.64
-23.41
-15.17
-6.64
1.45
8.38
13.73
17.39
19.46
20.25
20.09
19.34
18.43
17.82
18.01
19.47
22.41
26.55
31.21
35.41
38.49
40.56
42.64
46.1
51.85
59.61
68
75.29
80.26
82.79
83.5
82.96
80.97
76.45
68.36
56.56
42.42
28.19
15.71
4.99
-6.2
-21.17
-42.33
-69.5
-99.42
-126.91
-146.93
-156.38
-154.89
-144.3
-127.2
-105.69
-80.91
-53.57
-24.71
3.69
29.1
49.16
62.56
69.37
70.61
67.53
60.94
50.99
37.39
19.93
-0.87
-23.56
-45.89
-65.31
-79.59
-87.38
-88.59
-84.39
-76.86
-68.42
-61.14
-56.23
-53.89
-53.51
-53.99
-54.24
-53.37
-50.89
-46.76
-41.45
-35.88
-31.13
-27.99
-26.66
-26.62
-27.03
-27.22
-27.1
-27.18
-28.17
-30.44
-33.7
-37.1
-39.6
-40.43
-39.27
-36.29
-31.92
-26.64
-20.93
-15.19
-9.83
-5.16
-1.46
1.09
2.25
1.79
-0.42
-4.18
-8.99
-13.97
-18.34
-21.7
-24.14
-25.99
-27.38
-28.03
-27.35
-24.94
-20.93
-16.07
-11.21
-6.73
-2
4.46
14.41
29.1
48.67
71.91
96.65
120.36
140.77
156.31
166.05
169.38
165.53
153.6
133.16
105.43
74.04
44.31
21.34
8.03
4.17
7.47
15.71
28.44
46.87
71.91
101.92
131.96
155.32
166.51
163.59
148.61
125.66
98.28
67.76
33.57
-5.11
-47.88
-92.86
-137.47
-179.56
-218.09
-252.96
-284.35
-311.93
-334.58
-350.45
-357.28
-352.72
-335.08
-304.17
-261.89
-212.14
-159.83
-109.57
-64.22
-24.26
11.97
47.51
85.33
127.55
174.74
225.41
275.62
319.15
348.79
358.58
346.24
313.87
267.34
214.15
161
112.05
68.63
30.37
-4.11
-33.75
-56.26
-69.81
-74.59
-72.91
-67.71
-61.26
-54.4
-46.73
-37.33
-26.02
-13.66
-1.83
7.76
14.18
17.29
17.82
17.33
17.59
19.7
23.83
29.36
35.36
41.16
45.98
48.97
50.6
51.84
53.51
56
59.29
63.22
67.74
71.86
74.38
75.2
74.85
73.96
72.85
71.37
69.16
66.17
60.6
50.7
36.32
18.62
-0.92
-21.33
-42.55
-65.7
-92.65
-122.12
-154.2
-187.49
-219.11
-245.7
-264.45
-273.52
-272.3
-245.98
-188.69
-104.86
-7.1
90.08
176.06
246.03
299.68
337.1
363.19
379
384.36
379.74
366.28
345.09
316.32
282.05
243.95
204.22
162.81
119.55
74.86
29.54
-15.64
-60.03
-102.84
-143.17
-179.55
-212.04
-241.05
-267.12
-290.93
-313.59
-336.79
-362.82
-394.2
-432.15
-475.95
-521.19
-560.1
-583.89
-586.18
-565.75
-526.98
-478.12
-427.73
-382.05
-343.55
-311.55
-284.27
-260.39
-239.45
-221.17
-204.63
-187.87
-168.63
-145.29
-117.65
-86.94
-55.43
-25.36
1.77
25.45
46.01
64.04
79.77
92.82
102.21
106.78
105.77
99.43
88.76
75.26
60.41
45.28
30.45
16.01
1.81
-12.36
-26.28
-39.61
-51.98
-63.1
-72.85
-81.16
-88.01
-93.34
-97.1
-98.8
-98.17
-95.29
-90.59
-84.53
-77.28
-68.62
-58.15
-45.58
-29.55
-9.52
13.96
39.38
65.12
90.33
115.1
140.13
166.02
195.68
230.55
269.99
311.46
351.94
389.52
423.94
456.08
487.17
523.12
568.24
623.33
684.6
744.93
796.5
833.33
852.77
855.92
852.85
852.84
860.16
872.02
880.94
879.69
865.03
838.73
767.15
634.5
444.88
223.56
4.15
-187.45
-339.34
-450.77
-526.52
-573.71
-594.07
-590.81
-569.65
-538.8
-506.52
-478.11
-455.29
-437.03
-421.67
-403.65
-379.94
-350.99
-320.43
-292.8
-270.92
-255.46
-245.39
-239.44
-234.29
-228.34
-222.01
-217.58
-217.98
-223.88
-235.76
-251.92
-268.16
-277
-271.08
-246.36
-204.52
-152.84
-101.58
-60.28
-33.99
-22.29
-20.25
-21.72
-22.2
-20.07
-16
-11.28
-6.88
-2.68
2.27
8.54
16.2
24.76
33.37
41.61
49.91
59.43
71.48
85.95
100.1
109.09
107.6
92.54
64.97
29.92
-5.89
-36.97
-61.34
-80.03
-94.55
-104.46
-106.67
-97.12
-73.87
-39.38
-0.37
34.27
56.94
64.06
56.37
37.57
11.96
-17.38
-50.12
-84.91
-119.63
-151.12
-175.64
-190
-192.74
-184.7
-168.79
-148.69
-127.11
-105.19
-82.3
-56.94
-28.05
4.05
37.56
69.82
98.64
123.36
144.75
164.61
185.03
208.04
235.28
267.56
304.39
343.48
380.79
410.89
428.34
428.88
411.19
377.23
331.48
279.51
226.34
175.73
129.86
89.21
52.57
18.1
-16.61
-54.49
-98.41
-149.9
-207.77
-267.68
-322.89
-367.06
-395.31
-405.59
-398.85
-378.34
-348.1
-311.87
-272.59
-228.02
-179.91
-132.88
-92.37
-61.99
-42.34
-31.73
-27.53
-27.17
-28.46
-30.42
-32.39
-33.88
-34.45
-34.27
-33.61
-32.72
-31.52
-29.62
-27.23
-24.55
-21.94
-19.91
-19.24
-20.51
-23.62
-27.41
-29.88
-29.16
-23.71
-13.94
-0.82
13.87
28.4
41.87
54.63
68.44
85.8
109.72
142.6
185.02
234.16
283.35
323.08
343.45
337.46
303.56
246.78
177.55
109.17
54.13
21.34
14.6
32.58
69.89
118.53
169.25
212.77
241.11
248.79
234.14
199.98
153.09
102.46
56.51
20.33
-5.73
-25.38
-44.23
-67.37
-97.55
-134.85
-176.65
-217.95
-251.92
-271.29
-270.92
-250.81
-217.45
-182.28
-157.1
-148.66
-155.53
-168.84
-177.22
-172.47
-152.98
-123.1
-89.19
-55.2
-20.45
19.06
66.82
122
178.1
224.55
251.03
251.74
227.53
185.16
134
82.34
35.04
-6.61
-43.2
-75.25
-102.26
-123.05
-136.71
-143.32
-143.85
-139.59
-131.54
-120.46
-107.2
-92.68
-77.79
-63.01
-48.25
-33.19
-17.55
-1.17
16.28
35.52
57.26
81.01
104.12
121.54
127.31
116.85
88.97
46.84
-2.9
-52.03
-92.91
-120.1
-131.12
-126.64
-110.04
-86.56
-62.13
-41.84
-28.69
-23.31
-24.46
-30.17
-38.56
-48.21
-58.35
-68.92
-80.65
-94.88
-112.58
-133.2
-153.68
-168.43
-170.89
-155.91
-122.28
-73.88
-19
31.9
69.11
86.23
81.59
58.11
21.98
-19.44
-59.77
-95.1
-124.26
-148
-167.85
-185.23
-200.99
-215.53
-229.06
-241.42
-251.83
-258.58
-259.25
-251.44
-233.86
-207.24
-174.27
-138.95
-105.26
-76.07
-52.43
-33.71
-18.23
-4.14
9.85
24.23
38.87
53.46
67.92
82.61
98.11
114.96
133.35
153.19
174.43
197.28
222.11
248.71
275.57
299.67
317.16
324.75
320.95
306.58
284.2
257.11
228.58
201.75
180.03
167.21
166.78
180.55
207.21
241.63
275.67
300.2
307.59
293.77
259.17
208.31
148.3
86.83
30.35
-17.21
-54.62
-82.77
-104.03
-121.61
-139.29
-160.65
-187.73
-219.55
-251.2
-274.85
-282.34
-268.58
-233.71
-183.16
-125.26
-67.96
-16.29
28.35
67.16
102.39
136.25
170.69
207.34
247.09
289.03
329.55
362.52
381.05
379.86
357.28
315.89
261.63
202.13
145.18
97.68
64.74
48.71
48.05
57.07
67.2
69.67
58.76
33.84
-0.81
-38.12
-71.38
-96.45
-112.43
-120.74
-123.6
-122.88
-119.77
-115.04
-109.35
-103.42
-98
-93.63
-90.52
-88.71
-88.09
-88.36
-88.86
-88.53
-86.04
-79.93
-69.15
-53.3
-32.97
-9.87
13.37
33.72
48.55
56.43
57.53
53.31
45.6
35.77
24.33
11.31
-2.85
-16.8
-28.48
-36.18
-39.71
-40.92
-43.02
-49.12
-60.79
-77.56
-97.23
-117
-134.31
-147.38
-155.32
-158.07
-156.37
-151.6
-145.52
-139.7
-135.07
-131.62
-128.57
-124.87
-119.55
-112.11
-102.52
-91.18
-78.85
-66.68
-56.15
-48.78
-45.7
-47.32
-53.44
-63.56
-77.2
-94.01
-113.43
-134.22
-154.16
-170.18
-178.94
-177.79
-165.5
-142.58
-111.08
-73.68
-32.85
10.16
55.38
103.34
153.61
203.49
247.88
280.47
295.9
291.48
267.78
228.14
177.71
122.57
69.18
23.47
-10.22
-30.38
-38.73
-39.32
-36.48
-32.7
-27.65
-19.06
-4.84
15.23
39.17
64
87.41
108.56
127.67
144.94
159.6
170.16
175.44
175.68
172.78
169.31
166.89
164.76
159.68
147.18
123.74
88.73
45.14
-1.08
-42.78
-73.87
-91.13
-95
-88.93
-77.84
-66.24
-56.87
-50.7
-47.52
-47.17
-49.98
-56.39
-66.2
-77.93
-89.13
-97.4
-101.62
-102.59
-102.58
-104.01
-107.82
-112.67
-115.26
-111.61
-98.7
-75.81
-44.97
-10.38
23.1
51.46
72.67
86.72
94.85
98.16
96.61
88.88
73.17
48.54
16.06
-21.05
-58.22
-91.17
-117.24
-135.88
-148.01
-154.74
-156.43
-152.61
-142.96
-128.14
-110.16
-91.58
-73.96
-56.7
-36.96
-10.84
24.59
69.5
120.78
172.97
220.19
257.96
284.12
298.35
300.95
291.93
271.06
238.82
197.46
151.15
104.9
62.87
26.88
-3.95
-32.03
-59.79
-88.39
-117.49
-146.25
-174.57
-203.81
-236.18
-273.08
-313.23
-351.82
-381.45
-394.58
-386.57
-357.62
-312.93
-260.6
-208.68
-162.68
-124.53
-93.37
-66.94
-42.94
-19.5
5.17
33.3
67.67
110.66
162.67
220.56
277.35
323.52
350.17
352.26
330.5
290.92
241.95
190.81
141.03
92.48
43.8
-4.51
-48.82
-83.52
-104.12
-110.13
-105.8
-98.26
-94.02
-96.08
-103.09
-110.68
-114.11
-110.22
-98.04
-77.99
-50.94
-17.92
19.36
58.09
94.52
125.12
147.66
161.49
166.99
164.45
153.36
132.77
102.17
62.31
15.12
-37.05
-92.27
-149.29
-206.83
-262.6
-312.63
-351.7
-374.78
-378.79
-363.83
-333.25
-292.45
-247.25
-202.26
-160.08
-121.53
-86.49
-54.82
-26.83
-3.03
16.52
32.86
48.13
65.16
86.65
114.47
149.08
189.1
231.14
270.22
300.88
318.77
322.3
313.26
296.14
276.22
257.58
241.88
228.76
217.09
206.44
197.55
191.79
189.89
191.19
193.56
194.23
190.86
182.36
169.35
154.02
139.35
128.2
122.1
120.54
121.04
120.22
115.36
105.71
92.84
79.68
68.95
61.68
56.66
51.05
41.58
25.79
2.72
-26.98
-61.57
-98.75
-136.28
-172.45
-206.37
-237.95
-267.88
-297.51
-328.63
-363.07
-401.76
-443.49
-484.12
-516.88
-534.11
-529.94
-502.65
-455.51
-395.44
-330.39
-266.6
-207.08
-151.84
-99.46
-48.91
-0.56
44
82.88
114.92
140.12
159.38
173.85
184.27
190.62
192.4
189.34
182
172
161.51
152.37
145.31
139.69
133.94
126.43
116.28
103.79
90.22
77.4
66.99
60.06
56.8
56.56
58.12
60.01
60.85
59.73
56.43
51.42
45.76
40.75
37.49
36.46
37.3
38.8
39.49
38.27
35.03
30.81
27.27
25.82
26.9
29.69
32.45
33.27
30.77
24.4
14.39
1.61
-12.61
-26.65
-38.76
-47.44
-51.83
-52
-48.91
-44.25
-39.92
-37.56
-38.06
-41.34
-46.38
-51.55
-55.19
-56.28
-54.8
-51.57
-47.69
-44.01
-40.85
-38.2
-35.93
-33.89
-31.77
-28.93
-24.51
-17.99
-9.77
-1.34
5.25
8.25
7
2.15
-4.77
-12.11
-18.74
-24.14
-28.09
-30.4
-30.84
-29.45
-26.8
-24
-22.32
-22.64
-24.93
-28.21
-30.78
-30.93
-27.55
-20.54
-10.89
-0.26
9.51
16.95
21.35
22.82
22.15
20.34
18.14
15.83
13.39
10.92
9.16
9.42
13.02
20.36
30.3
40.29
47.3
49.05
45.02
36.57
26.18
16.34
8.69
3.61
0.55
-1.59
-3.88
-7.01
-10.92
-14.84
-17.48
-17.56
-14.42
-8.32
-0.38
7.96
15.34
20.89
24.21
25.35
24.82
23.64
23.33
25.56
31.56
41.47
54.06
67.03
77.73
83.98
84.59
79.51
69.61
56.37
41.54
26.81
13.52
2.25
-7.29
-16.18
-25.85
-37.41
-51.3
-67
-83.25
-98.4
-110.9
-119.77
-125.06
-128.03
-131.06
-137.09
-148.64
-166.64
-189.52
-213.17
-231.89
-240.15
-234.46
-214.41
-182.47
-142.64
-99.06
-55.1
-13.41
23.6
53.51
74.29
85.29
88.19
86.99
87.04
93.31
108.94
134.69
169.27
210.08
253.65
295.93
332.51
359.16
372.75
372.17
358.58
335.25
306.63
277.31
250.95
229.44
212.64
198.69
184.86
168.63
148.77
125.67
101
76.86
54.97
36.26
21.14
9.95
3.17
1.14
3.61
9.29
16.16
22.11
25.86
27.42
27.9
28.72
30.65
33.15
34.42
32.21
25.05
13.18
-1.28
-15.22
-25.86
-32.06
-34.81
-36.65
-40.52
-48.5
-60.87
-76.21
-91.99
-105.48
-114.6
-118.47
-117.76
-114.83
-113.24
-116.62
-127.17
-144.45
-165.17
-184.24
-196.69
-199.67
-193.71
-182.68
-172.48
-169.08
-176.49
-195.18
-221.78
-250.01
-272.71
-284.25
-282.36
-268.61
-247.18
-222.75
-198.56
-175.67
-153.41
-130.38
-105.41
-77.86
-47.67
-15.35
17.88
50.11
78.84
101.59
116.56
123.04
121.61
113.8
101.78
87.99
74.73
63.56
54.95
48.05
41.1
32.22
20.35
5.61
-10.69
-26.73
-40.82
-52.01
-60.28
-66.54
-72.26
-79.01
-87.94
-99.39
-112.69
-126.14
-137.3
-143.34
-141.72
-130.83
-110.45
-81.94
-47.76
-10.54
27.81
66.61
105.9
145.49
184.08
219.17
247.74
267.47
277.36
277.78
270.12
256.3
238.5
218.96
199.61
181.71
165.64
151.17
138.28
127.9
121.97
122.67
131.06
146.02
164.38
182.06
195.59
203.1
204.43
200.53
192.75
182.29
169.9
155.74
139.16
118.85
93.38
61.97
25.23
-14.81
-55.27
-93.51
-128.1
-159.01
-187.34
-214.67
-242.81
-273.62
-308.53
-347.47
-387.76
-423.62
-447.24
-451.33
-431.94
-390.13
-331.38
-263.29
-192.73
-124.26
-60.37
-2.81
46.18
83.94
108.71
121.09
124.39
123.46
122.56
123.72
126.38
128.27
127.25
122.54
115
106.42
98.38
91.52
85.45
79.18
71.79
62.92
52.97
43
34.44
28.62
26.31
27.29
30.33
33.48
34.83
33.18
28.49
21.77
14.61
8.42
4.02
1.58
0.8
1.26
2.48
3.86
4.59
3.74
0.64
-4.67
-11.23
-17.44
-21.75
-23.36
-22.6
-20.58
-18.56
-17.27
-16.82
-16.94
-17.44
-18.43
-20.09
-22.27
-24.36
-25.55
-25.39
-24.19
-22.81
-22.14
-22.37
-22.84
-22.34
-19.84
-15.12
-8.85
-2.27
3.41
7.37
9.42
9.76
8.82
7.04
4.82
2.7
1.38
1.58
3.77
7.61
11.73
13.98
12.28
5.71
-4.8
-16.67
-26.68
-32.54
-33.79
-31.89
-29.16
-27.48
-27.46
-28.33
-28.81
-28.01
-26.03
-23.72
-22.15
-21.79
-22.2
-22.29
-20.82
-17.16
-11.61
-5.25
0.55
4.72
6.87
7.33
6.95
6.65
7.01
8.04
9.21
9.59
8.33
5.1
0.35
-4.66
-8.39
-9.69
-8.39
-5.37
-2.12
-0
0.37
-0.65
-2.11
-2.93
-2.47
-0.71
1.88
4.65
7.25
9.67
12.21
15.2
18.76
22.73
26.79
30.68
34.21
37.33
39.98
42.03
43.3
43.62
42.99
41.59
39.69
37.52
35.11
32.22
28.22
22.18
13.19
0.8
-14.38
-30.58
-45.12
-55.34
-59.61
-58
-52.14
-44.52
-37.35
-31.92
-28.47
-26.55
-25.63
-25.27
-25.09
-24.55
-22.91
-19.5
-14.08
-7.11
0.42
7.41
13.12
17.44
20.71
23.27
25.01
25.24
23.03
17.67
9.31
-0.98
-11.54
-20.77
-27.79
-32.65
-36.05
-38.73
-40.95
-42.36
-42.39
-40.82
-38.13
-35.31
-33.46
-33.08
-33.97
-35.46
-36.88
-37.99
-38.9
-39.72
-40.12
-39.23
-36.01
-29.87
-21.1
-10.79
-0.47
8.53
15.47
20.15
22.75
23.6
23.11
21.88
20.76
20.72
22.56
26.56
32.33
39.06
45.79
51.89
57.13
61.55
65.18
67.84
69.18
68.81
66.57
62.57
57.3
51.52
46.22
42.5
41.33
43.27
48.17
55.01
62.2
68.1
71.58
72.28
70.46
66.54
60.64
52.5
41.82
28.78
14.32
-0.04
-12.75
-22.84
-30.11
-35.09
-38.57
-41.35
-44.21
-48
-53.64
-61.89
-72.9
-85.94
-99.49
-111.76
-121.47
-128.46
-133.73
-138.87
-145.19
-152.93
-161.12
-167.97
-171.69
-171.18
-166.37
-158.12
-147.81
-137.03
-127.21
-119.37
-113.84
-110.06
-106.58
-101.41
-92.78
-79.86
-62.99
-43.49
-22.99
-2.92
15.75
32.34
46.27
57.05
64.58
69.27
72.08
73.98
75.49
76.31
75.55
72.27
66.09
57.66
48.53
40.75
36.19
36.03
40.34
48.04
57.19
65.49
71.03
72.78
70.87
66.48
61.33
57.13
55.13
55.96
59.66
65.9
74.06
83.32
92.6
100.65
106.25
108.48
106.99
102.14
94.81
86.08
76.89
67.96
59.77
52.8
47.64
44.74
43.94
44.21
43.76
40.66
33.78
23.57
12.15
2.73
-1.62
0.88
9.89
23.03
36.61
46.91
51.41
49.67
43.38
35.54
29.17
26.21
26.98
30.72
36.67
44.72
55.54
69.73
87
105.97
124.8
142.21
157.96
172.31
184.95
194.05
196.44
188.79
169.28
138.66
100.01
57.61
15.46
-23.63
-58.31
-88.15
-113.28
-134.3
-152.37
-169.54
-188.85
-213.97
-248.17
-292.67
-345.04
-398.61
-443.56
-469.99
-471.42
-447.34
-403.31
-348.4
-291.48
-238.03
-189.31
-143.67
-99.01
-54.46
-10.59
31.46
71.09
108.49
144
177.31
207.14
231.85
250.04
261.26
265.92
264.74
258.36
247.26
232.08
213.87
193.97
173.52
153.05
132.44
111.47
90.56
71.19
55.58
45.8
42.82
46.04
53.75
63.88
74.69
84.9
93.45
99.29
101.55
99.91
94.92
87.91
80.43
73.49
67.25
61.16
54.49
46.85
38.14
28.22
16.41
1.49
-17.7
-41.33
-67.91
-94.37
-116.99
-132.75
-140.45
-141.05
-137.05
-131.33
-125.9
-121.43
-117.42
-113.03
-107.86
-102.22
-96.83
-92.21
-88.29
-84.41
-79.75
-73.85
-66.8
-59.14
-51.51
-44.42
-38.14
-32.83
-28.64
-25.75
-24.16
-23.6
-23.57
-23.49
-22.91
-21.57
-19.33
-16.11
-12
-7.37
-3.02
-0.02
0.8
-0.63
-3.34
-5.49
-5.11
-0.98
6.88
17.25
28.19
37.77
44.61
48.15
48.59
46.75
43.78
40.93
39.21
39.15
40.59
42.81
44.73
45.27
43.61
39.17
31.42
19.74
3.48
-17.46
-42
-67.58
-90.68
-108.02
-117.94
-121.11
-120.27
-118.84
-119.38
-122.64
-127.44
-131.5
-132.39
-128.27
-118.21
-102.1
-80.69
-55.57
-28.94
-3.34
19
36.54
48.63
55.23
56.69
53.53
46.57
37.14
26.96
17.86
11.19
7.5
6.41
6.91
7.75
7.89
6.68
3.8
-0.74
-6.63
-13.31
-20.08
-26.38
-31.82
-36.24
-39.53
-41.54
-42.08
-41.05
-38.81
-36.15
-34.2
-33.93
-35.67
-38.74
-41.57
-42.14
-38.8
-30.97
-19.38
-5.81
7.57
19.16
28.5
36.42
44.46
53.96
65.21
77.16
87.66
94.15
94.82
89.36
79.19
66.87
55.07
45.54
38.62
33.49
29.02
24.4
19.36
13.79
7.47
0.1
-8.19
-16.27
-22.05
-23.33
-18.98
-9.64
2.53
15.1
26.75
37.72
49.43
63.46
80.6
100.56
122.26
144.31
165.48
184.75
201.34
214.67
224.12
228.83
227.44
218.09
198.92
168.91
128.81
81.47
31.32
-16.98
-59.81
-95.46
-124.23
-147.68
-167.99
-187.76
-210.03
-237.94
-273.63
-316.49
-361.88
-401.6
-426.26
-428.9
-408.01
-368.25
-318.54
-268.32
-224.15
-188.21
-159.1
-134.06
-111.05
-89.51
-69.76
-51.96
-35.32
-18.24
0.95
23.43
49.9
80.8
116.6
157.49
202.39
248.5
291.23
325.26
346.08
351.29
341.24
318.74
288.2
254.62
222.67
195.94
176.36
163.95
156.97
152.57
147.94
141.24
132.09
121.32
110.27
100
91.21
84.01
78.18
73.38
69.12
64.96
60.58
56
51.75
48.68
47.51
48.28
50.07
51.01
49.06
42.83
32.11
17.89
1.91
-13.96
-28.07
-39.14
-46.44
-49.91
-50.41
-49.69
-49.84
-52.41
-57.74
-64.87
-72.2
-78.56
-83.78
-88.61
-93.74
-99.03
-103.21
-104.57
-102
-95.83
-87.91
-80.8
-76.81
-76.93
-80.7
-86.52
-92.45
-97.01
-99.5
-99.93
-98.54
-95.41
-90.32
-82.93
-73.18
-61.49
-48.73
-35.92
-23.88
-13.19
-4.33
2.07
5.11
3.82
-2.3
-12.86
-26.46
-41.01
-54.43
-65.32
-73.25
-78.76
-82.89
-86.66
-90.74
-95.29
-100.13
-104.72
-108.05
-108.46
-103.73
-91.64
-70.96
-42.35
-8.89
24.52
52.53
71.03
78.53
76.54
69.02
60.97
56.96
60.03
71.18
89.47
112.41
136.58
158.28
174.26
182.33
181.9
174.14
162.01
149.55
140.64
137.49
139.34
142.22
140.21
128.05
103.84
70.68
36.16
9.71
-0.89
7.75
33.86
71.76
114.19
154.39
187.06
208.43
216.02
208.83
187.89
156.58
120.19
84.53
54.04
30.32
11.79
-5.46
-25.71
-51.69
-83.34
-117.8
-150.58
-177.34
-195.55
-205.33
-209.08
-210.33
-212.26
-216.9
-224.8
-235.56
-248.23
-261.56
-273.48
-280.76
-279.26
-265.46
-238.6
-202.12
-162.91
-128.5
-103.38
-86.96
-74.35
-59.84
-40.74
-19.2
-0.75
9.17
8.63
0.2
-10.91
-20.05
-25.57
-29.08
-33.62
-41.36
-52.29
-64.48
-75.25
-82.64
-86.03
-86.22
-84.72
-83.13
-82.49
-83.25
-85.53
-89.71
-96.86
-108.55
-125.99
-148.6
-173.24
-194.3
-205.4
-201.78
-182.16
-149.5
-109.78
-69.82
-35.08
-8.28
10.53
23.08
31.71
38.78
46.2
55.62
68.27
84.74
104.96
128.33
154.17
181.83
210.63
239.42
266.45
289.52
306.8
317.66
322.91
324.29
323.39
320.73
315.46
306.09
291.54
272.1
249.7
227.13
206.91
190.33
177.37
167.39
160.23
156.83
158.8
167.2
180.69
194.74
202.36
196.47
172.71
131.53
78.12
20.19
-34.84
-82.51
-121.97
-155.12
-185.07
-214.85
-247.11
-283.89
-326.1
-372.41
-418.35
-456.51
-478.54
-478.29
-454.44
-411.3
-357.08
-300.77
-249
-204.7
-167.68
-136.3
-109.08
-85.12
-63.7
-43.58
-22.87
0.53
28.18
60.93
99.01
142.01
188.79
237.12
283.49
323.59
353.19
369.19
370.16
356.17
328.48
289.33
242.12
191.66
143.92
104.86
78.67
66.3
65.14
70.16
76.07
79.17
78.23
74.02
68.19
62.08
56.27
50.64
45.01
39.54
34.85
31.7
30.63
31.7
34.51
38.3
42.24
45.54
47.56
47.9
46.48
43.6
39.9
36.19
33.2
31.41
30.96
31.65
32.89
33.61
32.5
28.35
20.62
9.79
-2.89
-16.15
-29.52
-43.63
-59.52
-77.69
-97.21
-115.84
-130.92
-140.71
-145.15
-145.76
-144.62
-143.25
-141.96
-140.02
-136.47
-130.9
-123.85
-116.48
-110
-105.07
-101.63
-99.08
-96.8
-94.68
-93.09
-92.7
-93.87
-96.33
-99.2
-101.34
-101.99
-101.01
-98.81
-95.88
-92.31
-87.56
-80.81
-71.48
-59.82
-47.04
-34.88
-24.9
-17.81
-13.19
-9.96
-7.06
-4.14
-1.61
-0.12
0.17
-0.01
0.62
3.1
7.54
13.08
18.29
22.13
24.4
25.66
26.72
28.11
29.96
32.13
34.59
37.4
40.59
43.91
46.83
48.99
50.57
52.34
55.26
59.78
65.36
70.57
73.73
73.75
70.67
65.6
60.21
55.97
53.58
52.8
52.62
51.74
48.94
43.55
35.5
25.49
14.71
4.64
-3.39
-8.59
-10.87
-10.8
-9.29
-7.37
-5.95
-5.77
-7.31
-10.78
-15.94
-22.15
-28.5
-34.2
-38.97
-43.18
-47.59
-52.78
-58.6
-63.94
-67.1
-66.47
-61.41
-52.73
-42.47
-33.07
-26.25
-22.31
-20.21
-18.39
-15.87
-12.87
-10.59
-10.35
-12.69
-17.03
-22.12
-26.86
-31.05
-35.45
-41.18
-48.84
-57.93
-66.79
-73.21
-75.1
-71.22
-61.53
-47.09
-29.71
-11.36
6.3
22.13
35.6
46.72
55.99
64.44
73.51
84.65
98.9
116.49
136.8
158.57
180.25
200.18
216.79
228.63
234.53
233.83
226.57
213.49
195.75
174.78
152.13
129.58
109.11
92.77
82.27
78.66
82.06
91.5
104.77
118.35
127.69
127.9
115.1
87.9
48.22
0.79
-48.3
-93.78
-132.79
-165.32
-193.6
-221.13
-251.69
-288.37
-332.39
-381.84
-431.07
-471.45
-493.96
-492.53
-466.65
-421.77
-367.04
-311.67
-261.69
-218.83
-181.63
-147.77
-116.03
-86.7
-60.62
-37.75
-16.5
5.87
32.08
63.9
101.93
145.86
194.97
247.88
301.82
352.06
392.33
416.53
421.08
406.65
378.24
343.34
309.21
280.64
259.09
243.5
231.84
222.2
213.04
202.79
189.51
171.23
146.91
117.23
84.72
52.99
25.3
3.45
-12.46
-23.47
-30.72
-34.81
-35.79
-33.79
-29.64
-25.08
-22.45
-24.14
-32.12
-47.79
-71.48
-101.98
-135.97
-168.27
-193.2
-206.63
-207.67
-198.96
-185.11
-170.15
-155.77
-141.05
-124.08
-104.02
-82.08
-61.06
-43.68
-31.05
-22.31
-15.46
-8.75
-1.52
5.69
11.79
15.83
17.51
17.21
15.72
13.97
12.6
11.84
11.41
10.7
9.11
6.36
2.68
-1.39
-5.27
-8.47
-10.64
-11.57
-11.29
-10.18
-8.99
-8.62
-9.67
-11.96
-14.6
-16.42
-16.7
-15.6
-14.07
-13.22
-13.62
-15.04
-16.72
-18.11
-19.34
-21.22
-24.62
-29.71
-35.55
-40.43
-42.76
-41.93
-38.76
-35.1
-32.86
-33.02
-35.23
-38.14
-40.36
-41.23
-41.14
-41.13
-42.1
-44.15
-46.57
-48.25
-48.25
-46.23
-42.38
-37.19
-31.11
-24.52
-17.85
-11.66
-6.52
-2.78
-0.28
1.76
4.36
8.32
13.68
19.78
25.41
29.41
31.2
30.87
29.17
27.08
25.37
24.37
23.96
23.83
23.82
24.08
24.92
26.43
28.13
28.94
27.75
23.98
18.11
11.45
5.4
0.69
-3.07
-6.88
-11.47
-16.57
-20.74
-22.14
-19.53
-12.94
-3.72
6.13
14.77
21.14
24.99
26.67
26.68
25.47
23.45
20.99
18.46
16.13
14.15
12.63
11.68
11.42
11.88
12.8
13.53
13.12
10.51
4.89
-3.96
-15.55
-28.76
-42.14
-54.31
-64.28
-71.61
-76.38
-79.2
-80.97
-82.76
-85.54
-90.03
-96.47
-104.5
-112.95
-119.87
-122.59
-118.21
-104.16
-78.84
-42.1
4.73
59.08
117.55
176.36
231.54
279.25
316.03
339.32
348
342.73
325.95
301.45
273.45
245.46
219.37
195.04
170.64
143.68
112.24
75.65
34.45
-10.38
-57.95
-106.98
-154.98
-197.31
-227.53
-239.2
-228.37
-195.05
-143.16
-78.94
-9.25
59.2
119.52
164.42
186.96
182.7
151.89
100.2
37.33
-26.17
-82.23
-127.14
-161.39
-188.38
-212.66
-238.43
-268.42
-302.97
-339.42
-372.31
-394.68
-400.28
-385.79
-351.75
-302.19
-243.04
-180.35
-118.95
-62.1
-11.58
32.09
69.62
102.94
135.21
170.32
212.09
262.8
321.76
384.42
442.68
486.86
508.67
504.17
475.08
427.88
371.02
311.7
253.89
198.38
144.33
91.19
39.68
-8.66
-52.68
-92.66
-130.7
-170.23
-214.89
-267.19
-326.94
-390.18
-449.43
-495.37
-519.8
-518.6
-493.15
-449.37
-395.1
-337.29
-280.68
-228.3
-182.86
-147.61
-125.56
-117.87
-122.39
-133.99
-146.41
-154.5
-155.58
-149.06
-135.18
-113.93
-84.92
-48.28
-5.62
39.91
84.57
125.43
161.32
192.89
221.83
249.98
278.77
309.31
342.33
377.71
413.8
447.25
473.93
490.84
497.92
498.6
498.28
501.52
509.41
518.83
523.95
519.2
501.84
472.9
436.08
395.68
354.85
315.12
277.18
241.81
210.4
184.57
165.41
152.82
145.34
140.53
135.85
129.43
120.44
109.08
96.1
82.33
68.18
53.58
38.12
21.4
3.23
-16.19
-36.43
-56.92
-77.23
-97.12
-116.5
-135.29
-153.38
-170.5
-186.37
-200.89
-214.45
-228
-242.85
-259.96
-279.2
-298.86
-315.94
-327.33
-331.24
-328.44
-322.14
-317.19
-318.19
-328.14
-347.8
-375.92
-409.82
-445.92
-480.07
-507.84
-524.86
-527.52
-513.81
-483.92
-440.29
-386.97
-328.68
-269.79
-213.77
-163.06
-119.34
-83.84
-57.26
-39.55
-29.4
-23.87
-18.77
-9.85
5.73
28.09
54.52
80.57
102.19
117.41
126.94
133.13
137.85
140.79
139.13
129.09
108.44
78.31
43.39
10.07
-16.22
-32.7
-39.35
-37.54
-28.68
-14.02
4.3
22.27
34.34
35.32
23.14
0.55
-25.2
-45.18
-52.59
-46.03
-30.23
-14.46
-8.74
-19.76
-48.22
-88.34
-129.73
-160.99
-173.66
-164.63
-136.47
-95.72
-49.92
-5.27
34.77
69.32
99.07
125.1
148.12
168.16
184.93
198.54
209.69
219.65
229.77
240.79
252.4
263.2
271.3
275.18
274.42
269.73
262.62
254.48
245.79
236.02
224.14
209.46
192.53
175.38
160.86
151.46
148
149.07
151.38
151.08
145.22
132.78
114.73
93.27
70.85
49.43
30.3
14.3
1.92
-6.7
-12.08
-15.46
-18.7
-23.39
-30.09
-37.86
-44.5
-47.68
-46.24
-41.07
-35.07
-32.3
-36.33
-48.88
-68.98
-93.19
-116.85
-135.77
-147.74
-152.93
-153.51
-152.17
-150.8
-149.71
-147.84
-143.41
-134.9
-121.68
-104.5
-85.94
-70.79
-65.91
-78.82
-114.71
-173.34
-247.34
-323.35
-386.24
-424.5
-434.1
-418.95
-387.85
-349.99
-311.11
-272.56
-232.68
-189.31
-141.36
-88.96
-33
25.18
83.41
137.91
183.55
215.41
231.05
231.73
222.27
208.96
197.15
189.59
186.49
186.8
189.66
195.18
204.24
217.97
237.25
262.28
292.14
324.32
354.42
376.87
386.67
381.23
361.72
332.74
300.4
269.94
244.06
222.72
204.21
186.83
169.92
154.03
140.18
128.82
119.31
109.87
98.42
83.4
64.62
43.49
22.29
3.23
-12.74
-26.28
-39.18
-53.52
-71.1
-93.31
-121.15
-154.63
-191.63
-226.78
-251.63
-256.86
-236.23
-190.26
-127.68
-63.21
-12.48
13.35
11.12
-14.68
-55.34
-102.17
-149.82
-197.28
-246.74
-301.3
-362.19
-426.95
-489.04
-539.4
-569.42
-574.03
-553.68
-514.01
-463.3
-409.2
-356.15
-305.01
-254.53
-203.39
-151.19
-98.05
-43.57
13.25
72.61
131.78
184.01
220.14
232.61
219.26
185.36
141.75
100.41
69.55
51.02
41.28
34.77
27.66
19.63
13
10.35
12.56
18.81
27.98
40.25
57.12
79.83
106.87
132.94
150.31
151.96
135
102.09
60.26
17.91
-18.13
-44.28
-59.87
-66.08
-64.92
-58.83
-50.64
-43.37
-39.46
-39.94
-44.01
-49.5
-53.75
-54.61
-50.98
-42.73
-30.47
-15.17
2
19.91
37.66
54.86
71.5
87.7
103.33
117.69
129.81
138.82
144.53
147.64
149.35
150.71
152.09
153.15
153.27
152.21
150.52
149.51
150.52
154.32
160.82
169.08
177.71
185.35
190.89
193.44
192.35
187.15
177.59
163.67
145.7
124.29
100.13
73.84
45.79
16.12
-15.03
-47.18
-79.35
-110.12
-138.16
-162.88
-184.76
-205.38
-226.69
-250.11
-275.89
-302.87
-328.9
-351.33
-367.5
-374.91
-371.52
-356.04
-328.46
-290.31
-244.42
-193.99
-141.41
-87.81
-33.83
18.97
66.89
104.39
125.95
128.58
113.47
85.55
51.15
15.22
-20.31
-56
-92.97
-130.68
-166.07
-194.39
-211.29
-214.6
-205.1
-185.79
-160.37
-131.82
-101.72
-70.25
-36.91
-1.5
35.46
72.86
109.72
145.79
181.54
217.38
252.61
285.16
312.3
332.22
345.07
352.96
358.41
362.16
362.24
354.95
337.27
309.14
273.9
236.33
200.65
168.53
138.79
108.94
76.98
42.52
6.51
-29.93
-67.03
-105.7
-146.92
-190.92
-236.63
-281.62
-322.55
-355.84
-378.22
-387.82
-383.13
-363.52
-329.74
-284.44
-232.09
-178.09
-127.69
-80.89
-40.09
-7.85
14.15
25.73
27.82
21.89
9.92
-5.63
-21.99
-36.93
-48.24
-54.88
-56.69
-54.87
-51.28
-47.5
-44.27
-41.18
-37.43
-31.41
-20.91
-3.43
23.37
58.82
100.31
141.97
175.01
189.74
179.54
143.74
88.35
23.85
-38.43
-89.35
-123.8
-140.2
-139.13
-121.84
-90.27
-47.65
1.03
49.86
93.95
130.83
160.91
186.64
211.22
236.9
264.1
291.37
316.02
335.14
346.62
349.83
345.79
336.29
322.79
305.22
281.7
249.41
206.37
153.22
94.07
35.8
-13.91
-48.91
-66.59
-68.29
-58.57
-43.42
-28.24
-16.43
-9.07
-5.59
-4.85
-5.96
-8.33
-11.16
-12.68
-10.15
-0.77
16.76
41.04
67.82
91.39
106.92
112.41
109.45
102.17
95.11
91.22
90.96
92.79
94.55
94.89
93.64
91.19
87.24
80.11
67.08
45.78
15.57
-21.82
-63.14
-105.15
-145.93
-184.77
-220.77
-251.44
-272.42
-279.08
-269.11
-244.48
-211.3
-177.45
-149.14
-128.47
-113.38
-99.92
-85.33
-70.14
-57.88
-53.06
-58.21
-71.98
-89.33
-103.46
-108.51
-101.71
-84.07
-59.39
-32.32
-6.55
16.17
35.81
53.16
68.6
81.24
88.93
88.98
79.39
59.81
31.8
-1.94
-38.94
-78.03
-119.59
-164.51
-212.57
-261.31
-306.02
-340.99
-361.3
-364.25
-349.86
-320.34
-279.23
-230.49
-177.92
-124.94
-74.26
-27.74
13.73
50.16
82.16
110.73
137.27
163.72
192.51
225.77
264.1
305.43
345.02
376.69
395.01
397.31
384.45
360
328.45
293.48
257.25
220.83
185.14
151.42
121.02
94.59
71.54
50.33
29.32
7.86
-13.29
-32.27
-47.03
-56.22
-59.91
-59.48
-57.07
-54.81
-54.16
-55.66
-59.16
-64.26
-70.6
-77.89
-85.69
-93.12
-98.9
-101.68
-100.51
-95.23
-86.43
-75.13
-62.37
-48.94
-35.36
-22.01
-9.16
2.91
13.92
23.51
31.27
36.73
39.44
39
35.12
27.55
16.17
1.07
-17.26
-37.91
-59.67
-81.25
-101.46
-119.41
-134.65
-147.19
-157.53
-166.59
-175.47
-184.96
-195.19
-205.37
-214.11
-220.03
-222.35
-221.29
-217.91
-213.53
-209.05
-204.43
-198.46
-189.13
-174.31
-152.52
-123.63
-89.02
-51.24
-13.12
22.9
55.29
83.58
107.96
129.14
148.29
167.06
187.25
210.07
235.1
259.89
280.44
292.6
293.82
284.15
266.26
244.36
222.69
204.34
190.69
181.52
175.34
170.01
163.18
152.85
137.97
118.76
96.75
74.35
54
37.55
25.95
19.18
16.43
16.51
18.08
19.91
21.13
21.29
20.3
18.35
15.7
12.54
8.99
5.11
0.89
-3.73
-8.83
-14.43
-20.26
-25.75
-30.06
-32.32
-32.01
-29.27
-24.93
-20.27
-16.52
-14.36
-13.68
-13.67
-13.29
-11.82
-9.17
-5.86
-2.65
-0.1
1.78
3.56
5.92
9.21
13.19
17.19
20.69
23.74
27.04
31.51
37.62
45.06
52.68
58.94
62.42
62.19
57.81
49.19
36.39
19.59
-0.73
-23.79
-48.76
-75.14
-103.15
-133.87
-169.01
-210.03
-256.81
-306.54
-353.36
-389.32
-406.79
-401.04
-372.05
-324.48
-265.64
-202.57
-139.61
-77.81
-16.42
44.52
102.25
151.36
186.01
202.79
202.69
190.87
174.29
158.77
146.96
138.25
130.55
122.48
114.65
109.27
108.53
112.86
120.28
127.1
129.55
125.38
114.57
99.07
81.68
64.72
49.19
34.57
19.47
2.71
-15.72
-34.32
-50.53
-61.83
-66.88
-66.01
-60.92
-53.85
-46.64
-40.23
-34.81
-30.16
-26.05
-22.2
-18.2
-13.41
-7.23
0.37
8.44
15.04
17.74
14.53
4.74
-10.5
-28.43
-45.39
-57.98
-63.98
-62.79
-55.25
-42.96
-27.56
-10.29
7.97
26.38
43.85
59
70.56
77.94
81.75
83.85
86.83
93.02
103.36
116.68
129.87
138.9
140.37
132.93
117.66
97.24
74.55
51.4
28.16
4.41
-20.18
-45.32
-70.25
-94.27
-116.91
-137.63
-155.29
-167.91
-173.12
-169.18
-155.81
-134.43
-107.6
-78.09
-48.28
-20.16
4.28
22.7
32.72
32.75
23.02
6.01
-13.93
-31.91
-44.12
-48.98
-47.59
-43.15
-39.44
-39.35
-43.77
-51.6
-60.57
-68.42
-73.75
-76.32
-76.6
-75.22
-72.53
-68.53
-63.31
-57.34
-51.76
-48.2
-48.21
-52.58
-60.93
-71.8
-83.24
-93.8
-103.1
-111.78
-120.74
-130.15
-138.83
-144.73
-145.98
-141.89
-133.32
-122.11
-110.04
-97.96
-85.72
-72.87
-59.53
-46.83
-36.41
-29.38
-25.57
-23.38
-20.68
-16.11
-9.9
-3.77
0.11
0.51
-1.88
-4.77
-5.28
-1.55
6.37
16.63
26.69
34.72
40.52
45.5
51.99
62.21
77.43
97.65
122.11
149.86
180.38
213.41
248.15
282.32
311.75
331.07
335.66
323.73
297.49
262.47
225.4
191.55
163.14
139.49
118.52
98.5
79.05
60.84
44.75
31.01
19.17
8.57
-1.1
-9.67
-16.61
-21.59
-24.71
-26.41
-27.23
-27.55
-27.63
-27.7
-28.03
-28.77
-29.79
-30.82
-31.66
-32.51
-33.98
-36.72
-40.77
-45.25
-48.48
-48.73
-45.07
-37.98
-29.31
-21.5
-16.66
-15.62
-17.6
-20.41
-21.14
-17.12
-6.64
10.57
33.39
59.53
86.07
110.02
128.69
140.23
143.91
140.25
130.89
118.11
104.14
90.53
77.93
66.28
55.26
44.64
34.41
24.51
14.79
4.89
-5.47
-16.24
-26.91
-36.42
-43.37
-46.36
-44.33
-36.86
-24.24
-7.35
12.64
34.61
57.68
81.1
103.92
124.53
140.53
149.05
147.48
134.42
110.2
77.03
38.61
-0.56
-36.01
-64.1
-82.72
-91.66
-92.62
-88.6
-82.85
-77.94
-75.09
-74.33
-75.05
-76.73
-79.2
-82.53
-86.44
-90.13
-92.36
-92.16
-89.38
-84.97
-80.67
-78.29
-78.95
-82.73
-88.77
-95.66
-102.09
-107.24
-110.95
-113.51
-115.42
-117.05
-118.49
-119.56
-119.86
-118.98
-116.67
-112.95
-108.23
-103.21
-98.71
-95.48
-93.93
-94.06
-95.46
-97.51
-99.55
-101.18
-102.36
-103.32
-104.28
-105.15
-105.26
-103.59
-99.32
-92.39
-84.02
-76.47
-72.19
-72.67
-77.49
-84.24
-89.44
-89.81
-83.4
-69.94
-50.51
-26.66
0.12
28.63
57.79
86.51
113.78
139.26
163.84
189.61
218.74
251.73
285.94
315.51
333.16
333.2
314.26
280.21
238.8
198.72
166.31
143.99
130.49
122.72
117.72
113.72
110.05
106.45
102.4
97.11
89.92
80.73
70.09
58.97
48.19
38.14
28.64
19.26
9.75
0.45
-7.69
-13.34
-15.54
-14.12
-9.89
-4.37
0.88
4.83
7.27
8.66
9.84
11.73
15.2
21.09
30.02
42.16
56.92
73.01
88.85
103.32
116.24
128.39
140.68
153.13
164.19
171.03
170.76
161.87
145.08
123.16
99.62
77.28
57.45
40
24.19
9.43
-4.55
-18.13
-32.36
-48.97
-69.7
-95.23
-124.55
-155.23
-184.36
-209.69
-230.35
-246.57
-259.06
-268.23
-274.08
-276.51
-275.87
-273.25
-270.15
-267.83
-266.67
-266.11
-265.07
-262.63
-258.65
-253.8
-249.2
-246.04
-245.23
-247.25
-251.96
-258.24
-263.7
-264.78
-257.6
-239.26
-209.21
-169.62
-124.81
-79.57
-37.52
-0.22
32.75
62.86
91.72
120.53
149.74
178.97
206.76
230.5
246.78
252.46
245.95
228.08
202.03
172.21
142.78
116.45
94.39
76.96
64.54
57.85
57.51
63.33
73.89
86.81
99.61
110.54
118.91
124.92
129.1
131.74
132.86
132.43
130.73
128.57
127.12
127.57
130.73
136.75
144.96
153.82
160.99
163.79
159.96
148.46
130.03
107.18
83.1
60.38
39.92
20.66
0.31
-23.16
-50.28
-79.39
-107.25
-130.38
-146.61
-155.99
-160.69
-163.94
-168.45
-175.24
-183.21
-189.72
-191.92
-187.92
-177.64
-162.58
-145.04
-127.06
-109.91
-94.06
-79.71
-67.32
-57.71
-51.83
-50.13
-51.91
-55.13
-57
-54.85
-47.21
-34.48
-18.66
-2.61
11.23
21.55
28.49
33.09
36.56
39.69
42.6
45.02
46.58
47.14
46.87
46.14
45.47
45.31
46.01
47.64
49.9
52.16
53.61
53.57
51.75
48.42
44.32
40.44
37.63
36.35
36.31
36.43
34.98
30.08
20.34
5.62
-12.64
-31.72
-48.42
-60.17
-65.79
-65.75
-61.67
-55.58
-49.18
-43.5
-38.94
-35.45
-32.8
-30.66
-28.68
-26.56
-24.05
-20.8
-16.24
-9.56
0.14
13.34
29.66
47.7
65.45
80.97
93.1
101.79
107.82
112.3
115.97
118.98
121
121.53
120.23
116.85
110.94
101.54
87.31
67.06
40.65
9.51
-23.31
-54
-79.17
-96.9
-107
-110.52
-108.79
-102.79
-93.08
-80.32
-65.74
-51.16
-38.28
-27.7
-18.23
-7.15
8.68
31.24
60.14
92.26
122.67
146.26
159.49
161.34
153.37
138.66
120.53
101.4
82.43
63.85
45.63
27.88
10.88
-5.52
-22.15
-40.45
-61.75
-86.37
-113.07
-139.28
-162.02
-178.83
-188.55
-191.29
-188.05
-180.08
-168.53
-154.38
-138.58
-122.2
-106.43
-92.52
-81.52
-73.96
-69.66
-67.64
-66.31
-64.02
-59.73
-53.31
-45.54
-37.61
-30.56
-24.89
-20.62
-17.52
-15.39
-14.1
-13.47
-13.16
-12.64
-11.55
-9.93
-8.27
-7.31
-7.62
-9.22
-11.54
-13.62
-14.53
-13.73
-11.17
-7.16
-2.06
3.83
10.33
17.23
24.08
30.24
35.07
38.17
39.57
39.67
39.02
37.98
36.69
35.06
33.06
30.88
28.95
27.61
26.77
25.76
23.57
19.43
13.32
6.17
-0.61
-5.78
-8.97
-10.72
-11.9
-13.11
-14.2
-14.46
-13.33
-10.99
-8.47
-7.08
-7.53
-9.41
-11.26
-11.4
-8.84
-3.76
2.7
9.12
14.52
18.74
22.35
26.16
30.85
36.58
42.95
49.12
54.12
57.19
58.02
56.88
54.48
51.67
49.13
47.05
45.27
43.4
41.25
38.97
37.02
35.83
35.45
35.46
35.12
33.79
31.38
28.41
25.75
23.99
23.04
22
19.71
15.44
9.53
3.33
-1.34
-3.02
-1.24
3.54
10.29
17.93
25.63
32.82
38.96
43.49
45.87
45.89
43.74
40.12
36
32.36
30.02
29.51
31.07
34.56
39.48
45
50.12
53.87
55.65
55.29
53.01
49.21
44.26
38.37
31.58
23.93
15.65
7.29
-0.33
-6.33
-10.17
-11.94
-12.61
-13.86
-17.78
-26.1
-39.45
-56.71
-74.89
-89.64
-96.43
-91.97
-75.3
-48.22
-14.56
21.18
55.36
86.03
112.74
135.46
153.66
165.88
170.46
166.57
154.99
137.98
118.6
99.7
83.32
70.64
62.03
56.75
52.69
46.79
36.38
21.24
5.05
-5.05
-1.08
21.94
62.85
113.81
162.72
197.55
210.45
199.61
168.65
123.98
71.87
16.52
-39.95
-96.46
-151.42
-202.04
-244.84
-277.23
-298.96
-312.45
-321.27
-327.78
-331.57
-329.85
-319.42
-299.35
-272.26
-243.47
-218.56
-200.87
-190.52
-185.17
-181.83
-178.2
-172.92
-164.78
-152.18
-133.32
-107.11
-74.14
-36.85
1.4
37.59
69.88
97.78
121.63
141.88
158.58
171.34
179.35
181.57
176.92
164.56
144.28
116.98
84.88
51.38
20.57
-3.69
-18.87
-24.54
-22.85
-18.02
-15.09
-18.04
-28.18
-43.48
-59.22
-69.76
-70.73
-60.54
-40.72
-15.11
11.59
35.3
53.31
64.36
68.18
65.03
55.53
40.83
22.93
4.69
-10.57
-19.95
-21.77
-16.16
-4.94
9.03
22.8
34.12
41.94
46.53
49.46
52.98
59.18
68.77
80.29
90.04
93.27
86.2
67.84
40.75
10.31
-17.19
-36.66
-45.61
-44.22
-34.63
-19.78
-2.63
14.23
28.68
39.15
44.93
46.38
44.82
41.86
38.84
36.21
33.95
32.22
31.93
34.93
43.57
59.56
82.77
110.61
138.15
159.84
171.14
169.56
155.15
130.38
98.84
63.98
28.21
-7.76
-44.32
-82.43
-123.55
-168.3
-215.11
-259.68
-295.6
-316.1
-316.93
-297.58
-261.38
-214.84
-164.64
-114.81
-65.7
-15.03
41.37
102.28
160.01
207.42
238.07
248.52
239.73
216.43
184.59
149.01
111.67
73.24
34.72
-2.25
-35.24
-62.2
-82.79
-98.66
-112.4
-126.05
-139.42
-150.06
-155.16
-152.68
-142.29
-125.62
-105.7
-85.89
-68.94
-55.84
-45.62
-36.49
-26.7
-15.33
-2.73
9.88
20.96
29.37
34.68
37.22
37.57
36.43
34.57
32.7
31.33
30.59
30.3
30.13
29.92
29.7
29.76
30.37
31.55
32.92
33.65
32.71
29.24
23.05
14.8
5.92
-1.99
-7.78
-11.14
-12.57
-12.87
-12.58
-11.71
-10.03
-7.45
-4.4
-1.81
-0.66
-1.53
-4.19
-7.81
-11.25
-13.6
-14.55
-14.42
-13.87
-13.6
-13.94
-14.79
-15.79
-16.67
-17.45
-18.48
-20.19
-22.74
-25.83
-28.89
-31.44
-33.51
-35.71
-38.92
-43.73
-50.04
-56.89
-62.77
-66.37
-67.15
-65.71
-63.57
-62.55
-63.98
-68.14
-74.16
-80.62
-86.32
-91
-95.37
-100.38
-106.24
-111.71
-114.31
-111.21
-100.38
-81.44
-55.78
-26.17
3.84
30.63
51.04
62.91
65.47
59.64
48.08
34.82
24.46
21.26
28.08
45.86
73.44
108.05
146.14
184.54
221.42
256.57
290.7
324.2
355.96
383.09
401.68
408.4
401.88
383.33
355.8
322.81
287.01
249.41
209.96
168.6
126.3
85.28
48.34
17.81
-5.49
-22.32
-34.48
-43.78
-51.28
-56.9
-60.13
-60.73
-59.46
-58.11
-58.99
-63.97
-73.53
-86.37
-99.75
-110.47
-116.05
-115.63
-110.12
-101.86
-93.68
-88.1
-86.63
-89.5
-95.76
-103.77
-111.71
-118.19
-122.42
-124.21
-123.64
-120.92
-116.44
-110.94
-105.52
-101.38
-99.25
-98.88
-99.08
-98.36
-95.74
-91.17
-85.27
-78.55
-70.74
-60.91
-48.1
-32.39
-15.28
0.72
13.26
21.29
25.57
28.32
32.01
38.32
47.4
58.11
68.79
78.06
85.27
90.3
93.05
92.97
89.1
80.7
67.92
52.2
35.91
21.6
11.2
5.69
5.42
10.69
21.97
39.59
62.82
89.08
114.01
132.79
142.05
141.55
134.31
125.03
117.42
111.88
105.04
91.35
66.08
28.16
-18.76
-67.55
-110.23
-140.88
-157.35
-161.16
-156.15
-146.73
-136.57
-127.86
-121.09
-115.13
-107.88
-97.23
-82.4
-64.96
-48.97
-39.63
-41.13
-54.5
-76.82
-102.34
-125.06
-141.15
-150.24
-154.66
-157.49
-160.81
-164.97
-169.43
-173.9
-178.96
-185.26
-192.16
-196.56
-193.13
-176.36
-143.38
-96.01
-40.98
12.22
54.71
81.28
91.82
90.65
84.1
77.9
75.35
76.91
81.16
86.14
90.5
93.91
96.59
98.56
99.25
97.65
93
85.48
76.5
68.19
62.55
60.59
61.86
64.7
66.84
66.16
61.24
51.55
37.52
20.42
2.22
-14.84
-28.67
-37.98
-42.61
-43.47
-42.14
-40.24
-38.93
-38.61
-38.95
-39.15
-38.22
-35.42
-30.4
-23.35
-14.91
-5.95
2.66
10.4
17.08
22.81
27.67
31.55
34.1
34.89
33.74
30.85
26.85
22.59
18.9
16.29
14.89
14.54
14.85
15.38
15.7
15.51
14.65
13.19
11.37
9.48
7.69
5.97
4.11
1.77
-1.27
-4.99
-9.12
-13.11
-16.26
-17.82
-17.16
-13.97
-8.45
-1.39
6.07
12.66
17.41
19.86
20.1
18.6
16.02
12.94
9.9
7.29
5.37
4.23
3.72
3.52
3.19
2.38
0.86
-1.37
-4.12
-7.12
-10.06
-12.74
-15.04
-16.96
-18.52
-19.8
-20.86
-21.71
-22.18
-21.92
-20.4
-17.14
-11.85
-4.7
3.68
12.37
20.5
27.54
33.43
38.43
42.77
46.4
48.94
49.88
48.86
45.95
41.66
36.71
31.83
27.6
24.36
22.22
21.17
21.01
21.34
21.64
21.32
19.87
17.06
12.91
7.63
1.45
-5.5
-13.15
-21.36
-29.66
-37.16
-42.74
-45.33
-44.27
-39.63
-32.18
-23.08
-13.59
-4.65
3.18
9.58
14.38
17.45
18.77
18.59
17.39
15.82
14.38
13.21
12.01
10.17
7.15
2.78
-2.6
-8.26
-13.23
-16.65
-17.9
-16.75
-13.39
-8.44
-2.85
2.2
5.63
6.69
5.23
1.74
-2.94
-7.92
-12.53
-16.34
-19.06
-20.27
-19.5
-16.42
-11.15
-4.4
2.64
8.7
12.8
14.47
13.7
10.89
6.64
1.82
-2.54
-5.43
-6.34
-5.55
-4.27
-4.28
-7.05
-13.03
-21.34
-30.04
-37.09
-41.25
-42.58
-42.26
-41.83
-42.41
-44.2
-46.58
-48.51
-49.03
-47.52
-43.73
-37.71
-29.8
-20.51
-10.45
-0.11
10.36
21.24
32.91
45.36
57.82
68.64
75.82
77.86
74.42
66.58
56.42
46.27
37.91
32.17
29.1
28.36
29.55
32.33
36.23
40.44
43.76
45.04
43.77
40.38
36.2
32.84
31.34
31.68
32.92
33.92
34.31
35.01
37.96
45.18
57.6
74.3
92.7
109.4
121.39
127.05
126.45
120.9
112.38
102.74
93.27
84.35
75.14
63.41
45.76
18.63
-19.97
-68.48
-120.96
-168.13
-200.3
-211.06
-199.95
-172.68
-138.7
-107.51
-85.43
-74.33
-72.59
-77.17
-85.56
-96.47
-109.25
-122.96
-135.72
-145.05
-148.9
-146.58
-139.23
-129.41
-120.09
-113.46
-110.16
-109.24
-108.68
-106.49
-101.59
-94.21
-85.63
-77.57
-71.34
-67.44
-65.48
-64.51
-63.52
-61.9
-59.7
-57.57
-56.56
-57.8
-62.16
-69.82
-79.86
-90.11
-97.38
-98.42
-91.03
-75.07
-52.53
-26.85
-1.52
21.28
41.27
59.79
78.94
100.73
126.35
155.97
188.56
222.04
253.49
279.82
298.63
308.89
311.24
307.37
299.13
287.73
273.48
256.23
236.09
213.78
190.5
167.27
144.45
121.66
98.31
74.31
50.45
28.23
9.37
-5.05
-15.03
-21.56
-26.14
-30.21
-34.77
-40.32
-46.9
-54.19
-61.49
-67.77
-71.89
-73
-70.84
-65.96
-59.38
-52.24
-45.31
-38.97
-33.3
-28.44
-24.72
-22.58
-22.22
-23.39
-25.32
-26.95
-27.45
-26.46
-24.21
-21.37
-18.64
-16.5
-15.1
-14.26
-13.7
-13.27
-12.96
-12.95
-13.47
-14.59
-16.12
-17.63
-18.56
-18.41
-17.02
-14.6
-11.77
-9.3
-7.79
-7.41
-7.84
-8.44
-8.57
-7.94
-6.77
-5.6
-5.13
-5.82
-7.79
-10.85
-14.63
-18.6
-22.12
-24.46
-24.82
-22.57
-17.44
-9.6
0.41
11.89
24.23
36.86
49.19
60.4
69.53
75.79
78.93
79.46
78.5
77.35
77.07
78.36
81.6
87.11
95.13
105.78
118.82
133.72
149.68
165.64
180.1
190.7
194.28
187.55
168.54
137.88
99.26
58.11
19.47
-14.2
-43.81
-72.79
-105.14
-143.5
-188.22
-237.28
-287.03
-332.7
-369.01
-390.81
-394.12
-377.28
-341.57
-290.87
-230.23
-164.19
-96.01
-28.12
36.78
94.96
141.93
173.9
189.28
189.36
177.82
159.12
137.07
113.94
90.77
68.06
46.56
27.44
12.01
1.16
-5.06
-7.53
-7.79
-7.69
-8.8
-12.01
-17.26
-23.69
-30.08
-35.4
-39.29
-42.09
-44.67
-48
-52.69
-58.74
-65.49
-71.77
-76.23
-77.87
-76.27
-71.73
-64.87
-56.06
-45.13
-31.42
-14.4
5.57
26.77
46.4
61.46
69.9
71.39
67.24
59.71
50.98
42.48
34.77
28
22.38
18.54
17.47
20.02
26.49
36.29
47.91
59.34
68.59
74.37
76.64
76.8
77.37
81.09
89.83
103.74
120.94
137.99
150.81
155.55
149.31
130.53
99.25
57.23
7.84
-44.36
-94.61
-139.02
-175.24
-202.32
-219.97
-227.85
-225.56
-213.32
-192.88
-167.84
-142.59
-120.65
-103.26
-89.08
-75.39
-59.83
-41.73
-22.17
-3.13
13.71
27.38
37.45
43.38
44.19
38.9
27.26
10.35
-9.61
-29.92
-48.43
-64.14
-77.08
-87.69
-96.18
-102.23
-105.15
-104.27
-99.42
-91.09
-80.22
-68
-55.5
-43.57
-32.72
-23.28
-15.43
-9.25
-4.77
-1.99
-0.83
-1.13
-2.54
-4.49
-6.22
-6.99
-6.34
-4.27
-1.21
2.15
5.14
7.32
8.48
8.64
7.89
6.42
4.42
2.08
-0.52
-3.56
-7.47
-12.77
-19.68
-27.83
-36.21
-43.45
-48.36
-50.49
-50.26
-48.69
-46.85
-45.27
-43.82
-41.92
-39.09
-35.44
-31.85
-29.72
-30.6
-35.56
-44.85
-57.49
-71.14
-82.37
-87.31
-82.81
-67.42
-41.98
-9.24
27.21
64.23
100.1
134.73
169.23
205.1
243.22
283.07
322.31
356.99
382.53
395.09
392.85
376.67
349.52
315.04
276.2
234.82
192.11
149.95
111.4
80.15
58.89
47.66
43.34
40.76
34.92
22.99
5.19
-15.95
-37.29
-56.9
-74.89
-92.92
-112.82
-135.11
-158.41
-179.97
-197.12
-208.64
-215.34
-219.61
-224.13
-230.51
-238.73
-247.57
-255.42
-260.99
-263.24
-260.97
-252.47
-235.7
-209.36
-173.87
-131.59
-86.18
-41.03
2.1
43.72
85.78
129.92
175.62
219.36
255.51
278.54
285.49
277.37
258.78
235.88
213.88
195.3
179.91
166.1
152.61
139.65
128.66
121.12
117.34
115.92
114.18
109.32
99.29
83.2
61.21
34.19
3.54
-28.76
-60.07
-87.44
-108.33
-121.66
-128.3
-130.89
-132.71
-136.29
-142.31
-149.52
-155.58
-158.14
-155.8
-148.46
-137.12
-123.46
-109.27
-95.99
-84.43
-74.64
-66.26
-58.95
-52.69
-47.77
-44.51
-42.77
-41.72
-40.06
-36.63
-31.04
-23.68
-15.4
-6.93
1.45
9.74
17.86
25.32
31.17
34.41
34.53
31.91
28
24.96
25.02
29.62
38.68
50.38
61.53
68.75
69.63
63.71
52.68
39.67
27.97
19.89
16.17
16.07
17.93
19.94
20.78
19.95
17.74
14.95
12.41
10.74
10.01
9.9
9.95
9.88
9.85
10.45
12.42
16.4
22.63
30.88
40.46
50.23
58.65
63.92
64.37
59.24
49.36
37.47
27.64
23.82
28.15
39.78
54.99
68.57
75.9
74.66
65.35
50.57
33.53
17.05
3.32
-5.47
-6.79
1.87
21.72
51.34
86.23
119.87
145.8
159.84
161.2
152.05
136.1
116.9
96.89
77.5
59.55
43.65
30.2
19.1
9.61
0.6
-8.96
-19.57
-31.04
-42.63
-53.35
-62.16
-68.25
-71.08
-70.48
-66.75
-60.6
-52.87
-44.24
-34.99
-25.12
-14.56
-3.51
7.51
17.91
27.29
35.61
43.08
49.74
55.28
59.01
60.36
59.2
56.08
52.09
48.44
46.12
45.77
47.7
51.89
57.81
64.14
68.86
69.7
65.01
54.61
39.96
23.71
8.51
-4.09
-14.25
-23.53
-33.9
-46.67
-61.72
-77.71
-92.69
-105.1
-114.42
-121.12
-126.22
-130.57
-134.28
-136.59
-136.37
-132.72
-125.68
-116.47
-107.09
-99.68
-95.74
-95.61
-98.53
-103.1
-107.98
-112.36
-116.02
-119.03
-121.29
-122.22
-120.92
-116.61
-109.04
-98.61
-86.21
-72.99
-60.12
-48.84
-40.4
-35.94
-36.12
-40.56
-47.83
-55.65
-61.67
-64.22
-62.81
-58.1
-51.49
-44.54
-38.54
-34.28
-31.91
-30.97
-30.32
-28.36
-23.41
-14.12
0.02
18.49
39.86
62.09
83.05
100.93
114.55
123.48
127.93
128.44
125.59
119.67
110.67
98.54
83.47
66.14
47.82
29.98
13.86
0.14
-11.08
-20.11
-27.4
-33.42
-38.88
-44.73
-52.12
-61.99
-74.48
-88.74
-103.1
-115.7
-125.23
-131.45
-135.05
-137.12
-138.39
-138.79
-137.44
-133.15
-125.07
-113.09
-97.72
-79.78
-59.92
-38.48
-15.81
7.29
29.23
47.79
60.89
67.54
68.4
65.67
62.21
60.39
61.25
64.34
68.34
71.93
74.4
75.8
76.54
77.03
77.34
77.34
76.92
76.25
75.69
75.51
75.6
75.51
74.81
73.55
72.59
73.49
77.94
86.96
100.16
115.57
130.08
140.46
144.44
141.62
133.51
122.89
112.56
104.28
98.16
92.85
86.3
76.77
63.63
47.48
29.82
12.22
-4.3
-19.67
-34.54
-49.62
-65.07
-80.15
-93.71
-105.03
-114.58
-124.12
-135.98
-151.86
-171.88
-194.5
-217.25
-237.66
-253.71
-263.72
-265.75
-257.53
-237.12
-204.06
-160.31
-110.16
-58.98
-11.51
29.52
63.64
91.86
115.39
134.61
148.77
156.56
156.95
150.06
137.42
121.71
105.96
92.65
82.94
76.48
71.87
67.45
62.21
56.13
49.99
44.67
40.47
37
33.47
29.44
25.24
21.87
20.25
20.53
21.67
21.8
19.13
12.75
2.96
-9.14
-22.39
-36.1
-50.01
-63.77
-76.39
-86.09
-90.8
-89.01
-80.45
-66.27
-48.64
-29.94
-12.13
3.65
17.01
27.99
36.7
43.19
47.43
49.62
50.38
50.75
51.87
54.63
59.12
64.51
69.29
71.88
71.25
67.38
61.1
53.71
46.33
39.47
33.14
27.07
20.83
13.8
4.83
-7.68
-25.2
-47.94
-73.85
-98.42
-115.99
-121.99
-115.14
-98.32
-77.51
-59.3
-48.17
-45
-47.26
-50.7
-51.33
-46.88
-37.11
-23.27
-7.28
8.98
23.76
35.4
42.28
43.03
36.91
24.1
5.9
-15.54
-37.62
-57.87
-74.44
-86.36
-93.45
-96.08
-94.89
-90.56
-83.64
-74.63
-64.02
-52.45
-40.75
-29.89
-20.8
-14.1
-10.02
-8.34
-8.61
-10.27
-12.86
-16
-19.28
-22.17
-24.08
-24.47
-23.09
-20.11
-16.11
-11.85
-8.02
-4.98
-2.76
-1.14
0.06
0.76
0.59
-0.94
-4.08
-8.58
-13.57
-17.87
-20.43
-20.65
-18.56
-14.71
-9.97
-5.26
-1.43
0.92
1.64
1.06
-0.01
-0.67
-0.33
0.89
2.14
2.18
0.01
-4.56
-10.78
-17.36
-23.14
-27.67
-31.47
-35.72
-41.62
-49.9
-60.51
-72.81
-85.69
-97.76
-107.25
-111.99
-109.54
-97.92
-76.29
-45.53
-7.99
33.28
75.86
118.82
162.63
207.93
253.85
296.98
331.84
352.7
356.15
342.57
316.08
282.61
247.53
213.85
182.01
151.09
120.51
90.86
63.77
40.75
22.19
6.97
-6.91
-21.26
-36.81
-52.95
-67.91
-79.71
-87.06
-90.06
-90.31
-90.37
-92.73
-98.7
-107.85
-118.01
-126.27
-130.1
-128.41
-121.93
-112.8
-103.48
-95.8
-90.26
-86.13
-82.14
-77.24
-71.16
-64.4
-57.8
-52.06
-47.41
-43.43
-39.07
-32.7
-22.19
-5.18
20.4
55.51
99.12
147.9
196.71
239.91
272.91
293.38
301.48
299.17
289.13
273.63
254.19
231.65
206.7
180.33
153.84
128.58
105.43
84.49
65.25
47.09
29.93
14.55
2.57
-4.31
-5.25
-1.15
5.24
10.12
10.08
3.52
-8.7
-23.85
-38.75
-51.14
-60.43
-67.48
-73.59
-79.57
-85.19
-89.47
-91.26
-89.95
-85.64
-79.04
-71.01
-62.29
-53.46
-45.03
-37.41
-30.87
-25.33
-20.14
-14.22
-6.34
4.49
18.63
35.7
54.73
74.5
93.68
110.86
124.29
131.89
131.55
121.98
103.59
78.99
52.54
29.07
12.17
2.66
-1.9
-6.41
-16.49
-36.36
-67.05
-105.88
-147.54
-186.21
-218.09
-243.11
-265.02
-289.66
-322.15
-364.24
-413.03
-461.63
-501.46
-524.93
-527.71
-509.28
-472.36
-421.47
-361.48
-296.75
-230.89
-166.9
-107.12
-53.18
-5.6
36.55
75.58
114.53
156.17
201.9
251.05
300.78
346.85
384.97
412
426.79
430.27
424.82
413.26
398.01
380.58
361.5
340.66
317.84
293.2
267.57
242.36
218.86
197.53
177.51
157.17
135.18
111.51
87.61
65.48
46.2
28.76
10.3
-12.34
-40.75
-73.75
-107.87
-139.03
-164.43
-183.48
-197.35
-207.66
-215.18
-219.35
-218.67
-211.65
-197.71
-177.64
-153.39
-127.42
-101.75
-77.21
-53.27
-28.24
-0.11
32.52
69.63
109.52
149.04
184.42
212.04
228.97
233.13
223.39
199.85
164.51
121.69
77.78
39.75
13.1
-0.13
-1.94
2.71
8.12
10.18
7.71
2.1
-4.34
-10.17
-15.94
-23.72
-35.71
-52.67
-73.03
-93.36
-109.97
-120.67
-125.95
-128.67
-132.64
-140.56
-152.74
-166.91
-179.44
-187
-187.72
-181.54
-169.75
-154.52
-138.48
-124.57
-115.65
-113.73
-119.01
-129.22
-140.01
-146.37
-144.51
-133.54
-115.7
-95.42
-77.32
-64.45
-57.42
-54.71
-53.8
-52.4
-49.19
-43.98
-37.45
-30.72
-24.94
-21.06
-19.53
-20.17
-22.16
-24.34
-25.56
-25.05
-22.63
-18.66
-13.92
-9.34
-5.85
-4.12
-4.43
-6.53
-9.65
-12.8
-15.1
-16.14
-15.99
-15.04
-13.62
-11.75
-9.23
-5.97
-2.28
1.08
3.19
3.61
2.86
2.6
5.12
12.32
24.65
40.59
57.17
71.09
80.18
84.21
84.75
84.18
84.48
86.56
90.2
94.67
99.3
103.86
108.48
113.44
119.04
125.49
132.99
141.57
150.92
160.29
168.58
174.61
177.51
176.87
172.61
164.59
152.26
134.56
110.38
79.15
41.43
-0.84
-44.78
-87.25
-125.66
-158.54
-185.58
-207.28
-224.44
-237.74
-247.48
-253.63
-255.92
-254.13
-248.33
-239.09
-227.57
-215.41
-204.47
-196.36
-191.93
-190.87
-191.47
-190.84
-185.58
-172.76
-150.92
-120.73
-84.73
-46.63
-9.93
23.05
51.78
77.39
102.12
128.53
158.47
192.2
227.58
260.17
284.34
295.15
290.46
271.97
244.8
215.56
189.96
171.13
159.21
152.33
148.07
144.64
141.23
137.67
133.83
129.4
124.03
117.79
111.54
106.82
105.25
107.75
113.94
122.05
129.65
134.7
136.41
135.55
133.94
133.59
135.74
140.54
146.98
153.2
156.75
154.92
145.22
126.04
97.52
61.89
23.1
-14.4
-47.23
-74.23
-96.49
-116.37
-135.82
-155.25
-173.24
-187.42
-195.74
-197.37
-193.05
-184.45
-173.46
-161.52
-149.52
-137.96
-127.25
-117.78
-109.86
-103.57
-98.59
-94.34
-90.09
-85.32
-79.84
-73.88
-68.02
-62.96
-59.33
-57.46
-57.42
-58.95
-61.58
-64.73
-67.73
-69.95
-70.79
-69.86
-66.9
-61.92
-55.11
-46.8
-37.48
-27.76
-18.21
-9.31
-1.26
6.06
12.97
19.89
27.05
34.5
42
49.21
55.73
61.15
64.98
66.75
66.06
62.81
57.24
50.05
42.27
35.09
29.61
26.64
26.38
28.27
30.97
32.65
31.64
27.15
19.69
11.06
3.72
-0.11
0.79
6.2
14.52
23.27
29.74
31.71
27.95
18.69
5.52
-8.96
-21.9
-31.02
-35.22
-34.69
-30.54
-24.24
-17.1
-10.08
-3.78
1.46
5.54
8.59
10.98
13.1
15.19
17.12
18.46
18.7
17.6
15.39
12.7
10.33
8.88
8.56
9.15
10.13
10.88
10.97
10.25
8.92
7.44
6.43
6.51
8.23
11.85
17.17
23.45
29.42
33.56
34.56
31.77
25.46
16.74
7.25
-1.38
-7.86
-11.48
-12.14
-10.41
-7.38
-4.45
-2.99
-3.78
-6.65
-10.53
-13.83
-15.16
-13.96
-10.75
-6.81
-3.76
-2.83
-4.5
-8.48
-13.92
-19.76
-25.15
-29.67
-33.41
-36.8
-40.26
-43.97
-47.67
-50.82
-52.79
-53.15
-51.87
-49.19
-45.58
-41.47
-37.22
-33.07
-29.24
-25.9
-23.16
-20.98
-19.07
-16.96
-14.15
-10.35
-5.71
-0.7
3.98
7.77
10.47
12.3
13.66
14.9
16.06
16.92
17.08
16.3
14.62
12.35
9.97
7.85
6.21
5
4
2.85
1.16
-1.44
-5.19
-9.99
-15.36
-20.43
-24.13
-25.5
-24.08
-20.1
-14.39
-8.15
-2.57
1.6
4.11
5.15
5.23
4.83
4.25
3.54
2.58
1.14
-0.9
-3.57
-6.7
-9.99
-13.1
-15.75
-17.87
-19.67
-21.55
-24.04
-27.65
-32.64
-38.93
-46.02
-53.09
-59.17
-63.52
-65.93
-67.07
-68.45
-71.86
-78.42
-87.67
-97.05
-102.41
-99.35
-84.73
-57.67
-19.53
26.88
78.3
131.34
182.62
228.9
267.68
298.13
321.61
341.05
359.23
377.14
393.05
403.5
405.22
396.97
379.95
356.62
328.89
297.17
260.84
219.89
176.24
133.7
96.39
66.68
43.98
25.12
6.08
-16.01
-41.81
-70.05
-98.74
-126.48
-152.98
-178.62
-203.62
-227.31
-248.11
-264.07
-273.73
-276.68
-273.7
-266.38
-256.46
-245.21
-233.15
-220.11
-205.62
-189.48
-172.12
-154.64
-138.45
-124.73
-113.91
-105.62
-98.96
-93.06
-87.43
-82.15
-77.62
-74.25
-72.11
-70.88
-70.03
-69.12
-67.99
-66.78
-65.82
-65.44
-65.83
-67.07
-69.05
-71.67
-74.8
-78.39
-82.4
-86.72
-90.94
-94.42
-96.5
-96.9
-96.05
-94.97
-94.6
-95.07
-95.14
-92.36
-83.86
-67.46
-42.43
-9.49
29.62
72.76
117.62
161.75
202.44
237.07
263.66
281.44
291.09
294.23
292.63
287.45
279.05
267.41
252.59
235.24
216.4
196.99
177.43
157.55
137.08
116.36
96.78
80.65
70.35
67.26
70.84
78.59
86.81
91.91
91.59
85.47
74.89
62.24
50.11
40.58
34.77
32.6
32.64
32.29
28.21
17.39
-1.63
-27.96
-58.67
-90.04
-119.51
-147
-174.97
-207.01
-245.73
-290.86
-338.73
-383.18
-417.44
-436.07
-436.15
-417.58
-382.44
-334.1
-276.4
-213.04
-147.04
-80.51
-14.72
49.18
109.46
163.44
207.87
240.18
259.85
269.09
272.1
273.36
275.64
279.11
281.86
281.58
277.32
270.14
262.32
255.75
250.57
245.01
236.49
223.31
205.74
185.99
167.12
151.15
137.77
124.36
107.3
83.87
53.58
18.24
-19.22
-56.25
-91.59
-124.99
-156.13
-183.75
-205.58
-219.12
-222.84
-216.78
-202.5
-182.26
-158.38
-132.85
-107.53
-84.12
-63.78
-46.57
-31.05
-14.83
4.29
26.77
50.43
70.52
81.11
76.99
55.57
17.87
-31.56
-85.91
-137.6
-179.77
-207.31
-217.67
-211.4
-192.19
-166.09
-139.67
-117.82
-101.85
-89.17
-74.57
-52.83
-21.15
19.69
65.74
111.55
151.85
182.66
201.46
207.15
199.84
180.97
153.17
119.77
83.82
47.46
11.66
-23.37
-57.57
-90.6
-121.87
-150.78
-176.86
-199.52
-217.69
-229.67
-233.59
-228.31
-214.38
-194.17
-171.27
-149.13
-129.89
-113.98
-100.54
-88.43
-77.08
-66.82
-58.42
-52.51
-49.07
-47.31
-46.02
-44.13
-41.17
-37.37
-33.53
-30.71
-29.75
-31.02
-34.2
-38.38
-42.33
-44.99
-45.88
-45.47
-45.14
-46.67
-51.56
-60.28
-72
-84.88
-96.79
-106.13
-112.4
-116.23
-118.91
-121.73
-125.58
-130.64
-136.3
-141.26
-143.7
-141.68
-133.72
-119.39
-99.67
-76.58
-52.46
-28.89
-5.99
17.67
44.31
75.54
110.95
147.63
180.94
206.3
221.44
227.75
229.96
234.5
247.15
270.97
305.33
346.09
386.67
419.71
438.9
440.44
424.02
392.63
351.45
305.96
260.43
217.23
177.33
141.54
111.1
87.59
71.98
63.7
60.6
59.84
59.16
57.81
56.44
56.36
58.57
63
68.46
73.04
74.85
72.63
66.19
56.39
44.59
32.13
19.58
6.55
-8.11
-25.69
-46.94
-71.64
-98.6
-126.19
-152.9
-177.79
-200.44
-220.54
-237.49
-250.33
-257.99
-259.95
-256.54
-249.04
-239.19
-228.52
-217.83
-207.11
-196
-184.27
-172.02
-159.58
-146.94
-133.6
-118.61
-101.17
-81.17
-59.42
-37.51
-17.18
0.23
14.05
24.22
30.93
34.35
34.55
31.66
26.11
18.83
11.17
4.65
0.55
-0.33
2.01
6.93
13.29
19.9
25.74
30.22
33.13
34.52
34.57
33.54
31.68
29.37
27.06
25.25
24.2
23.81
23.56
22.74
20.76
17.55
13.66
10.05
7.66
6.95
7.72
9.17
10.37
10.57
9.5
7.33
4.49
1.49
-1.17
-3.02
-3.61
-2.65
-0.04
3.95
8.78
13.77
18.25
21.72
23.95
24.91
24.78
23.87
22.6
21.39
20.56
20.14
19.9
19.46
18.48
16.9
15.01
13.29
12.18
11.88
12.18
12.64
12.78
12.23
10.82
8.53
5.53
2.1
-1.25
-3.84
-4.94
-4.08
-1.21
3.15
8.07
12.57
15.95
18.05
19.19
19.91
20.65
21.54
22.31
22.55
21.95
20.53
18.79
17.49
17.38
18.78
21.37
24.24
26.26
26.54
24.9
21.95
18.82
16.56
15.72
16.02
16.61
16.59
15.67
14.43
14.26
16.74
22.83
32.33
43.76
54.9
63.57
68.43
69.41
67.51
64.42
61.87
61.17
62.8
66.06
68.81
67.57
58.2
37.26
3.72
-39.86
-87.3
-130.31
-161.06
-174.68
-170.64
-152.44
-125.93
-97.03
-70.24
-47.95
-30.96
-19.17
-12.13
-9.11
-8.97
-10.03
-10.39
-8.56
-4.02
2.52
9.33
14.44
16.44
14.95
10.87
5.94
1.96
0.19
0.81
2.96
5.26
6.45
5.98
4.16
1.91
0.23
-0.25
0.41
1.52
2.07
1.12
-1.94
-7.23
-14.41
-22.81
-31.48
-39.39
-45.47
-48.84
-48.97
-45.86
-40.09
-32.67
-24.86
-17.84
-12.5
-9.27
-8.18
-8.94
-11.1
-14.27
-18.23
-22.89
-28.07
-33.2
-37.11
-38.17
-34.72
-25.67
-10.86
8.82
31.65
55.41
77.73
96.39
109.74
117.03
118.67
116.18
111.71
107.3
104.05
101.79
99.27
94.78
86.98
75.45
60.86
44.74
29.02
15.4
4.95
-2.19
-6.65
-9.47
-11.62
-13.64
-15.52
-16.9
-17.37
-16.71
-15.01
-12.62
-9.98
-7.47
-5.36
-3.86
-3.18
-3.53
-5.17
-8.24
-12.67
-18.1
-23.82
-28.96
-32.71
-34.62
-34.76
-33.6
-31.86
-30.22
-29.15
-28.93
-29.7
-31.49
-34.24
-37.68
-41.42
-45
-48.16
-50.96
-53.89
-57.65
-62.86
-69.72
-77.75
-85.78
-92.22
-95.48
-94.68
-90.08
-83.1
-75.83
-70.07
-66.43
-64.11
-61.39
-56.6
-49.05
-39.47
-29.63
-21.54
-16.77
-16.08
-19.5
-26.4
-35.38
-44.14
-49.46
-47.98
-37.2
-16.5
12.49
46.61
82.67
118.63
154.1
189.46
224.46
257.17
283.99
300.93
305.25
296.68
277.52
251.65
223.05
194.68
168.03
143.46
120.95
100.67
83.07
68.64
57.43
48.79
41.51
34.38
26.78
19.14
12.81
9.41
9.87
13.74
19.04
23.08
23.59
19.88
13.32
6.72
3.22
4.79
11.38
20.89
30.2
36.5
38.48
36.71
33.13
30
28.86
29.91
32
33.02
30.43
21.76
5.16
-19.81
-51.72
-87.41
-122.79
-154.45
-181.14
-204.36
-227.58
-254.3
-285.89
-320.32
-352.61
-376.61
-387.38
-382.82
-363.82
-333.25
-294.37
-249.82
-201.41
-150.78
-100.03
-51.78
-8.55
28.24
58.89
85.23
109.68
133.98
158.49
182.11
202.85
218.71
228.27
230.99
227.24
218.23
205.68
191.64
178.13
166.67
157.96
151.74
146.82
141.42
133.67
122
105.7
85.25
62.39
39.85
20.63
7.15
0.45
-0.04
3.86
9.97
16.48
22.38
27.23
30.63
31.71
28.98
20.89
6.54
-13.69
-37.93
-63.36
-86.98
-106.39
-120.34
-128.76
-132.43
-132.55
-130.3
-126.5
-121.59
-115.76
-109.27
-102.62
-96.53
-91.78
-88.76
-87.25
-86.33
-84.71
-81.32
-75.72
-68.29
-59.96
-51.76
-44.33
-37.8
-31.81
-25.92
-19.95
-14.15
-9.14
-5.59
-3.92
-3.98
-5.03
-6.01
-5.96
-4.39
-1.45
2.19
5.71
8.47
10.24
11.18
11.64
12.09
12.98
14.63
17.2
20.43
23.66
26
26.76
25.88
23.98
22.08
20.94
20.55
20
17.78
12.51
3.38
-9.48
-24.98
-41.17
-55.5
-65.37
-68.84
-65.48
-56.71
-45.53
-35.54
-29.6
-28.84
-32.5
-38.56
-44.91
-50.25
-54.4
-57.99
-61.78
-66.09
-70.6
-74.52
-77
-77.52
-76.11
-73.21
-69.46
-65.35
-61.09
-56.68
-52.13
-47.69
-43.79
-40.83
-38.88
-37.39
-35.24
-31.05
-23.8
-13.26
-0.24
13.67
26.64
37.33
45.21
50.56
54.14
56.67
58.51
59.53
59.42
57.81
54.7
50.5
45.95
41.95
39.25
38.19
38.59
39.87
41.28
42.17
42.24
41.59
40.53
39.39
38.27
37.02
35.29
32.75
29.21
24.78
19.87
15.2
11.55
9.5
9.22
10.29
11.91
13.19
13.45
12.42
10.19
7.02
3.07
-1.69
-7.4
-14.06
-21.31
-28.37
-34.24
-38.09
-39.47
-38.51
-35.81
-32.17
-28.32
-24.61
-21
-17.22
-13.08
-8.75
-4.86
-2.25
-1.66
-3.37
-7.01
-11.67
-16.13
-19.19
-20.02
-18.28
-14.13
-8.09
-0.79
7.2
15.59
24.35
33.56
43.22
53.05
62.5
70.9
77.66
82.43
85.15
85.95
85.14
83.1
80.33
77.37
74.69
72.53
70.73
68.78
65.97
61.77
56.01
48.89
40.91
32.54
24.11
15.81
7.73
-0.03
-7.36
-14.12
-20.18
-25.34
-29.23
-31.41
-31.42
-29.02
-24.38
-18.08
-11.03
-4.21
1.49
5.46
7.37
7.21
5.24
1.9
-2.18
-6.37
-10.04
-12.73
-14.16
-14.27
-13.23
-11.41
-9.26
-7.24
-5.66
-4.72
-4.47
-4.91
-5.98
-7.64
-9.79
-12.28
-14.92
-17.59
-20.28
-23.03
-25.77
-28.18
-29.57
-29.11
-26.11
-20.46
-12.74
-4.08
4.19
10.99
15.72
18.27
18.88
17.91
15.81
13.1
10.4
8.35
7.52
8.27
10.63
14.32
18.82
23.52
27.88
31.51
34.25
36.09
37.11
37.38
36.91
35.63
33.51
30.53
26.7
22.02
16.49
10.1
3.04
-4.21
-10.84
-15.86
-18.46
-18.29
-15.63
-11.38
-6.6
-2.25
1.21
3.79
5.77
7.41
8.69
9.34
8.99
7.48
5.01
2.17
-0.28
-1.68
-1.71
-0.46
1.61
3.8
5.36
5.61
4.12
0.84
-3.79
-8.78
-12.75
-14.24
-12.09
-5.73
4.83
19.16
36.63
56.49
77.81
99.32
119.31
135.74
146.39
149.03
141.88
123.96
95.6
58.71
16.49
-27.33
-69.68
-108.99
-145.3
-179.66
-213.1
-245.79
-276.77
-304.14
-325.51
-338.48
-340.97
-331.5
-309.59
-275.96
-232.39
-181.21
-124.68
-64.88
-4
54.96
108.03
150.95
180.59
196.22
200.05
196.26
189.38
182.82
178.13
175.38
174.05
173.87
175.06
178.03
182.84
188.91
195.07
199.91
202.2
201.11
196.26
187.68
175.73
161.27
145.86
131.61
120.71
114.57
113.14
114.8
117.03
117.67
116.03
113.19
111.07
110.84
111.69
110.57
103.46
87.13
60.54
24.96
-16.88
-62.13
-108.35
-153.31
-194.3
-227.9
-250.56
-259.83
-255.52
-240.02
-217.61
-192.9
-169.55
-149.54
-133.26
-120.08
-108.95
-98.8
-88.77
-78.17
-66.66
-54.12
-40.63
-26.24
-10.96
5.04
21.37
37.39
52.46
66.2
78.47
88.99
96.65
99.11
93.28
76.7
49.25
14.11
-22.64
-54.03
-74.89
-83.9
-83.83
-79.97
-77.46
-79.07
-84.38
-90.74
-95.11
-95.76
-93.03
-88.71
-84.92
-82.94
-82.83
-83.65
-84.13
-83.49
-81.66
-79.26
-77.1
-75.84
-75.69
-76.41
-77.49
-78.27
-78.26
-77.19
-75.15
-72.46
-69.57
-66.8
-64.35
-62.3
-60.79
-60.2
-60.97
-63.37
-67.12
-71.22
-74.08
-74.09
-70.29
-62.85
-53.07
-42.88
-33.98
-27.26
-22.39
-18.18
-13.09
-5.88
4.01
16.37
30.5
45.48
60.41
74.51
87.09
97.68
106.14
112.82
118.5
124.05
130.03
136.36
142.29
146.67
148.46
147.05
142.42
134.89
124.94
113.01
99.52
85.05
70.33
56.16
43.24
31.86
21.96
13.25
5.46
-1.48
-7.48
-12.6
-17.22
-22.11
-28.05
-35.41
-43.9
-52.6
-60.41
-66.45
-70.41
-72.35
-72.47
-70.84
-67.29
-61.78
-54.62
-46.6
-38.74
-31.85
-26.16
-21.31
-16.71
-11.83
-6.58
-1.17
4.06
8.86
13.15
16.96
20.33
23.35
26.24
29.47
33.6
39.07
45.87
53.39
60.58
66.3
69.75
70.64
69.14
65.63
60.45
53.77
45.7
36.45
26.43
16.34
6.99
-0.85
-6.66
-10.38
-12.35
-13.24
-13.81
-14.68
-16.1
-18
-20.05
-21.9
-23.26
-24
-24.04
-23.33
-21.87
-19.84
-17.68
-16.04
-15.45
-16.08
-17.51
-18.81
-18.92
-17.15
-13.46
-8.45
-3.13
1.51
4.77
6.34
6.27
4.76
2.14
-1.15
-4.67
-7.96
-10.73
-12.9
-14.69
-16.49
-18.69
-21.4
-24.36
-27.07
-28.97
-29.77
-29.62
-29.1
-28.97
-29.95
-32.37
-36.12
-40.73
-45.38
-49.04
-50.65
-49.2
-44.09
-35.38
-23.81
-10.6
3.07
16.59
30.05
43.93
58.51
73.37
87.49
99.62
109.11
116.36
122.74
130.03
139.69
152.32
167.56
184.21
200.67
215.21
226.33
233.1
235.38
233.96
230.34
226.1
222.3
219.07
215.7
211.18
204.84
196.63
186.78
175.26
161.24
143.35
120.45
92.61
61.57
30.17
1.11
-24.41
-47.36
-70.46
-96.89
-128.61
-165.33
-204.39
-241.69
-273.16
-296.06
-309.57
-314.39
-311.7
-302.16
-285.66
-261.93
-231.71
-197.59
-163.83
-134.94
-113.86
-100.71
-92.86
-86.34
-77.75
-65.61
-50.7
-35.24
-21.7
-11.78
-5.99
-3.94
-4.92
-8.43
-14.36
-22.9
-33.98
-46.86
-59.91
-70.74
-76.98
-77.07
-70.92
-60.04
-46.98
-34.38
-24.09
-16.73
-11.77
-8.18
-5.04
-2.01
0.72
2.74
3.84
4.22
4.39
4.9
5.96
7.35
8.54
9.04
8.63
7.48
6.01
4.71
3.89
3.59
3.58
3.47
2.83
1.32
-1.13
-4.25
-7.39
-9.68
-10.33
-8.96
-5.82
-1.66
2.54
5.94
8.17
9.28
9.6
9.4
8.73
7.38
5.06
1.66
-2.67
-7.49
-12.28
-16.69
-20.67
-24.45
-28.34
-32.47
-36.64
-40.45
-43.49
-45.72
-47.6
-49.97
-53.72
-59.29
-66.51
-74.57
-82.43
-89.22
-94.68
-99.22
-103.86
-109.88
-118.34
-129.48
-142.2
-153.84
-160.5
-158.02
-143.4
-115.88
-77.32
-31.63
16.64
63.79
107.85
148.83
188.16
227.92
269.78
313.82
357.62
396.14
422.8
431.58
419.5
388.08
343.06
292.36
243.31
200.47
165.01
135.67
110.32
87.3
65.85
45.92
27.68
11.14
-3.86
-17.53
-30.1
-41.73
-52.21
-61.03
-67.37
-70.31
-69.3
-64.41
-56.44
-46.72
-37.03
-29.22
-25.34
-27.53
-37.77
-57.16
-85.1
-118.74
-153.29
-183.29
-204.25
-214.04
-212.95
-202.67
-184.69
-159.28
-125.55
-82.66
-31.34
25.38
82.69
135.51
179.88
213.54
235.61
245.89
244.48
232.07
210.38
182.38
151.75
121.91
94.89
70.81
47.9
23.25
-6.24
-42.63
-85.8
-132.7
-177.41
-212.49
-231.4
-231.1
-213.59
-185.29
-154.59
-128.79
-111.8
-103.77
-102.4
-105.08
-110.21
-117.4
-126.68
-137.48
-148.31
-157.24
-162.76
-164.56
-163.62
-161.72
-160.68
-161.48
-163.72
-165.42
-163.41
-154.19
-134.92
-104.39
-63.33
-14.31
38.9
91.95
140.48
180.6
209.3
224.96
227.72
219.6
204.02
184.97
166
149.49
136.45
126.85
120.14
115.7
113.12
112.19
112.92
115.42
119.88
126.39
134.75
144.18
153.27
160.19
163.18
161.13
154
142.85
129.5
116.08
104.5
96.31
92.41
92.78
96.28
100.6
102.65
99.39
88.81
70.59
46.19
18.29
-10.17
-36.93
-61.13
-83.34
-105.32
-129.42
-157.99
-192.77
-234.29
-281.32
-330.45
-376.29
-412.23
-431.9
-430.83
-407.74
-364.72
-306.42
-238.49
-166.35
-94.64
-27.34
31.94
80.14
115.54
138.64
152.54
162.01
171.79
184.78
201.06
218.09
232.08
239.53
238.53
229.11
212.84
191.96
168.48
143.64
117.72
90.33
60.71
28.21
-7.28
-44.72
-81.49
-113.45
-135.61
-143.52
-134.8
-110.34
-74.38
-33.29
6.48
40.51
67.38
88.28
105.52
120.84
134.27
144.2
148.2
144.18
131.28
110.06
82.26
50.22
16.45
-16.69
-47.23
-73.9
-96.43
-115.74
-133.55
-151.61
-170.69
-189.85
-206.53
-217.4
-219.8
-212.88
-198
-178.3
-157.48
-138.68
-123.74
-113.22
-106.63
-103.02
-101.35
-100.72
-100.57
-100.57
-100.38
-99.38
-96.44
-90.23
-79.85
-65.46
-48.53
-31.39
-16.33
-4.67
3.57
9.34
13.72
17.24
19.71
20.74
20.35
19.17
18.16
18
18.66
19.46
19.55
18.46
16.48
14.44
13.2
13.15
13.88
14.35
13.38
10.13
4.56
-2.43
-9.21
-13.85
-14.81
-11.5
-4.7
3.77
11.59
16.85
18.71
17.59
14.86
12.28
11.42
13.28
18.15
25.64
34.74
44.14
52.47
58.7
62.31
63.41
62.44
59.99
56.54
52.46
48.16
44.12
40.85
38.69
37.6
37.13
36.61
35.44
33.3
30.23
26.51
22.56
18.72
15.24
12.22
9.64
7.32
5.03
2.53
-0.32
-3.41
-6.35
-8.54
-9.27
-7.93
-4.2
1.79
9.44
17.79
25.74
32.35
37.06
39.78
40.83
40.75
40.07
39.16
38.11
36.77
34.82
31.96
28.06
23.32
18.25
13.49
9.52
6.43
3.88
1.28
-1.83
-5.58
-9.72
-13.86
-17.77
-21.54
-25.54
-30.16
-35.54
-41.51
-47.58
-53.16
-57.68
-60.64
-61.65
-60.54
-57.58
-53.58
-49.85
-47.78
-48.26
-51.19
-55.57
-59.9
-62.92
-64.18
-64.02
-63.28
-62.7
-62.68
-63.34
-64.61
-66.07
-66.71
-64.51
-56.57
-39.86
-12.33
26.26
74.12
128.08
184.56
240.47
293.56
342.26
385.32
421.45
449.24
467.09
473.3
466.31
445.11
409.78
362.05
305.31
244.08
183
125.8
74.69
30.2
-8.36
-42.52
-74.38
-106.41
-141.05
-179.84
-222.32
-265.3
-303.28
-330.23
-342
-338.19
-322.44
-300.93
-279.78
-262.85
-250.85
-242.15
-234.39
-225.98
-216.56
-206.54
-196.27
-185.54
-173.68
-160.01
-144.34
-126.98
-108.64
-90.12
-72.21
-55.98
-42.86
-34.71
-33.32
-39.66
-53.24
-71.8
-91.63
-108.5
-118.76
-120.29
-112.82
-97.73
-77.09
-52.96
-26.77
0.56
28.29
55.51
81.24
104.86
126.58
147.45
168.74
191.01
213.3
233.25
248.1
256.12
257.54
254.52
250
246.16
243.43
240.48
235.08
225.48
211.21
193.26
173.48
153.68
134.89
117.15
99.76
81.84
62.94
43.33
24.06
6.62
-7.42
-16.91
-21.4
-21.24
-17.63
-12.41
-7.63
-5.02
-5.34
-7.95
-10.96
-11.81
-8.41
-0.04
12.27
26.12
38.5
46.64
48.37
42.17
27.2
3.44
-27.95
-64.53
-102.79
-138.92
-169.79
-193.52
-209.65
-218.77
-221.95
-220.44
-215.43
-208.04
-199.26
-189.8
-179.9
-169.18
-156.68
-140.85
-119.79
-91.69
-55.56
-12.12
35.61
82.44
121.98
148.51
158.71
152.93
135.07
111.2
87.67
69.26
58.24
54.32
55.62
59.59
63.86
66.75
67.38
65.7
62.36
58.64
56.06
55.89
58.47
62.58
65.26
62.46
50.62
28.78
0.21
-27.52
-44.57
-42.57
-18.3
24.33
75.28
122.13
154.74
168.59
165.32
150.4
129.58
105.83
78.81
46.81
10.03
-26.96
-55.35
-65.11
-49.48
-8.6
49.63
112.44
166.97
204.91
224.54
229.54
225.71
217.58
206.94
193.42
176.46
156.79
136.42
117.46
100.53
83.92
64.1
37.4
2.22
-39.82
-84.03
-124.71
-157.57
-181.56
-198.79
-212.81
-226.06
-238.44
-247.89
-252.41
-252.34
-250.86
-252.49
-260.33
-274.14
-290.32
-303.99
-311.2
-310.08
-300.36
-282.27
-256.08
-222.62
-184.21
-144.79
-108.54
-77.79
-51.71
-26.88
0.33
31.01
62.68
90.31
109.11
117.29
117.17
114.34
115.02
123.64
141.18
164.79
188.85
206.54
211.9
201.68
176.59
141.33
103.61
71.67
51.59
45.14
49.33
57.82
63.44
61.07
49.04
28.92
3.94
-23.05
-51.02
-80.93
-114.47
-152.31
-192.14
-228.37
-253.36
-259.9
-243.8
-205.11
-148.21
-80.53
-10.71
52.51
101.33
129.66
133.72
112.71
69.14
8.64
-60.88
-130.48
-191.65
-237.44
-263.44
-268.3
-254.03
-225.25
-187.92
-147.6
-108.15
-71.31
-37.19
-5.12
25.68
55.75
85.27
114.16
141.93
167.65
189.94
207.2
217.88
220.73
215.28
202.1
182.88
160.43
138.11
119.05
105.21
96.8
92.47
90.04
87.8
85.27
83.29
83.15
85.36
88.96
91.53
90.19
82.67
68.22
47.61
22.8
-3.51
-28.21
-48.16
-60.75
-64.64
-60.46
-51
-40.5
-33.46
-33.46
-42.33
-60.39
-87.11
-121.71
-163.35
-210.7
-261.24
-310.81
-354.02
-385.19
-399.98
-396.73
-377.5
-347.99
-316.29
-290.52
-276.25
-274.49
-281.4
-289.75
-291.77
-282.07
-259.25
-225.76
-186.23
-145.25
-105.94
-69.69
-36.91
-7.76
17.52
38.98
57.83
76.55
98.32
125.67
158.99
195.81
231.26
259.76
277.26
282.91
279.42
271.81
265.22
262.76
264.64
268.7
271.95
272.12
268.35
260.89
250.16
236.24
218.8
197.82
174.19
149.87
127.45
109.21
96.28
88.43
84.32
82.19
80.53
78.51
76.11
74.03
73.32
75.07
79.93
87.82
97.61
107.29
114.38
116.67
113.14
104.44
92.91
81.88
74.61
73
76.86
83.9
90.52
93.03
88.96
77.63
59.99
37.77
12.51
-15.04
-44.89
-77.36
-112.64
-150.76
-191.79
-235.84
-282.35
-329.12
-371.61
-403.58
-419.16
-415.41
-394.04
-361
-324.1
-289.93
-261.66
-238.82
-218.73
-198.62
-176.9
-153.3
-128.07
-101.18
-72.29
-41.26
-8.76
23.62
53.7
79.5
99.85
114.5
123.94
128.86
129.76
126.97
120.83
112.03
101.89
92.12
84.37
79.58
77.61
77.3
76.87
74.61
69.4
60.9
49.49
35.84
20.68
4.69
-11.51
-27.22
-41.69
-54.24
-64.43
-72.23
-78.03
-82.55
-86.66
-91.02
-95.88
-101.06
-105.94
-109.65
-111.13
-109.18
-102.37
-89.21
-68.4
-39.21
-1.99
41.57
88.36
134.22
174.59
205.55
224.89
232.67
231.29
224.61
216.73
210.72
207.96
208.32
210.9
214.8
219.67
225.47
231.96
238.2
242.56
243.16
238.64
228.61
213.67
194.99
173.86
151.4
128.79
107.6
89.86
77.5
71.19
69.37
68.17
62.49
47.85
22.07
-14.2
-58.17
-106.36
-155.67
-203.76
-248.67
-288.49
-321.28
-345.55
-360.8
-367.77
-367.96
-362.98
-354.17
-342.36
-327.91
-310.76
-290.17
-264.65
-232.25
-191.28
-141.33
-84.11
-23.48
35.37
87.41
129.19
159.65
179.87
192.05
198.21
199.48
196.14
188.34
176.92
163.59
150.5
139.27
130.12
121.95
113.15
102.81
91.43
80.7
72.48
67.5
64.58
60.89
53.21
39.44
19.76
-3.27
-25.55
-42.83
-52.02
-51.91
-43.16
-27.75
-8.33
12.44
32.44
50.33
65.58
78.22
88.33
95.57
99.12
97.89
90.99
78.16
59.76
36.61
9.66
-19.87
-50.31
-79.36
-104.45
-123.36
-135.03
-139.75
-138.83
-133.72
-125.3
-113.8
-99.25
-82.04
-63.25
-44.37
-26.88
-11.82
0.3
9.3
15.11
17.78
17.47
14.63
9.83
3.66
-3.39
-10.85
-18.21
-24.96
-30.69
-35.37
-39.35
-43.18
-47.36
-52.01
-56.97
-62.08
-67.53
-74.01
-82.54
-94.08
-108.9
-125.86
-142.09
-153.25
-154.72
-143.28
-118.66
-84.09
-45.38
-9.06
19.68
38.19
46.25
45.11
36.47
22.01
3.65
-16.01
-33.8
-46.72
-53.02
-53
-48.68
-42.83
-37.83
-34.85
-33.75
-33.53
-32.96
-31.09
-27.49
-22.18
-15.68
-8.85
-2.85
1.1
1.99
-0.67
-6.82
-15.99
-27.51
-40.7
-54.91
-69.22
-82.28
-92.21
-96.8
-93.96
-82.23
-61.04
-30.74
7.46
51.63
98.92
145.53
186.96
218.8
237.94
243.63
237.85
224.71
209.01
194.8
184.36
178.1
175.18
174.25
174.01
173.34
171.18
166.55
158.68
147.31
132.87
116.39
99.19
82.36
66.36
50.91
35.29
18.87
1.75
-14.93
-29.1
-38.35
-40.79
-35.74
-24.01
-7.59
10.91
29.07
45.16
58.33
68.41
75.51
79.57
80.07
76.15
66.74
50.92
28.23
-1
-35.46
-72.64
-108.93
-140.06
-161.8
-170.96
-166.23
-148.56
-121.06
-88.2
-54.83
-25.24
-2.35
12.62
20.07
21.62
19.48
15.81
12.29
9.83
8.71
8.82
9.81
11.3
12.93
14.5
15.95
17.4
19.17
21.77
25.71
31.34
38.56
46.57
54.04
59.29
60.95
58.43
52.18
43.49
33.89
24.61
16.29
9.19
3.52
-0.26
-1.56
-0.04
3.98
9.46
14.9
18.84
20.28
18.73
14.14
6.77
-2.84
-13.97
-25.71
-37.23
-47.99
-57.95
-67.52
-77.32
-87.75
-98.84
-110.17
-121.04
-130.63
-138.23
-143.35
-145.82
-145.83
-143.87
-140.57
-136.34
-131.13
-124.54
-116.07
-105.6
-93.55
-80.84
-68.42
-56.93
-46.45
-36.75
-27.68
-19.48
-12.74
-8.07
-5.64
-4.94
-4.93
-4.48
-2.86
0.05
3.89
8.06
12.09
15.74
18.91
21.57
23.62
24.92
25.35
24.91
23.73
21.98
19.82
17.35
14.73
12.3
10.65
10.34
11.59
13.98
16.62
18.51
19
18.05
16.04
13.42
10.42
7.01
3.24
-0.45
-3.15
-3.83
-1.87
2.48
8.11
13.53
17.59
19.99
21.38
22.94
25.63
29.6
34.07
37.64
39.04
37.77
34.29
29.73
25.16
21.04
17.19
13.16
8.79
4.51
1.1
-0.73
-0.99
-0.39
-0.05
-0.79
-2.69
-5.05
-6.84
-7.35
-6.62
-5.44
-4.98
-6.19
-9.45
-14.4
-20.19
-25.69
-29.81
-31.49
-29.69
-23.39
-11.89
4.82
25.73
48.79
71.3
90.56
104.63
112.71
115.05
112.51
105.97
96.12
83.64
69.55
55.35
42.79
33.26
27.13
23.59
21.02
17.68
12.49
5.36
-2.93
-11.2
-18.32
-23.54
-26.58
-27.52
-26.68
-24.48
-21.36
-17.7
-13.85
-10.07
-6.48
-3.12
0.21
3.8
7.92
12.63
17.67
22.41
26.02
27.73
27.1
24.15
19.31
13.27
6.73
0.28
-5.78
-11.33
-16.36
-20.89
-24.84
-28.04
-30.24
-31.26
-31.02
-29.66
-27.48
-24.9
-22.34
-20.17
-18.68
-18.01
-18.2
-19.14
-20.6
-22.24
-23.68
-24.55
-24.66
-23.97
-22.69
-21.07
-19.33
-17.51
-15.51
-13.2
-10.59
-7.92
-5.59
-4.03
-3.38
-3.44
-3.68
-3.54
-2.76
-1.47
-0.16
0.67
0.77
0.28
-0.31
-0.52
-0.12
0.71
1.52
1.74
1.01
-0.75
-3.36
-6.37
-9.18
-11.05
-11.18
-8.89
-3.91
3.44
12.19
20.96
28.4
33.56
36.21
36.73
35.89
34.38
32.66
30.79
28.68
26.22
23.47
20.6
17.74
14.89
11.85
8.36
4.34
-0.09
-4.6
-8.86
-12.74
-16.33
-19.82
-23.3
-26.71
-29.79
-32.37
-34.34
-35.75
-36.56
-36.55
-35.35
-32.61
-28.23
-22.55
-16.29
-10.27
-5.12
-1.09
1.9
4.1
5.68
6.69
7.07
6.81
6.05
5.08
4.25
3.75
3.55
3.42
3.06
2.35
1.34
0.26
-0.62
-1.22
-1.68
-2.38
-3.75
-6.17
-9.77
-14.31
-19.22
-23.67
-26.81
-27.92
-26.65
-23.03
-17.48
-10.73
-3.67
2.77
7.77
10.79
11.61
10.51
8.09
5.16
2.43
0.28
-1.32
-2.7
-4.28
-6.31
-8.66
-10.98
-12.83
-14.04
-14.88
-16.03
-18.26
-22.14
-27.71
-34.45
-41.43
-47.65
-52.27
-54.89
-55.6
-54.93
-53.66
-52.54
-51.85
-50.94
-48.13
-40.98
-27.21
-5.7
22.64
54.78
86.34
112.81
130.74
138.47
136.26
125.92
110.26
92.35
75.03
60.52
50.16
44.42
43.13
45.71
51.32
58.87
66.87
73.4
76.51
74.78
67.93
56.98
43.87
30.64
18.78
8.8
0.51
-6.49
-12.38
-16.86
-19.39
-19.54
-17.43
-13.64
-9.05
-4.4
-0.08
3.84
7.38
10.37
12.37
12.86
11.47
8.23
3.64
-1.46
-6.07
-9.32
-10.7
-10.26
-8.67
-7
-6.44
-7.88
-11.61
-17.23
-23.82
-30.22
-35.33
-38.29
-38.62
-36.31
-31.82
-26.07
-20.2
-15.17
-11.45
-8.89
-6.89
-4.85
-2.47
0.11
2.39
3.94
4.56
4.47
4.14
4.17
5.2
7.79
12.41
19.24
28.1
38.38
49.19
59.69
69.4
78.28
86.62
94.48
101.18
105.11
103.96
95.59
79.07
55.37
27.26
-1.49
-27.38
-48.2
-63.41
-73.76
-80.48
-84.56
-86.51
-86.58
-85.21
-83.16
-81.3
-80.17
-79.71
-79.32
-78.43
-76.94
-75.53
-75.34
-77.39
-81.9
-87.94
-93.77
-97.39
-97.4
-93.43
-86.17
-76.95
-67.22
-58.11
-50.22
-43.67
-38.21
-33.44
-28.93
-24.36
-19.62
-14.83
-10.22
-6.05
-2.39
0.85
3.85
6.76
9.62
12.35
14.83
16.96
18.75
20.22
21.37
22.14
22.4
22.09
21.3
20.29
19.36
18.71
18.31
17.96
17.35
16.26
14.62
12.57
10.28
7.89
5.4
2.71
-0.28
-3.49
-6.68
-9.45
-11.36
-12.16
-11.76
-10.3
-8.02
-5.18
-1.97
1.58
5.47
9.65
13.87
17.73
20.75
22.59
23.21
22.87
22.06
21.25
20.71
20.42
20.14
19.66
18.88
17.92
17
16.3
15.79
15.32
14.69
13.75
12.49
10.98
9.3
7.48
5.49
3.32
1.07
-1.1
-3.03
-4.65
-6.04
-7.39
-8.93
-10.83
-13.05
-15.41
-17.54
-19.02
-19.45
-18.63
-16.52
-13.32
-9.35
-4.96
-0.48
3.87
7.87
11.34
14.1
15.99
16.97
17.14
16.75
16.08
15.36
14.74
14.27
13.92
13.66
13.44
13.17
12.75
12.17
11.47
10.81
10.32
9.97
9.54
8.59
6.69
3.65
-0.42
-5.09
-9.8
-14.07
-17.6
-20.35
-22.41
-23.95
-25.12
-26.09
-26.96
-27.78
-28.4
-28.5
-27.59
-25.17
-20.96
-15.06
-7.95
-0.48
6.47
12.24
16.53
19.44
21.26
22.26
22.59
22.28
21.38
20.1
18.85
18.11
18.29
19.56
21.84
24.85
28.26
31.79
35.22
38.35
40.98
42.89
43.92
44.02
43.29
41.94
40.24
38.42
36.63
34.84
32.91
30.65
28.01
25.14
22.46
20.53
19.63
19.46
18.99
16.82
11.84
3.75
-6.82
-18.77
-31.28
-44.15
-57.57
-71.49
-84.93
-96.05
-102.82
-104.15
-100.54
-93.94
-86.79
-80.93
-76.84
-73.84
-70.75
-66.82
-62.02
-56.99
-52.53
-49.13
-46.73
-44.91
-43.2
-41.39
-39.64
-38.38
-37.98
-38.52
-39.68
-40.91
-41.57
-41.18
-39.5
-36.45
-32.01
-26.16
-18.93
-10.57
-1.67
6.8
13.8
18.5
20.67
20.65
19.2
17.06
14.6
11.71
7.97
3.08
-2.8
-8.93
-14.25
-17.86
-19.51
-19.83
-20.12
-21.88
-26.22
-33.45
-43.04
-53.7
-63.71
-71.1
-73.62
-69.01
-55.38
-31.83
0.93
40.45
83.18
125.7
165.64
202
234.33
261.38
280.18
286.31
275.72
247.02
202.93
149.98
96.49
49.76
13.94
-10.4
-25.13
-32.84
-35.48
-34.12
-29.58
-23.29
-17.67
-15.49
-18.85
-28.11
-41.58
-56.08
-68.18
-75.52
-77.5
-75.41
-71.65
-68.57
-67.64
-69.12
-72.33
-76.18
-79.74
-82.34
-83.59
-83.17
-80.77
-76.25
-69.72
-61.62
-52.59
-43.36
-34.62
-26.95
-20.86
-16.7
-14.48
-13.75
-13.6
-13.06
-11.37
-8.03
-2.69
5.35
17.21
34.03
56.17
82.47
110.26
136.25
157.78
173.71
184.46
191.24
194.97
195.8
193.39
187.59
179.03
169.02
158.88
149.12
139.16
127.67
113.37
95.79
75.47
53.57
31.17
8.81
-13.58
-36.24
-58.93
-80.5
-98.85
-111.6
-116.98
-114.75
-106.53
-95.31
-84.29
-75.73
-70.35
-67.61
-66.75
-67.67
-71.25
-78.7
-90.48
-105.47
-121.13
-134.37
-142.88
-146.12
-145.31
-142.73
-140.57
-140.07
-141.19
-142.77
-143.07
-140.45
-134
-123.76
-110.65
-95.92
-80.58
-65.12
-49.57
-33.93
-18.47
-3.83
9.22
20.18
28.9
35.54
40.39
43.81
46.46
49.52
54.66
63.65
77.6
96.37
118.4
141.17
162.08
179.33
192.27
201.16
206.55
208.62
206.9
200.57
188.98
172.12
150.79
126.37
100.5
74.84
50.99
30.53
14.89
5.04
1.09
2.08
6.12
10.79
13.88
13.84
10.09
2.9
-6.66
-17.23
-27.45
-36.42
-43.82
-49.94
-55.36
-60.54
-65.56
-70.07
-73.46
-75.14
-74.78
-72.41
-68.39
-63.28
-57.68
-52.06
-46.69
-41.59
-36.69
-31.94
-27.47
-23.51
-20.2
-17.22
-13.53
-7.46
2.74
18.04
37.82
59.74
80.29
96.03
104.83
106.62
103.18
97.18
90.97
85.69
81.04
75.85
68.86
59.46
47.87
35.06
22.3
10.87
1.8
-4.26
-7.03
-6.72
-4.02
0.01
4.21
7.68
10.06
11.54
12.54
13.2
13.07
10.88
4.67
-7.79
-28.22
-57.01
-92.31
-129.87
-163.99
-189.54
-204.29
-210.39
-213.93
-222.41
-241.14
-270.54
-305.82
-339.12
-362.98
-373.05
-368.84
-352.45
-326.51
-292.8
-252.08
-205.07
-153.27
-98.91
-44.18
9.68
62.36
113.52
161.65
203.66
235.67
254.65
259.89
253.4
239.22
222.03
205.85
193.3
185.74
183.56
186.6
194.24
205.32
218.16
230.77
241.2
248.03
250.62
249.17
244.66
238.54
232.07
225.89
219.65
212.3
202.77
190.8
177.32
164
152.38
142.64
133
120.12
100.29
70.76
30.79
-18.25
-73.1
-129.28
-181.68
-225.37
-256.38
-272.79
-275.38
-267.42
-253.58
-238.17
-223.83
-211.06
-198.84
-185.86
-171.43
-155.62
-138.88
-121.52
-103.68
-85.59
-67.97
-51.88
-38.27
-27.69
-20.23
-15.96
-15.31
-19.03
-27.55
-40.13
-54.57
-67.68
-76.57
-79.75
-77.61
-71.92
-64.63
-57.07
-49.72
-42.66
-36.18
-31.02
-28.07
-27.87
-30.2
-34.07
-38.14
-41.19
-42.54
-42.15
-40.42
-37.83
-34.49
-29.93
-23.3
-13.86
-1.54
12.66
26.88
39.01
47.51
51.89
52.73
51.15
48.32
45.05
41.77
38.79
36.42
34.96
34.47
34.59
34.48
33.21
30.19
25.47
19.76
14.05
9.16
5.26
1.8
-2.23
-7.91
-15.81
-25.82
-37.08
-48.25
-57.72
-63.89
-65.43
-61.56
-52.37
-38.98
-23.37
-7.9
5.4
15.46
22.34
26.96
30.48
33.67
36.63
38.96
40.14
39.92
38.49
36.38
34.19
32.41
31.24
30.55
30.02
29.24
27.86
25.65
22.61
18.9
14.76
10.43
6.02
1.48
-3.22
-7.88
-11.97
-14.58
-14.78
-11.92
-5.95
2.52
12.42
22.54
31.93
40.03
46.64
51.76
55.4
57.55
58.19
57.47
55.76
53.59
51.55
50.04
49.17
48.77
48.54
48.35
48.34
48.82
49.99
51.63
52.97
52.95
50.63
45.64
38.39
29.95
