1.3
0.52
-0.4
-1.39
-2.33
-3.17
-3.98
-4.93
-6.28
-8.26
-11.03
-14.55
-18.49
-22.22
-24.9
-25.75
-24.19
-20.2
-14.31
-7.42
-0.52
5.67
10.89
15.12
18.35
20.46
21.1
19.99
17.14
13.01
8.41
4.26
1.22
-0.49
-1.07
-1.03
-0.9
-1.09
-1.8
-2.96
-4.38
-5.83
-7.2
-8.61
-10.35
-12.8
-16.15
-20.29
-24.67
-28.4
-30.49
-30.19
-27.22
-21.94
-15.12
-7.74
-0.66
5.56
10.66
14.55
17.21
18.51
18.34
16.72
13.9
10.47
7.11
4.38
2.56
1.5
0.8
0.05
-0.96
-2.24
-3.62
-4.9
-6.02
-7.11
-8.37
-10.13
-12.64
-16
-20.08
-24.42
-28.25
-30.69
-30.96
-28.65
-23.91
-17.28
-9.57
-1.61
5.87
12.33
17.3
20.46
21.65
21.04
19.03
16.21
13.18
10.45
8.29
6.82
5.95
5.51
5.21
4.76
3.95
2.75
1.33
-0.1
-1.43
-2.8
-4.59
-7.28
-11.17
-16.21
-21.88
-27.27
-31.34
-33.12
-32.02
-27.98
-21.43
-13.2
-4.22
4.57
12.49
18.99
23.71
26.41
27.04
25.76
23.1
19.8
16.6
14.06
12.39
11.47
10.98
10.57
9.96
8.98
7.57
5.77
3.7
1.55
-0.51
-2.46
-4.53
-7.16
-10.85
-15.83
-21.77
-27.74
-32.49
-34.77
-33.84
-29.55
-22.38
-13.25
-3.21
6.68
15.57
22.77
27.86
30.73
31.49
30.46
28.15
25.1
21.89
19.03
16.9
15.61
14.91
14.31
13.27
11.53
9.13
6.49
4.08
2.21
0.87
-0.3
-1.86
-4.42
-8.39
-13.89
-20.63
-27.84
-34.36
-38.91
-40.39
-38.19
-32.35
-23.56
-12.92
-1.7
8.95
18.15
25.36
30.38
33.23
34.07
33.12
30.67
27.1
22.92
18.77
15.26
12.86
11.72
11.6
11.99
12.27
11.99
10.92
9.14
6.9
4.51
2.12
-0.29
-2.99
-6.34
-10.6
-15.84
-21.79
-27.89
-33.38
-37.36
-38.95
-37.42
-32.44
-24.25
-13.75
-2.27
8.74
18.15
25.43
30.51
33.59
34.78
34.02
31.25
26.68
21.06
15.48
11.09
8.61
8.05
8.78
9.87
10.48
10.19
9.03
7.25
5.15
2.89
0.51
-1.99
-4.6
-7.38
-10.48
-14.18
-18.7
-24.02
-29.6
-34.41
-37.16
-36.76
-32.76
-25.47
-15.83
-5.06
5.69
15.46
23.46
29.03
31.72
31.35
28.28
23.32
17.65
12.4
8.42
6.08
5.24
5.44
6.1
6.7
6.86
6.41
5.37
3.83
1.91
-0.32
-2.86
-5.83
-9.37
-13.67
-18.72
-24.29
-29.73
-34.04
-36.08
-34.92
-30.29
-22.58
-12.81
-2.22
8.05
17.17
24.59
29.98
33.16
34.05
32.8
29.77
25.47
20.45
15.25
10.36
6.23
3.16
1.25
0.35
0.06
-0.09
-0.45
-1.17
-2.26
-3.8
-5.89
-8.77
-12.64
-17.56
-23.25
-29.12
-34.27
-37.64
-38.23
-35.37
-29.02
-19.8
-8.89
2.32
12.61
21.2
27.77
32.27
34.69
34.99
33.14
29.39
24.3
18.79
13.84
10.21
8.19
7.61
7.83
8.09
7.78
6.59
4.56
1.98
-0.79
-3.56
-6.39
-9.52
-13.32
-18
-23.46
-29.18
-34.18
-37.27
-37.32
-33.62
-26.22
-15.95
-4.23
7.24
17.06
24.4
29.15
31.64
32.33
31.59
29.6
26.55
22.75
18.81
15.4
13.02
11.72
11.1
10.45
9.17
7.08
4.42
1.78
-0.36
-1.83
-2.93
-4.33
-6.74
-10.65
-16.11
-22.64
-29.33
-35.06
-38.67
-39.29
-36.48
-30.36
-21.59
-11.23
-0.48
9.63
18.37
25.39
30.55
33.78
35.02
34.31
31.86
28.11
23.72
19.35
15.51
12.54
10.47
9.19
8.42
7.86
7.22
6.32
5.16
3.86
2.5
0.95
-1.1
-4.1
-8.29
-13.57
-19.45
-25.26
-30.34
-34.12
-36.1
-35.79
-32.76
-26.87
-18.44
-8.33
2.24
12.12
20.45
26.85
31.25
33.65
34.01
32.33
28.8
24
18.84
14.32
11.22
9.77
9.65
10.15
10.53
10.25
9.18
7.5
5.54
3.55
1.53
-0.66
-3.27
-6.43
-10.19
-14.49
-19.21
-24.2
-29.16
-33.62
-36.84
-38
-36.3
-31.38
-23.45
-13.36
-2.4
8.05
16.89
23.49
27.66
29.51
29.28
27.24
23.72
19.19
14.3
9.8
6.4
4.47
3.98
4.52
5.45
6.19
6.36
5.91
4.96
3.71
2.34
0.89
-0.71
-2.66
-5.18
-8.51
-12.73
-17.68
-22.81
-27.21
-29.85
-29.92
-27.1
-21.73
-14.63
-6.74
1.07
8.18
14.19
18.72
21.48
22.29
21.26
18.79
15.48
11.92
8.51
5.49
2.96
1.03
-0.16
-0.52
-0.17
0.54
1.16
1.28
0.63
-0.78
-2.82
-5.26
-7.94
-10.77
-13.79
-17
-20.29
-23.33
-25.55
-26.29
-24.94
-21.23
-15.33
-7.93
-0.05
7.32
13.37
17.68
20.11
20.68
19.52
16.89
13.26
9.29
5.69
3.03
1.45
0.63
0
-0.92
-2.22
-3.63
-4.74
-5.38
-5.77
-6.42
-7.72
-9.84
-12.63
-15.87
-19.41
-23.23
-27.13
-30.53
-32.49
-31.96
-28.33
-21.79
-13.34
-4.38
3.83
10.48
15.31
18.35
19.74
19.58
18.07
15.57
12.66
9.92
7.74
6.15
4.91
3.75
2.49
1.25
0.25
-0.31
-0.47
-0.5
-0.85
-1.95
-4.1
-7.39
-11.71
-16.7
-21.81
-26.26
-29.14
-29.65
-27.31
-22.25
-15.12
-6.94
1.21
8.51
14.46
18.86
21.61
22.62
21.88
19.59
16.34
12.93
10.19
8.6
8.1
8.18
8.17
7.6
6.4
4.86
3.29
1.92
0.74
-0.48
-1.99
-3.99
-6.64
-10.04
-14.18
-18.91
-23.62
-27.42
-29.25
-28.3
-24.32
-17.74
-9.53
-0.79
7.5
14.64
20.13
23.61
24.87
23.88
21.02
17.06
13.01
9.87
8.18
7.99
8.79
9.87
10.49
10.25
9.11
7.33
5.33
3.47
1.94
0.69
-0.51
-2.06
-4.32
-7.56
-11.79
-16.69
-21.63
-25.77
-28.32
-28.68
-26.59
-22.15
-15.76
-8.06
0.14
7.96
14.56
19.28
21.8
22.24
21.05
18.95
16.66
14.69
13.32
12.54
12.15
11.89
11.55
11.07
10.43
9.65
8.66
7.36
5.68
3.72
1.75
0.06
-1.24
-2.35
-3.71
-5.81
-8.89
-12.87
-17.33
-21.65
-25.29
-27.8
-28.86
-28.18
-25.55
-20.97
-14.77
-7.64
-0.47
5.92
11.01
14.69
17.12
18.5
18.96
18.54
17.26
15.34
13.13
11.1
9.54
8.61
8.19
8.12
8.27
8.52
8.78
8.88
8.59
7.75
6.3
4.37
2.21
0.04
-2.05
-4.14
-6.42
-9.09
-12.22
-15.68
-19.15
-22.15
-24.12
-24.56
-23.14
-19.84
-15.01
-9.28
-3.36
2.12
6.8
10.55
13.33
15.07
15.66
14.98
13.12
10.48
7.69
5.4
4.01
3.52
3.56
3.68
3.55
3.14
2.63
2.21
1.94
1.64
1.1
0.16
-1.13
-2.57
-4.06
-5.65
-7.62
-10.23
-13.56
-17.2
-20.46
-22.48
-22.66
-20.81
-17.21
-12.44
-7.13
-1.81
3.16
7.47
10.83
12.98
13.75
13.19
11.61
9.51
7.43
5.72
4.48
3.59
2.86
2.18
1.59
1.23
1.21
1.48
1.73
1.6
0.84
-0.61
-2.68
-5.21
-8.14
-11.46
-15.09
-18.68
-21.65
-23.27
-22.96
-20.52
-16.22
-10.71
-4.75
0.98
6.05
10.22
13.34
15.27
15.91
15.27
13.52
11.02
8.26
5.68
3.57
1.99
0.8
-0.2
-1.12
-1.99
-2.74
-3.32
-3.75
-4.16
-4.68
-5.43
-6.52
-8.08
-10.28
-13.24
-16.87
-20.69
-23.93
-25.61
-25
-21.8
-16.34
-9.43
-2.07
4.79
10.44
14.49
16.81
17.48
16.81
15.23
13.25
11.29
9.58
8.17
6.94
5.74
4.49
3.15
1.73
0.31
-1.02
-2.13
-2.91
-3.38
-3.67
-4.08
-5.01
-6.84
-9.8
-13.87
-18.62
-23.28
-26.81
-28.26
-27.05
-23.17
-17.2
-10.07
-2.73
4.07
9.96
14.72
18.23
20.35
20.96
20.1
18.12
15.56
13.03
11.01
9.73
9.13
8.92
8.7
8.12
7.01
5.43
3.59
1.77
0.15
-1.26
-2.65
-4.25
-6.32
-8.98
-12.22
-15.92
-19.83
-23.56
-26.51
-28.02
-27.49
-24.62
-19.6
-13.02
-5.7
1.54
8.08
13.59
17.88
20.94
22.73
23.3
22.8
21.55
19.92
18.23
16.76
15.61
14.76
14.08
13.44
12.69
11.8
10.77
9.71
8.61
7.42
5.94
4.04
1.72
-0.79
-3.24
-5.5
-7.74
-10.44
-14.12
-18.99
-24.66
-30.19
-34.28
-35.81
-34.13
-29.29
-22.04
-13.48
-4.77
3.18
9.79
14.87
18.46
20.75
21.96
22.27
21.9
21.05
19.96
18.85
17.91
17.24
16.83
16.62
16.49
16.33
16.08
15.73
15.29
14.72
13.91
12.68
10.84
8.35
5.38
2.18
-0.92
-3.72
-6.22
-8.57
-11
-13.72
-16.85
-20.43
-24.35
-28.42
-32.22
-35.19
-36.66
-36.02
-32.96
-27.59
-20.45
-12.4
-4.37
2.89
8.94
13.63
17.03
19.27
20.43
20.56
19.67
17.96
15.73
13.49
11.69
10.66
10.42
10.76
11.28
11.59
11.41
10.64
9.33
7.64
5.79
3.93
2.16
0.52
-1.02
-2.55
-4.17
-5.97
-8.1
-10.66
-13.73
-17.23
-20.83
-24
-26.09
-26.55
-25.13
-21.88
-17.1
-11.25
-4.81
1.72
7.85
13.06
16.97
19.35
20.17
19.59
17.84
15.18
11.95
8.54
5.46
3.19
2.07
2.12
2.98
4.01
4.54
4.14
2.73
0.62
-1.68
-3.71
-5.27
-6.44
-7.65
-9.39
-12.07
-15.81
-20.31
-24.87
-28.58
-30.55
-30.14
-27.13
-21.79
-14.7
-6.69
1.44
8.93
15.13
19.52
21.77
21.84
20.02
16.87
13.15
9.57
6.65
4.63
3.47
2.91
2.64
2.34
1.8
0.94
-0.26
-1.72
-3.39
-5.19
-7.04
-8.97
-11.09
-13.73
-17.21
-21.75
-27.11
-32.48
-36.7
-38.5
-37.07
-32.27
-24.73
-15.52
-5.86
3.25
11.16
17.46
21.95
24.5
25.05
23.71
20.74
16.62
12.06
7.87
4.72
2.91
2.2
1.94
1.41
0.26
-1.33
-2.79
-3.6
-3.67
-3.47
-3.89
-5.73
-9.42
-14.78
-21.17
-27.7
-33.43
-37.49
-39.08
-37.58
-32.69
-24.67
-14.36
-3.09
7.72
16.87
23.7
28.1
30.33
30.8
29.85
27.73
24.63
20.86
16.88
13.25
10.5
8.88
8.27
8.25
8.25
7.78
6.64
4.94
2.97
0.94
-1.08
-3.39
-6.42
-10.56
-15.86
-21.86
-27.69
-32.23
-34.42
-33.56
-29.45
-22.46
-13.34
-3.04
7.44
17.21
25.44
31.49
34.93
35.73
34.2
31.09
27.21
23.33
19.99
17.42
15.63
14.42
13.49
12.44
10.98
8.94
6.48
3.97
1.83
0.3
-0.78
-1.98
-4.11
-7.78
-13.2
-19.92
-26.92
-32.84
-36.35
-36.49
-32.89
-25.83
-16.17
-5.05
6.35
16.94
25.93
32.73
37
38.6
37.71
34.75
30.44
25.57
20.88
16.89
13.86
11.81
10.64
10.15
10.09
10.11
9.88
9.15
7.82
5.88
3.49
0.69
-2.55
-6.36
-10.89
-16.24
-22.26
-28.54
-34.32
-38.55
-40.15
-38.27
-32.58
-23.53
-12.16
0.1
11.84
21.99
29.91
35.29
38.01
38.12
35.86
31.75
26.55
21.2
16.55
13.15
11.14
10.25
9.96
9.73
9.18
8.23
6.99
5.69
4.52
3.45
2.29
0.73
-1.54
-4.74
-8.96
-14.15
-20.03
-26.1
-31.49
-35.11
-35.93
-33.26
-27.16
-18.37
-8.16
2.18
11.65
19.7
26.07
30.62
33.14
33.44
31.56
27.94
23.37
18.82
15.04
12.41
10.86
10.1
9.77
9.58
9.37
9.03
8.5
7.69
6.51
4.8
2.4
-0.85
-4.93
-9.69
-14.8
-19.9
-24.61
-28.57
-31.37
-32.48
-31.28
-27.27
-20.44
-11.39
-1.29
8.49
16.8
23.04
27.09
29.2
29.59
28.43
25.88
22.17
17.7
13.02
8.76
5.44
3.38
2.57
2.72
3.36
3.98
4.17
3.76
2.8
1.45
-0.22
-2.32
-5.12
-8.87
-13.58
-18.98
-24.45
-29.25
-32.59
-33.79
-32.29
-27.84
-20.63
-11.35
-1.12
8.75
17.11
23.26
27.01
28.53
28.1
25.97
22.35
17.65
12.54
7.98
4.81
3.46
3.69
4.72
5.59
5.57
4.44
2.5
0.29
-1.67
-3.19
-4.39
-5.65
-7.43
-10.16
-14.08
-19.14
-24.83
-30.22
-34.13
-35.43
-33.43
-28.11
-20.18
-10.81
-1.24
7.52
14.85
20.47
24.35
26.46
26.89
25.78
23.47
20.42
17.19
14.27
12
10.49
9.61
9.07
8.6
7.99
7.19
6.2
5.1
3.91
2.6
1.1
-0.7
-2.93
-5.75
-9.32
-13.74
-18.9
-24.43
-29.65
-33.7
-35.7
-35.05
-31.55
-25.4
-17.24
-7.97
1.42
9.98
16.93
21.81
24.5
25.26
24.58
23.06
21.24
19.51
18.01
16.72
15.49
14.2
12.81
11.37
10.04
9.02
8.35
7.88
7.26
6.11
4.23
1.71
-1.13
-3.97
-6.68
-9.41
-12.48
-16.16
-20.44
-25.03
-29.41
-32.96
-35.16
-35.52
-33.71
-29.53
-23.09
-14.89
-5.84
3.02
10.74
16.7
20.73
22.91
23.45
22.57
20.45
17.35
13.63
9.77
6.25
3.47
1.56
0.56
0.36
0.77
1.53
2.26
2.56
2.06
0.54
-1.93
-5.08
-8.43
-11.45
-13.66
-14.78
-14.79
-13.97
-12.9
-12.31
-12.81
-14.64
-17.47
-20.43
-22.31
-21.99
-18.79
-12.79
-4.8
3.9
11.95
18.34
22.67
25.01
25.8
25.42
24.17
22.16
19.51
16.45
13.32
10.5
8.21
6.44
5.02
3.75
2.56
1.51
0.74
0.3
0.09
-0.18
-0.86
-2.17
-4.15
-6.55
-9.04
-11.35
-13.44
-15.46
-17.72
-20.48
-23.81
-27.43
-30.78
-33.04
-33.4
-31.26
-26.52
-19.58
-11.34
-2.96
4.53
10.5
14.76
17.55
19.21
20.02
20.11
19.55
18.48
17.17
15.89
14.8
13.88
12.97
11.92
10.69
9.39
8.24
7.35
6.71
6.07
5.13
3.63
1.42
-1.42
-4.7
-8.18
-11.69
-15.19
-18.69
-22.13
-25.18
-27.27
-27.7
-25.92
-21.86
-16.03
-9.41
-3.07
2.24
6.22
9.02
10.88
11.85
11.81
10.54
8.14
5.12
2.28
0.42
-0.11
0.43
1.27
1.58
0.91
-0.68
-2.68
-4.51
-5.75
-6.34
-6.5
-6.66
-7.27
-8.78
-11.41
-15.12
-19.43
-23.5
-26.32
-27.01
-25.21
-21.17
-15.59
-9.3
-3.01
2.87
8.09
12.37
15.4
16.83
16.47
14.51
11.46
8.01
4.82
2.27
0.46
-0.73
-1.49
-2.03
-2.52
-3.11
-3.9
-4.96
-6.2
-7.5
-8.81
-10.22
-12.05
-14.61
-18.01
-21.93
-25.61
-28.1
-28.58
-26.71
-22.67
-17.01
-10.49
-3.8
2.52
8.03
12.35
15.13
16.2
15.63
13.77
11.17
8.45
6.09
4.34
3.15
2.28
1.47
0.57
-0.34
-1.09
-1.49
-1.62
-1.73
-2.2
-3.34
-5.26
-7.91
-11.2
-15.01
-19.14
-23.22
-26.57
-28.26
-27.49
-23.86
-17.65
-9.78
-1.45
6.26
12.69
17.62
21.07
23.06
23.61
22.71
20.56
17.6
14.48
11.83
10.02
9
8.37
7.66
6.62
5.3
4.06
3.17
2.65
2.18
1.23
-0.66
-3.65
-7.53
-11.86
-16.06
-19.65
-22.19
-23.24
-22.42
-19.43
-14.31
-7.53
0.08
7.47
13.78
18.5
21.53
22.99
23.11
22.1
20.17
17.62
14.92
12.63
11.12
10.43
10.19
9.9
9.18
8
6.71
5.75
5.38
5.4
5.26
4.27
1.93
-1.84
-6.67
-11.97
-17.05
-21.26
-24.06
-25.03
-23.86
-20.46
-15.1
-8.32
-0.92
6.25
12.48
17.32
20.61
22.36
22.72
21.89
20.12
17.72
15.08
12.57
10.45
8.87
7.86
7.36
7.23
7.24
7.13
6.63
5.54
3.85
1.79
-0.35
-2.37
-4.29
-6.36
-8.89
-12.03
-15.53
-18.86
-21.26
-22.16
-21.24
-18.47
-14.05
-8.33
-1.75
5.11
11.54
16.8
20.24
21.57
20.91
18.79
15.96
13.15
10.89
9.5
8.99
9.18
9.79
10.48
10.86
10.69
9.87
8.49
6.77
4.95
3.18
1.44
-0.39
-2.59
-5.33
-8.7
-12.53
-16.42
-19.78
-21.93
-22.3
-20.51
-16.58
-10.83
-3.94
3.2
9.67
14.68
17.71
18.66
17.77
15.51
12.5
9.34
6.58
4.65
3.8
3.99
4.91
5.96
6.5
6.13
4.8
2.83
0.69
-1.27
-2.95
-4.5
-6.18
-8.24
-10.82
-13.92
-17.45
-21.13
-24.52
-26.96
-27.74
-26.35
-22.68
-17.09
-10.34
-3.27
3.37
9.08
13.54
16.61
18.13
18.08
16.63
14.19
11.39
8.86
7.05
6.02
5.43
4.81
3.75
2.1
0.07
-1.96
-3.63
-4.79
-5.64
-6.59
-8.13
-10.59
-14.04
-18.3
-22.92
-27.26
-30.6
-32.17
-31.36
-27.9
-21.98
-14.27
-5.73
2.65
10.09
16.09
20.5
23.32
24.61
24.44
23
20.68
17.98
15.47
13.53
12.3
11.58
11.04
10.31
9.17
7.61
5.78
3.93
2.31
1.02
0.01
-0.99
-2.38
-4.58
-7.88
-12.31
-17.62
-23.2
-28.22
-31.71
-32.84
-31.1
-26.46
-19.43
-10.85
-1.69
7.13
14.87
20.94
25.01
26.95
26.93
25.33
22.71
19.61
16.56
13.96
12.06
10.98
10.7
11.05
11.69
12.24
12.35
11.81
10.55
8.6
6.12
3.28
0.24
-2.88
-6.09
-9.53
-13.41
-17.88
-22.92
-28.27
-33.42
-37.66
-40.15
-40.1
-36.91
-30.45
-21.21
-10.27
0.99
11.2
19.39
25.18
28.69
30.35
30.66
29.99
28.61
26.72
24.51
22.25
20.17
18.44
17.1
16.07
15.23
14.5
13.85
13.35
13.03
12.79
12.31
11.17
8.96
5.56
1.18
-3.63
-8.34
-12.55
-16.22
-19.6
-23.04
-26.82
-31.04
-35.54
-39.88
-43.36
-45.1
-44.2
-40.04
-32.54
-22.38
-10.81
0.63
10.61
18.32
23.59
26.64
27.89
27.73
26.44
24.3
21.6
18.79
16.25
14.33
13.15
12.66
12.68
13.02
13.49
13.9
14.04
13.71
12.77
11.16
8.87
5.99
2.59
-1.15
-5.02
-8.71
-11.96
-14.72
-17.27
-20.14
-23.86
-28.64
-34.04
-39.02
-42.21
-42.34
-38.75
-31.57
-21.74
-10.6
0.43
10.24
18.18
24.03
27.76
29.37
28.87
26.35
22.15
16.89
11.48
6.84
3.63
2.1
1.95
2.62
3.43
3.96
4.06
3.85
3.53
3.14
2.46
1.09
-1.35
-5.02
-9.71
-15.02
-20.5
-25.86
-30.85
-35.16
-38.13
-38.8
-36.35
-30.43
-21.49
-10.72
0.34
10.31
18.3
23.93
27.08
27.81
26.21
22.6
17.61
12.21
7.38
3.84
1.73
0.66
-0.01
-0.85
-2.08
-3.52
-4.82
-5.67
-6.04
-6.26
-6.84
-8.33
-11.14
-15.41
-20.97
-27.26
-33.39
-38.22
-40.57
-39.57
-34.94
-27.08
-17
-6.06
4.46
13.56
20.67
25.57
28.3
29.02
28.05
25.81
22.77
19.38
15.95
12.6
9.29
5.96
2.69
-0.27
-2.57
-3.94
-4.37
-4.2
-4.04
-4.63
-6.58
-10.24
-15.55
-22.09
-29
-35.11
-39.17
-40.03
-37.04
-30.17
-20.18
-8.29
4.07
15.64
25.49
33.06
38.05
40.29
39.78
36.8
32.01
26.42
21.14
17.01
14.3
12.73
11.58
10.13
7.99
5.22
2.29
-0.26
-2.1
-3.37
-4.64
-6.75
-10.51
-16.27
-23.68
-31.71
-38.79
-43.28
-43.92
-40.17
-32.28
-21.17
-8.13
5.44
18.22
29.07
37.07
41.63
42.66
40.6
36.4
31.28
26.29
22.15
19.07
16.9
15.29
13.94
12.62
11.22
9.64
7.82
5.71
3.38
0.94
-1.55
-4.19
-7.34
-11.49
-16.99
-23.76
-31.06
-37.58
-41.77
-42.37
-38.75
-31.19
-20.68
-8.57
3.83
15.53
25.87
34.38
40.63
44.17
44.67
42.19
37.3
31.07
24.79
19.62
16.23
14.59
14.13
14.02
13.57
12.48
10.84
8.99
7.2
5.57
3.93
2.02
-0.45
-3.71
-7.93
-13.19
-19.39
-26.08
-32.38
-37.09
-38.96
-37.06
-31.07
-21.5
-9.52
3.34
15.53
25.86
33.62
38.6
40.93
40.95
39.13
36
32.13
28.08
24.3
21.08
18.48
16.4
14.7
13.26
12.05
11.05
10.18
9.33
8.32
7.06
5.46
3.45
0.94
-2.19
-6.05
-10.66
-16.01
-21.96
-28.2
-34.12
-38.84
-41.27
-40.43
-35.81
-27.6
-16.74
-4.63
7.28
17.82
26.28
32.37
36.06
37.48
36.85
34.45
30.74
26.26
21.68
17.66
14.8
13.37
13.34
14.28
15.5
16.24
16.03
14.71
12.53
9.89
7.19
4.59
2.04
-0.65
-3.64
-7.04
-10.88
-15.17
-19.87
-24.8
-29.47
-33.04
-34.48
-32.89
-27.93
-20.04
-10.34
-0.27
8.87
16.27
21.63
25.04
26.64
26.56
24.94
22.04
18.32
14.4
10.88
8.21
6.57
5.9
5.93
6.28
6.59
6.57
6.08
5.16
4
2.79
1.61
0.33
-1.29
-3.45
-6.29
-9.77
-13.75
-18.01
-22.21
-25.88
-28.35
-28.97
-27.25
-23.02
-16.64
-8.82
-0.48
7.46
14.28
19.44
22.62
23.74
22.93
20.56
17.15
13.26
9.44
6.17
3.77
2.42
2
2.23
2.65
2.84
2.51
1.62
0.27
-1.34
-3.13
-5.12
-7.38
-10.01
-13.08
-16.63
-20.63
-24.92
-29.08
-32.4
-34.01
-33.23
-29.78
-23.97
-16.55
-8.46
-0.58
6.45
12.21
16.44
19.02
19.92
19.28
17.39
14.65
11.53
8.52
6.08
4.52
3.93
4.04
4.34
4.25
3.43
1.98
0.39
-0.84
-1.46
-1.69
-2.15
-3.48
-6.12
-10.06
-14.87
-19.88
-24.36
-27.65
-29.21
-28.7
-26.03
-21.4
-15.36
-8.69
-2.21
3.44
7.9
11.16
13.4
14.81
15.5
15.4
14.43
12.67
10.36
7.94
5.88
4.57
4.1
4.31
4.82
5.13
4.87
3.87
2.21
0.19
-1.83
-3.6
-5.1
-6.5
-8.16
-10.39
-13.31
-16.83
-20.55
-23.91
-26.24
-26.96
-25.72
-22.45
-17.5
-11.47
-5.11
0.89
5.99
9.92
12.61
14.13
14.62
14.27
13.18
11.55
9.6
7.6
5.87
4.62
3.96
3.82
4.02
4.33
4.6
4.68
4.4
3.65
2.35
0.57
-1.49
-3.6
-5.61
-7.58
-9.68
-12.11
-14.9
-17.92
-20.78
-23.04
-24.26
-24.09
-22.34
-18.99
-14.17
-8.25
-1.8
4.46
9.79
13.57
15.46
15.5
14.03
11.68
9.16
7.03
5.64
5.03
5
5.25
5.53
5.63
5.41
4.84
3.94
2.81
1.64
0.58
-0.24
-0.89
-1.56
-2.51
-3.95
-5.99
-8.61
-11.68
-15.06
-18.54
-21.83
-24.47
-25.98
-25.92
-24.1
-20.59
-15.77
-10.18
-4.36
1.15
5.91
9.56
11.91
12.95
12.88
12.04
10.77
9.34
7.82
6.17
4.42
2.69
1.26
0.45
0.42
1.07
2.03
2.82
3.05
2.59
1.62
0.45
-0.68
-1.65
-2.61
-3.8
-5.46
-7.74
-10.66
-14.08
-17.72
-21.06
-23.45
-24.24
-22.98
-19.6
-14.49
-8.41
-2.24
3.24
7.53
10.41
11.93
12.26
11.63
10.28
8.42
6.25
4.06
2.16
0.92
0.62
1.26
2.51
3.7
4.14
3.39
1.53
-0.9
-3.21
-4.86
-5.74
-6.15
-6.62
-7.62
-9.4
-11.88
-14.77
-17.62
-19.91
-21.07
-20.63
-18.27
-14.03
-8.37
-2.04
4.05
9.18
12.83
14.83
15.26
14.39
12.53
10.09
7.46
4.99
2.97
1.5
0.58
0.09
-0.13
-0.21
-0.21
-0.16
-0.15
-0.31
-0.86
-2.04
-3.97
-6.67
-9.98
-13.63
-17.32
-20.75
-23.62
-25.6
-26.35
-25.57
-23.09
-19
-13.69
-7.77
-1.92
3.3
7.56
10.73
12.83
13.9
14.02
13.27
11.82
10.03
8.27
6.91
6.03
5.47
4.82
3.71
2.01
-0.09
-2.12
-3.66
-4.5
-4.8
-5.03
-5.7
-7.24
-9.82
-13.32
-17.34
-21.26
-24.34
-25.85
-25.24
-22.36
-17.45
-11.18
-4.37
2.2
7.96
12.6
15.99
18.11
18.93
18.5
16.99
14.79
12.47
10.56
9.42
8.96
8.74
8.21
6.98
5.17
3.25
1.81
1.11
0.97
0.8
-0.07
-2.05
-5.17
-9.14
-13.62
-18.27
-22.74
-26.51
-28.84
-28.92
-26.24
-20.83
-13.36
-4.89
3.48
10.92
16.95
21.37
24.1
25.14
24.58
22.74
20.19
17.6
15.46
14.01
13.14
12.57
12.06
11.45
10.74
9.9
8.89
7.68
6.26
4.74
3.23
1.76
0.15
-1.96
-4.95
-8.94
-13.71
-18.66
-22.86
-25.44
-25.71
-23.43
-18.81
-12.47
-5.16
2.37
9.58
16.04
21.45
25.47
27.76
28.14
26.72
24.05
20.88
17.99
15.85
14.51
13.74
13.23
12.79
12.35
11.93
11.45
10.75
9.69
8.21
6.43
4.52
2.61
0.6
-1.77
-4.83
-8.75
-13.36
-18.16
-22.33
-24.95
-25.3
-23.06
-18.44
-12.1
-4.89
2.42
9.25
15.26
20.16
23.69
25.59
25.74
24.29
21.73
18.72
15.92
13.83
12.63
12.23
12.32
12.43
12.13
11.11
9.35
7.14
4.97
3.24
2.11
1.37
0.6
-0.6
-2.45
-4.97
-8.08
-11.64
-15.46
-19.24
-22.39
-24.17
-23.87
-21.08
-15.98
-9.21
-1.78
5.32
11.32
15.82
18.7
20
19.86
18.48
16.17
13.32
10.43
7.96
6.25
5.39
5.22
5.42
5.66
5.7
5.49
5.04
4.44
3.68
2.74
1.5
-0.15
-2.35
-5.2
-8.78
-12.96
-17.38
-21.42
-24.28
-25.2
-23.66
-19.64
-13.63
-6.51
0.74
7.25
12.5
16.24
18.45
19.19
18.56
16.8
14.3
11.59
9.2
7.49
6.53
6.05
5.62
4.85
3.55
1.76
-0.28
-2.24
-3.81
-4.78
-5.13
-5.12
-5.22
-5.99
-7.85
-10.9
-14.83
-18.89
-22.16
-23.77
-23.21
-20.46
-15.98
-10.56
-5.01
0.09
4.52
8.28
11.48
14
15.63
16.06
15.25
13.49
11.27
9.15
7.49
6.33
5.52
4.82
4.12
3.46
2.99
2.79
2.75
2.62
2.1
0.95
-0.87
-3.25
-6
-8.97
-12.06
-15.21
-18.26
-20.91
-22.63
-22.87
-21.19
-17.46
-11.99
-5.45
1.32
7.47
12.4
15.9
18.07
19.21
19.61
19.4
18.57
17.04
14.89
12.41
9.99
7.99
6.5
5.34
4.21
2.9
1.4
-0.04
-1.17
-1.85
-2.2
-2.57
-3.4
-5.06
-7.74
-11.39
-15.75
-20.36
-24.61
-27.82
-29.37
-28.82
-26.12
-21.55
-15.76
-9.47
-3.36
2.1
6.71
10.39
13.07
14.69
15.14
14.47
12.93
10.96
9.06
7.57
6.61
6.04
5.66
5.34
4.97
4.51
3.87
2.98
1.78
0.39
-1.04
-2.34
-3.52
-4.74
-6.29
-8.4
-11.11
-14.26
-17.61
-20.91
-23.86
-26.09
-27.06
-26.17
-23.01
-17.65
-10.69
-3.17
3.79
9.34
13.1
15.13
15.77
15.45
14.52
13.25
11.8
10.3
8.86
7.59
6.58
5.89
5.54
5.46
5.52
5.52
5.28
4.64
3.59
2.24
0.71
-0.86
-2.41
-3.93
-5.55
-7.44
-9.86
-12.97
-16.7
-20.67
-24.15
-26.25
-26.24
-23.76
-19
-12.6
-5.45
1.66
8.11
13.51
17.62
20.19
21.05
20.23
18.02
14.95
11.66
8.66
6.28
4.6
3.58
3.14
3.17
3.53
3.96
4.19
4.01
3.34
2.25
0.84
-0.84
-2.79
-5.02
-7.53
-10.29
-13.28
-16.48
-19.77
-22.78
-24.86
-25.33
-23.64
-19.76
-14.23
-7.94
-1.76
3.74
8.37
12.16
15.01
16.62
16.64
14.87
11.62
7.63
3.89
1.22
-0
0.02
0.72
1.46
1.78
1.57
0.98
0.23
-0.5
-1.24
-2.14
-3.42
-5.26
-7.78
-10.93
-14.54
-18.25
-21.58
-23.99
-24.97
-24.13
-21.36
-16.85
-11.08
-4.67
1.71
7.51
12.32
15.89
17.99
18.47
17.3
14.7
11.14
7.31
3.9
1.34
-0.3
-1.24
-1.85
-2.41
-3
-3.61
-4.23
-4.94
-5.92
-7.34
-9.24
-11.54
-14.13
-16.94
-19.99
-23.22
-26.37
-28.88
-30.04
-29.17
-25.98
-20.67
-13.87
-6.43
0.78
7.07
11.9
14.9
15.95
15.14
12.89
9.81
6.55
3.66
1.44
-0.07
-1.01
-1.63
-2.2
-2.92
-3.85
-4.98
-6.15
-7.21
-8.1
-8.98
-10.15
-12.01
-14.86
-18.74
-23.3
-27.74
-31.03
-32.14
-30.42
-25.78
-18.82
-10.57
-2.14
5.59
12.17
17.44
21.34
23.67
24.26
23.06
20.4
16.98
13.64
11.03
9.42
8.62
8.19
7.69
6.9
5.82
4.54
3.1
1.41
-0.75
-3.58
-7.22
-11.63
-16.64
-21.85
-26.69
-30.43
-32.25
-31.49
-27.76
-21.17
-12.32
-2.22
7.99
17.3
24.99
30.65
34.09
35.29
34.38
31.77
28.14
24.33
21.09
18.79
17.38
16.39
15.3
13.81
11.89
9.81
7.85
6.15
4.69
3.28
1.63
-0.6
-3.85
-8.43
-14.37
-21.17
-27.77
-32.78
-34.92
-33.44
-28.34
-20.31
-10.41
0.27
10.72
20.11
27.72
33.02
35.71
35.92
34.11
31.02
27.43
23.97
20.99
18.65
16.88
15.51
14.27
12.88
11.17
9.21
7.27
5.71
4.72
4.17
3.55
2.16
-0.61
-5.09
-11.13
-18.1
-25
-30.55
-33.48
-32.8
-28.13
-19.92
-9.36
1.98
12.59
21.44
28.07
32.43
34.6
34.64
32.63
28.88
24.06
19.12
15.02
12.37
11.2
10.99
10.96
10.45
9.15
7.22
5.1
3.26
1.95
1.14
0.46
-0.67
-2.86
-6.54
-11.76
-18.05
-24.46
-29.77
-32.78
-32.64
-29
-22.16
-12.93
-2.39
8.27
17.97
25.84
31.33
34.19
34.49
32.58
29.03
24.51
19.78
15.48
12.07
9.75
8.4
7.74
7.45
7.19
6.77
6.05
4.95
3.44
1.49
-0.93
-3.85
-7.41
-11.72
-16.87
-22.62
-28.28
-32.74
-34.69
-33.11
-27.69
-19.04
-8.54
2.17
11.69
19.3
24.85
28.56
30.6
30.95
29.49
26.31
21.93
17.21
13.05
10.08
8.35
7.44
6.72
5.64
3.92
1.59
-1.08
-3.8
-6.34
-8.6
-10.76
-13.18
-16.25
-20.22
-24.97
-29.87
-33.85
-35.77
-34.74
-30.43
-23.18
-13.86
-3.47
7.02
16.89
25.53
32.32
36.58
37.79
35.81
31.18
25.08
19
14.19
11.28
10.09
9.9
9.8
9.12
7.61
5.45
3.03
0.75
-1.17
-2.79
-4.48
-6.81
-10.31
-15.25
-21.44
-28.19
-34.47
-39.13
-41.18
-39.96
-35.28
-27.39
-17.03
-5.24
6.78
17.87
27.09
33.86
37.89
39.19
37.96
34.63
29.88
24.57
19.67
15.94
13.75
12.88
12.62
12.01
10.37
7.53
3.93
0.41
-2.25
-3.74
-4.46
-5.27
-7.2
-10.91
-16.45
-23.28
-30.42
-36.72
-41.06
-42.57
-40.69
-35.26
-26.63
-15.57
-3.28
8.9
19.68
28.09
33.61
36.21
36.24
34.36
31.27
27.62
23.89
20.37
17.21
14.45
12.15
10.37
9.12
8.34
7.9
7.55
6.95
5.76
3.8
1.12
-2.03
-5.37
-8.81
-12.6
-17.22
-23.04
-29.92
-36.99
-42.77
-45.69
-44.66
-39.42
-30.64
-19.55
-7.55
4.1
14.5
23.03
29.32
33.24
34.81
34.31
32.15
28.78
24.68
20.3
16.08
12.46
9.79
8.24
7.73
7.93
8.4
8.67
8.33
7.15
5.06
2.2
-1.17
-4.79
-8.44
-12.06
-15.77
-19.79
-24.27
-29.23
-34.36
-39.02
-42.28
-43.12
-40.68
-34.58
-25.14
-13.39
-0.83
11.02
20.94
28.33
33.06
35.28
35.21
33.04
29.11
23.97
18.5
13.66
10.22
8.49
8.2
8.69
9.19
9.12
8.28
6.82
5.05
3.29
1.69
0.2
-1.43
-3.47
-6.2
-9.81
-14.43
-20.06
-26.4
-32.8
-38.19
-41.3
-41.01
-36.74
-28.74
-18.06
-6.22
5.21
15.04
22.6
27.65
30.23
30.44
28.52
24.84
20.04
14.92
10.28
6.67
4.3
3
2.37
1.96
1.41
0.55
-0.59
-1.83
-2.97
-3.92
-4.77
-5.85
-7.57
-10.32
-14.26
-19.23
-24.72
-29.88
-33.71
-35.2
-33.64
-28.8
-21.1
-11.52
-1.34
8.22
16.3
22.45
26.54
28.63
28.77
27.11
23.91
19.6
14.74
9.88
5.51
1.86
-0.98
-3.02
-4.36
-5.1
-5.43
-5.63
-5.98
-6.69
-7.88
-9.57
-11.8
-14.68
-18.34
-22.77
-27.63
-32.14
-35.22
-35.85
-33.39
-27.85
-19.92
-10.6
-0.94
8.27
16.44
23.11
27.81
30.06
29.61
26.61
21.75
16.03
10.58
6.18
3.13
1.25
0.11
-0.66
-1.3
-1.82
-2.22
-2.56
-3.08
-4.1
-6
-9.03
-13.26
-18.54
-24.4
-30.1
-34.7
-37.22
-36.9
-33.4
-26.94
-18.2
-8.21
2.01
11.51
19.6
25.82
29.84
31.54
30.97
28.47
24.67
20.33
16.17
12.7
10.1
8.27
6.89
5.67
4.33
2.77
1.04
-0.69
-2.24
-3.48
-4.51
-5.67
-7.56
-10.74
-15.46
-21.41
-27.7
-33.01
-35.97
-35.63
-31.68
-24.55
-15.21
-4.9
5.2
14.16
21.32
26.29
28.97
29.47
28.11
25.39
21.92
18.31
15.08
12.57
10.87
9.87
9.27
8.75
8.06
7.07
5.85
4.49
3.06
1.51
-0.34
-2.71
-5.82
-9.76
-14.48
-19.67
-24.77
-28.98
-31.42
-31.35
-28.35
-22.51
-14.43
-5.05
4.56
13.4
20.73
26.03
29.02
29.64
28.04
24.67
20.19
15.44
11.2
8.07
6.31
5.78
6.09
6.68
7.03
6.79
5.9
4.51
2.86
1.19
-0.48
-2.33
-4.72
-7.97
-12.18
-17.1
-22.1
-26.32
-28.86
-29.05
-26.59
-21.65
-14.8
-6.91
1.05
8.24
14.05
18.25
20.82
21.93
21.82
20.73
18.89
16.52
13.86
11.27
9.07
7.5
6.66
6.39
6.36
6.18
5.6
4.6
3.37
2.18
1.18
0.29
-0.82
-2.63
-5.53
-9.6
-14.53
-19.63
-23.95
-26.53
-26.67
-24.18
-19.39
-13.05
-6.11
0.56
6.4
11.1
14.54
16.65
17.33
16.59
14.6
11.82
8.9
6.47
4.88
4.08
3.71
3.31
2.63
1.74
0.89
0.36
0.18
0.12
-0.22
-1.17
-2.96
-5.6
-9.01
-12.97
-17.08
-20.77
-23.29
-23.9
-22.17
-18.14
-12.32
-5.54
1.26
7.36
12.25
15.72
17.72
18.34
17.75
16.16
13.81
10.96
7.91
4.99
2.52
0.78
-0.17
-0.47
-0.52
-0.72
-1.39
-2.54
-3.93
-5.24
-6.3
-7.31
-8.71
-10.98
-14.22
-18
-21.39
-23.38
-23.26
-20.94
-16.9
-11.89
-6.54
-1.24
3.8
8.33
11.94
14.09
14.47
13.21
10.92
8.45
6.48
5.18
4.31
3.36
1.99
0.22
-1.57
-2.9
-3.45
-3.24
-2.58
-1.97
-1.98
-3.07
-5.49
-9.21
-13.79
-18.5
-22.42
-24.72
-24.85
-22.68
-18.49
-12.85
-6.51
-0.27
5.22
9.49
12.41
14.1
14.86
14.98
14.67
13.94
12.8
11.3
9.63
8.08
6.87
6.04
5.43
4.72
3.63
2.07
0.19
-1.69
-3.27
-4.48
-5.6
-7.16
-9.62
-13.11
-17.18
-20.97
-23.52
-24.1
-22.56
-19.22
-14.67
-9.49
-4.11
1.17
6.06
10.25
13.49
15.65
16.76
16.97
16.41
15.2
13.48
11.5
9.63
8.24
7.52
7.34
7.33
7.13
6.53
5.58
4.44
3.19
1.82
0.19
-1.75
-3.93
-6.24
-8.71
-11.54
-14.95
-18.91
-22.94
-26.17
-27.57
-26.42
-22.57
-16.46
-8.98
-1.1
6.31
12.56
17.18
19.89
20.72
19.99
18.27
16.22
14.38
13.09
12.41
12.26
12.45
12.68
12.69
12.26
11.34
10.02
8.52
7.09
5.87
4.8
3.69
2.26
0.31
-2.23
-5.21
-8.38
-11.47
-14.3
-16.85
-19.21
-21.48
-23.65
-25.48
-26.53
-26.29
-24.39
-20.76
-15.71
-9.79
-3.64
2.21
7.37
11.67
14.96
17.12
18.05
17.74
16.46
14.7
13.03
11.83
11.14
10.7
10.17
9.42
8.6
8.06
8.05
8.54
9.2
9.58
9.35
8.39
6.78
4.61
1.98
-0.96
-4.05
-6.99
-9.5
-11.47
-13.06
-14.66
-16.68
-19.32
-22.42
-25.39
-27.4
-27.61
-25.51
-21.07
-14.79
-7.53
-0.24
6.31
11.6
15.45
17.87
18.97
18.91
17.86
16.05
13.79
11.42
9.29
7.68
6.72
6.41
6.61
7.09
7.54
7.72
7.5
6.87
5.96
4.9
3.76
2.53
1.11
-0.59
-2.64
-5.06
-7.86
-11.09
-14.81
-18.88
-22.9
-26.16
-27.84
-27.36
-24.6
-19.99
-14.31
-8.36
-2.71
2.39
6.92
10.81
13.86
15.72
16.09
14.9
12.41
9.23
6.12
3.71
2.35
2.03
2.44
3.11
3.61
3.74
3.44
2.82
2.03
1.12
0.06
-1.22
-2.81
-4.75
-7.04
-9.69
-12.68
-15.94
-19.25
-22.18
-24.15
-24.49
-22.69
-18.68
-12.93
-6.34
0.04
5.35
9.19
11.59
12.88
13.37
13.26
12.6
11.39
9.71
7.75
5.81
4.13
2.81
1.81
0.91
-0.07
-1.26
-2.62
-3.98
-5.11
-5.89
-6.38
-6.88
-7.85
-9.68
-12.57
-16.35
-20.54
-24.45
-27.32
-28.55
-27.77
-24.91
-20.19
-14.12
-7.27
-0.34
6.09
11.53
15.61
18.13
18.99
18.33
16.46
13.9
11.2
8.85
7.06
5.76
4.67
3.53
2.27
1.06
0.13
-0.31
-0.37
-0.33
-0.63
-1.57
-3.33
-5.91
-9.3
-13.38
-17.95
-22.64
-26.76
-29.52
-30.23
-28.49
-24.41
-18.5
-11.5
-4.16
2.92
9.35
14.91
19.41
22.64
24.39
24.59
23.33
20.96
17.93
14.73
11.79
9.39
7.7
6.7
6.27
6.14
6
5.64
4.95
3.93
2.6
0.88
-1.41
-4.48
-8.4
-13.02
-17.93
-22.55
-26.25
-28.48
-28.79
-26.87
-22.59
-16.22
-8.36
0.02
7.96
14.7
19.89
23.51
25.68
26.47
25.88
24
21.14
17.91
15.06
13.15
12.35
12.35
12.58
12.47
11.72
10.4
8.8
7.19
5.64
4.05
2.19
-0.13
-3
-6.39
-10.23
-14.44
-18.88
-23.25
-26.97
-29.28
-29.37
-26.72
-21.27
-13.55
-4.49
4.79
13.33
20.44
25.71
29.01
30.33
29.85
27.85
24.82
21.39
18.22
15.87
14.58
14.22
14.38
14.44
13.94
12.64
10.68
8.43
6.36
4.75
3.58
2.52
1.04
-1.3
-4.69
-8.98
-13.75
-18.44
-22.55
-25.6
-27.18
-26.87
-24.41
-19.8
-13.41
-5.99
1.62
8.74
14.93
20.03
23.94
26.43
27.2
26.1
23.36
19.61
15.76
12.64
10.62
9.57
9
8.43
7.6
6.64
5.82
5.39
5.33
5.34
4.97
3.91
2.08
-0.37
-3.19
-6.28
-9.72
-13.61
-17.8
-21.73
-24.45
-24.99
-22.75
-17.84
-11
-3.34
4.08
10.58
15.89
19.91
22.58
23.71
23.14
20.91
17.47
13.53
9.89
7.14
5.4
4.38
3.52
2.37
0.78
-0.95
-2.31
-2.84
-2.47
-1.64
-1.09
-1.56
-3.46
-6.69
-10.78
-15.16
-19.29
-22.8
-25.34
-26.43
-25.55
-22.34
-16.83
-9.63
-1.79
5.56
11.54
15.69
17.96
18.56
17.77
15.87
13.21
10.2
7.34
5.08
3.66
3.05
2.97
3
2.82
2.31
1.57
0.88
0.5
0.47
0.55
0.14
-1.47
-4.81
-9.93
-16.27
-22.81
-28.34
-31.94
-33.1
-31.88
-28.61
-23.72
-17.61
-10.65
-3.31
3.78
9.92
14.54
17.32
18.24
17.52
15.54
12.75
9.64
6.63
4.08
2.11
0.65
-0.51
-1.53
-2.37
-2.81
-2.6
-1.71
-0.45
0.55
0.54
-0.94
-3.9
-7.78
-11.66
-14.62
-15.98
-15.43
-13.04
-9.12
-4.05
1.74
7.82
13.67
18.73
22.48
24.64
25.18
24.3
22.3
19.44
15.93
11.95
7.76
3.74
0.32
-2.16
-3.58
-4.01
-3.71
-3.01
-2.22
-1.7
-1.76
-2.69
-4.61
-7.47
-11.01
-15
-19.27
-23.76
-28.34
-32.57
-35.7
-36.82
-35.19
-30.59
-23.5
-14.85
-5.8
2.69
10.02
15.92
20.32
23.18
24.41
23.96
21.94
18.78
15.16
11.84
9.47
8.27
8.06
8.28
8.34
7.88
6.8
5.34
3.8
2.41
1.19
-0.02
-1.55
-3.73
-6.78
-10.73
-15.38
-20.27
-24.82
-28.28
-29.89
-29.02
-25.32
-18.96
-10.65
-1.47
7.38
14.87
20.45
24.02
25.79
26.12
25.34
23.73
21.54
19.07
16.63
14.49
12.86
11.78
11.18
10.85
10.48
9.75
8.49
6.77
4.87
3.11
1.7
0.59
-0.56
-2.19
-4.68
-8.17
-12.51
-17.31
-21.99
-25.9
-28.36
-28.82
-26.89
-22.58
-16.19
-8.4
-0.05
8.02
15.06
20.58
24.28
26.11
26.18
24.74
22.19
18.98
15.68
12.79
10.75
9.69
9.49
9.72
9.85
9.47
8.4
6.72
4.78
2.98
1.59
0.68
0.07
-0.61
-1.78
-3.74
-6.56
-10.1
-14.07
-18.16
-22
-25.16
-27.06
-27.03
-24.59
-19.63
-12.66
-4.67
3.2
10.06
15.42
19.18
21.43
22.22
21.54
19.44
16.23
12.5
9.03
6.4
4.88
4.28
4.21
4.26
4.2
3.98
3.58
3.03
2.24
1.13
-0.31
-2.03
-3.99
-6.2
-8.77
-11.82
-15.4
-19.34
-23.13
-26.07
-27.41
-26.58
-23.37
-18.06
-11.32
-4
3.1
9.41
14.6
18.46
20.85
21.58
20.67
18.29
14.97
11.39
8.19
5.73
4.05
2.94
2.16
1.59
1.24
1.12
1.06
0.82
0.14
-1.09
-2.72
-4.59
-6.67
-9.11
-12.28
-16.35
-21.13
-25.94
-29.81
-31.8
-31.29
-28.17
-22.75
-15.63
-7.6
0.5
7.84
13.76
17.93
20.33
21.17
20.77
19.4
17.3
14.71
11.97
9.48
7.58
6.42
5.9
5.77
5.69
5.43
4.81
3.74
2.18
0.19
-2.07
-4.39
-6.59
-8.6
-10.59
-12.87
-15.73
-19.28
-23.26
-27.02
-29.68
-30.31
-28.25
-23.36
-16.07
-7.38
1.47
9.32
15.41
19.47
21.66
22.33
21.83
20.5
18.63
16.52
14.48
12.76
11.42
10.42
9.57
8.73
7.87
7.05
6.34
5.73
5.12
4.34
3.27
1.86
0.09
-2.03
-4.55
-7.62
-11.41
-16
-21.25
-26.66
-31.43
-34.64
-35.46
-33.49
-28.84
-22.09
-14.13
-5.85
1.99
8.85
14.4
18.46
20.99
22.06
21.86
20.61
18.51
15.8
12.73
9.63
6.92
4.93
3.87
3.7
4.12
4.75
5.17
5.09
4.36
2.99
1.14
-1
-3.24
-5.45
-7.7
-10.18
-13.13
-16.7
-20.76
-24.87
-28.29
-30.22
-30.02
-27.42
-22.56
-15.97
-8.37
-0.56
6.75
13.04
17.92
21.19
22.78
22.82
21.56
19.33
16.52
13.47
10.53
8.01
6.15
5.01
4.56
4.62
4.92
5.15
5.08
4.54
3.52
2.08
0.3
-1.78
-4.21
-7.15
-10.69
-14.81
-19.22
-23.31
-26.28
-27.33
-25.89
-21.94
-15.95
-8.77
-1.38
5.45
11.22
15.75
19.01
21.02
21.74
21.17
19.49
17.08
14.49
12.22
10.53
9.4
8.53
7.63
6.5
5.22
3.95
2.9
2.13
1.52
0.83
-0.2
-1.73
-3.89
-6.75
-10.34
-14.53
-18.99
-23.12
-26.15
-27.38
-26.39
-23.2
-18.19
-11.96
-5.11
1.81
8.29
13.87
18.04
20.39
20.71
19.1
15.99
12.03
7.99
4.48
1.83
0.08
-1.02
-1.8
-2.45
-3.02
-3.44
-3.63
-3.64
-3.68
-4.05
-4.98
-6.65
-9.09
-12.28
-16.05
-20.04
-23.64
-26.05
-26.51
-24.57
-20.31
-14.31
-7.43
-0.54
5.74
11.04
15.23
18.23
20.01
20.53
19.77
17.84
15.03
11.79
8.69
6.25
4.69
3.9
3.43
2.77
1.53
-0.28
-2.36
-4.31
-5.85
-7.12
-8.52
-10.61
-13.71
-17.65
-21.81
-25.3
-27.27
-27.16
-24.82
-20.36
-14.16
-6.69
1.43
9.38
16.22
21.09
23.54
23.6
21.84
19.05
16.02
13.24
10.97
9.25
8.01
7.06
6.12
4.95
3.45
1.81
0.39
-0.41
-0.51
-0.2
-0.16
-1.15
-3.65
-7.59
-12.33
-16.84
-19.98
-20.84
-19.02
-14.73
-8.76
-2.21
3.81
8.51
11.59
13.2
13.61
13.1
11.77
9.62
6.71
3.24
-0.43
-3.95
-7.11
-9.86
-12.29
-14.47
-16.33
-17.63
-18.12
-17.69
-16.51
-15.03
-13.82
-13.43
-14.16
-15.98
-18.47
-20.91
-22.43
-22.22
-19.79
-15.07
-8.45
-0.55
7.85
16.11
23.61
29.9
34.52
37.17
37.71
36.37
33.73
30.53
27.48
24.94
22.95
21.25
19.49
17.4
14.95
12.34
9.91
8.03
6.86
6.3
5.91
5.1
3.34
0.3
-4.04
-9.34
-14.98
-20.14
-23.89
-25.4
-24.13
-20.02
-13.61
-5.83
2.24
9.77
16.2
21.21
24.61
26.2
25.91
23.98
21.03
17.91
15.39
13.84
13.15
12.8
12.22
11.05
9.29
7.23
5.24
3.57
2.24
1.12
-0.01
-1.34
-2.99
-5.06
-7.67
-10.89
-14.71
-18.84
-22.65
-25.24
-25.71
-23.47
-18.5
-11.41
-3.26
4.75
11.61
16.68
19.76
20.97
20.69
19.35
17.4
15.19
13.04
11.17
9.75
8.78
8.12
7.59
6.95
6.1
5.12
4.15
3.37
2.75
2.12
1.23
-0.12
-2.03
-4.48
-7.38
-10.62
-13.97
-17.07
-19.4
-20.42
-19.73
-17.2
-13.01
-7.55
-1.35
4.97
10.78
15.43
18.43
19.55
19
17.34
15.22
13.14
11.26
9.45
7.54
5.5
3.54
1.91
0.75
-0.04
-0.69
-1.37
-2.05
-2.54
-2.71
-2.71
-2.97
-4.05
-6.38
-9.92
-14.2
-18.42
-21.75
-23.5
-23.29
-20.99
-16.76
-11.01
-4.28
2.75
9.33
14.75
18.41
19.96
19.41
17.14
13.9
10.6
8.02
6.57
6.24
6.57
6.96
6.89
6.07
4.56
2.66
0.76
-0.83
-1.96
-2.72
-3.38
-4.35
-6.01
-8.7
-12.5
-17.15
-22.06
-26.34
-29.06
-29.5
-27.42
-23.1
-17.22
-10.53
-3.75
2.67
8.39
13.11
16.54
18.49
18.93
18.06
16.23
13.9
11.49
9.33
7.63
6.49
5.82
5.41
4.95
4.19
3.07
1.73
0.44
-0.58
-1.32
-2.02
-3.04
-4.73
-7.36
-10.95
-15.3
-19.94
-24.14
-27.04
-27.88
-26.25
-22.28
-16.55
-9.89
-3.09
3.29
8.91
13.61
17.27
19.79
21.05
21.07
20.02
18.21
16.04
13.89
12.1
10.79
9.87
9.04
7.99
6.47
4.51
2.4
0.53
-0.8
-1.56
-1.97
-2.43
-3.4
-5.21
-8.06
-11.94
-16.59
-21.52
-25.97
-29.1
-30.21
-28.95
-25.44
-20.23
-14.01
-7.46
-1.04
4.98
10.39
14.97
18.42
20.54
21.24
20.7
19.27
17.34
15.22
13.12
11.16
9.45
8.21
7.57
7.54
7.88
8.17
7.99
7.1
5.55
3.58
1.44
-0.74
-2.97
-5.29
-7.72
-10.18
-12.66
-15.26
-18.15
-21.37
-24.61
-27.16
-28.18
-27
-23.43
-17.88
-11.15
-4.07
2.73
8.87
14.11
18.15
20.61
21.22
20
17.41
14.24
11.28
9.02
7.6
6.87
6.63
6.76
7.14
7.54
7.59
6.93
5.44
3.32
1.08
-0.81
-2.18
-3.23
-4.38
-5.89
-7.79
-9.85
-11.96
-14.22
-16.94
-20.27
-23.94
-27.15
-28.87
-28.23
-24.99
-19.57
-12.85
-5.79
0.87
6.71
11.58
15.4
18.05
19.35
19.22
17.72
15.22
12.22
9.31
6.94
5.33
4.45
4.14
4.15
4.29
4.37
4.25
3.79
2.91
1.66
0.19
-1.25
-2.5
-3.61
-4.89
-6.69
-9.34
-12.83
-16.86
-20.86
-24.15
-26.08
-26.17
-24.26
-20.46
-15.23
-9.2
-3.1
2.42
6.97
10.33
12.52
13.68
14.01
13.71
12.93
11.79
10.34
8.58
6.59
4.51
2.58
1.03
0
-0.54
-0.78
-0.91
-1.1
-1.51
-2.21
-3.37
-5.12
-7.57
-10.76
-14.6
-18.81
-22.92
-26.35
-28.41
-28.56
-26.54
-22.54
-17.1
-10.91
-4.62
1.41
7.04
12.12
16.4
19.48
20.92
20.46
18.22
14.72
10.68
6.87
3.86
1.87
0.78
0.23
-0.22
-0.9
-1.9
-3.07
-4.16
-4.99
-5.62
-6.33
-7.54
-9.65
-12.8
-16.87
-21.4
-25.71
-29
-30.48
-29.65
-26.42
-21.07
-14.27
-6.79
0.65
7.51
13.33
17.71
20.32
20.91
19.6
16.88
13.53
10.43
8.14
6.85
6.3
6.06
5.71
5.01
3.92
2.52
1.01
-0.39
-1.53
-2.4
-3.22
-4.43
-6.51
-9.86
-14.49
-19.96
-25.4
-29.69
-31.83
-31.15
-27.55
-21.44
-13.6
-4.95
3.66
11.51
18.13
23.17
26.45
27.93
27.73
26.1
23.44
20.2
16.83
13.79
11.41
9.81
8.83
8.09
7.16
5.83
4.22
2.68
1.64
1.2
1.05
0.53
-1.1
-4.33
-9.09
-14.82
-20.56
-25.27
-28.13
-28.57
-26.41
-21.78
-15.04
-6.82
2.07
10.76
18.42
24.47
28.6
30.77
31.14
29.99
27.68
24.67
21.44
18.47
16.05
14.21
12.8
11.57
10.32
9.02
7.75
6.64
5.73
4.97
4.21
3.22
1.68
-0.71
-4.18
-8.74
-14.09
-19.59
-24.33
-27.36
-27.91
-25.61
-20.62
-13.6
-5.51
2.67
10.14
16.5
21.57
25.35
27.82
28.86
28.33
26.25
22.9
18.85
14.82
11.46
9.19
8.06
7.8
7.91
7.93
7.57
6.84
6
5.27
4.69
4.02
2.8
0.64
-2.65
-6.92
-11.76
-16.57
-20.83
-24.03
-25.73
-25.56
-23.23
-18.76
-12.52
-5.22
2.32
9.36
15.39
20.11
23.29
24.74
24.37
22.32
19.06
15.33
11.89
9.31
7.74
6.96
6.58
6.18
5.52
4.63
3.69
2.93
2.5
2.3
2.05
1.34
-0.21
-2.77
-6.29
-10.5
-14.99
-19.16
-22.37
-23.9
-23.19
-20.05
-14.77
-8.18
-1.32
4.87
9.83
13.46
15.91
17.37
17.93
17.57
16.3
14.31
11.96
9.71
7.9
6.66
5.87
5.22
4.41
3.32
2.06
0.86
-0.12
-0.87
-1.66
-2.92
-5.02
-8.14
-12.09
-16.46
-20.62
-23.98
-26.05
-26.48
-25.08
-21.85
-16.99
-10.89
-4.11
2.74
9.07
14.38
18.31
20.62
21.24
20.3
18.1
15.16
12.07
9.33
7.22
5.67
4.4
3.08
1.54
-0.09
-1.54
-2.51
-2.91
-2.92
-2.91
-3.34
-4.53
-6.7
-9.84
-13.78
-18.16
-22.35
-25.61
-27.14
-26.39
-23.27
-18.16
-11.75
-4.82
1.92
7.97
13.01
16.81
19.26
20.4
20.42
19.56
18.09
16.2
14.07
11.86
9.8
8.12
6.92
6.13
5.51
4.78
3.81
2.64
1.44
0.35
-0.68
-1.89
-3.63
-6.21
-9.74
-14.04
-18.7
-23.11
-26.61
-28.55
-28.44
-26.1
-21.7
-15.72
-8.91
-2.08
4.11
9.24
13.21
16.1
18.08
19.22
19.5
18.88
17.43
15.4
13.22
11.3
9.98
9.26
8.99
8.88
8.67
8.25
7.55
6.56
5.26
3.56
1.44
-1.04
-3.73
-6.43
-9.01
-11.5
-14.13
-17.19
-20.81
-24.76
-28.4
-30.79
-31.04
-28.63
-23.6
-16.51
-8.34
-0.11
7.3
13.34
17.79
20.62
21.98
22.04
21.05
19.34
17.28
15.24
13.5
12.24
11.49
11.13
10.97
10.75
10.29
9.49
8.36
7
5.49
3.9
2.19
0.32
-1.76
-4.03
-6.46
-9.03
-11.85
-15.11
-18.95
-23.23
-27.43
-30.78
-32.45
-31.86
-28.83
-23.59
-16.68
-8.84
-0.88
6.42
12.35
16.52
18.85
19.58
19.18
18.15
16.87
15.54
14.23
12.95
11.8
10.89
10.24
9.81
9.49
9.12
8.65
8.02
7.19
6.07
4.57
2.65
0.39
-2.03
-4.39
-6.53
-8.42
-10.21
-12.16
-14.57
-17.55
-20.9
-24.12
-26.48
-27.2
-25.77
-22.05
-16.4
-9.48
-2.11
4.93
11.01
15.65
18.57
19.65
19.02
17.07
14.32
11.32
8.51
6.16
4.36
3.1
2.28
1.82
1.54
1.23
0.77
0.11
-0.61
-1.18
-1.46
-1.61
-1.98
-3.08
-5.27
-8.59
-12.73
-17.11
-21.09
-24.12
-25.81
-25.9
-24.24
-20.8
-15.73
-9.43
-2.52
4.29
10.3
15.07
18.34
20.12
20.48
19.62
17.75
15.14
12.18
9.26
6.76
4.91
3.73
3.01
2.5
2
1.46
0.94
0.46
-0.08
-0.93
-2.41
-4.77
-8.01
-11.92
-16.12
-20.17
-23.66
-26.27
-27.75
-27.85
-26.38
-23.32
-18.87
-13.45
-7.54
-1.61
4.02
9.16
13.63
17.19
19.49
20.26
19.48
17.44
14.7
11.8
9.15
6.91
5.1
3.68
2.6
1.78
1.06
0.26
-0.7
-1.82
-2.94
-4
-5.14
-6.71
-9.17
-12.78
-17.33
-22.2
-26.45
-29.18
-29.79
-28.09
-24.2
-18.51
-11.54
-3.86
3.84
10.83
16.45
20.21
22.01
22.11
21.02
19.3
17.37
15.38
13.4
11.42
9.5
7.74
6.26
5.07
4.17
3.5
2.96
2.39
1.56
0.24
-1.71
-4.26
-7.22
-10.41
-13.71
-17.07
-20.4
-23.36
-25.31
-25.57
-23.65
-19.57
-13.84
-7.23
-0.51
5.86
11.68
16.85
21.18
24.26
25.7
25.28
23.19
20.01
16.54
13.53
11.43
10.24
9.68
9.34
8.89
8.18
7.24
6.16
5.02
3.82
2.53
1.1
-0.51
-2.42
-4.82
-7.94
-11.96
-16.77
-21.89
-26.45
-29.42
-29.91
-27.46
-22.24
-14.94
-6.59
1.74
9.18
15.23
19.65
22.47
23.8
23.88
22.97
21.37
19.37
17.19
14.91
12.52
10.05
7.6
5.43
3.79
2.87
2.65
2.92
3.33
3.5
3.12
2.03
0.23
-2.18
-5.08
-8.42
-12.14
-16.18
-20.25
-23.78
-25.98
-26.09
-23.71
-18.98
-12.59
-5.47
1.51
7.79
13.13
17.42
20.52
22.17
22.12
20.37
17.3
13.65
10.29
7.86
6.58
6.17
6.14
6.01
5.56
4.9
4.24
3.78
3.54
3.34
2.95
2.18
0.91
-0.94
-3.49
-6.82
-10.84
-15.22
-19.35
-22.5
-24.04
-23.6
-21.11
-16.75
-10.89
-4.06
3.03
9.55
14.72
17.97
19.17
18.61
16.85
14.55
12.15
9.89
7.81
5.91
4.23
2.87
1.91
1.37
1.12
0.93
0.56
-0.12
-1.12
-2.38
-3.82
-5.43
-7.34
-9.72
-12.67
-16.09
-19.56
-22.45
-24.06
-23.83
-21.52
-17.32
-11.66
-5.16
1.53
7.77
13
16.76
18.81
19.18
18.21
16.43
14.35
12.26
10.23
8.18
6
3.79
1.75
0.15
-0.81
-1.12
-0.92
-0.5
-0.19
-0.33
-1.2
-2.97
-5.64
-9.04
-12.92
-16.9
-20.57
-23.47
-25.07
-24.97
-23
-19.31
-14.31
-8.54
-2.43
3.65
9.38
14.29
17.85
19.57
19.33
17.48
14.81
12.21
10.24
8.99
8.09
7.05
5.59
3.77
1.96
0.56
-0.27
-0.64
-0.92
-1.54
-2.87
-5.08
-8.17
-11.98
-16.2
-20.4
-24.05
-26.57
-27.45
-26.37
-23.31
-18.6
-12.81
-6.6
-0.47
5.27
10.53
15.21
19.01
21.5
22.22
21.04
18.35
15.01
11.99
9.95
8.95
8.51
7.94
6.8
5.06
3.09
1.37
0.16
-0.66
-1.52
-2.88
-5.02
-7.9
-11.27
-14.79
-18.24
-21.5
-24.44
-26.76
-27.91
-27.26
-24.39
-19.28
-12.47
-4.87
2.59
9.19
14.58
18.64
21.36
22.69
22.62
21.24
18.83
15.93
13.09
10.78
9.18
8.22
7.62
7.06
6.36
5.5
4.6
3.78
3.04
2.19
0.96
-0.87
-3.36
-6.45
-10.02
-13.98
-18.26
-22.63
-26.62
-29.43
-30.19
-28.31
-23.66
-16.76
-8.55
-0.08
7.76
14.37
19.42
22.81
24.55
24.8
23.8
21.86
19.33
16.56
13.88
11.63
10.1
9.42
9.44
9.73
9.78
9.19
7.87
6.07
4.18
2.48
1
-0.46
-2.2
-4.47
-7.46
-11.21
-15.68
-20.61
-25.42
-29.29
-31.28
-30.61
-27.03
-20.86
-12.94
-4.33
4.01
11.4
17.47
22.06
25.03
26.27
25.79
23.79
20.75
17.36
14.28
11.96
10.45
9.49
8.66
7.69
6.55
5.43
4.54
3.96
3.55
3.03
2.14
0.76
-1.04
-3.2
-5.74
-8.81
-12.61
-17.07
-21.74
-25.76
-28.11
-27.96
-25.07
-19.73
-12.76
-5.08
2.54
9.6
15.79
20.82
24.37
26.08
25.73
23.43
19.6
14.99
10.47
6.79
4.38
3.21
2.94
3.04
3.11
3
2.79
2.66
2.7
2.78
2.59
1.73
-0.1
-3.05
-7.05
-11.82
-16.96
-21.92
-26.13
-28.94
-29.76
-28.15
-23.91
-17.24
-8.75
0.57
9.57
17.14
22.5
25.38
25.99
24.84
22.48
19.34
15.7
11.8
8
4.72
2.35
1.1
0.81
1
1.06
0.47
-0.98
-3.1
-5.49
-7.8
-9.93
-12.02
-14.42
-17.41
-21.02
-24.86
-28.21
-30.18
-30
-27.26
-22.01
-14.78
-6.45
2.02
9.69
15.92
20.36
22.95
23.84
23.21
21.24
18.16
14.33
10.3
6.73
4.24
3.1
3.15
3.84
4.45
4.43
3.56
1.99
0.08
-1.86
-3.73
-5.73
-8.27
-11.66
-16
-20.97
-25.85
-29.68
-31.49
-30.62
-26.92
-20.75
-12.89
-4.29
4.11
11.61
17.74
22.27
25.09
26.17
25.58
23.55
20.52
17.03
13.67
10.82
8.65
7.08
5.96
5.16
4.57
4.12
3.65
2.97
1.85
0.15
-2.16
-5.09
-8.62
-12.77
-17.45
-22.37
-26.97
-30.49
-32.08
-31.14
-27.41
-21.14
-12.98
-3.87
5.21
13.41
20.06
24.76
27.4
28.11
27.2
25.12
22.37
19.42
16.65
14.26
12.35
10.86
9.68
8.68
7.74
6.79
5.79
4.71
3.56
2.31
0.86
-0.91
-3.2
-6.2
-10.09
-14.91
-20.49
-26.24
-31.25
-34.44
-34.87
-32.13
-26.48
-18.7
-9.81
-0.76
7.77
15.25
21.23
25.37
27.49
27.65
26.27
23.95
21.28
18.72
16.52
14.78
13.54
12.78
12.42
12.33
12.3
12.14
11.69
10.81
9.38
7.38
4.86
2.09
-0.57
-2.84
-4.7
-6.45
-8.59
-11.58
-15.55
-20.19
-24.69
-28.04
-29.28
-27.75
-23.2
-15.94
-6.69
3.57
13.76
23.02
30.75
36.66
40.62
42.55
42.47
40.55
37.34
33.73
30.87
29.78
30.87
33.79
37.49
40.62
42.1
41.57
39.5
36.96
35.35
35.77
38.44
42.28
44.76
42.41
31.71
10.49
-21
-59.74
-100.62
-137.89
-166.92
-185.28
-192.89
-191.28
-182.41
-167.85
-148.43
-124.68
-97.17
-66.93
-35.36
-4.04
25.39
51.24
71.74
85.06
89.81
85.63
73.66
56.57
37.96
21.38
9.28
2.58
0.64
1.95
4.8
7.8
10.14
11.53
12.03
11.87
11.32
10.64
9.9
8.99
7.65
5.63
2.93
-0.05
-2.54
-3.72
-3.06
-0.5
3.53
8.43
13.57
18.5
22.77
25.94
27.57
27.32
25.28
21.91
18
14.34
11.45
9.45
8.16
7.18
6.15
4.83
3.15
1.28
-0.52
-1.96
-2.97
-3.72
-4.63
-6.14
-8.53
-11.82
-15.76
-20
-24.11
-27.65
-30.05
-30.66
-28.9
-24.48
-17.6
-8.99
0.31
9.16
16.71
22.42
26.07
27.65
27.27
25.2
21.94
18.18
14.72
12.2
10.85
10.44
10.46
10.37
9.83
8.82
7.44
5.88
4.2
2.42
0.51
-1.55
-3.81
-6.45
-9.68
-13.63
-18.16
-22.82
-26.82
-29.36
-29.78
-27.84
-23.7
-17.85
-10.96
-3.69
3.37
9.8
15.31
19.67
22.73
24.42
24.67
23.52
21.13
17.84
14.19
10.87
8.5
7.47
7.67
8.61
9.52
9.74
8.94
7.16
4.74
2.08
-0.54
-3.04
-5.46
-7.93
-10.57
-13.52
-16.89
-20.64
-24.51
-27.98
-30.42
-31.15
-29.73
-26.07
-20.4
-13.29
-5.46
2.38
9.67
15.98
21.02
24.54
26.42
26.67
25.51
23.33
20.64
17.86
15.26
12.98
11.05
9.5
8.47
8.01
8.13
8.61
9.06
9.05
8.29
6.72
4.5
1.94
-0.74
-3.44
-6.21
-9.3
-12.89
-17.02
-21.5
-25.92
-29.77
-32.59
-34.03
-33.88
-32.02
-28.39
-23.04
-16.22
-8.42
-0.33
7.28
13.74
18.64
21.82
23.38
23.54
22.58
20.84
18.65
16.37
14.22
12.3
10.65
9.31
8.36
7.96
8.13
8.78
9.54
9.96
9.62
8.31
6.09
3.25
0.18
-2.82
-5.56
-8
-10.21
-12.34
-14.56
-17.13
-20.31
-24.21
-28.54
-32.6
-35.26
-35.42
-32.34
-26.1
-17.58
-8.15
0.85
8.46
14.29
18.36
20.78
21.66
21.09
19.28
16.64
13.72
11.04
8.92
7.43
6.48
5.95
5.74
5.8
6.07
6.46
6.76
6.76
6.29
5.32
3.9
2.14
0.13
-2.06
-4.5
-7.27
-10.5
-14.23
-18.34
-22.5
-26.2
-28.76
-29.52
-28.03
-24.22
-18.42
-11.45
-4.25
2.32
7.75
11.89
14.82
16.69
17.57
17.49
16.53
14.84
12.63
10.09
7.31
4.39
1.54
-0.88
-2.45
-2.91
-2.35
-1.18
0
0.69
0.67
-0.03
-1.26
-2.92
-4.97
-7.44
-10.32
-13.49
-16.72
-19.63
-21.87
-23.06
-22.9
-21.28
-18.26
-14.1
-9.14
-3.78
1.67
6.94
11.71
15.63
18.32
19.44
18.88
16.76
13.53
9.82
6.34
3.61
1.78
0.64
-0.2
-1.07
-2.08
-3.07
-3.8
-4.19
-4.38
-4.73
-5.62
-7.27
-9.68
-12.72
-16.18
-19.8
-23.23
-25.97
-27.4
-26.98
-24.52
-20.18
-14.47
-8.03
-1.48
4.71
10.18
14.66
17.91
19.76
20.2
19.34
17.44
14.8
11.79
8.78
6.09
3.95
2.42
1.41
0.7
0.1
-0.46
-1.04
-1.64
-2.4
-3.57
-5.44
-8.25
-11.98
-16.36
-20.83
-24.77
-27.56
-28.68
-27.85
-25.01
-20.29
-14.07
-6.85
0.77
8.15
14.64
19.66
22.84
24.03
23.41
21.45
18.74
15.83
13.13
10.82
8.92
7.44
6.35
5.58
4.98
4.29
3.27
1.76
-0.19
-2.38
-4.64
-6.92
-9.39
-12.27
-15.76
-19.77
-23.88
-27.35
-29.35
-29.16
-26.48
-21.52
-14.9
-7.43
0.12
7.26
13.72
19.29
23.64
26.34
27.04
25.73
22.85
19.21
15.7
12.91
11.02
9.87
9.12
8.49
7.85
7.16
6.32
5.2
3.56
1.32
-1.45
-4.5
-7.52
-10.37
-13.09
-15.86
-18.82
-21.81
-24.37
-25.83
-25.55
-23.16
-18.65
-12.33
-4.69
3.63
11.94
19.48
25.45
29.23
30.5
29.37
26.4
22.43
18.38
14.94
12.5
11.05
10.3
9.84
9.28
8.38
7.1
5.54
3.91
2.36
0.95
-0.43
-2.02
-4.2
-7.27
-11.4
-16.45
-21.89
-26.89
-30.48
-31.76
-30.22
-25.79
-18.85
-10.14
-0.59
8.89
17.44
24.37
29.15
31.48
31.36
29.12
25.43
21.17
17.19
14.11
12.16
11.18
10.71
10.29
9.59
8.56
7.34
6.13
5.02
3.9
2.51
0.56
-2.1
-5.4
-9.11
-12.98
-16.84
-20.54
-23.89
-26.46
-27.68
-26.9
-23.76
-18.35
-11.29
-3.46
4.29
11.36
17.47
22.45
26.04
27.91
27.79
25.76
22.33
18.32
14.56
11.6
9.53
8.13
7.06
6.04
4.99
3.94
2.98
2.16
1.41
0.64
-0.33
-1.64
-3.47
-5.98
-9.3
-13.49
-18.34
-23.36
-27.73
-30.49
-30.93
-28.84
-24.56
-18.76
-12.21
-5.36
1.59
8.45
14.79
19.85
22.83
23.31
21.48
18.15
14.4
11.04
8.5
6.7
5.38
4.27
3.26
2.35
1.61
1.07
0.72
0.42
-0.05
-0.98
-2.66
-5.26
-8.78
-13.03
-17.64
-22.14
-25.98
-28.55
-29.24
-27.59
-23.47
-17.15
-9.29
-0.79
7.43
14.65
20.36
24.26
26.25
26.33
24.64
21.57
17.63
13.48
9.78
6.99
5.27
4.42
3.99
3.43
2.4
0.88
-0.91
-2.59
-3.95
-5.05
-6.3
-8.22
-11.22
-15.35
-20.23
-25.06
-28.83
-30.61
-29.87
-26.6
-21.23
-14.46
-6.91
0.9
8.67
16.03
22.5
27.42
30.17
30.44
28.39
24.69
20.3
16.17
12.94
10.81
9.58
8.89
8.37
7.79
7.06
6.22
5.26
4.12
2.68
0.79
-1.61
-4.57
-8.11
-12.3
-17.18
-22.67
-28.35
-33.48
-37.08
-38.17
-36.1
-30.74
-22.58
-12.59
-1.97
8.14
16.9
23.87
29
32.37
34.12
34.33
33.14
30.85
27.99
25.19
22.96
21.43
20.38
19.4
18.27
17.06
16.09
15.63
15.6
15.56
14.9
13.14
10.22
6.4
2.1
-2.31
-6.57
-10.57
-14.25
-17.57
-20.62
-23.69
-27.21
-31.65
-37.08
-43.05
-48.52
-52.13
-52.63
-49.34
-42.33
-32.35
-20.56
-8.14
3.89
14.81
24.08
31.25
36.02
38.2
37.97
35.8
32.48
28.79
25.46
22.95
21.45
20.89
21.06
21.61
22.17
22.42
22.16
21.33
20.07
18.57
17.02
15.42
13.59
11.25
8.23
4.56
0.55
-3.43
-7.16
-10.66
-14.14
-17.85
-21.85
-25.93
-29.83
-33.42
-36.8
-40.34
-44.26
-48.38
-51.99
-53.92
-52.95
-48.31
-39.93
-28.58
-15.61
-2.52
9.39
19.29
26.78
31.79
34.39
34.75
33.16
30.03
26.02
21.82
18.1
15.26
13.4
12.38
11.93
11.76
11.66
11.5
11.18
10.61
9.73
8.47
6.84
4.96
3.01
1.26
-0.08
-0.92
-1.35
-1.68
-2.35
-3.84
-6.48
-10.42
-15.54
-21.5
-27.73
-33.54
-38.02
-40.26
-39.42
-35.02
-27.19
-16.73
-4.98
6.53
16.55
24.28
29.43
32.09
32.57
31.18
28.32
24.41
20.04
15.78
12.11
9.34
7.51
6.54
6.24
6.44
6.98
7.7
8.36
8.66
8.29
6.98
4.65
1.42
-2.36
-6.21
-9.69
-12.6
-15.01
-17.36
-20.23
-24.1
-29.04
-34.55
-39.6
-42.88
-43.19
-39.77
-32.56
-22.23
-10
2.69
14.45
24.2
31.3
35.54
37.06
36.24
33.56
29.58
24.83
19.86
15.15
11.13
8.03
5.89
4.56
3.74
3.12
2.45
1.57
0.41
-1.05
-2.76
-4.7
-6.84
-9.18
-11.78
-14.73
-18.13
-22.09
-26.62
-31.61
-36.72
-41.36
-44.68
-45.75
-43.76
-38.31
-29.64
-18.65
-6.6
5.17
15.61
24.08
30.35
34.31
35.86
34.98
31.85
27.03
21.47
16.23
12.18
9.69
8.59
8.29
8.07
7.41
6.11
4.27
2.18
0.13
-1.66
-3.19
-4.63
-6.26
-8.41
-11.43
-15.55
-20.82
-27.07
-33.85
-40.33
-45.39
-47.83
-46.64
-41.36
-32.33
-20.61
-7.72
4.84
15.94
25
31.85
36.49
38.91
39.08
37.12
33.41
28.7
23.84
19.53
16.15
13.69
11.93
10.6
9.5
8.51
7.48
6.21
4.48
2.23
-0.45
-3.29
-6.04
-8.65
-11.32
-14.43
-18.36
-23.32
-29.1
-35.07
-40.21
-43.32
-43.33
-39.63
-32.3
-22.1
-10.2
2.04
13.42
23.06
30.4
35.25
37.69
37.99
36.56
33.86
30.27
26.16
21.82
17.61
13.99
11.38
10.02
9.8
10.31
10.92
11.07
10.46
9.06
7
4.45
1.49
-1.85
-5.55
-9.55
-13.79
-18.34
-23.33
-28.79
-34.39
-39.28
-42.16
-41.77
-37.4
-29.22
-18.27
-6.11
5.77
16.25
24.8
31.25
35.63
37.94
38.15
36.34
32.85
28.29
23.42
18.93
15.31
12.72
11.05
10.1
9.71
9.73
10.06
10.46
10.58
9.99
8.34
5.53
1.72
-2.66
-7.13
-11.27
-14.96
-18.35
-21.85
-25.8
-30.17
-34.39
-37.37
-37.86
-34.94
-28.39
-18.82
-7.52
3.99
14.35
22.6
28.29
31.39
32.13
30.9
28.2
24.62
20.82
17.4
14.78
13.06
12.04
11.39
10.77
10.05
9.31
8.68
8.15
7.49
6.37
4.58
2.16
-0.59
-3.32
-5.84
-8.28
-11.03
-14.54
-18.99
-24.14
-29.24
-33.26
-35.2
-34.35
-30.57
-24.18
-15.92
-6.66
2.76
11.63
19.35
25.4
29.27
30.67
29.67
26.73
22.6
18.05
13.68
9.82
6.59
4.08
2.37
1.54
1.55
2.09
2.69
2.85
2.28
1.05
-0.59
-2.34
-4.06
-5.86
-7.98
-10.68
-14.06
-17.96
-22
-25.61
-28.15
-29.05
-27.93
-24.66
-19.39
-12.48
-4.49
3.86
11.79
18.49
23.26
25.73
25.87
24.05
20.87
16.97
12.97
9.34
6.42
4.38
3.13
2.41
1.82
1.02
-0.04
-1.16
-2
-2.35
-2.33
-2.46
-3.43
-5.91
-10.1
-15.76
-22.1
-28.1
-32.7
-35.06
-34.77
-31.83
-26.65
-19.82
-12.02
-3.86
4.12
11.44
17.69
22.49
25.51
26.53
25.55
22.81
18.86
14.5
10.53
7.54
5.7
4.77
4.28
3.76
2.99
2.03
1.08
0.3
-0.4
-1.27
-2.66
-4.81
-7.72
-11.22
-15.05
-19
-22.91
-26.6
-29.76
-31.85
-32.13
-29.93
-24.89
-17.32
-8.15
1.3
9.75
16.32
20.74
23.21
24.13
23.82
22.42
19.98
16.72
13.08
9.69
7.12
5.65
5.21
5.43
5.78
5.83
5.31
4.17
2.51
0.51
-1.68
-3.99
-6.48
-9.23
-12.35
-15.89
-19.76
-23.71
-27.3
-29.92
-30.95
-29.89
-26.46
-20.82
-13.54
-5.47
2.53
9.79
15.96
20.88
24.42
26.41
26.68
25.23
22.39
18.79
15.18
12.18
10.14
9.05
8.69
8.71
8.84
8.79
8.33
7.34
5.79
3.83
1.68
-0.47
-2.54
-4.62
-6.9
-9.58
-12.76
-16.43
-20.45
-24.53
-28.22
-30.95
-32.09
-31.11
-27.76
-22.17
-14.9
-6.73
1.45
8.87
15
19.56
22.47
23.82
23.85
22.81
21.03
18.8
16.41
14.15
12.28
11.01
10.44
10.51
11.02
11.62
11.96
11.76
10.88
9.36
7.34
5.03
2.66
0.38
-1.71
-3.7
-5.8
-8.27
-11.36
-15.1
-19.31
-23.61
-27.49
-30.42
-31.89
-31.46
-28.81
-23.9
-16.97
-8.68
-0.01
7.97
14.35
18.65
20.77
21.01
19.82
17.78
15.43
13.25
11.55
10.43
9.76
9.26
8.65
7.78
6.75
5.78
5.06
4.62
4.31
3.89
3.18
2.17
0.92
-0.47
-2
-3.77
-5.9
-8.44
-11.33
-14.46
-17.7
-20.92
-23.99
-26.6
-28.27
-28.45
-26.71
-22.98
-17.57
-11.1
-4.28
2.28
8.14
12.97
16.49
18.48
18.85
17.71
15.46
12.63
9.77
7.32
5.54
4.53
4.23
4.42
4.76
4.86
4.42
3.4
2.01
0.6
-0.56
-1.48
-2.41
-3.7
-5.57
-8.02
-10.81
-13.74
-16.75
-19.9
-23.16
-26.19
-28.32
-28.73
-26.84
-22.62
-16.59
-9.68
-2.84
3.24
8.28
12.28
15.34
17.42
18.43
18.19
16.75
14.38
11.58
8.93
6.87
5.57
4.93
4.65
4.42
3.99
3.27
2.29
1.14
-0.06
-1.18
-2.2
-3.17
-4.28
-5.86
-8.27
-11.77
-16.3
-21.41
-26.23
-29.74
-31.06
-29.77
-26.01
-20.43
-13.87
-7.04
-0.46
5.63
11.08
15.73
19.35
21.74
22.84
22.71
21.58
19.7
17.26
14.39
11.19
7.88
4.83
2.52
1.27
1.15
1.77
2.43
2.42
1.34
-0.78
-3.52
-6.37
-9.05
-11.64
-14.54
-18.15
-22.55
-27.39
-31.89
-35.12
-36.24
-34.78
-30.7
-24.37
-16.5
-7.89
0.6
8.28
14.63
19.32
22.2
23.32
22.87
21.21
18.79
16.13
13.73
12
11.03
10.62
10.35
9.81
8.78
7.39
5.97
4.89
4.29
3.94
3.42
2.26
0.22
-2.64
-6.13
-10.09
-14.52
-19.45
-24.73
-29.78
-33.69
-35.38
-33.97
-29.18
-21.39
-11.57
-0.96
9.2
17.97
24.71
29.18
31.4
31.68
30.48
28.34
25.8
23.28
21.07
19.31
18.02
17.17
16.57
15.99
15.18
13.97
12.36
10.53
8.75
7.21
5.93
4.71
3.2
1.03
-2.04
-5.99
-10.62
-15.64
-20.78
-25.76
-30.24
-33.72
-35.46
-34.73
-31.04
-24.42
-15.51
-5.48
4.39
13.01
19.76
24.54
27.53
29
29.14
28.05
25.89
22.88
19.41
15.95
12.96
10.78
9.57
9.19
9.33
9.54
9.49
9.02
8.19
7.11
5.88
4.47
2.75
0.58
-2.04
-4.93
-7.86
-10.65
-13.39
-16.33
-19.71
-23.47
-27.11
-29.82
-30.74
-29.3
-25.36
-19.25
-11.55
-3.01
5.65
13.71
20.56
25.66
28.69
29.61
28.66
26.33
23.19
19.8
16.58
13.81
11.58
9.88
8.64
7.82
7.4
7.33
7.47
7.58
7.39
6.67
5.38
3.69
1.8
-0.12
-2.08
-4.29
-7.04
-10.48
-14.53
-18.82
-22.78
-25.82
-27.47
-27.44
-25.62
-22.01
-16.73
-10.06
-2.55
5.02
11.73
16.82
19.9
21
20.52
18.96
16.75
14.17
11.43
8.77
6.45
4.71
3.63
3.14
3.04
3.06
2.98
2.61
1.86
0.73
-0.67
-2.17
-3.63
-5.08
-6.76
-9.09
-12.33
-16.41
-20.77
-24.55
-26.83
-27.02
-24.97
-20.97
-15.55
-9.31
-2.8
3.52
9.26
14.07
17.6
19.57
19.84
18.46
15.77
12.33
8.81
5.77
3.57
2.21
1.46
0.99
0.48
-0.25
-1.12
-1.98
-2.63
-3.01
-3.29
-3.81
-5.02
-7.25
-10.57
-14.76
-19.32
-23.63
-27.06
-29.07
-29.26
-27.38
-23.48
-17.93
-11.34
-4.39
2.31
8.35
13.49
17.46
19.99
20.83
19.89
17.39
13.88
10.07
6.67
4.12
2.56
1.86
1.75
1.91
2.05
2.02
1.69
1.06
0.05
-1.45
-3.58
-6.48
-10.14
-14.39
-18.93
-23.34
-27.16
-29.93
-31.14
-30.36
-27.35
-22.22
-15.51
-8.11
-1
5.09
9.87
13.45
16.2
18.4
20.07
20.99
20.83
19.39
16.81
13.49
10.07
7.16
5.14
4.13
3.91
4.15
4.42
4.34
3.72
2.51
0.85
-1.06
-3.15
-5.57
-8.66
-12.71
-17.79
-23.49
-28.99
-33.32
-35.64
-35.47
-32.7
-27.51
-20.31
-11.64
-2.28
6.81
14.7
20.7
24.52
26.36
26.59
25.59
23.63
20.94
17.83
14.84
12.48
11.1
10.65
10.69
10.69
10.22
9.24
7.93
6.61
5.49
4.48
3.31
1.64
-0.72
-3.75
-7.25
-11.01
-14.89
-19.02
-23.54
-28.45
-33.33
-37.31
-39.23
-38.16
-33.76
-26.44
-17.24
-7.38
2.08
10.5
17.53
22.98
26.71
28.65
28.88
27.66
25.48
22.85
20.2
17.82
15.88
14.45
13.56
13.16
13.13
13.29
13.46
13.52
13.34
12.79
11.68
9.87
7.32
4.2
0.79
-2.57
-5.71
-8.74
-11.99
-15.9
-20.71
-26.29
-32.1
-37.2
-40.51
-41.1
-38.42
-32.49
-23.93
-13.77
-3.2
6.76
15.41
22.27
27.08
29.65
29.88
27.99
24.54
20.44
16.6
13.64
11.66
10.35
9.39
8.65
8.32
8.66
9.62
10.81
11.54
11.17
9.46
6.59
3.01
-0.81
-4.51
-7.95
-11.07
-13.9
-16.62
-19.47
-22.72
-26.39
-30.09
-33.02
-34.16
-32.64
-28.15
-20.98
-11.97
-2.19
7.36
15.85
22.75
27.7
30.49
31.05
29.51
26.27
21.88
17.06
12.54
8.94
6.63
5.63
5.6
5.95
6.07
5.51
4.19
2.32
0.3
-1.58
-3.24
-4.88
-6.88
-9.61
-13.35
-18.15
-23.75
-29.5
-34.46
-37.55
-37.88
-35.04
-29.22
-21.1
-11.57
-1.53
8.33
17.4
25.13
30.93
34.27
34.82
32.63
28.21
22.44
16.42
11.2
7.52
5.63
5.24
5.68
6.16
6.1
5.23
3.67
1.74
-0.29
-2.25
-4.25
-6.51
-9.34
-12.95
-17.39
-22.49
-27.81
-32.64
-36.16
-37.6
-36.39
-32.32
-25.54
-16.54
-6.09
4.88
15.35
24.39
31.24
35.47
36.96
35.92
32.86
28.5
23.64
19.04
15.25
12.52
10.83
9.87
9.24
8.54
7.49
5.98
4.08
2
-0.06
-1.99
-3.89
-6.08
-9.1
-13.4
-19.2
-26.19
-33.56
-40.06
-44.36
-45.4
-42.6
-36.07
-26.51
-15.06
-2.97
8.57
18.65
26.66
32.25
35.32
35.98
34.61
31.8
28.23
24.56
21.23
18.48
16.28
14.56
13.19
12.04
10.96
9.81
8.45
6.76
4.7
2.32
-0.31
-3.11
-6.07
-9.24
-12.78
-16.93
-21.88
-27.62
-33.72
-39.25
-42.9
-43.39
-39.94
-32.59
-22.19
-10.13
2.16
13.54
23.28
30.94
36.18
38.71
38.42
35.59
30.93
25.51
20.4
16.36
13.63
12.07
11.26
10.85
10.53
10.15
9.61
8.76
7.5
5.78
3.63
1.17
-1.5
-4.35
-7.44
-10.87
-14.81
-19.38
-24.59
-30.2
-35.61
-39.9
-42.03
-41.06
-36.59
-28.84
-18.67
-7.28
4.14
14.64
23.52
30.4
34.98
37.1
36.73
34.16
29.95
24.85
19.64
14.95
11.15
8.37
6.63
5.83
5.83
6.35
6.98
7.29
6.89
5.68
3.73
1.26
-1.55
-4.67
-8.21
-12.34
-17.09
-22.34
-27.71
-32.67
-36.51
-38.5
-37.98
-34.57
-28.32
-19.78
-9.92
0.14
9.42
17.29
23.52
28.11
31.06
32.27
31.6
29.03
24.84
19.68
14.43
9.93
6.76
5.05
4.49
4.53
4.64
4.45
3.83
2.78
1.27
-0.77
-3.37
-6.5
-9.88
-13.18
-16.18
-18.95
-21.85
-25.21
-29
-32.6
-34.81
-34.43
-30.72
-23.84
-14.76
-4.84
4.72
13.19
20.3
25.97
30.06
32.23
32.16
29.82
25.65
20.51
15.46
11.4
8.79
7.64
7.5
7.81
8.08
7.99
7.41
6.37
4.93
3.17
1.22
-0.76
-2.66
-4.56
-6.8
-9.84
-14.03
-19.18
-24.43
-28.43
-29.76
-27.57
-21.91
-13.7
-4.31
4.86
12.79
18.95
23.23
25.79
26.88
26.72
25.49
23.34
20.41
16.95
13.39
10.19
7.66
5.83
4.37
2.79
0.71
-1.85
-4.59
-7.08
-9.13
-10.92
-12.92
-15.66
-19.48
-24.41
-30.13
-36.09
-41.56
-45.66
-47.49
-46.32
-41.85
-34.4
-24.89
-14.59
-4.74
3.77
10.57
15.63
19.06
20.9
21.14
19.83
17.31
14.17
11.27
9.4
9.02
10.11
12.21
14.67
16.83
18.28
18.87
18.66
17.8
16.43
14.69
12.68
10.44
7.92
4.93
1.21
-3.42
-8.77
-14.25
-18.9
-21.74
-22.11
-19.94
-15.75
-10.38
-4.61
1.06
6.38
11.25
15.53
18.85
20.79
20.98
19.35
16.22
12.24
8.19
4.78
2.42
1.09
0.5
0.19
-0.17
-0.65
-1.14
-1.42
-1.39
-1.16
-1.01
-1.31
-2.41
-4.51
-7.69
-11.88
-16.88
-22.21
-27.19
-30.89
-32.32
-30.76
-26.01
-18.53
-9.34
0.33
9.38
17.11
23.23
27.75
30.68
32.02
31.71
29.84
26.77
23.18
19.84
17.33
15.82
15.08
14.61
13.96
12.92
11.53
10.02
8.6
7.3
5.97
4.4
2.39
-0.13
-3.15
-6.67
-10.77
-15.56
-20.99
-26.74
-32.08
-36.03
-37.67
-36.41
-32.28
-25.8
-17.83
-9.25
-0.71
7.28
14.33
19.99
23.8
25.48
25.07
23.02
20.03
16.84
13.92
11.5
9.6
8.22
7.36
7.03
7.1
7.31
7.28
6.69
5.42
3.63
1.6
-0.44
-2.47
-4.7
-7.45
-10.87
-14.94
-19.41
-23.94
-28.18
-31.75
-34.23
-35.1
-33.85
-30.15
-24.11
-16.3
-7.7
0.66
7.98
13.81
18.07
20.84
22.25
22.38
21.34
19.34
16.73
13.96
11.42
9.34
7.78
6.63
5.76
5.01
4.32
3.67
3.12
2.66
2.22
1.61
0.65
-0.85
-2.97
-5.66
-8.86
-12.49
-16.43
-20.45
-24.08
-26.65
-27.42
-25.93
-22.16
-16.58
-9.96
-3.03
3.64
9.67
14.77
18.56
20.66
20.78
19
15.79
11.95
8.32
5.48
3.56
2.38
1.6
1
0.56
0.41
0.64
1.15
1.59
1.51
0.62
-1.08
-3.33
-5.78
-8.26
-10.88
-13.82
-17.18
-20.66
-23.59
-25.12
-24.55
-21.59
-16.53
-9.99
-2.81
4.21
10.45
15.51
19.09
21.04
21.33
20.08
17.61
14.43
11.15
8.28
6.06
4.41
2.99
1.5
-0.16
-1.73
-2.81
-3.09
-2.63
-1.88
-1.54
-2.2
-4.16
-7.35
-11.39
-15.84
-20.27
-24.26
-27.34
-28.99
-28.71
-26.19
-21.45
-14.88
-7.19
0.76
8.14
14.27
18.66
21.12
21.72
20.79
18.76
16.08
13.13
10.21
7.55
5.35
3.77
2.88
2.53
2.35
1.94
0.97
-0.58
-2.44
-4.25
-5.83
-7.32
-9.19
-11.94
-15.79
-20.4
-24.95
-28.39
-29.86
-28.89
-25.58
-20.44
-14.13
-7.32
-0.49
5.96
11.73
16.47
19.85
21.65
21.86
20.71
18.63
16.1
13.56
11.29
9.41
7.87
6.53
5.23
3.86
2.38
0.87
-0.54
-1.7
-2.62
-3.46
-4.6
-6.47
-9.42
-13.51
-18.45
-23.59
-28.08
-31.04
-31.86
-30.23
-26.33
-20.6
-13.61
-5.98
1.77
9.08
15.39
20.16
23.01
23.87
22.98
20.85
18.09
15.18
12.39
9.85
7.62
5.82
4.63
4.07
4.02
4.13
3.97
3.25
1.91
0.15
-1.81
-3.78
-5.82
-8.2
-11.26
-15.26
-20.11
-25.34
-30.1
-33.4
-34.39
-32.61
-28.13
-21.48
-13.39
-4.63
4.18
12.49
19.74
25.24
28.39
28.85
26.83
23.13
18.84
15.02
12.32
10.85
10.33
10.3
10.35
10.2
9.73
8.83
7.49
5.74
3.73
1.66
-0.33
-2.23
-4.23
-6.66
-9.81
-13.79
-18.44
-23.31
-27.73
-30.86
-31.9
-30.24
-25.68
-18.53
-9.56
0.16
9.55
17.7
24.07
28.38
30.54
30.58
28.69
25.23
20.88
16.45
12.75
10.26
9.02
8.63
8.55
8.29
7.66
6.78
5.92
5.19
4.51
3.59
2.17
0.09
-2.58
-5.75
-9.39
-13.59
-18.34
-23.35
-27.91
-30.97
-31.48
-28.82
-23.08
-15.03
-5.9
3.13
11.18
17.78
22.79
26.14
27.76
27.53
25.43
21.75
17.13
12.47
8.6
5.99
4.63
4.09
3.78
3.28
2.56
1.76
1.1
0.56
-0.05
-1.03
-2.58
-4.74
-7.47
-10.72
-14.58
-18.97
-23.53
-27.44
-29.58
-28.93
-25.07
-18.38
-9.88
-0.83
7.74
15.23
21.42
26.16
29.2
30.29
29.26
26.33
22.14
17.54
13.35
10
7.56
5.74
4.17
2.6
1.07
-0.19
-0.94
-1.16
-1.19
-1.66
-3.18
-6.09
-10.34
-15.49
-20.94
-26.08
-30.29
-33
-33.59
-31.56
-26.73
-19.4
-10.39
-0.79
8.33
16.25
22.58
27.2
30.05
31.06
30.29
27.97
24.59
20.77
17.06
13.8
10.99
8.46
5.99
3.5
1.13
-0.87
-2.24
-2.92
-3.17
-3.49
-4.44
-6.49
-9.85
-14.46
-19.94
-25.64
-30.76
-34.37
-35.67
-34.13
-29.59
-22.32
-13.02
-2.58
7.95
17.59
25.51
31.05
33.86
33.89
31.53
27.47
22.61
17.84
13.85
11.05
9.5
9
9.09
9.25
9.01
8.04
6.27
3.85
1.09
-1.73
-4.42
-7.04
-9.85
-13.16
-17.24
-22
-26.99
-31.33
-34.02
-34.15
-31.22
-25.33
-17.06
-7.4
2.62
12.03
20.08
26.18
29.94
31.18
30.03
27.02
22.93
18.68
15.03
12.38
10.75
9.81
9.13
8.36
7.37
6.22
5.13
4.25
3.57
2.9
1.94
0.29
-2.32
-6.05
-10.86
-16.48
-22.46
-28.16
-32.84
-35.74
-36.2
-33.87
-28.77
-21.39
-12.57
-3.28
5.58
13.41
19.88
24.86
28.27
29.95
29.74
27.59
23.81
19.08
14.34
10.48
8.04
7.08
7.14
7.57
7.79
7.47
6.61
5.37
3.89
2.14
-0.07
-2.95
-6.49
-10.5
-14.59
-18.43
-21.86
-24.9
-27.61
-29.86
-31.27
-31.23
-29.17
-24.81
-18.28
-10.17
-1.32
7.34
14.99
20.96
24.8
26.29
25.51
22.83
18.86
14.36
10.06
6.58
4.26
3.21
3.23
3.95
4.81
5.28
4.97
3.79
1.97
-0.06
-1.88
-3.34
-4.66
-6.35
-8.93
-12.67
-17.43
-22.58
-27.24
-30.51
-31.7
-30.48
-26.87
-21.26
-14.21
-6.45
1.31
8.42
14.33
18.61
20.97
21.32
19.83
16.91
13.17
9.27
5.76
2.97
1
-0.25
-0.87
-1.03
-0.87
-0.58
-0.43
-0.65
-1.4
-2.68
-4.45
-6.63
-9.23
-12.35
-16.07
-20.32
-24.71
-28.6
-31.16
-31.63
-29.56
-24.94
-18.18
-9.99
-1.23
7.28
14.85
20.95
25.17
27.27
27.2
25.17
21.68
17.46
13.31
9.85
7.41
5.94
5.13
4.57
3.91
2.93
1.56
-0.19
-2.25
-4.51
-6.91
-9.36
-11.86
-14.56
-17.76
-21.62
-26.02
-30.38
-33.66
-34.72
-32.71
-27.42
-19.34
-9.49
0.92
10.79
19.3
25.91
30.29
32.28
31.95
29.64
25.97
21.74
17.69
14.37
11.97
10.27
8.85
7.26
5.27
3.01
0.85
-0.78
-1.7
-2.18
-2.85
-4.47
-7.59
-12.29
-18.17
-24.49
-30.35
-34.91
-37.44
-37.36
-34.26
-28.12
-19.34
-8.77
2.45
13.2
22.54
29.91
35.05
37.88
38.45
36.96
33.79
29.57
25.1
21.11
18.09
16.13
14.94
13.97
12.63
10.47
7.31
3.31
-1.15
-5.6
-9.71
-13.54
-17.54
-22.48
-29.06
-37.6
-47.63
-57.86
-66.3
-70.87
-70.05
-63.38
-51.75
-37.15
-22.11
-9.03
0.45
5.75
7.24
5.96
3.19
0.03
-2.78
-4.86
-6.08
-6.34
-5.58
-3.75
-0.84
3.03
7.71
13.11
19.24
26.22
34.03
42.42
50.75
58.24
64.15
67.96
69.32
67.9
63.23
54.74
42.21
26.28
8.64
-8.31
-22.3
-32.19
-38.37
-42.46
-46.04
-49.48
-51.29
-48.9
-40.19
-24.95
-5.57
13.89
29.53
39.48
44.59
47.81
52.4
60.12
70.07
78.97
82.59
77.63
63.25
41.57
16.81
-6.35
-24.33
-35.75
-41.33
-42.92
-42.37
-40.77
-38.31
-34.77
-30.16
-25.07
-20.55
-17.72
-17.14
-18.56
-20.86
-22.59
-22.54
-20.5
-17.33
-14.67
-14.29
-17.38
-24.07
-33.33
-43.17
-51.03
-54.34
-51.17
-40.83
-24.25
-3.72
17.83
37.74
54.39
67.2
76.25
81.6
82.98
79.86
71.95
59.5
43.39
24.9
5.48
-13.31
-29.84
-42.55
-50.18
-52.28
-49.35
-42.82
-34.57
-26.33
-19.33
-14.21
-11.21
-10.37
-11.61
-14.61
-18.72
-23.03
-26.57
-28.74
-29.47
-29.27
-28.88
-28.92
-29.62
-30.7
-31.6
-31.74
-30.78
-28.87
-26.56
-24.68
-24
-24.88
-27.08
-29.69
-31.36
-30.68
-26.66
-19.05
-8.41
4.1
17.07
29.25
39.71
47.8
53.11
55.35
54.55
51.17
46.21
40.88
36.27
32.81
30.25
27.83
24.85
21.01
16.53
11.86
7.33
3.02
-1.16
-5.23
-9.1
-12.62
-15.83
-18.96
-22.19
-25.29
-27.39
-27.26
-23.81
-16.67
-6.55
5.04
16.32
25.89
33.03
37.65
39.94
40.16
38.53
35.26
30.65
25.15
19.26
13.54
8.46
4.31
1.17
-1.1
-2.8
-4.25
-5.65
-7.09
-8.61
-10.35
-12.61
-15.84
-20.28
-25.65
-30.96
-34.72
-35.38
-31.96
-24.43
-13.81
-1.74
10.06
20.23
28.02
33.24
36.01
36.59
35.24
32.3
28.19
23.43
18.56
14.07
10.31
7.42
5.34
3.88
2.71
1.47
-0.11
-2.18
-4.76
-7.85
-11.49
-15.8
-20.87
-26.43
-31.72
-35.5
-36.36
-33.25
-25.95
-15.27
-2.79
9.6
20.35
28.54
33.92
36.71
37.31
36.08
33.33
29.32
24.46
19.29
14.39
10.22
7.03
4.75
3.07
1.67
0.31
-1.05
-2.36
-3.7
-5.36
-7.88
-11.76
-17.15
-23.55
-29.81
-34.39
-35.85
-33.28
-26.66
-16.8
-5.01
7.29
18.85
28.78
36.42
41.36
43.39
42.57
39.36
34.57
29.22
24.25
20.26
17.41
15.42
13.83
12.18
10.26
8.09
5.91
3.95
2.26
0.62
-1.41
-4.37
-8.61
-14.13
-20.43
-26.63
-31.56
-34.06
-33.2
-28.56
-20.39
-9.54
2.61
14.58
25.07
33.2
38.6
41.28
41.5
39.65
36.22
31.79
27.1
22.84
19.5
17.18
15.58
14.14
12.32
9.95
7.2
4.54
2.43
1.01
0
-1.15
-3.11
-6.37
-11.07
-16.93
-23.25
-29.01
-33.05
-34.34
-32.26
-26.85
-18.77
-9.12
0.88
10.22
18.27
24.7
29.38
32.17
32.99
31.86
29.08
25.22
20.99
17.09
13.98
11.86
10.65
10.09
9.88
9.73
9.46
8.92
8.03
6.66
4.72
2.21
-0.71
-3.85
-7.07
-10.41
-14.15
-18.53
-23.48
-28.42
-32.26
-33.82
-32.29
-27.5
-20.01
-10.89
-1.29
7.79
15.63
21.71
25.63
27.13
26.24
23.37
19.26
14.91
11.18
8.64
7.37
7.07
7.23
7.34
7.13
6.54
5.65
4.57
3.39
2.11
0.69
-0.96
-2.92
-5.26
-8.04
-11.22
-14.77
-18.56
-22.35
-25.76
-28.25
-29.19
-28.04
-24.56
-18.94
-11.87
-4.33
2.71
8.52
12.8
15.54
16.86
16.89
15.67
13.31
10.04
6.36
2.88
0.16
-1.51
-2.2
-2.29
-2.28
-2.48
-2.93
-3.42
-3.69
-3.7
-3.72
-4.22
-5.66
-8.21
-11.68
-15.62
-19.46
-22.7
-24.86
-25.57
-24.53
-21.57
-16.85
-10.86
-4.39
1.7
6.74
10.36
12.54
13.39
13.09
11.74
9.5
6.64
3.65
1.12
-0.52
-1.21
-1.31
-1.48
-2.32
-4.02
-6.25
-8.36
-9.7
-10.05
-9.72
-9.38
-9.71
-11.11
-13.57
-16.71
-20.02
-22.93
-24.97
-25.66
-24.68
-21.87
-17.36
-11.64
-5.43
0.42
5.29
8.86
11.09
12.09
11.95
10.69
8.46
5.68
3
1.07
0.19
0.13
0.27
-0.1
-1.26
-3.01
-4.74
-5.91
-6.32
-6.24
-6.16
-6.53
-7.64
-9.58
-12.48
-16.39
-21.19
-26.3
-30.73
-33.25
-32.92
-29.5
-23.53
-16.14
-8.54
-1.69
3.98
8.41
11.68
13.84
14.84
14.61
13.23
10.94
8.14
5.32
2.89
1.11
0.04
-0.44
-0.59
-0.73
-1.17
-2.13
-3.67
-5.59
-7.55
-9.17
-10.25
-10.89
-11.55
-12.82
-15.18
-18.8
-23.32
-27.99
-31.83
-33.94
-33.69
-30.84
-25.57
-18.46
-10.41
-2.42
4.59
10
13.59
15.52
16.13
15.78
14.79
13.4
11.8
10.18
8.67
7.3
5.98
4.68
3.45
2.47
1.95
1.92
2.18
2.33
1.98
0.99
-0.54
-2.34
-4.2
-6.12
-8.28
-10.88
-14.09
-17.93
-22.27
-26.86
-31.19
-34.44
-35.66
-34.04
-29.27
-21.82
-12.8
-3.56
4.73
11.48
16.55
20.15
22.46
23.51
23.25
21.69
19.07
15.87
12.67
10.03
8.29
7.5
7.44
7.76
8.11
8.29
8.27
8.17
8.02
7.72
7
5.57
3.3
0.32
-2.97
-6.17
-9.01
-11.56
-14.16
-17.19
-20.85
-24.97
-28.92
-31.83
-32.71
-30.86
-26.07
-18.74
-9.77
-0.35
8.37
15.61
21.04
24.73
26.94
27.97
27.99
27.06
25.22
22.58
19.45
16.24
13.46
11.46
10.31
9.81
9.56
9.22
8.65
7.93
7.18
6.49
5.7
4.57
2.93
0.78
-1.68
-4.25
-6.94
-9.93
-13.57
-17.93
-22.76
-27.29
-30.52
-31.45
-29.5
-24.68
-17.59
-9.24
-0.72
7.12
13.77
19.01
22.83
25.16
25.93
25.13
22.93
19.74
16.1
12.54
9.38
6.83
4.93
3.76
3.34
3.63
4.37
5.22
5.76
5.77
5.23
4.24
2.9
1.14
-1.23
-4.4
-8.44
-13.13
-18.05
-22.66
-26.43
-28.86
-29.56
-28.23
-24.74
-19.24
-12.15
-4.13
4.01
11.52
17.79
22.4
25.12
25.92
24.99
22.68
19.44
15.72
11.93
8.45
5.6
3.62
2.6
2.29
2.23
1.87
0.82
-0.9
-2.93
-4.79
-6.17
-7.18
-8.3
-10.09
-12.97
-16.91
-21.5
-26.03
-29.62
-31.44
-30.85
-27.58
-21.77
-14.03
-5.29
3.38
11.07
17.15
21.36
23.73
24.42
23.62
21.54
18.44
14.75
10.99
7.68
5.19
3.6
2.78
2.42
2.23
1.98
1.52
0.75
-0.38
-1.93
-3.92
-6.33
-9.18
-12.51
-16.38
-20.73
-25.21
-29.17
-31.74
-32.1
-29.78
-24.89
-18.01
-10.06
-1.91
5.82
12.78
18.77
23.6
26.96
28.52
28.12
25.97
22.67
19
15.73
13.28
11.64
10.47
9.28
7.73
5.8
3.78
2.07
0.94
0.3
-0.26
-1.33
-3.35
-6.53
-10.78
-15.77
-21.11
-26.28
-30.69
-33.63
-34.36
-32.31
-27.36
-19.87
-10.65
-0.73
8.84
17.22
23.87
28.48
31
31.52
30.28
27.63
24.07
20.2
16.65
13.83
11.89
10.65
9.73
8.75
7.47
5.91
4.24
2.68
1.35
0.27
-0.65
-1.57
-2.79
-4.69
-7.7
-12.09
-17.82
-24.37
-30.75
-35.73
-38.16
-37.32
-33.02
-25.68
-16.15
-5.5
5.17
14.85
22.75
28.36
31.56
32.51
31.68
29.63
26.95
24.05
21.21
18.59
16.32
14.55
13.41
12.95
13.01
13.29
13.38
12.94
11.77
9.88
7.44
4.64
1.71
-1.26
-4.17
-7.04
-9.97
-13.13
-16.74
-20.98
-25.84
-30.97
-35.66
-38.85
-39.46
-36.72
-30.44
-21.16
-10.04
1.51
12.18
21.03
27.61
31.79
33.69
33.44
31.32
27.74
23.38
19.09
15.66
13.66
13.25
14.11
15.63
17.05
17.78
17.54
16.49
15.05
13.71
12.72
12.05
11.35
10.19
8.31
5.72
2.66
-0.52
-3.61
-6.61
-9.67
-13.03
-16.8
-20.98
-25.42
-29.92
-34.22
-37.97
-40.72
-41.8
-40.54
-36.47
-29.54
-20.33
-9.89
0.52
9.79
17.23
22.62
26.05
27.76
27.96
26.87
24.78
22.13
19.46
17.26
15.83
15.2
15.14
15.3
15.36
15.19
14.83
14.41
14.03
13.64
13.02
11.89
10.06
7.48
4.37
1.07
-2.05
-4.77
-7.04
-9.09
-11.29
-14.04
-17.59
-21.89
-26.67
-31.41
-35.52
-38.34
-39.25
-37.72
-33.45
-26.55
-17.59
-7.54
2.41
11.15
17.91
22.38
24.64
25.05
24.01
21.98
19.35
16.52
13.84
11.54
9.71
8.33
7.33
6.68
6.43
6.55
6.89
7.15
6.94
5.94
4.06
1.49
-1.42
-4.3
-6.88
-9.15
-11.25
-13.48
-16.17
-19.55
-23.64
-28.04
-31.99
-34.47
-34.58
-31.8
-26.26
-18.69
-10.18
-1.79
5.71
11.94
16.83
20.43
22.75
23.69
23.15
21.11
17.81
13.7
9.39
5.52
2.58
0.79
0.09
0.16
0.51
0.66
0.2
-1.05
-3.04
-5.53
-8.25
-10.97
-13.55
-16.04
-18.57
-21.35
-24.55
-28.16
-31.83
-34.87
-36.37
-35.46
-31.66
-25.11
-16.51
-6.97
2.49
11.05
18.26
23.85
27.58
29.24
28.74
26.29
22.47
18.1
13.92
10.44
7.81
5.93
4.58
3.58
2.77
2
1.13
0
-1.4
-3
-4.72
-6.57
-8.72
-11.46
-15.08
-19.69
-25.06
-30.6
-35.38
-38.35
-38.55
-35.43
-29.13
-20.39
-10.39
-0.36
8.8
16.56
22.73
27.19
29.77
30.23
28.57
25.14
20.71
16.33
12.88
10.79
9.92
9.69
9.45
8.75
7.5
5.89
4.18
2.59
1.13
-0.28
-1.83
-3.67
-5.96
-8.87
-12.58
-17.14
-22.4
-27.88
-32.84
-36.32
-37.44
-35.55
-30.47
-22.62
-12.87
-2.38
7.71
16.51
23.47
28.42
31.37
32.48
31.9
29.88
26.72
22.91
19.04
15.7
13.3
11.95
11.43
11.3
11.14
10.67
9.87
8.85
7.66
6.3
4.63
2.53
-0.1
-3.27
-7
-11.3
-16.24
-21.79
-27.64
-33.08
-37.11
-38.64
-36.87
-31.54
-23.08
-12.47
-1.05
9.87
19.26
26.49
31.35
33.9
34.43
33.37
31.25
28.63
26.02
23.78
22.03
20.73
19.74
18.88
18.07
17.27
16.48
15.58
14.35
12.59
10.21
7.34
4.33
1.51
-0.98
-3.28
-5.74
-8.74
-12.52
-17.09
-22.32
-27.88
-33.34
-38
-40.97
-41.34
-38.47
-32.28
-23.38
-12.86
-1.95
8.36
17.37
24.73
30.22
33.68
35.09
34.58
32.59
29.65
26.3
23
20.12
17.92
16.61
16.32
16.92
18.03
19.09
19.6
19.31
18.25
16.66
14.79
12.7
10.29
7.43
4.07
0.39
-3.31
-6.78
-9.97
-13.04
-16.27
-19.89
-24
-28.49
-33.08
-37.34
-40.68
-42.37
-41.71
-38.24
-31.91
-23.26
-13.25
-3.03
6.41
14.4
20.64
25.02
27.46
27.91
26.5
23.66
20.12
16.72
14.16
12.66
12.04
11.89
11.86
11.86
12.03
12.5
13.16
13.62
13.35
11.97
9.47
6.24
2.85
-0.22
-2.74
-4.76
-6.54
-8.37
-10.53
-13.25
-16.68
-20.94
-25.92
-31.15
-35.77
-38.69
-38.92
-35.9
-29.75
-21.29
-11.71
-2.25
6.13
12.94
18.03
21.46
23.32
23.7
22.71
20.53
17.54
14.22
11.06
8.51
6.79
5.96
5.87
6.31
7
7.76
8.41
8.8
8.77
8.19
6.92
4.96
2.4
-0.58
-3.8
-7.13
-10.55
-14.18
-18.14
-22.44
-26.86
-30.87
-33.76
-34.76
-33.35
-29.44
-23.43
-16.02
-8.05
-0.26
6.79
12.73
17.3
20.35
21.76
21.61
20.06
17.43
14.09
10.51
7.15
4.46
2.72
1.96
1.91
2.19
2.35
2.09
1.27
-0.1
-1.93
-4.12
-6.58
-9.25
-12.08
-15.05
-18.21
-21.64
-25.44
-29.54
-33.62
-37.05
-38.99
-38.62
-35.45
-29.47
-21.3
-11.96
-2.61
5.79
12.67
17.82
21.27
23.05
23.22
21.87
19.27
15.95
12.55
9.63
7.51
6.16
5.27
4.47
3.52
2.37
1.12
-0.12
-1.3
-2.5
-3.91
-5.71
-8.01
-10.89
-14.34
-18.39
-23.07
-28.28
-33.63
-38.33
-41.29
-41.46
-38.24
-31.78
-22.97
-13.08
-3.35
5.44
12.99
19.31
24.4
28.05
29.91
29.8
27.89
24.74
21.14
17.8
15.07
13
11.32
9.77
8.17
6.49
4.78
3.06
1.38
-0.31
-2.05
-3.96
-6.22
-9.09
-12.79
