-2.01
-4.54
-6.85
-8.9
-10.76
-12.67
-14.94
-17.87
-21.56
-25.71
-29.59
-32.16
-32.48
-30.06
-25.07
-18.28
-10.74
-3.4
3.12
8.58
12.97
16.3
18.57
19.77
19.97
19.39
18.34
17.09
15.81
14.55
13.26
11.98
10.77
9.77
9.13
8.9
9
9.24
9.38
9.24
8.71
7.86
6.76
5.54
4.18
2.59
0.62
-1.82
-4.66
-7.68
-10.5
-12.8
-14.44
-15.58
-16.61
-18.03
-20.18
-23.13
-26.53
-29.75
-31.97
-32.41
-30.51
-26.12
-19.61
-11.78
-3.63
3.86
10.06
14.71
17.98
20.13
21.42
21.96
21.8
20.99
19.68
18.12
16.6
15.34
14.44
13.86
13.48
13.13
12.72
12.24
11.81
11.52
11.39
11.27
10.9
10.04
8.55
6.55
4.35
2.26
0.49
-0.97
-2.32
-3.81
-5.58
-7.63
-9.76
-11.76
-13.46
-14.78
-15.79
-16.63
-17.52
-18.68
-20.32
-22.52
-25.23
-28.12
-30.65
-32.19
-32.15
-30.19
-26.34
-20.94
-14.52
-7.72
-1.06
5.06
10.31
14.47
17.41
19.11
19.67
19.31
18.34
17.1
15.79
14.51
13.24
11.92
10.54
9.2
8.06
7.3
7.02
7.14
7.47
7.76
7.79
7.47
6.84
5.99
4.99
3.85
2.54
1.05
-0.65
-2.54
-4.53
-6.53
-8.44
-10.19
-11.75
-13.1
-14.32
-15.51
-16.83
-18.43
-20.28
-22.15
-23.6
-24.05
-23.03
-20.28
-15.91
-10.43
-4.56
0.98
5.67
9.24
11.71
13.18
13.74
13.41
12.27
10.45
8.26
6.09
4.32
3.12
2.47
2.14
1.86
1.48
1.05
0.73
0.68
0.96
1.45
1.93
2.21
2.12
1.67
0.92
-0.04
-1.12
-2.27
-3.45
-4.67
-6
-7.54
-9.42
-11.69
-14.29
-16.99
-19.47
-21.31
-22.11
-21.54
-19.44
-15.83
-10.99
-5.43
0.24
5.39
9.59
12.55
14.25
14.75
14.19
12.78
10.73
8.39
6.07
4.12
2.73
1.92
1.6
1.56
1.61
1.62
1.54
1.42
1.31
1.32
1.42
1.52
1.43
0.92
-0.17
-1.87
-4.03
-6.44
-8.87
-11.2
-13.46
-15.79
-18.28
-20.94
-23.57
-25.72
-26.89
-26.58
-24.52
-20.7
-15.43
-9.22
-2.71
3.48
8.82
12.95
15.71
17.13
17.39
16.79
15.64
14.22
12.69
11.17
9.7
8.34
7.13
6.1
5.21
4.46
3.89
3.6
3.66
4.05
4.58
4.94
4.83
4.05
2.58
0.57
-1.79
-4.33
-6.9
-9.38
-11.64
-13.58
-15.26
-16.94
-18.92
-21.47
-24.44
-27.27
-29.06
-28.98
-26.56
-21.93
-15.75
-8.93
-2.3
3.6
8.48
12.28
15.04
16.85
17.85
18.19
18.03
17.55
16.81
15.89
14.77
13.52
12.22
10.99
9.91
9.1
8.62
8.5
8.7
9.14
9.64
9.97
9.97
9.55
8.71
7.49
5.94
4.04
1.81
-0.7
-3.4
-6.1
-8.6
-10.73
-12.43
-13.81
-15.07
-16.51
-18.41
-20.92
-23.93
-27.07
-29.68
-30.96
-30.22
-27.06
-21.59
-14.35
-6.25
1.71
8.68
14.11
17.8
19.91
20.76
20.79
20.32
19.56
18.58
17.39
15.95
14.31
12.58
10.94
9.61
8.78
8.52
8.79
9.38
10.04
10.5
10.61
10.33
9.75
8.98
8.08
7.05
5.92
4.65
3.25
1.71
0.01
-1.85
-3.82
-5.8
-7.67
-9.35
-10.88
-12.43
-14.28
-16.66
-19.62
-22.95
-26.26
-28.96
-30.48
-30.36
-28.35
-24.49
-19.11
-12.73
-6.02
0.37
5.94
10.39
13.64
15.76
16.91
17.24
16.89
15.97
14.62
12.98
11.23
9.52
8
6.77
5.92
5.47
5.35
5.46
5.69
5.97
6.27
6.6
6.86
6.88
6.39
5.22
3.36
1.01
-1.48
-3.78
-5.75
-7.44
-9.07
-10.88
-12.99
-15.4
-17.99
-20.57
-22.93
-24.8
-25.77
-25.43
-23.43
-19.64
-14.29
-7.9
-1.17
5.24
10.85
15.41
18.78
20.9
21.69
21.17
19.45
16.81
13.61
10.3
7.24
4.7
2.83
1.7
1.23
1.26
1.57
1.94
2.21
2.31
2.2
1.88
1.33
0.46
-0.74
-2.21
-3.8
-5.36
-6.81
-8.26
-9.95
-12.2
-15.19
-18.82
-22.68
-26.11
-28.35
-28.79
-27.12
-23.43
-18.16
-11.97
-5.58
0.43
5.67
9.93
13.18
15.4
16.58
16.7
15.83
14.11
11.82
9.33
6.98
5.03
3.65
2.96
2.98
3.7
4.91
6.31
7.51
8.13
7.96
6.99
5.38
3.34
1.13
-1.1
-3.29
-5.42
-7.53
-9.67
-11.92
-14.43
-17.36
-20.84
-24.84
-29.08
-32.99
-35.81
-36.73
-35.19
-31.05
-24.72
-17.06
-9.06
-1.6
4.81
10
14.05
17.1
19.17
20.24
20.25
19.25
17.46
15.22
12.94
10.97
9.56
8.76
8.48
8.54
8.76
8.99
9.16
9.29
9.38
9.39
9.12
8.37
6.95
4.81
2.09
-0.97
-4.06
-6.97
-9.64
-12.18
-14.77
-17.67
-21.06
-25.03
-29.5
-34.15
-38.46
-41.76
-43.39
-42.79
-39.74
-34.35
-27.1
-18.69
-9.94
-1.58
5.87
12.13
17.13
20.93
23.56
25.05
25.39
24.74
23.34
21.6
19.93
18.57
17.6
16.9
16.34
15.9
15.68
15.84
16.4
17.17
17.78
17.86
17.22
15.94
14.25
12.43
10.61
8.72
6.62
4.1
1.11
-2.27
-5.86
-9.43
-12.75
-15.71
-18.32
-20.78
-23.44
-26.6
-30.42
-34.77
-39.17
-42.88
-45.03
-44.88
-41.99
-36.42
-28.65
-19.54
-10.06
-1.08
6.82
13.35
18.48
22.3
24.88
26.32
26.74
26.32
25.34
24.13
22.95
21.98
21.31
20.94
20.84
20.98
21.41
22.12
23.02
23.92
24.53
24.53
23.74
22.19
20.07
17.7
15.35
13.17
11.13
9.09
6.87
4.33
1.43
-1.74
-5.01
-8.12
-10.83
-13.02
-14.76
-16.34
-18.18
-20.71
-24.12
-28.32
-32.85
-36.94
-39.71
-40.36
-38.33
-33.49
-26.21
-17.25
-7.65
1.58
9.69
16.25
21.18
24.52
26.4
26.93
26.23
24.57
22.34
20.03
18.04
16.64
15.9
15.73
16.02
16.67
17.6
18.74
19.93
20.96
21.56
21.52
20.75
19.24
17.12
14.53
11.59
8.38
4.94
1.4
-2.08
-5.29
-8.12
-10.55
-12.76
-14.99
-17.5
-20.48
-23.91
-27.6
-31.08
-33.67
-34.63
-33.26
-29.18
-22.44
-13.64
-3.69
6.29
15.34
22.84
28.48
32.26
34.31
34.85
34.08
32.27
29.8
27.09
24.57
22.58
21.26
20.58
20.47
20.81
21.51
22.45
23.41
24.12
24.29
23.74
22.43
20.48
18.08
15.38
12.49
9.42
6.2
2.86
-0.48
-3.74
-6.81
-9.65
-12.26
-14.69
-17.07
-19.58
-22.44
-25.78
-29.55
-33.38
-36.61
-38.32
-37.68
-34.2
-27.96
-19.61
-10.14
-0.61
8.08
15.38
21.1
25.26
28.04
29.61
30.18
29.93
29.06
27.8
26.41
25.07
23.95
23.08
22.45
21.97
21.68
21.63
21.87
22.39
23.03
23.46
23.36
22.49
20.81
18.49
15.83
13.19
10.87
8.97
7.38
5.84
3.97
1.54
-1.51
-5
-8.57
-11.87
-14.7
-17.09
-19.24
-21.45
-24
-27.05
-30.6
-34.43
-38.1
-40.99
-42.37
-41.58
-38.22
-32.29
-24.21
-14.77
-4.91
4.49
12.76
19.5
24.53
27.81
29.43
29.57
28.55
26.78
24.74
22.86
21.45
20.63
20.33
20.41
20.68
20.98
21.22
21.36
21.47
21.6
21.78
21.98
22.02
21.68
20.74
19.11
16.89
14.34
11.74
9.33
7.13
5.01
2.76
0.26
-2.46
-5.2
-7.74
-9.89
-11.63
-13.13
-14.66
-16.48
-18.77
-21.63
-25.06
-28.97
-33.1
-37
-39.97
-41.18
-39.89
-35.72
-28.81
-19.91
-10.19
-0.86
7.11
13.24
17.55
20.37
22.1
23.01
23.21
22.67
21.45
19.73
17.81
16.02
14.56
13.53
12.91
12.64
12.66
12.93
13.41
13.97
14.48
14.74
14.61
13.95
12.7
10.87
8.65
6.29
4.07
2.2
0.69
-0.58
-1.89
-3.42
-5.25
-7.27
-9.3
-11.15
-12.74
-14.1
-15.35
-16.61
-17.97
-19.5
-21.27
-23.31
-25.61
-28
-30.16
-31.52
-31.52
-29.7
-25.93
-20.48
-13.9
-6.96
-0.34
5.43
10.09
13.56
15.87
17.08
17.2
16.33
14.58
12.21
9.58
7.11
5.16
3.97
3.56
3.79
4.41
5.18
5.91
6.52
6.99
7.31
7.44
7.26
6.71
5.71
4.32
2.71
1.06
-0.49
-1.96
-3.46
-5.2
-7.29
-9.71
-12.27
-14.79
-17.1
-19.25
-21.35
-23.49
-25.62
-27.42
-28.41
-28.03
-25.91
-22.01
-16.62
-10.29
-3.66
2.64
8.18
12.61
15.79
17.65
18.23
17.66
16.16
14.02
11.5
8.9
6.48
4.43
2.88
1.88
1.41
1.37
1.66
2.12
2.66
3.17
3.65
4.02
4.19
4.01
3.3
1.96
0
-2.39
-4.99
-7.53
-9.88
-12.03
-14.04
-16.03
-18.08
-20.31
-22.72
-25.27
-27.75
-29.74
-30.67
-29.97
-27.26
-22.55
-16.27
-9.12
-1.92
4.65
10.14
14.3
17.08
18.5
18.67
17.79
16.18
14.19
12.21
10.5
9.18
8.23
7.56
7.05
6.69
6.55
6.71
7.18
7.8
8.31
8.42
7.97
6.99
5.68
4.23
2.77
1.25
-0.48
-2.57
-5.08
-7.89
-10.77
-13.46
-15.76
-17.61
-19.15
-20.67
-22.53
-25.02
-28.14
-31.52
-34.41
-35.93
-35.36
-32.39
-27.2
-20.44
-12.98
-5.63
1
6.61
11.11
14.59
17.16
18.88
19.78
19.83
19.08
17.7
15.99
14.26
12.84
11.83
11.23
10.94
10.86
10.99
11.35
11.94
12.63
13.24
13.53
13.34
12.62
11.39
9.78
7.92
6
4.16
2.47
0.9
-0.73
-2.65
-5.05
-7.9
-11
-14.01
-16.61
-18.62
-20.15
-21.48
-23.01
-25.11
-27.86
-30.98
-33.85
-35.57
-35.33
-32.65
-27.57
-20.68
-12.9
-5.18
1.77
7.56
12.16
15.64
18.08
19.51
19.95
19.52
18.47
17.14
15.89
14.94
14.32
13.87
13.4
12.79
12.06
11.33
10.75
10.43
10.33
10.33
10.26
9.96
9.33
8.34
7.07
5.61
4.12
2.68
1.33
0
-1.4
-2.98
-4.79
-6.8
-8.9
-11.01
-13.04
-15.01
-17
-19.13
-21.53
-24.23
-27.06
-29.61
-31.34
-31.67
-30.12
-26.53
-21.06
-14.28
-6.97
0.03
6
10.54
13.61
15.47
16.51
17.07
17.28
17.04
16.17
14.59
12.44
10.14
8.16
6.9
6.51
6.88
7.69
8.56
9.22
9.56
9.61
9.52
9.29
8.86
8.05
6.7
4.77
2.43
-0.03
-2.36
-4.43
-6.34
-8.31
-10.51
-12.98
-15.6
-18.2
-20.69
-23.04
-25.24
-27.18
-28.54
-28.89
-27.79
-24.96
-20.41
-14.46
-7.67
-0.74
5.68
11.1
15.27
18.21
20.07
21.06
21.33
20.91
19.81
18.1
16.02
13.92
12.18
11.08
10.7
10.92
11.54
12.28
12.92
13.33
13.37
12.96
12.03
10.56
8.65
6.48
4.26
2.13
0.13
-1.8
-3.76
-5.83
-8
-10.24
-12.43
-14.5
-16.4
-18.11
-19.72
-21.33
-23.09
-25.12
-27.38
-29.62
-31.32
-31.82
-30.56
-27.24
-21.99
-15.34
-8.06
-0.92
5.48
10.74
14.71
17.41
18.98
19.64
19.6
19.08
18.24
17.21
16.04
14.78
13.5
12.33
11.49
11.13
11.37
12.19
13.44
14.85
16.1
16.9
17.05
16.51
15.27
13.45
11.15
8.51
5.65
2.7
-0.17
-2.89
-5.39
-7.68
-9.81
-11.8
-13.6
-15.17
-16.45
-17.51
-18.51
-19.75
-21.53
-24.08
-27.33
-30.88
-33.98
-35.76
-35.42
-32.51
-27.08
-19.68
-11.21
-2.7
4.96
11.18
15.76
18.79
20.56
21.34
21.39
20.89
20.04
19.06
18.17
17.5
17.04
16.66
16.2
15.66
15.16
14.92
15.05
15.55
16.18
16.65
16.65
15.97
14.55
12.48
9.99
7.42
5.14
3.36
2.06
0.99
-0.24
-1.97
-4.33
-7.15
-10.13
-12.92
-15.25
-17.04
-18.38
-19.5
-20.72
-22.4
-24.87
-28.24
-32.29
-36.38
-39.62
-40.99
-39.74
-35.6
-28.91
-20.49
-11.42
-2.74
4.8
10.82
15.28
18.33
20.19
21.06
21.1
20.5
19.51
18.41
17.45
16.81
16.49
16.37
16.33
16.23
16.09
15.93
15.85
15.84
15.89
15.88
15.75
15.4
14.82
13.98
12.9
11.61
10.15
8.56
6.91
5.23
3.57
1.95
0.31
-1.44
-3.41
-5.65
-8.06
-10.42
-12.5
-14.1
-15.31
-16.42
-17.86
-20.06
-23.2
-27.15
-31.44
-35.32
-37.96
-38.6
-36.71
-32.21
-25.47
-17.31
-8.73
-0.71
6.08
11.36
15.15
17.64
19.03
19.45
19.04
17.98
16.56
15.15
14.04
13.38
13.13
13.18
13.36
13.65
14.06
14.62
15.31
15.99
16.48
16.63
16.36
15.66
14.64
13.36
11.86
10.13
8.19
6.07
3.85
1.62
-0.57
-2.72
-4.84
-6.92
-8.91
-10.71
-12.26
-13.62
-14.92
-16.33
-18.03
-20.14
-22.68
-25.47
-28.1
-29.96
-30.38
-28.81
-25.07
-19.48
-12.75
-5.73
0.82
6.5
11.17
14.87
17.58
19.21
19.63
18.81
16.98
14.56
12.03
9.85
8.26
7.26
6.72
6.46
6.38
6.48
6.78
7.3
7.94
8.58
9.03
9.15
8.89
8.18
6.98
5.16
2.66
-0.48
-4
-7.48
-10.47
-12.72
-14.28
-15.52
-16.96
-19.03
-21.84
-25.15
-28.36
-30.75
-31.68
-30.75
-27.79
-22.94
-16.52
-9.12
-1.44
5.75
11.77
16.16
18.79
19.86
19.68
18.61
16.88
14.67
12.21
9.78
7.77
6.51
6.08
6.34
6.93
7.48
7.76
7.73
7.57
7.45
7.42
7.38
7.02
6.01
4.18
1.58
-1.48
-4.56
-7.3
-9.59
-11.53
-13.41
-15.52
-18.04
-20.97
-24.19
-27.42
-30.32
-32.48
-33.45
-32.84
-30.41
-26.14
-20.31
-13.37
-5.88
1.53
8.3
13.9
17.99
20.45
21.42
21.27
20.43
19.28
17.99
16.62
15.18
13.76
12.56
11.85
11.78
12.28
13.1
13.89
14.38
14.47
14.22
13.7
12.95
11.88
10.43
8.54
6.24
3.61
0.72
-2.39
-5.63
-8.84
-11.83
-14.46
-16.66
-18.54
-20.37
-22.41
-24.92
-27.95
-31.33
-34.62
-37.15
-38.14
-36.95
-33.25
-27.18
-19.4
-10.83
-2.47
4.87
10.73
14.97
17.78
19.46
20.4
20.88
21.11
21.11
20.87
20.38
19.77
19.2
18.91
18.98
19.37
19.88
20.27
20.4
20.28
20
19.62
19.11
18.29
17
15.24
13.14
11
8.99
7.13
5.19
2.9
0.07
-3.21
-6.68
-10
-12.9
-15.31
-17.37
-19.39
-21.67
-24.49
-27.96
-31.87
-35.73
-38.77
-40.15
-39.17
-35.52
-29.36
-21.34
-12.36
-3.44
4.57
11.09
15.91
19.12
21.02
21.93
22.16
21.94
21.46
20.92
20.52
20.38
20.48
20.69
20.8
20.7
20.43
20.16
20.11
20.37
20.87
21.39
21.71
21.61
20.97
19.69
17.77
15.28
12.44
9.57
7.01
4.92
3.22
1.62
-0.22
-2.48
-5.09
-7.77
-10.26
-12.45
-14.43
-16.38
-18.49
-20.83
-23.42
-26.21
-29.15
-32.13
-34.83
-36.74
-37.14
-35.42
-31.23
-24.77
-16.69
-7.97
0.44
7.8
13.7
18.07
20.98
22.59
23.09
22.66
21.54
19.95
18.13
16.35
14.83
13.72
13.14
13.07
13.42
14.01
14.61
15.08
15.32
15.35
15.2
14.9
14.44
13.76
12.78
11.43
9.69
7.55
5.05
2.26
-0.67
-3.59
-6.33
-8.75
-10.8
-12.5
-14.01
-15.59
-17.57
-20.17
-23.37
-26.82
-29.81
-31.5
-31.16
-28.43
-23.45
-16.82
-9.36
-1.89
4.94
10.73
15.26
18.42
20.19
20.63
19.94
18.36
16.28
14.04
11.98
10.35
9.22
8.57
8.31
8.32
8.53
8.94
9.53
10.25
10.97
11.45
11.49
10.91
9.65
7.73
5.27
2.44
-0.51
-3.33
-5.79
-7.8
-9.44
-10.98
-12.86
-15.43
-18.85
-22.88
-26.91
-30.11
-31.68
-31.1
-28.25
-23.41
-17.1
-9.95
-2.53
4.61
10.97
16.1
19.71
21.68
22.16
21.49
20.12
18.42
16.61
14.82
13.04
11.34
9.83
8.71
8.2
8.38
9.14
10.21
11.2
11.8
11.87
11.41
10.52
9.24
7.58
5.47
2.91
0.01
-2.99
-5.88
-8.49
-10.83
-13.02
-15.25
-17.69
-20.43
-23.52
-26.89
-30.37
-33.64
-36.21
-37.51
-37.01
-34.35
-29.54
-22.91
-15.09
-6.86
1.04
7.98
13.54
17.56
20.07
21.25
21.39
20.78
19.7
18.4
17.11
15.99
15.15
14.59
14.24
14.03
13.93
13.95
14.16
14.61
15.25
15.93
16.44
16.55
16.12
15.1
13.52
11.49
9.16
6.63
4.01
1.36
-1.29
-3.92
-6.54
-9.18
-11.81
-14.42
-16.94
-19.32
-21.49
-23.49
-25.48
-27.69
-30.32
-33.33
-36.34
-38.6
-39.23
-37.49
-33.09
-26.35
-18.07
-9.34
-1.21
5.62
10.86
14.59
17.09
18.67
19.61
20.1
20.28
20.24
20.05
19.78
19.44
19.08
18.71
18.41
18.26
18.33
18.69
19.28
20.02
20.68
21.05
20.97
20.36
19.26
17.75
15.97
14.08
12.22
10.48
8.86
7.26
5.5
3.4
0.89
-2.02
-5.13
-8.22
-11.03
-13.45
-15.48
-17.23
-18.92
-20.81
-23.15
-26.08
-29.58
-33.29
-36.63
-38.86
-39.29
-37.42
-33.15
-26.79
-18.96
-10.52
-2.33
4.9
10.69
14.9
17.6
19.08
19.63
19.52
18.88
17.8
16.38
14.8
13.33
12.25
11.74
11.8
12.26
12.9
13.57
14.23
14.95
15.74
16.46
16.88
16.68
15.7
13.99
11.82
9.51
7.35
5.45
3.76
2.15
0.47
-1.4
-3.49
-5.74
-8.04
-10.24
-12.24
-14.07
-15.91
-18
-20.55
-23.57
-26.8
-29.75
-31.8
-32.31
-30.85
-27.26
-21.81
-15.09
-7.89
-1.01
4.95
9.69
13.24
15.77
17.44
18.27
18.24
17.32
15.66
13.57
11.43
9.61
8.32
7.64
7.54
7.92
8.66
9.57
10.4
10.87
10.81
10.19
9.15
7.88
6.5
4.97
3.14
0.87
-1.78
-4.6
-7.24
-9.44
-11.15
-12.5
-13.84
-15.51
-17.77
-20.59
-23.74
-26.74
-29.03
-30.05
-29.38
-26.77
-22.22
-15.99
-8.6
-0.8
6.56
12.75
17.24
19.93
21
20.87
19.95
18.55
16.83
14.88
12.79
10.78
9.09
7.91
7.26
7
6.87
6.69
6.36
5.98
5.66
5.52
5.47
5.32
4.81
3.78
2.19
0.13
-2.27
-4.83
-7.45
-10.04
-12.6
-15.19
-17.96
-21.08
-24.6
-28.43
-32.14
-35.06
-36.41
-35.56
-32.21
-26.57
-19.28
-11.25
-3.38
3.65
9.52
14.15
17.63
20.03
21.33
21.53
20.72
19.15
17.19
15.21
13.5
12.2
11.35
10.92
10.92
11.28
11.89
12.55
13.02
13.15
12.91
12.39
11.7
10.89
9.83
8.3
6.11
3.23
-0.14
-3.67
-6.96
-9.81
-12.24
-14.49
-16.85
-19.57
-22.73
-26.28
-30.07
-33.84
-37.26
-39.78
-40.79
-39.62
-35.85
-29.53
-21.22
-11.95
-2.8
5.34
11.93
16.88
20.31
22.4
23.35
23.32
22.5
21.16
19.62
18.16
17
16.21
15.82
15.8
16.09
16.63
17.28
17.9
18.35
18.56
18.49
18.14
17.52
16.58
15.28
13.63
11.69
9.61
7.49
5.39
3.24
0.89
-1.74
-4.58
-7.45
-10.12
-12.47
-14.49
-16.35
-18.21
-20.21
-22.45
-25.01
-28.01
-31.46
-35.18
-38.62
-40.93
-41.18
-38.69
-33.37
-25.75
-16.86
-7.88
0.23
6.9
12.03
15.78
18.44
20.2
21.17
21.39
20.95
20.07
19.02
18.14
17.62
17.54
17.79
18.25
18.87
19.66
20.64
21.72
22.69
23.26
23.23
22.53
21.27
19.63
17.77
15.73
13.5
11.09
8.53
5.94
3.41
0.99
-1.35
-3.65
-5.94
-8.17
-10.27
-12.18
-13.85
-15.33
-16.74
-18.17
-19.81
-21.8
-24.34
-27.54
-31.4
-35.62
-39.58
-42.43
-43.27
-41.5
-37.01
-30.3
-22.26
-13.87
-5.94
1.07
6.97
11.72
15.29
17.7
18.93
19.12
18.51
17.43
16.19
15.04
14.14
13.53
13.23
13.21
13.45
13.89
14.47
15.09
15.64
15.98
16.01
15.6
14.74
13.47
11.92
10.24
8.58
6.95
5.28
3.39
1.15
-1.47
-4.33
-7.17
-9.74
-11.9
-13.68
-15.31
-17.09
-19.32
-22.14
-25.5
-29.1
-32.4
-34.65
-35.15
-33.33
-29.02
-22.53
-14.58
-6.12
1.93
8.86
14.3
18.2
20.66
21.87
22.02
21.32
19.94
18.12
16.09
14.12
12.46
11.28
10.67
10.59
10.9
11.36
11.76
11.92
11.77
11.33
10.65
9.77
8.63
7.13
5.2
2.83
0.2
-2.5
-5.05
-7.4
-9.57
-11.72
-13.99
-16.44
-19.09
-21.95
-25.04
-28.31
-31.56
-34.29
-35.83
-35.53
-32.97
-28.17
-21.58
-13.94
-6.06
1.4
8
13.47
17.67
20.59
22.24
22.74
22.25
20.97
19.15
17.08
15.08
13.5
12.58
12.37
12.75
13.47
14.27
15
15.6
16.06
16.29
16.1
15.3
13.74
11.46
8.63
5.56
2.51
-0.32
-2.88
-5.2
-7.46
-9.83
-12.49
-15.55
-19.03
-22.89
-27.03
-31.3
-35.35
-38.61
-40.32
-39.73
-36.4
-30.35
-22.2
-12.94
-3.68
4.69
11.63
17.01
20.92
23.56
25.09
25.58
25.15
23.93
22.16
20.26
18.61
17.54
17.16
17.37
17.92
18.55
19.11
19.59
20.03
20.41
20.67
20.63
20.17
19.21
17.73
15.77
13.34
10.5
7.29
3.83
0.26
-3.25
-6.6
-9.69
-12.48
-14.93
-16.99
-18.71
-20.19
-21.65
-23.43
-25.89
-29.23
-33.4
-37.94
-41.97
-44.43
-44.34
-41.17
-34.97
-26.41
-16.54
-6.46
2.87
10.85
17.21
21.9
25.04
26.84
27.62
27.72
27.45
27.02
26.54
26.05
25.5
24.87
24.17
23.53
23.08
22.94
23.09
23.33
23.36
22.9
21.83
20.22
18.32
16.38
14.54
12.77
10.93
8.92
6.77
4.61
2.62
0.84
-0.86
-2.73
-5.01
-7.73
-10.66
-13.4
-15.58
-17.07
-18.04
-18.89
-20.1
-21.99
-24.66
-27.98
-31.73
-35.57
-39.03
-41.49
-42.19
-40.45
-35.9
-28.77
-19.84
-10.28
-1.27
6.35
12.26
16.54
19.52
21.5
22.69
23.18
23.05
22.42
21.51
20.52
19.63
18.9
18.34
17.95
17.73
17.72
17.94
18.36
18.9
19.43
19.88
20.14
20.14
19.72
18.72
17.04
14.75
12.08
9.36
6.89
4.77
2.9
1.06
-0.98
-3.25
-5.66
-8.04
-10.24
-12.25
-14.11
-15.85
-17.5
-19.06
-20.58
-22.33
-24.61
-27.67
-31.43
-35.36
-38.5
-39.75
-38.26
-33.71
-26.5
-17.54
-8.06
0.85
8.33
14
17.82
20.03
20.98
21.02
20.44
19.39
18.01
16.44
14.85
13.44
12.33
11.6
11.18
11.03
11.15
11.59
12.39
13.43
14.47
15.13
15.12
14.34
12.91
11.1
9.17
7.24
5.3
3.27
1.04
-1.38
-3.97
-6.63
-9.24
-11.69
-13.9
-15.83
-17.5
-19.13
-20.95
-23.24
-26.11
-29.34
-32.38
-34.4
-34.57
-32.36
-27.7
-21.06
-13.29
-5.37
1.89
7.95
12.67
16.09
18.35
19.61
19.97
19.5
18.32
16.62
14.61
12.58
10.75
9.31
8.32
7.78
7.61
7.7
7.94
8.2
8.41
8.46
8.25
7.75
6.88
5.68
4.15
2.37
0.36
-1.82
-4.15
-6.57
-9.01
-11.4
-13.68
-15.92
-18.26
-20.9
-24
-27.52
-31.11
-34.19
-36.01
-35.91
-33.49
-28.71
-21.97
-13.94
-5.5
2.47
9.25
14.37
17.7
19.37
19.74
19.26
18.3
17.11
15.79
14.37
12.88
11.41
10.11
9.17
8.7
8.71
9.09
9.66
10.21
10.53
10.49
10.1
9.37
8.43
7.33
6.12
4.78
3.24
1.43
-0.68
-3.05
-5.63
-8.3
-10.98
-13.59
-16.12
-18.62
-21.24
-24.11
-27.35
-30.86
-34.23
-36.79
-37.74
-36.47
-32.72
-26.75
-19.26
-11.16
-3.33
3.6
9.25
13.49
16.39
18.08
18.78
18.73
18.18
17.35
16.38
15.42
14.53
13.81
13.28
12.96
12.8
12.79
12.96
13.33
13.94
14.71
15.43
15.8
15.54
14.53
12.88
10.81
8.58
6.34
4.09
1.71
-0.88
-3.64
-6.44
-9.12
-11.46
-13.39
-14.91
-16.16
-17.34
-18.75
-20.69
-23.36
-26.79
-30.64
-34.28
-36.85
-37.55
-35.85
-31.67
-25.43
-17.88
-9.96
-2.48
3.99
9.22
13.2
16.09
18.04
19.17
19.62
19.47
18.93
18.16
17.36
16.66
16.1
15.69
15.44
15.45
15.83
16.65
17.84
19.18
20.35
21.01
20.98
20.2
18.79
16.89
14.69
12.37
10.13
8.13
6.47
5.11
3.87
2.5
0.74
-1.53
-4.27
-7.27
-10.24
-12.96
-15.27
-17.23
-19.04
-21.07
-23.65
-26.98
-30.92
-34.93
-38.21
-39.85
-39.2
-36.01
-30.51
-23.31
-15.19
-6.96
0.7
7.25
12.36
15.96
18.15
19.23
19.53
19.35
18.87
18.19
17.37
16.46
15.58
14.85
14.37
14.16
14.21
14.48
14.86
15.29
15.67
15.91
15.91
15.55
14.72
13.41
11.66
9.65
7.61
5.72
4.07
2.61
1.19
-0.33
-2.03
-3.88
-5.77
-7.61
-9.36
-11.04
-12.8
-14.83
-17.33
-20.43
-24.1
-28.06
-31.78
-34.56
-35.67
-34.57
-31.12
-25.58
-18.56
-10.84
-3.18
3.79
9.65
14.2
17.36
19.19
19.81
19.4
18.22
16.57
14.76
13.08
11.73
10.8
10.27
10.07
10.11
10.3
10.61
10.94
11.2
11.25
11
10.43
9.61
8.62
7.5
6.18
4.54
2.48
0.03
-2.61
-5.19
-7.45
-9.31
-10.86
-12.34
-14.04
-16.16
-18.79
-21.86
-25.12
-28.23
-30.68
-31.96
-31.58
-29.23
-24.94
-19.08
-12.28
-5.33
1.08
6.46
10.57
13.35
14.92
15.39
14.93
13.76
12.2
10.58
9.22
8.31
7.85
7.75
7.82
7.99
8.27
8.74
9.41
10.22
10.96
11.39
11.33
10.73
9.59
7.97
5.92
3.47
0.69
-2.31
-5.36
-8.28
-10.93
-13.25
-15.31
-17.29
-19.45
-22
-24.94
-27.97
-30.49
-31.71
-31
-28.06
-23.09
-16.67
-9.52
-2.34
4.39
10.39
15.4
19.25
21.74
22.77
22.39
20.86
18.63
16.23
14.15
12.66
11.86
11.58
11.64
11.85
12.18
12.65
13.25
13.88
14.28
14.19
13.49
12.28
10.84
9.45
8.19
6.9
5.28
3.03
0.11
-3.29
-6.81
-10.07
-12.89
-15.29
-17.46
-19.7
-22.22
-25.17
-28.53
-32.04
-35.24
-37.46
-38
-36.28
-32.09
-25.7
-17.79
-9.34
-1.32
5.57
10.99
15
17.86
19.87
21.17
21.78
21.68
20.92
19.68
18.28
17.03
16.16
15.78
15.89
16.41
17.22
18.21
19.26
20.24
21.01
21.42
21.33
20.62
19.21
17.16
14.66
11.97
9.4
7.13
5.19
3.48
1.84
0.12
-1.76
-3.77
-5.93
-8.18
-10.52
-12.87
-15.22
-17.55
-19.95
-22.59
-25.66
-29.26
-33.22
-37.09
-40.15
-41.65
-40.97
-37.84
-32.39
-25.08
-16.62
-7.82
0.57
7.97
13.97
18.43
21.39
23.02
23.61
23.47
22.91
22.17
21.41
20.67
19.94
19.2
18.5
18.01
17.91
18.33
19.18
20.19
20.97
21.25
20.92
20.13
19.13
18.08
17
15.79
14.35
12.68
10.9
9.19
7.64
6.2
4.7
2.95
0.85
-1.58
-4.25
-7.03
-9.81
-12.47
-14.88
-16.96
-18.68
-20.15
-21.6
-23.35
-25.72
-28.91
-32.92
-37.41
-41.73
-44.98
-46.21
-44.76
-40.39
-33.48
-24.85
-15.56
-6.59
1.34
7.89
13.04
16.89
19.59
21.29
22.07
22.06
21.41
20.32
19.01
17.71
16.62
15.87
15.57
15.76
16.4
17.38
18.51
19.52
20.2
20.38
20.06
19.34
18.41
17.4
16.35
15.19
13.79
12.06
10.02
7.8
5.59
3.56
1.75
0.1
-1.53
-3.25
-5.1
-7.07
-9.12
-11.21
-13.34
-15.54
-17.89
-20.46
-23.34
-26.6
-30.23
-34.05
-37.66
-40.47
-41.79
-41.01
-37.84
-32.33
-24.97
-16.49
-7.77
0.39
7.36
12.8
16.64
19
20.1
20.13
19.28
17.75
15.79
13.72
11.91
10.64
9.98
9.87
10.15
10.68
11.46
12.49
13.73
14.97
15.82
15.91
15.08
13.39
11.19
8.85
6.6
4.45
2.26
-0.14
-2.81
-5.61
-8.34
-10.82
-13.01
-14.94
-16.73
-18.57
-20.6
-22.97
-25.76
-28.91
-32.11
-34.74
-36.07
-35.37
-32.27
-26.91
-19.88
-12.06
-4.28
2.87
9.09
14.24
18.21
20.82
21.97
21.67
20.16
17.87
15.26
12.73
10.5
8.67
7.28
6.3
5.74
5.53
5.63
5.96
6.5
7.21
8.06
8.87
9.31
9.02
7.67
5.19
1.81
-1.98
-5.63
-8.76
-11.28
-13.4
-15.47
-17.84
-20.72
-24.12
-27.92
-31.84
-35.42
-38.03
-38.97
-37.64
-33.76
-27.55
-19.71
-11.19
-2.9
4.55
10.9
16.12
20.24
23.2
24.92
25.39
24.75
23.31
21.49
19.67
18.02
16.64
15.52
14.62
13.95
13.52
13.36
13.42
13.66
13.96
14.15
14.02
13.37
12.11
10.25
7.94
5.34
2.59
-0.25
-3.2
-6.24
-9.31
-12.27
-15.02
-17.52
-19.89
-22.37
-25.23
-28.69
-32.75
-37.14
-41.27
-44.35
-45.56
-44.25
-40.17
-33.55
-25.08
-15.69
-6.32
2.26
9.58
15.44
19.84
22.88
24.72
25.55
25.55
24.93
23.89
22.68
21.48
20.49
19.83
19.54
19.56
19.79
20.16
20.63
21.18
21.78
22.27
22.41
21.99
20.87
19.11
16.87
14.37
11.75
9.05
6.22
3.25
0.15
-3.04
-6.24
-9.37
-12.36
-15.2
-17.86
-20.41
-22.98
-25.83
-29.2
-33.2
-37.67
-42.09
-45.67
-47.48
-46.75
-43.09
-36.67
-28.13
-18.43
-8.55
0.69
8.79
15.53
20.83
24.7
27.15
28.33
28.42
27.75
26.67
25.43
24.2
23.04
21.98
21.12
20.57
20.37
20.52
20.86
21.25
21.59
21.82
21.9
21.71
21.07
19.76
17.74
15.15
12.33
9.65
7.35
5.42
3.6
1.59
-0.84
-3.7
-6.82
-9.96
-12.89
-15.54
-17.95
-20.32
-22.9
-25.91
-29.5
-33.57
-37.79
-41.48
-43.8
-43.88
-41.18
-35.64
-27.8
-18.56
-8.97
0.03
7.84
14.13
18.81
21.94
23.64
24.1
23.55
22.28
20.57
18.63
16.67
14.9
13.51
12.7
12.6
13.18
14.27
15.55
16.68
17.35
17.39
16.75
15.53
13.89
12.03
10.05
8
5.8
3.37
0.69
-2.17
-5.1
-7.97
-10.73
-13.41
-16.1
-18.89
-21.89
-25.18
-28.76
-32.5
-35.96
-38.42
-39.04
-37.12
-32.43
-25.34
-16.73
-7.62
1.1
8.9
15.51
20.85
24.81
27.21
27.96
27.16
25.2
22.65
20.1
17.94
16.36
15.32
14.63
14.15
13.76
13.44
13.22
13.11
13.13
13.18
13.05
12.45
11.05
8.68
5.39
1.52
-2.48
-6.2
-9.45
-12.3
-15.04
-17.95
-21.25
-24.99
-29.09
-33.28
-37.15
-40.08
-41.37
-40.39
-36.76
-30.58
-22.4
-13.08
-3.58
5.32
13.1
19.57
24.68
28.48
30.93
31.98
31.63
30.03
27.51
24.57
21.72
19.38
17.74
16.77
16.3
16.09
15.96
15.77
15.51
15.19
14.8
14.25
13.44
12.19
10.4
8.07
5.29
2.25
-0.87
-3.96
-7.01
-10.02
-13.02
-15.97
-18.89
-21.91
-25.24
-29.08
-33.39
-37.82
-41.54
-43.57
-43
-39.35
-32.73
-23.79
-13.61
-3.29
6.17
14.12
20.23
24.5
27.09
28.26
28.34
27.59
26.32
24.82
23.32
22
20.91
20
19.23
18.6
18.19
18.14
18.55
19.29
20.08
20.48
20.06
18.56
16.07
12.91
9.59
6.52
3.92
1.69
-0.46
-2.79
-5.43
-8.32
-11.25
-14.03
-16.57
-18.95
-21.34
-23.97
-27.08
-30.82
-35.21
-39.95
-44.4
-47.53
-48.23
-45.67
-39.68
-30.87
-20.41
-9.7
0.15
8.46
15.07
20.11
23.83
26.41
28.02
28.8
28.91
28.53
27.8
26.82
25.69
24.48
23.28
22.24
21.48
21.14
21.3
21.94
22.94
24.01
24.79
24.88
24
22.11
19.38
16.15
12.75
9.45
6.34
3.33
0.27
-3.02
-6.61
-10.42
-14.19
-17.64
-20.5
-22.68
-24.36
-25.9
-27.79
-30.45
-34.09
-38.55
-43.22
-47.18
-49.28
-48.55
-44.41
-36.94
-26.91
-15.55
-4.26
5.84
14.05
20.23
24.57
27.39
28.95
29.42
28.89
27.56
25.77
23.93
22.44
21.53
21.16
21.12
21.11
20.95
20.63
20.28
20.07
20.07
20.13
20.01
19.39
18.05
15.93
13.21
10.2
7.19
4.44
2.03
-0.13
-2.24
-4.45
-6.85
-9.38
-11.86
-14.14
-16.12
-17.87
-19.55
-21.36
-23.51
-26.16
-29.44
-33.33
-37.62
-41.74
-44.86
-45.98
-44.26
-39.36
-31.6
-21.94
-11.67
-2.03
6.1
12.35
16.78
19.64
21.2
21.66
21.14
19.84
17.98
15.86
13.75
11.83
10.18
8.87
7.98
7.67
8.02
8.99
10.37
11.79
12.88
13.37
13.15
12.18
10.55
8.39
5.86
3.12
0.32
-2.49
-5.3
-8.17
-11.11
-14.06
-16.98
-19.84
-22.73
-25.8
-29.18
-32.8
-36.31
-39.08
-40.36
-39.5
-36.19
-30.56
-23.18
-14.88
-6.57
1.01
7.39
12.42
16.14
18.68
20.17
20.64
20.2
19
17.32
15.49
13.88
12.69
11.97
11.65
11.61
11.8
12.22
12.89
13.71
14.46
14.8
14.42
13.15
11.01
8.19
4.99
1.75
-1.27
-3.96
-6.4
-8.79
-11.43
-14.6
-18.44
-22.91
-27.71
-32.31
-35.98
-37.87
-37.24
-33.69
-27.34
-18.89
-9.43
-0.09
8.27
15.2
20.64
24.68
27.4
28.76
28.74
27.42
25.1
22.24
19.37
16.95
15.21
14.14
13.58
13.27
12.94
12.5
11.96
11.41
10.9
10.39
9.72
8.63
6.96
4.61
1.66
-1.7
-5.23
-8.7
-11.97
-14.98
-17.78
-20.51
-23.38
-26.59
-30.25
-34.27
-38.3
-41.69
-43.64
-43.38
-40.44
-34.77
-26.83
-17.44
-7.54
1.98
10.48
17.49
22.82
26.36
28.19
28.53
27.71
26.17
24.31
22.43
20.7
19.22
18.05
17.28
17.02
17.29
18.06
19.12
20.24
21.18
21.74
21.8
21.28
20.09
18.21
15.68
12.61
9.25
5.79
2.38
-0.94
-4.22
-7.48
-10.7
-13.73
-16.48
-18.9
-21.14
-23.52
-26.39
-30.03
-34.42
-39.15
-43.45
-46.37
-47.03
-44.89
-39.85
-32.34
-23.16
-13.29
-3.68
4.94
12.12
17.73
21.84
24.67
26.44
27.29
27.31
26.57
25.22
23.57
21.93
20.63
19.82
19.51
19.58
19.9
20.43
21.14
22.02
22.93
23.58
23.64
22.86
21.17
18.76
15.94
13.04
10.34
7.9
5.68
3.52
1.3
-1.1
-3.66
-6.27
-8.81
-11.16
-13.29
-15.22
-17.05
-18.91
-20.95
-23.34
-26.26
-29.84
-33.98
-38.26
-41.87
-43.8
-43.12
-39.39
-32.79
-24.13
-14.58
-5.27
2.96
9.7
14.85
18.55
20.93
22.15
22.37
21.78
20.65
19.25
17.82
16.56
15.57
14.95
14.74
14.97
15.6
16.57
17.76
19.03
20.19
21.03
21.3
20.82
19.54
17.57
15.23
12.87
10.79
9.07
7.59
6.07
4.24
1.95
-0.76
-3.74
-6.77
-9.69
-12.4
-14.91
-17.21
-19.31
-21.29
-23.26
-25.45
-28.04
-31.08
-34.37
-37.35
-39.26
-39.33
-37
-32.16
-25.14
-16.64
-7.5
1.45
9.54
16.29
21.35
24.55
25.87
25.44
23.69
21.1
18.25
15.54
13.24
11.41
10.05
9.16
8.8
9.04
9.88
11.16
12.6
13.82
14.54
14.64
14.2
13.36
12.29
11
9.47
7.62
5.42
2.87
0.05
-2.95
-6.06
-9.16
-12.09
-14.67
-16.71
-18.28
-19.6
-21.1
-23.16
-25.89
-28.99
-31.73
-33.21
-32.65
-29.64
-24.34
-17.36
-9.54
-1.72
5.46
11.61
16.48
19.97
22
22.6
21.87
20.06
17.53
14.63
11.71
9.09
7
5.58
4.84
4.67
4.84
5.17
5.54
5.95
6.43
6.94
7.33
7.33
6.71
5.37
3.44
1.19
-1.1
-3.25
-5.28
-7.33
-9.56
-12.1
-15
-18.26
-21.85
-25.69
-29.53
-32.91
-35.15
-35.5
-33.41
-28.79
-22.05
-14.02
-5.73
1.93
8.39
13.42
17.05
19.41
20.58
20.64
19.65
17.81
15.45
12.96
10.71
8.94
7.72
7.01
6.75
6.86
7.3
7.95
8.6
8.99
8.93
8.32
7.23
5.77
4.02
2.02
-0.26
-2.81
-5.6
-8.45
-11.22
-13.83
-16.29
-18.79
-21.51
-24.64
-28.22
-32.04
-35.63
-38.29
-39.21
-37.77
-33.66
-27.09
-18.71
-9.47
-0.39
7.68
14.16
18.88
21.9
23.49
23.94
23.51
22.44
20.93
19.23
17.54
16.04
14.83
13.91
13.26
12.88
12.83
13.13
13.72
14.4
14.87
14.87
14.27
13.12
11.54
9.72
7.73
5.62
3.36
0.96
-1.55
-4.18
-6.94
-9.82
-12.73
-15.47
-17.86
-19.85
-21.69
-23.81
-26.68
-30.41
-34.64
-38.49
-40.9
-40.98
-38.32
-33.1
-25.96
-17.72
-9.19
-1.01
6.35
12.53
17.33
20.63
22.49
23.11
22.8
21.91
20.75
19.54
18.42
17.43
16.55
15.79
15.17
14.78
14.71
15.05
15.77
16.72
17.61
18.14
18.05
17.19
15.63
13.55
11.2
8.8
6.48
4.22
1.92
-0.53
-3.17
-5.97
-8.81
-11.57
-14.18
-16.62
-19
-21.46
-24.17
-27.17
-30.37
-33.44
-35.85
-36.92
-36.05
-32.91
-27.55
-20.45
-12.35
-4.07
3.69
10.42
15.82
19.79
22.34
23.56
23.61
22.72
21.19
19.29
17.32
15.51
14.05
13.02
12.51
12.46
12.75
13.18
13.54
13.67
13.52
13.14
12.64
12.1
11.52
10.81
9.75
8.22
6.19
3.77
1.19
-1.29
-3.52
-5.5
-7.35
-9.24
-11.23
-13.29
-15.32
-17.25
-19.16
-21.24
-23.64
-26.28
-28.73
-30.29
-30.2
-27.94
-23.49
-17.27
-10.02
-2.56
4.42
10.44
15.26
18.81
21.09
22.19
22.18
21.17
19.32
16.84
14.1
11.52
9.54
8.47
8.37
9.09
10.34
11.77
13.08
14.02
14.43
14.22
13.41
12.12
10.5
8.69
6.71
4.51
2.05
-0.61
-3.36
-6.01
-8.48
-10.83
-13.17
-15.67
-18.41
-21.33
-24.37
-27.38
-30.19
-32.47
-33.75
-33.52
-31.36
-27.17
-21.23
-14.12
-6.58
0.68
7.12
12.37
16.27
18.76
19.91
19.91
19.03
17.55
15.77
13.91
12.14
10.62
9.45
8.75
8.61
9.03
9.96
11.28
12.76
14.12
15.02
15.16
14.4
12.74
10.43
7.81
5.24
2.93
0.89
-0.99
-2.9
-4.97
-7.25
-9.7
-12.25
-14.82
-17.35
-19.76
-22.08
-24.38
-26.83
-29.59
-32.62
-35.56
-37.71
-38.17
-36.2
-31.53
-24.44
-15.79
-6.64
2.03
9.54
15.57
20.05
23.12
24.91
25.61
25.37
24.41
22.94
21.21
19.43
17.83
16.55
15.69
15.35
15.52
16.17
17.16
18.3
19.33
19.99
20.08
19.52
18.34
16.66
14.66
12.52
10.41
8.43
6.63
4.92
3.16
1.17
-1.18
-3.96
-7.08
-10.38
-13.64
-16.74
-19.64
-22.45
-25.41
-28.77
-32.73
-37.27
-42.09
-46.52
-49.65
-50.53
-48.51
-43.45
-35.81
-26.52
-16.66
-7.22
1.24
8.47
14.49
19.34
22.98
25.32
26.34
26.21
25.27
23.96
22.64
21.51
20.57
19.71
18.89
18.13
17.6
17.4
17.56
17.92
18.22
18.22
17.76
16.88
15.68
14.3
12.85
11.37
9.87
8.37
6.89
5.41
3.86
2.13
0.11
-2.26
-4.91
-7.66
-10.31
-12.67
-14.69
-16.41
-18
-19.67
-21.65
-24.05
-26.85
-29.71
-32.08
-33.23
-32.53
-29.66
-24.74
-18.33
-11.24
-4.27
1.99
7.22
11.38
14.55
16.83
18.26
18.82
18.49
17.28
15.36
13.05
10.78
8.99
7.95
7.68
8.02
8.66
9.36
9.96
10.44
10.76
10.88
10.68
10.04
8.89
7.3
5.42
3.43
1.42
-0.55
-2.57
-4.72
-7.05
-9.53
-12.05
-14.46
-16.7
-18.8
-20.91
-23.2
-25.67
-28.06
-29.79
-30.23
-28.83
-25.42
-20.27
-14
-7.33
-0.92
4.83
9.67
13.53
16.32
18.01
18.6
18.17
16.93
15.11
12.98
10.78
8.76
7.16
6.17
5.92
6.36
7.26
8.29
9.13
9.56
9.52
9.04
8.2
7.03
5.54
3.72
1.61
-0.74
-3.24
-5.79
-8.29
-10.66
-12.87
-14.95
-17.06
-19.41
-22.23
-25.55
-29.17
-32.59
-35.18
-36.27
-35.38
-32.3
-27.17
-20.43
-12.76
-4.92
2.41
8.72
13.76
17.46
19.88
21.13
21.34
20.68
19.38
17.74
16.04
14.51
13.25
12.28
11.56
11.13
11.05
11.33
11.94
12.66
13.17
13.21
12.56
11.24
9.42
7.38
5.4
3.66
2.15
0.73
-0.84
-2.73
-4.97
-7.48
-10.06
-12.54
-14.78
-16.79
-18.66
-20.63
-22.87
-25.53
-28.59
-31.75
-34.51
-36.16
-36.08
-33.88
-29.54
-23.48
-16.36
-8.94
-1.93
4.22
9.25
13.13
15.94
17.81
18.89
19.24
18.98
18.24
17.22
16.12
15.17
14.48
14.12
14.11
14.46
15.15
16.16
17.33
18.42
19.13
19.14
18.34
16.75
14.61
12.26
10
8.11
6.66
5.6
4.65
3.5
1.84
-0.43
-3.21
-6.22
-9.14
-11.75
-14
-15.98
-17.88
-19.91
-22.23
-24.94
-27.98
-31.06
-33.67
-35.08
-34.63
-31.88
-26.85
-20.01
-12.18
-4.31
2.81
8.63
12.96
15.86
17.58
18.4
18.55
18.17
17.37
16.29
15.14
14.14
13.49
13.25
13.38
13.72
14.12
14.5
14.88
15.28
15.69
16.01
16.06
15.63
14.59
12.97
10.94
8.76
6.65
4.67
2.76
0.76
-1.43
-3.74
-6.01
-8.01
-9.65
-10.97
-12.19
-13.55
-15.28
-17.55
-20.39
-23.69
-27.21
-30.45
-32.81
-33.62
-32.38
-28.89
-23.37
-16.42
-8.84
-1.46
5.06
10.33
14.23
16.81
18.22
18.6
18.11
16.94
15.38
13.79
12.52
11.78
11.61
11.86
12.34
12.88
13.39
13.86
14.23
14.43
14.31
13.74
12.71
11.26
9.51
7.57
5.52
3.4
1.32
-0.63
-2.36
-3.85
-5.22
-6.63
-8.27
-10.25
-12.54
-15.07
-17.76
-20.58
-23.5
-26.34
-28.68
-29.93
-29.42
-26.74
-21.91
-15.37
-7.89
-0.31
6.61
12.39
16.71
19.46
20.67
20.58
19.56
18.1
16.61
15.37
14.41
13.64
12.92
12.25
11.69
11.43
11.6
12.2
13.14
14.2
15.1
15.6
15.49
14.68
13.17
11.13
8.84
6.6
4.61
2.88
1.23
-0.64
-2.95
-5.71
-8.71
-11.6
-14.04
-15.93
-17.38
-18.76
-20.48
-22.9
-26.1
-29.87
-33.7
-36.85
-38.51
-37.99
-34.95
-29.46
-22.06
-13.6
-5.1
2.57
8.83
13.49
16.68
18.7
19.91
20.52
20.63
20.27
19.53
18.58
17.63
16.9
16.45
16.23
16.14
16.11
16.18
16.42
16.9
17.59
18.34
18.91
19.06
18.67
17.68
16.2
14.35
12.34
10.33
8.46
6.77
5.2
3.62
1.92
-0
-2.18
-4.58
-7.1
-9.57
-11.87
-13.9
-15.68
-17.32
-19.07
-21.17
-23.86
-27.12
-30.65
-33.81
-35.79
-35.84
-33.56
-29.03
-22.77
-15.58
-8.23
-1.3
4.94
10.35
14.86
18.31
20.54
21.47
21.23
20.16
18.68
17.22
16.04
15.23
14.71
14.34
14.04
13.83
13.82
14.15
14.87
15.86
16.88
17.55
17.58
16.84
15.42
13.61
11.69
9.86
8.14
6.4
4.44
2.16
-0.41
-3.15
-5.86
-8.38
-10.63
-12.6
-14.31
-15.82
-17.25
-18.73
-20.48
-22.66
-25.29
-28.17
-30.76
-32.35
-32.24
-29.96
-25.52
-19.35
-12.21
-4.97
1.67
7.27
11.66
14.85
16.94
17.96
17.92
16.87
15.03
12.76
10.51
8.66
7.47
6.98
7.03
7.44
8.04
8.66
9.21
9.6
9.75
9.64
9.28
8.73
8.03
7.15
6.01
4.49
2.52
0.12
-2.6
-5.42
-8.15
-10.61
-12.75
-14.59
-16.33
-18.24
-20.55
-23.37
-26.54
-29.64
-32.01
-32.96
-31.92
-28.68
-23.48
-16.93
-9.81
-2.92
3.18
8.19
12.04
14.83
16.72
17.81
18.22
18.01
17.24
16.02
14.5
12.9
11.43
10.31
9.64
9.45
9.59
9.9
10.13
10.12
9.77
9.08
8.13
6.98
5.69
4.25
2.61
0.73
-1.42
-3.8
-6.36
-8.97
-11.58
-14.1
-16.52
-18.83
-21.06
-23.34
-25.82
-28.68
-31.88
-35.15
-37.88
-39.29
-38.62
-35.43
-29.79
-22.25
-13.77
-5.33
2.21
8.39
13.11
16.51
18.78
20.11
20.61
20.37
19.57
18.48
17.45
16.76
16.51
16.57
16.66
16.51
16.06
15.47
15.1
15.22
15.88
16.81
17.5
17.48
16.54
14.78
12.56
10.3
8.22
6.32
4.39
2.14
-0.59
-3.78
-7.2
-10.53
-13.48
-15.84
-17.63
-19.06
-20.45
-22.19
-24.59
-27.76
-31.61
-35.76
-39.62
-42.45
-43.53
-42.29
-38.52
-32.45
-24.68
-16.1
-7.62
0.03
6.46
11.6
15.58
18.62
20.83
22.22
22.78
22.59
21.93
21.19
20.72
20.69
20.99
21.36
21.59
21.61
21.52
21.52
21.69
21.95
22.07
21.81
20.99
19.57
17.65
15.41
13.06
10.82
8.87
7.28
5.97
4.73
3.25
1.33
-1.1
-3.89
-6.78
-9.48
-11.8
-13.75
-15.46
-17.2
-19.2
-21.69
-24.77
-28.47
-32.6
-36.78
-40.39
-42.67
-42.88
-40.54
-35.6
-28.47
-19.95
-11.02
-2.55
4.84
10.82
15.36
18.58
20.65
21.78
22.15
21.92
21.27
20.37
19.43
18.6
18
17.65
17.58
17.73
18.1
18.67
19.41
20.18
20.75
20.87
20.3
18.97
16.98
14.58
12.09
9.72
7.59
5.64
3.78
1.89
-0.09
-2.12
-4.14
-6.07
-7.84
-9.44
-10.89
-12.29
-13.81
-15.61
-17.88
-20.71
-24.05
-27.61
-30.86
-33.15
-33.78
-32.22
-28.28
-22.21
-14.66
-6.53
1.27
8.01
13.33
17.18
19.73
21.17
21.67
21.3
20.13
18.34
16.18
14.03
12.26
11.11
10.68
10.88
11.53
12.42
13.35
14.17
14.76
14.99
14.77
14.07
12.95
11.5
9.82
7.94
5.85
3.5
0.9
-1.87
-4.61
-7.15
-9.3
-11.06
-12.6
-14.2
-16.2
-18.89
-22.31
-26.25
-30.19
-33.43
-35.24
-35.05
-32.54
-27.78
-21.15
-13.34
-5.15
2.65
9.47
14.97
19.06
21.85
23.51
24.21
24.1
23.34
22.07
20.48
18.78
17.15
15.77
14.82
14.39
14.51
15.1
15.95
16.83
17.5
17.75
17.47
16.59
15.16
13.24
11.02
8.69
6.38
4.14
1.86
-0.61
-3.38
-6.41
-9.58
-12.66
-15.47
-17.89
-19.94
-21.73
-23.47
-25.45
-27.92
-31.01
-34.55
-38.06
-40.71
-41.59
-39.97
-35.54
-28.58
-19.82
-10.31
-1.1
6.95
13.35
17.96
20.94
22.64
23.41
23.55
23.26
22.64
21.83
20.96
20.22
19.73
19.49
19.41
19.34
19.17
18.96
18.91
19.21
19.92
20.84
21.58
21.7
20.88
19.1
16.6
13.82
11.16
8.9
7.05
5.36
3.51
1.18
-1.72
-5.05
-8.51
-11.75
-14.56
-16.9
-18.96
-20.98
-23.19
-25.79
-28.85
-32.37
-36.17
-39.78
-42.48
-43.42
-41.86
-37.53
-30.73
-22.25
-13.21
-4.6
2.91
9.08
13.93
17.66
20.43
22.35
23.46
23.84
23.63
22.99
22.17
21.42
20.9
20.67
20.64
20.65
20.5
20.14
19.63
19.11
18.71
18.42
18.1
17.52
16.53
15.08
13.28
11.31
9.36
7.5
5.7
3.79
1.59
-1.03
-4.09
-7.41
-10.74
-13.77
-16.31
-18.37
-20.13
-21.89
-24.01
-26.75
-30.19
-34.1
-38
-41.12
-42.72
-42.15
-39.18
-34
-27.15
-19.39
-11.46
-3.97
2.68
8.24
12.61
15.76
17.74
18.65
18.58
17.7
16.2
14.33
12.47
10.99
10.21
10.25
11.01
12.13
13.23
14
14.3
14.21
13.85
13.33
12.6
11.54
9.96
7.8
5.15
2.24
-0.62
-3.25
-5.61
-7.8
-9.93
-12.06
-14.12
-16
-17.68
-19.28
-21.1
-23.45
-26.44
-29.77
-32.74
-34.41
-33.96
-30.93
-25.45
-18.17
-10.04
-2.01
5.15
10.99
15.35
18.27
19.84
20.17
19.4
17.74
15.5
13.07
10.87
9.27
8.43
8.33
8.75
9.43
10.11
10.66
11.04
11.23
11.15
10.64
9.5
7.63
5.09
2.12
-0.97
-3.89
-6.49
-8.79
-10.9
-12.96
-15.06
-17.31
-19.78
-22.58
-25.75
-29.14
-32.28
-34.48
-34.9
-32.92
-28.35
-21.57
-13.46
-5.11
2.49
8.76
13.57
17.1
19.65
21.42
22.45
22.71
22.13
20.86
19.19
17.49
16.17
15.44
15.34
15.66
16.06
16.25
16.05
15.46
14.63
13.75
12.93
12.15
11.24
9.98
8.18
5.78
2.86
-0.35
-3.58
-6.66
-9.52
-12.25
-14.96
-17.79
-20.76
-23.93
-27.34
-31.05
-35.05
-39.06
-42.47
-44.39
-43.96
-40.64
-34.47
-26.08
-16.48
-6.78
2.18
9.88
16.16
21.09
24.83
27.53
29.28
30.16
30.28
29.8
28.97
28
27.06
26.17
25.33
24.49
23.69
23.07
22.77
22.84
23.15
23.39
23.18
22.25
20.5
18.12
15.45
12.84
10.56
8.63
6.92
5.14
3.03
0.44
-2.62
-5.95
-9.31
-12.51
-15.43
-18.1
-20.64
-23.19
-25.95
-29.11
-32.77
-36.91
-41.26
-45.17
-47.78
-48.19
-45.76
-40.4
-32.62
-23.31
-13.55
-4.24
4.05
10.99
16.43
20.37
22.89
24.2
24.65
24.65
24.55
24.52
24.56
24.57
24.49
24.33
24.23
24.33
24.7
25.28
25.93
26.48
26.74
26.6
26.02
24.98
23.53
21.76
19.77
17.67
15.51
13.32
11.06
8.73
6.34
3.98
1.7
-0.49
-2.65
-4.89
-7.28
-9.82
-12.41
-14.86
-17.04
-18.92
-20.66
-22.56
-24.99
-28.15
-31.99
-36.11
-39.81
-42.26
-42.69
-40.62
-35.98
-29.14
-20.83
-11.99
-3.51
3.91
9.93
14.52
17.92
20.41
22.27
23.62
24.51
24.96
25.02
24.8
24.45
24.08
23.78
23.59
23.52
23.55
23.67
23.84
24.02
24.17
24.21
24.05
23.57
22.64
21.2
19.25
16.96
14.5
12.05
9.73
7.54
5.43
3.37
1.36
-0.56
-2.38
-4.08
-5.67
-7.19
-8.7
-10.26
-11.94
-13.8
-15.86
-18.12
-20.6
-23.36
-26.48
-29.94
-33.5
-36.61
-38.54
-38.49
-35.97
-30.97
-23.96
-15.77
-7.4
0.35
6.93
12.09
15.82
18.26
19.61
20.1
19.97
19.43
18.7
17.94
17.24
16.69
16.27
15.97
15.74
15.6
15.62
15.93
16.57
17.54
18.64
19.57
19.98
19.64
18.49
16.71
14.62
12.56
10.75
9.26
8.01
6.8
5.44
3.83
1.92
-0.19
-2.39
-4.54
-6.56
-8.44
-10.22
-11.94
-13.6
-15.2
-16.74
-18.31
-20.08
-22.25
-24.91
-27.91
-30.82
-32.97
-33.7
-32.53
-29.35
-24.4
-18.21
-11.4
-4.62
1.62
6.94
11.07
13.94
15.61
16.23
16
15.11
13.71
11.98
10.15
8.45
7.13
6.27
5.8
5.58
5.47
5.41
5.46
5.7
6.11
6.58
6.92
6.95
6.58
5.86
4.91
3.81
2.6
1.19
-0.5
-2.56
-4.91
-7.39
-9.66
-11.42
-12.52
-13.04
-13.31
-13.78
-14.86
-16.72
-19.27
-22.09
-24.64
-26.33
-26.7
-25.46
-22.53
-18.07
-12.43
-6.14
0.16
5.83
10.4
13.62
15.48
16.16
15.9
14.96
13.51
11.68
9.66
7.69
6.06
4.94
4.4
4.28
4.37
4.49
4.58
4.72
5
5.42
5.82
5.96
5.59
4.61
3.04
1.02
-1.26
-3.66
-6.08
-8.44
-10.61
-12.51
-14.12
-15.57
-17.1
-18.99
-21.41
-24.26
-27.11
-29.32
-30.19
-29.22
-26.26
-21.52
-15.56
-9.05
-2.67
3.02
7.7
11.22
13.63
15.1
15.83
15.97
15.64
14.87
13.69
12.2
10.6
9.11
7.96
7.25
6.95
6.97
7.2
7.61
8.16
8.8
9.4
9.7
9.46
8.53
6.96
4.97
2.83
0.78
-1.15
-3.03
-5.03
-7.21
-9.51
-11.74
-13.73
-15.45
-17.03
-18.74
-20.86
-23.54
-26.67
-29.91
-32.69
-34.45
-34.68
-33.06
-29.58
-24.46
-18.18
-11.38
-4.78
1.03
5.66
9
11.24
12.67
13.61
14.24
14.59
14.57
14.13
13.26
12.1
10.86
9.77
9.04
8.8
9.1
9.87
10.96
12.08
12.95
13.35
13.15
12.38
11.13
9.55
7.81
6.04
4.33
2.74
1.27
-0.17
-1.7
-3.52
-5.71
-8.2
-10.77
-13.12
-15.01
-16.41
-17.52
-18.71
-20.35
-22.68
-25.61
-28.77
-31.53
-33.19
-33.14
-31.06
-26.98
-21.27
-14.59
-7.65
-1.13
4.52
9.12
12.65
15.2
16.86
17.71
17.82
17.31
16.43
15.44
14.61
14.09
13.85
13.82
13.89
14.04
14.28
14.64
15.06
15.42
15.54
15.39
14.94
14.26
13.37
12.23
10.79
9.06
7.17
5.3
3.65
2.23
0.92
-0.5
-2.21
-4.23
-6.45
-8.68
-10.75
-12.62
-14.35
-16.08
-17.97
-20.14
-22.62
-25.3
-27.9
-30
-31.06
-30.59
-28.29
-24.19
-18.66
-12.27
-5.66
0.65
6.28
10.98
14.6
17.05
18.39
18.75
18.39
17.59
16.6
15.6
14.71
13.99
13.47
13.14
12.96
12.9
12.98
13.23
13.66
14.17
14.56
14.57
13.97
12.7
10.94
8.98
7.15
5.63
4.4
3.29
2.06
0.52
-1.35
-3.47
-5.62
-7.61
-9.31
-10.7
-11.85
-12.89
-13.98
-15.27
-16.95
-19.12
-21.79
-24.7
-27.33
-28.91
-28.71
-26.3
-21.73
-15.65
-8.99
-2.67
2.71
6.99
10.29
12.81
14.62
15.63
15.72
14.9
13.4
11.6
9.91
8.55
7.58
6.89
6.4
6.06
5.97
6.21
6.82
7.76
8.8
9.67
10.08
9.82
8.78
7.05
4.79
2.26
-0.33
-2.79
-5.04
-7.03
-8.77
-10.34
-11.86
-13.48
-15.4
-17.76
-20.51
-23.4
-25.94
-27.54
-27.64
-25.9
-22.33
-17.27
-11.29
-5.07
0.8
5.88
9.95
12.9
14.78
15.65
15.7
15.08
13.97
12.53
10.93
9.31
7.89
6.84
6.27
6.16
6.4
6.82
7.25
7.58
7.73
7.59
7.09
6.12
4.67
2.8
0.68
-1.51
-3.61
-5.62
-7.63
-9.8
-12.33
-15.33
-18.78
-22.47
-25.97
-28.69
-30.1
-29.76
-27.49
-23.41
-17.83
-11.24
-4.2
2.7
8.91
13.97
17.6
19.74
20.54
20.28
19.29
17.86
16.17
14.38
12.61
11.01
9.74
8.91
8.59
8.7
9.09
9.57
9.96
10.08
9.81
9.05
7.73
5.85
3.44
0.64
-2.31
-5.19
-7.78
-10.01
-11.9
-13.69
-15.68
-18.18
-21.39
-25.21
-29.29
-33
-35.6
-36.4
-34.98
-31.22
-25.37
-17.97
-9.77
-1.6
5.8
11.87
16.41
19.49
21.4
22.48
22.92
22.82
22.16
20.98
19.43
17.77
16.29
15.2
14.55
14.26
14.18
14.14
14.03
13.83
13.49
12.98
12.23
11.17
9.78
8.11
6.27
4.34
2.4
0.43
-1.6
-3.77
-6.08
-8.53
-11.07
-13.64
-16.22
-18.83
-21.56
-24.44
-27.52
-30.68
-33.65
-35.94
-36.96
-36.21
-33.34
-28.4
-21.77
-14.13
-6.28
1.03
7.31
12.31
16.1
18.81
20.63
21.68
22.01
21.67
20.82
19.74
18.74
18.09
17.87
17.98
18.21
18.35
18.33
18.25
18.3
18.64
19.23
19.83
20.08
19.65
18.39
16.42
14.05
11.62
9.32
7.16
5
2.62
-0.05
-2.96
-5.9
-8.65
-11.05
-13.07
-14.76
-16.3
-17.87
-19.67
-21.91
-24.7
-27.99
-31.5
-34.69
-36.87
-37.33
-35.6
-31.54
-25.47
-18.03
-10.09
-2.49
4.15
9.5
13.52
16.36
18.22
19.28
19.67
19.58
19.22
18.82
18.57
18.49
18.49
18.46
18.33
18.18
18.18
18.43
18.91
19.41
19.71
19.66
19.22
18.48
17.52
16.37
15
13.43
11.7
9.92
8.16
6.44
4.68
2.83
0.88
-1.09
-2.93
-4.55
-6.02
-7.51
-9.2
-11.22
-13.51
-15.94
-18.39
-20.8
-23.26
-25.88
-28.65
-31.34
-33.41
-34.16
-32.96
-29.53
-24.05
-17.15
-9.73
-2.65
3.45
8.26
11.82
14.26
15.75
16.4
16.24
15.33
13.87
12.17
10.61
9.55
9.13
9.3
9.81
10.38
10.8
11.07
11.25
11.45
11.67
11.8
11.71
11.34
10.69
9.88
8.96
7.92
6.65
5.07
3.15
0.98
-1.22
-3.34
-5.25
-6.96
-8.59
-10.3
-12.25
-14.55
-17.2
-20.01
-22.64
-24.63
-25.5
-24.88
-22.62
-18.86
-13.97
-8.42
-2.67
2.85
7.8
11.89
14.87
16.57
16.92
16.05
14.27
12.04
9.83
8.02
6.78
6.12
5.95
6.1
6.47
6.92
7.34
7.62
7.67
7.46
7.01
6.39
5.66
4.84
3.86
2.62
0.98
-1.09
-3.53
-6.22
-8.98
-11.74
-14.58
-17.59
-20.88
-24.31
-27.53
-29.93
-30.89
-29.93
-26.92
-22.11
-16.03
-9.35
-2.69
3.45
8.74
12.95
15.97
17.76
18.4
18.07
17
15.49
13.82
12.2
10.78
9.68
8.99
8.78
9.04
9.71
10.61
11.52
12.2
12.48
12.24
11.44
10.14
8.38
6.24
3.8
1.11
-1.7
-4.48
-7.07
-9.31
-11.23
-12.93
-14.72
-16.89
-19.66
-23.1
-26.99
-30.9
-34.24
-36.35
-36.68
-34.88
-30.92
-25.08
-17.94
-10.22
-2.72
3.9
9.2
13.04
15.57
17.16
18.19
18.94
19.44
19.6
19.28
18.51
17.51
16.61
16.05
15.95
16.22
16.71
17.28
17.87
18.4
18.75
18.71
18.04
16.64
14.55
12.04
9.45
7.04
4.93
3.06
1.24
-0.68
-2.8
-5.11
-7.55
-9.99
-12.34
-14.51
-16.47
-18.23
-19.92
-21.75
-23.98
-26.78
-30.1
-33.53
-36.35
-37.69
-36.78
-33.29
-27.41
-19.83
-11.53
-3.46
3.63
9.38
13.74
16.85
18.92
20.15
20.71
20.75
20.47
20.03
19.57
19.12
18.63
18.08
17.43
16.8
16.29
16.04
16.13
16.52
17.13
17.79
18.29
18.39
17.93
16.77
14.99
12.76
10.37
8.09
6.07
4.34
2.82
1.34
-0.26
-2.08
-4.14
-6.39
-8.66
-10.8
-12.65
-14.21
-15.54
-16.91
-18.6
-20.87
-23.82
-27.3
-30.94
-34.12
-36.14
-36.36
-34.41
-30.23
-24.19
-16.92
-9.19
-1.71
4.96
10.43
14.53
17.21
18.61
18.99
18.64
17.92
17.04
16.14
15.21
14.22
13.19
12.22
11.48
11.12
11.25
11.81
12.67
13.62
14.44
14.96
15.01
14.52
13.47
11.94
10.08
8.1
6.18
4.46
2.94
1.49
-0.09
-1.91
-3.96
-6.07
-8.01
-9.68
-11.1
-12.5
-14.21
-16.45
-19.27
-22.44
-25.51
-27.97
-29.33
-29.27
-27.62
-24.41
-19.78
-14.01
-7.54
-0.93
5.24
10.5
14.55
17.35
18.98
19.62
19.38
18.33
16.62
14.49
12.33
10.55
9.43
9.04
9.27
9.9
10.7
11.5
12.18
12.64
12.78
12.5
11.78
10.64
9.17
7.45
5.57
3.55
1.37
-0.96
-3.42
-5.93
-8.41
-10.8
-13.06
-15.22
-17.34
-19.52
-21.82
-24.21
-26.47
-28.18
-28.8
-27.75
-24.72
-19.76
-13.35
-6.23
0.77
7.01
12.13
16.01
18.65
20.09
20.4
19.7
18.23
16.32
14.35
12.64
11.41
10.75
10.63
10.95
11.51
12.1
12.52
12.63
12.39
11.88
11.24
10.54
9.79
8.88
7.68
6.08
4.1
1.83
-0.6
-3.06
-5.51
-7.97
-10.46
-12.99
-15.46
-17.81
-20
-22.14
-24.43
-27
-29.77
-32.3
-33.94
-33.98
-31.95
-27.74
-21.73
-14.62
-7.21
-0.25
5.74
10.48
14
16.46
18.07
18.95
19.16
18.72
17.75
16.52
15.36
14.58
14.24
14.21
14.24
14.12
13.87
13.68
13.77
14.24
14.92
15.44
15.41
14.62
13.09
11.1
8.95
6.91
5.04
3.24
1.35
-0.76
-3.14
-5.73
-8.35
-10.76
-12.79
-14.37
-15.63
-16.84
-18.36
-20.41
-23.08
-26.09
-28.96
-31.04
-31.75
-30.65
-27.58
-22.69
-16.4
-9.33
-2.15
4.48
10.04
14.25
17.02
18.47
18.82
18.42
17.57
16.56
15.58
14.73
14.05
13.55
13.21
13.01
12.9
12.81
12.73
12.68
12.73
12.99
13.46
14.02
14.4
14.29
13.48
11.95
9.91
7.66
5.5
3.59
1.92
0.36
-1.23
-2.96
-4.81
-6.68
-8.48
-10.16
-11.77
-13.49
-15.5
-17.96
-20.92
-24.35
-28.04
-31.63
-34.6
-36.33
-36.18
-33.75
-29.07
-22.59
-15.17
-7.72
-0.98
4.64
9.1
12.52
15.05
16.8
17.8
18.11
17.84
17.17
16.27
15.37
14.6
14.09
13.88
13.98
14.35
14.95
15.72
16.57
17.4
18.06
18.39
18.23
17.57
16.44
15
13.42
11.8
10.16
8.44
6.57
4.53
2.41
0.31
-1.67
-3.52
-5.31
-7.15
-9.1
-11.12
-13.09
-14.91
-16.6
-18.29
-20.23
-22.61
-25.43
-28.51
-31.47
-33.86
-35.22
-35.16
-33.44
-29.91
-24.69
-18.17
-10.99
-3.86
2.54
7.82
11.84
14.71
16.6
17.61
17.79
17.19
15.98
14.47
13.05
12.02
11.46
11.25
11.17
11.07
10.93
10.88
11.02
11.4
11.88
12.26
12.29
11.85
10.92
9.66
8.26
6.89
5.62
4.41
3.07
1.45
-0.53
-2.8
-5.11
-7.22
-8.96
-10.36
-11.64
-13.07
-14.92
-17.31
-20.18
-23.28
-26.2
-28.48
-29.66
-29.35
-27.36
-23.7
-18.56
-12.42
-5.83
0.56
6.2
10.71
13.98
16.05
17.07
17.18
16.48
15.09
13.13
10.85
8.52
6.45
4.87
3.9
3.58
3.85
4.56
5.53
6.58
7.49
8.1
8.31
8.09
7.47
6.47
5.13
3.49
1.56
-0.63
-3
-5.42
-7.76
-9.94
-11.93
-13.85
-15.85
-18.14
-20.8
-23.77
-26.75
-29.24
-30.65
-30.48
-28.44
-24.63
-19.47
-13.57
-7.53
-1.77
3.47
8.09
11.96
14.83
16.45
16.67
15.61
13.65
11.32
9.09
7.25
5.83
4.76
3.94
3.37
3.1
3.15
3.44
3.79
4.01
4.02
3.76
3.24
2.38
1.05
-0.84
-3.26
-6.01
-8.82
-11.49
-14
-16.49
-19.15
-22.07
-25.16
-28.1
-30.46
-31.8
-31.66
-29.8
-26.12
-20.89
-14.63
-8.08
-1.92
3.39
7.69
11.09
13.74
15.73
17.01
17.44
16.94
15.6
13.74
11.77
10.09
8.96
8.39
8.27
8.39
8.6
8.85
9.15
9.46
9.65
9.55
8.93
7.69
5.81
3.35
0.4
-2.93
-6.47
-9.97
-13.16
-15.89
-18.17
-20.27
-22.57
-25.35
-28.66
-32.21
-35.46
-37.78
-38.59
-37.47
-34.21
-28.83
-21.68
-13.43
-4.95
2.84
9.27
14.08
17.37
19.52
20.89
21.71
22.04
21.87
21.3
20.52
19.82
19.38
19.23
19.25
19.26
19.16
18.97
18.82
18.78
18.83
18.82
18.53
17.74
16.41
14.59
12.46
10.22
7.95
5.64
3.14
0.33
-2.8
-6.07
-9.17
-11.81
-13.88
-15.57
-17.26
-19.43
-22.37
-26.11
-30.27
-34.22
-37.23
-38.59
-37.85
-34.82
-29.7
-22.96
-15.29
-7.38
0.18
6.98
12.83
17.65
21.48
24.36
26.36
27.55
28.02
27.84
27.12
26.02
24.76
23.57
22.62
22.02
21.74
21.68
21.74
21.79
21.83
21.82
21.73
21.46
20.88
19.84
18.31
16.34
14.08
11.68
9.24
6.79
4.32
1.87
-0.51
-2.74
-4.8
-6.8
-8.88
-11.22
-13.91
-16.94
-20.26
-23.83
-27.62
-31.58
-35.47
-38.88
-41.15
-41.6
-39.7
-35.34
-28.81
-20.8
-12.14
-3.61
4.18
10.88
16.27
20.28
22.91
24.22
24.37
23.68
22.51
21.23
20.13
19.36
18.98
18.87
18.91
18.98
19.03
19.12
19.31
19.65
20.06
20.33
20.19
19.48
18.16
16.39
14.4
12.41
10.53
8.74
6.92
4.99
2.86
0.57
-1.82
-4.26
-6.63
-8.92
-11.08
-13.15
-15.21
-17.43
-20
-23.05
-26.47
-29.82
-32.36
-33.23
-31.79
-27.81
-21.63
-14.05
-6.07
1.45
7.92
13.15
17.14
19.95
21.6
22.08
21.41
19.77
17.54
15.24
13.38
12.26
11.89
12.06
12.48
13
13.56
14.24
15.07
15.95
16.66
16.93
16.49
15.22
13.11
10.31
7.02
3.53
0.1
-3.07
-5.9
-8.45
-10.92
-13.51
-16.43
-19.68
-23.09
-26.35
-29.01
-30.6
-30.73
-29.12
-25.7
-20.64
-14.3
-7.19
0.13
7.11
13.28
18.26
21.8
23.8
24.35
23.74
22.36
20.63
18.86
17.25
15.83
14.63
13.67
13.06
12.9
13.22
13.91
14.76
15.5
15.87
15.71
14.98
13.74
12.08
10.07
7.78
5.26
2.55
-0.26
-3.09
-5.86
-8.53
-11.09
-13.62
-16.23
-19.04
-22.11
-25.4
-28.74
-31.81
-34.13
-35.17
-34.46
-31.68
-26.87
-20.35
-12.8
-4.99
2.32
8.59
13.61
17.43
20.23
22.17
23.34
23.74
23.41
22.51
21.34
20.27
19.54
19.24
19.21
19.22
19.06
18.7
18.24
17.88
17.72
17.75
17.81
17.7
17.25
16.35
14.97
13.16
11.02
8.78
6.66
4.83
3.25
1.75
0.01
-2.19
-4.87
-7.83
-10.77
-13.43
-15.72
-17.78
-19.82
-22.08
-24.7
-27.71
-30.98
-34.25
-37.08
-38.89
-39.11
-37.29
-33.28
-27.3
-19.9
-11.82
-3.84
3.37
9.37
13.94
17.11
19.1
20.24
20.9
21.34
21.7
21.96
21.98
21.62
20.84
19.74
18.61
17.77
17.48
17.79
18.56
19.47
20.18
20.44
20.15
19.37
18.22
16.83
15.32
13.73
12.1
10.44
8.71
6.86
4.83
2.62
0.28
-2.07
-4.27
-6.22
-7.92
-9.45
-10.91
-12.39
-13.88
-15.36
-16.83
-18.37
-20.13
-22.26
-24.89
-28
-31.42
-34.8
-37.61
-39.25
-39.1
-36.76
-32.11
-25.45
-17.41
-8.81
-0.52
6.72
12.43
16.42
18.75
19.7
19.65
19
18.1
17.13
16.21
15.35
14.59
13.97
13.52
13.26
13.17
13.25
13.51
13.95
14.54
15.17
15.68
15.89
15.67
14.97
13.83
12.33
10.56
8.65
6.7
4.85
3.15
1.66
0.25
-1.21
-2.88
-4.81
-6.92
-9.09
-11.16
-13.1
-14.9
-16.62
-18.29
-19.98
-21.78
-23.84
-26.23
-28.85
-31.3
-32.93
-33.07
-31.26
-27.43
-21.93
-15.41
-8.62
-2.19
3.43
8.01
11.45
13.74
14.93
15.08
14.33
12.88
11.04
9.09
7.33
5.96
5.02
4.49
4.28
4.35
4.7
5.31
6.15
7.06
7.84
8.28
8.25
7.69
6.68
5.3
3.63
1.75
-0.3
-2.46
-4.61
-6.67
-8.51
-10.1
-11.47
-12.76
-14.18
-15.97
-18.28
-21.08
-24.06
-26.7
-28.33
-28.36
-26.48
-22.77
-17.66
-11.76
-5.69
0.07
5.18
9.45
12.71
14.85
15.83
15.73
14.8
13.36
11.75
10.23
8.91
7.77
6.75
5.8
4.95
4.3
3.97
4.05
4.48
5.05
5.43
5.26
4.37
2.78
0.72
-1.46
-3.52
-5.38
-7.14
-8.98
-11.03
-13.27
-15.65
-18.11
-20.74
-23.7
-27.02
-30.43
-33.3
-34.76
-34
-30.66
-24.98
-17.73
-9.98
-2.68
3.55
8.53
12.39
15.31
17.42
18.75
19.28
19
18.01
16.52
14.77
13
11.39
10.06
9.06
8.42
8.12
8.14
8.37
8.7
9
9.13
8.93
8.28
7.13
5.46
3.39
1.05
-1.37
-3.77
-6.06
-8.25
-10.39
-12.5
-14.62
-16.78
-19.03
-21.53
-24.42
-27.79
-31.51
-35.17
-38.14
-39.63
-38.99
-35.92
-30.59
-23.58
-15.71
-7.82
-0.55
5.69
10.77
14.71
17.6
19.56
20.71
21.19
21.08
20.51
19.55
18.32
16.96
15.68
14.73
14.35
14.62
15.45
16.54
17.55
18.14
18.14
17.59
16.6
15.29
13.74
11.96
9.98
7.89
5.8
3.76
1.71
-0.51
-3.08
-6.03
-9.21
-12.35
-15.18
-17.61
-19.76
-21.97
-24.56
-27.73
-31.38
-35.15
-38.46
-40.64
-41.11
-39.47
-35.65
-29.9
-22.76
-14.88
-6.95
0.43
6.87
12.13
16.13
18.85
20.4
20.97
20.77
20.01
18.93
17.7
16.49
15.49
14.83
14.6
14.78
15.24
15.83
16.42
16.9
17.25
17.44
17.42
17.12
16.45
15.4
14.04
12.46
10.76
8.97
7.06
4.95
2.6
0.12
-2.37
-4.7
-6.83
-8.8
-10.76
-12.82
-15.03
-17.4
-20
-22.94
-26.37
-30.19
-34
-37.01
-38.32
-37.2
-33.41
-27.3
-19.67
-11.47
-3.56
3.49
9.42
14.14
17.67
20.07
21.4
21.75
21.26
20.19
18.84
17.49
16.36
15.53
14.98
14.66
14.59
14.85
15.53
16.59
17.87
19.06
19.84
20.01
19.54
18.51
17.08
15.33
13.35
11.22
9.05
7
5.1
3.27
1.33
-0.92
-3.55
-6.44
-9.33
-11.95
-14.12
-15.87
-17.4
-19.02
-20.99
-23.53
-26.65
-30.12
-33.52
-36.17
-37.38
-36.55
-33.38
-27.95
-20.75
-12.57
-4.27
3.39
9.85
14.84
18.28
20.18
20.65
19.82
17.93
15.36
12.57
10.02
8.04
6.77
6.15
6.02
6.21
6.62
7.21
7.98
8.89
9.82
10.64
11.25
11.54
11.47
10.96
9.97
8.44
6.36
3.77
0.85
-2.2
-5.11
-7.69
-9.92
-11.96
-14.11
-16.65
-19.74
-23.25
-26.75
-29.65
-31.33
-31.3
-29.35
-25.54
-20.18
-13.71
-6.68
0.38
6.95
12.65
17.2
20.48
22.5
23.31
23.03
21.75
19.63
16.95
14.06
11.36
9.21
7.74
6.9
6.5
6.33
6.32
6.49
6.83
7.23
7.5
7.38
6.74
5.55
3.9
1.92
-0.36
-2.88
-5.57
-8.33
-11.1
-13.91
-16.96
-20.43
-24.4
-28.66
-32.68
-35.78
-37.27
-36.64
-33.72
-28.67
-21.98
-14.36
-6.58
0.7
7.05
12.26
16.33
19.26
21.03
21.61
20.99
19.38
17.15
14.76
12.7
11.28
10.66
10.79
11.48
12.43
13.34
13.98
14.26
14.2
13.86
13.33
12.55
11.43
9.83
7.65
4.91
1.72
-1.77
-5.38
-8.98
-12.43
-15.68
-18.77
-21.82
-25.01
-28.54
-32.42
-36.44
-40.13
-42.74
-43.5
-41.77
-37.3
-30.36
-21.63
-12.13
-2.86
5.32
11.91
16.74
19.91
21.67
22.33
22.25
21.71
20.98
20.22
19.51
18.88
18.4
18.13
18.14
18.43
18.87
19.27
19.4
19.17
18.58
17.74
16.77
15.72
14.55
13.14
11.42
9.31
6.82
3.98
0.86
-2.5
-6
-9.56
-13.06
-16.4
-19.54
-22.58
-25.71
-29.14
-32.93
-36.82
-40.18
-42.21
-42.08
-39.32
-33.96
-26.47
-17.71
-8.56
0.17
7.91
14.3
19.2
22.55
24.44
25.07
24.72
23.73
22.39
20.98
19.64
18.47
17.51
16.79
16.36
16.28
16.59
17.24
18.12
19
19.63
19.77
19.31
18.26
16.78
15.1
13.45
11.96
10.56
9.07
7.24
4.91
2.08
-1.1
-4.39
-7.62
-10.74
-13.87
-17.2
-20.87
-24.93
-29.28
-33.7
-37.79
-41.05
-42.82
-42.45
-39.48
-33.81
-25.86
-16.51
-6.86
2.05
9.55
15.38
19.6
22.36
23.84
24.2
23.65
22.48
21.1
19.85
18.91
18.29
17.88
17.55
17.31
17.23
17.42
17.88
18.45
18.93
19.1
18.8
18
16.75
15.11
13.17
10.98
8.61
6.08
3.4
0.59
-2.33
-5.28
-8.13
-10.67
-12.74
-14.32
-15.6
-16.95
-18.81
-21.53
-25.16
-29.36
-33.42
-36.43
-37.48
-35.98
-31.8
-25.29
-17.2
-8.48
-0.02
7.47
13.6
18.21
21.33
23.08
23.55
22.93
21.46
19.51
17.47
15.72
14.47
13.73
13.36
13.17
13.01
12.87
12.82
12.92
13.17
13.43
13.55
13.31
12.56
11.15
9.04
6.31
3.18
0.02
-2.87
-5.29
-7.31
-9.19
-11.24
-13.72
-16.74
-20.28
-24.15
-28.03
-31.36
-33.43
-33.51
-31.07
-26.07
-18.99
-10.75
-2.37
5.29
11.78
16.96
20.88
23.59
25.09
25.31
24.25
22.05
19.06
15.72
12.55
9.95
8.16
7.24
7.06
7.41
8.02
8.62
9.05
9.23
9.09
8.58
7.61
6.1
4.02
1.46
-1.35
-4.16
-6.78
-9.27
-11.86
-14.92
-18.69
-23.19
-28.04
-32.61
-36.09
-37.69
-36.83
-33.27
-27.21
-19.27
-10.38
-1.52
6.48
13.13
18.31
22.11
24.66
26
26.13
25.12
23.19
20.73
18.17
15.92
14.22
13.1
12.54
12.41
12.58
12.91
13.22
13.39
13.35
13.08
12.55
11.68
10.3
8.25
5.47
2.08
-1.6
-5.25
-8.59
-11.58
-14.32
-17.05
-19.99
-23.29
-27
-31.09
-35.35
-39.31
-42.33
-43.63
-42.53
-38.69
-32.27
-23.89
-14.45
-4.96
3.75
11.09
16.79
20.84
23.46
24.92
25.55
25.59
25.24
24.65
23.94
23.24
22.66
22.2
21.83
21.47
21.16
20.95
20.99
21.25
21.58
21.69
21.24
20.08
18.29
16.09
13.73
11.28
8.64
5.6
2.06
-1.87
-5.87
-9.54
-12.57
-14.94
-16.89
-18.89
-21.45
-24.91
-29.29
-34.18
-38.85
-42.29
-43.61
-42.16
-37.78
-30.8
-21.94
-12.17
-2.45
6.37
13.68
19.18
22.86
24.92
25.74
25.73
25.22
24.46
23.54
22.49
21.32
20.06
18.85
17.87
17.31
17.24
17.64
18.31
18.99
19.39
19.33
18.75
17.65
16.09
14.12
11.79
9.18
6.41
3.61
0.87
-1.8
-4.39
-6.93
-9.41
-11.73
-13.84
-15.76
-17.64
-19.72
-22.26
-25.38
-28.91
-32.39
-35.08
-36.18
-35.05
-31.42
-25.52
-18.05
-9.93
-2.07
4.89
10.65
15.19
18.57
20.87
22.06
22.14
21.18
19.4
17.18
14.91
12.96
11.55
10.72
10.39
10.37
10.52
10.75
11.05
11.44
11.89
12.28
12.37
11.9
10.65
8.61
5.9
2.78
-0.51
-3.73
-6.8
-9.67
-12.37
-14.96
-17.55
-20.27
-23.24
-26.43
-29.58
-32.18
-33.57
-33.07
-30.28
-25.16
-18.15
-9.98
-1.58
6.19
12.73
17.71
21.08
22.95
23.5
22.91
21.4
19.27
16.85
14.51
12.54
11.09
10.1
9.43
8.89
8.39
7.95
7.66
7.58
7.66
7.76
7.57
6.85
5.4
3.16
0.27
-3.06
-6.5
-9.79
-12.75
-15.42
-17.97
-20.67
-23.76
-27.26
-30.9
-34.12
-36.18
-36.31
-34
-29.12
-22.05
-13.62
-4.86
3.26
10.08
15.32
18.98
21.26
22.32
22.32
21.39
19.73
17.64
15.45
13.5
12
11.08
10.75
10.9
11.33
11.83
12.19
12.28
12.12
11.76
11.28
10.65
9.72
8.31
6.29
3.65
0.56
-2.75
-6.08
-9.3
-12.39
-15.42
-18.45
-21.54
-24.72
-28.01
-31.32
-34.45
-36.93
-38.12
-37.35
-34.15
-28.49
-20.9
-12.25
-3.59
4.18
10.57
15.38
18.74
20.84
21.9
22.12
21.68
20.79
19.64
18.47
17.41
16.53
15.88
15.43
15.21
15.27
15.61
16.16
16.74
17.09
16.9
16.03
14.48
12.44
10.21
8.01
5.94
3.91
1.7
-0.89
-3.89
-7.15
-10.41
-13.39
-15.99
-18.29
-20.61
-23.29
-26.53
-30.25
-34.06
-37.33
-39.37
-39.63
-37.8
-33.92
-28.23
-21.18
-13.28
-5.12
2.71
9.69
15.37
19.47
21.99
23.09
23.11
22.46
21.44
20.29
19.15
18.09
17.16
16.39
15.8
15.4
15.14
14.95
14.8
14.6
14.3
13.84
13.13
12.13
10.84
9.34
7.75
6.17
4.66
3.18
1.62
-0.18
-2.32
-4.85
-7.63
-10.46
-13.08
-15.36
-17.35
-19.31
-21.61
-24.51
-28
-31.68
-34.83
-36.62
-36.39
-33.88
-29.25
-22.97
-15.71
-8.11
-0.78
5.83
11.37
15.64
18.64
20.49
21.4
21.53
20.96
19.73
17.95
15.84
13.77
12.1
11.06
10.65
10.67
10.91
11.24
11.57
11.89
12.08
12.01
11.55
10.69
9.49
8.1
6.58
4.88
2.93
0.67
-1.83
-4.36
-6.66
-8.54
-9.97
-11.08
-12.13
-13.42
-15.21
-17.64
-20.67
-24.07
-27.37
-29.97
-31.23
-30.65
-28.02
-23.46
-17.42
-10.51
-3.44
3.18
8.84
13.29
16.41
18.26
19.04
18.98
18.28
17.07
15.41
13.37
11.15
8.99
7.22
6.04
5.53
5.58
5.99
6.56
7.08
7.42
7.47
7.14
6.37
5.19
3.65
1.89
0.01
-1.91
-3.86
-5.83
-7.81
-9.79
-11.78
-13.86
-16.14
-18.75
-21.73
-24.94
-27.97
-30.25
-31.09
-29.97
-26.7
-21.58
-15.24
-8.48
-1.99
3.79
8.74
12.87
16.19
18.57
19.84
19.87
18.73
16.73
14.3
11.88
9.77
8.06
6.73
5.73
5.06
4.77
4.9
5.38
6.02
6.59
6.85
6.67
6
4.85
3.27
1.32
-0.93
-3.39
-5.94
-8.44
-10.82
-13.06
-15.23
-17.5
-20.05
-23.06
-26.57
-30.34
-33.87
-36.4
-37.14
-35.52
-31.39
-25.11
-17.49
-9.51
-2.05
4.33
9.47
13.48
16.6
19.01
20.7
21.59
21.6
20.79
19.36
17.63
15.89
14.31
12.95
11.84
11.01
10.58
10.66
11.21
12
12.68
12.88
12.39
11.2
9.51
7.59
5.6
3.56
1.4
-0.95
-3.52
-6.18
-8.8
-11.25
-13.56
-15.87
-18.35
-21.15
-24.32
-27.82
-31.39
-34.7
-37.22
-38.4
-37.74
-34.98
-30.16
-23.66
-16.12
-8.2
-0.52
6.42
12.31
16.92
20.15
21.95
22.45
21.91
20.65
19.06
17.43
16.01
14.89
14.06
13.44
12.98
12.65
12.5
12.59
12.93
13.43
13.88
14.05
13.75
12.9
11.58
9.92
8.09
6.21
4.36
2.47
0.49
-1.67
-4.04
-6.54
-9.03
-11.38
-13.55
-15.67
-17.96
-20.67
-23.91
-27.54
-31.15
-34.17
-35.98
-36.07
-34.09
-29.98
-23.96
-16.52
-8.39
-0.39
6.76
12.53
16.71
19.35
20.62
20.7
19.76
18
15.68
13.23
11.08
9.59
8.85
8.75
8.99
9.25
9.36
9.32
9.23
9.16
9.12
9.01
8.68
8.03
7
5.55
3.69
1.42
-1.19
-3.97
-6.7
-9.15
-11.13
-12.72
-14.16
-15.82
-18.03
-20.89
-24.15
-27.26
-29.53
-30.3
-29.13
-25.93
-20.97
-14.72
-7.8
-0.77
5.9
11.85
16.77
20.37
22.44
22.93
21.98
19.95
17.36
14.69
12.27
10.29
8.77
7.7
7.1
6.95
7.18
7.63
8.04
8.2
8
7.44
6.58
5.5
4.14
2.44
0.36
-2.08
-4.71
-7.32
-9.76
-11.98
-14.1
-16.35
-18.94
-21.94
-25.25
-28.5
-31.14
-32.58
-32.3
-29.97
-25.59
-19.45
-12.08
-4.17
3.57
10.49
16.1
20.1
22.43
23.17
22.58
20.93
18.51
15.63
12.59
9.69
7.19
5.27
3.98
3.31
3.15
3.38
3.9
4.63
5.45
6.22
6.79
6.96
6.58
5.63
4.16
2.32
0.25
-1.94
-4.23
-6.6
-9.09
-11.68
-14.37
-17.23
-20.41
-24
-27.83
-31.45
-34.09
-34.94
-33.43
-29.43
-23.31
-15.8
-7.73
0.15
7.31
13.42
18.28
21.79
23.94
24.78
24.5
23.32
21.52
19.41
17.25
15.29
13.71
12.62
12.04
11.91
12.11
12.49
12.89
13.19
13.28
13.1
12.59
11.72
10.5
8.93
7.05
4.88
2.41
-0.4
-3.56
-7.04
-10.72
-14.41
-17.93
-21.21
-24.3
-27.43
-30.83
-34.6
-38.54
-42.1
-44.47
-44.8
-42.52
-37.53
-30.22
-21.33
-11.76
-2.32
6.34
13.72
19.49
23.5
25.79
26.65
26.51
25.77
24.68
23.33
21.74
20.04
18.45
17.22
16.56
16.49
16.83
17.36
17.88
18.32
18.68
18.96
19.1
18.92
18.26
16.96
15
12.42
9.4
6.11
2.72
-0.64
-3.92
-7.14
-10.31
-13.42
-16.47
-19.49
-22.6
-25.99
-29.81
-34.03
-38.34
-42.11
-44.54
-44.85
-42.53
-37.52
-30.22
-21.42
-12.04
-2.96
5.15
11.88
17.07
20.73
23.01
24.08
24.15
23.43
22.18
20.63
19.02
17.53
16.33
15.56
15.29
15.52
16.16
17.03
17.92
18.6
18.88
18.7
18.01
16.84
15.22
13.2
10.83
8.18
5.36
2.43
-0.56
-3.61
-6.67
-9.73
-12.73
-15.59
-18.3
-20.93
-23.6
-26.45
-29.56
-32.77
-35.64
-37.45
-37.43
-34.96
-29.9
-22.66
-14.08
-5.18
3.22
10.55
16.61
21.34
24.69
26.63
27.11
26.26
24.39
21.96
19.48
17.37
15.86
14.99
14.65
14.63
14.78
15.01
15.29
15.59
15.82
15.81
15.36
14.28
12.54
10.23
7.52
4.63
1.7
-1.15
-3.85
-6.41
-8.9
-11.49
-14.39
-17.81
-21.86
-26.47
-31.35
-35.95
-39.57
-41.41
-40.83
-37.48
-31.43
-23.21
-13.69
-3.9
5.25
13.07
19.24
23.69
26.5
27.83
27.87
26.8
24.89
22.48
20
17.84
16.33
15.61
15.6
16.09
16.84
17.66
18.42
19.04
19.45
19.52
19.09
18.06
16.41
14.23
11.75
9.18
6.66
4.15
1.48
-1.57
-5.11
-9.07
-13.17
-17.03
-20.37
-23.09
-25.45
-27.94
-31.06
-35.09
-39.88
-44.78
-48.73
-50.6
-49.48
-45.01
-37.46
-27.66
-16.74
-5.79
4.32
13.06
20.17
25.58
29.31
31.45
32.21
31.89
30.9
29.61
28.28
27.01
25.78
24.56
23.44
22.59
22.19
22.32
22.89
23.65
24.3
24.58
24.35
23.57
22.3
20.6
18.57
16.33
14.02
11.77
9.66
7.65
5.55
3.13
0.18
-3.35
-7.27
-11.25
-14.95
-18.16
-20.94
-23.55
-26.31
-29.55
-33.37
-37.71
-42.31
-46.72
-50.3
-52.27
-51.86
-48.51
-42.07
-32.94
-22.03
-10.52
0.44
9.96
17.56
23.16
26.89
29.01
29.83
29.7
28.96
27.95
26.92
26.01
25.26
24.64
24.16
23.86
23.81
24.03
24.46
24.98
25.43
25.74
25.88
25.81
25.46
24.73
23.49
21.76
19.65
17.29
14.83
12.32
9.72
6.93
3.95
0.88
-2.14
-4.95
-7.51
-9.88
-12.27
-14.82
-17.64
-20.68
-23.85
-27.11
-30.57
-34.38
-38.7
-43.41
-47.96
-51.45
-52.85
-51.34
-46.67
-39.22
-29.86
-19.6
-9.36
0.25
8.88
16.22
21.99
25.9
27.83
27.88
26.52
24.34
21.92
19.68
17.81
16.36
15.35
14.82
14.83
15.37
16.36
17.57
18.73
19.53
19.77
19.31
18.21
16.63
14.78
12.85
10.89
8.85
6.56
3.9
0.86
-2.5
-5.97
-9.4
-12.63
-15.61
-18.36
-21.04
-23.87
-27.07
-30.7
-34.53
-37.96
-40.14
-40.31
-37.92
-32.95
-25.84
-17.32
-8.23
0.7
8.91
15.95
21.48
25.3
27.3
27.64
26.59
24.57
22.04
19.38
16.88
14.74
13.12
12.12
11.82
12.24
13.21
14.47
15.61
16.27
16.17
15.3
13.79
11.96
10.08
8.27
6.51
4.62
2.38
-0.34
-3.54
-7.08
-10.71
-14.17
-17.32
-20.12
-22.72
-25.37
-28.37
-31.92
-36.07
-40.47
-44.45
-47.09
-47.49
-45.03
-39.6
-31.64
-22.03
-11.79
-1.89
6.96
14.35
20.11
24.21
26.74
27.83
27.67
26.53
24.7
22.5
20.24
18.18
16.5
15.27
14.49
14.09
14.07
14.39
15.03
15.91
16.82
17.48
17.64
17.17
16.07
14.49
12.55
10.35
7.87
5.08
2
-1.3
-4.71
-8.09
-11.36
-14.47
-17.36
-20
-22.37
-24.59
-26.93
-29.74
-33.29
-37.47
-41.7
-45.01
-46.26
-44.54
-39.53
-31.59
-21.7
-11.08
-0.9
8.01
15.21
20.61
24.34
26.59
27.6
27.63
26.86
25.52
23.81
21.94
20.08
18.39
17.03
16.08
15.55
15.45
15.73
16.31
17.07
17.86
18.45
18.63
18.22
17.12
15.34
13.04
10.47
7.84
5.28
2.77
0.17
-2.67
-5.75
-8.91
-11.86
-14.39
-16.47
-18.38
-20.49
-23.23
-26.76
-31
-35.59
-39.87
-43.06
-44.35
-43.1
-39.04
-32.39
-23.85
-14.41
-5.12
3.16
9.93
14.98
18.43
20.49
21.42
21.45
20.69
19.28
17.37
15.21
13.13
11.43
10.29
9.71
9.58
9.79
10.28
11.04
12.03
13.05
13.78
13.88
13.12
11.53
9.29
6.71
4.01
1.26
-1.55
-4.46
-7.45
-10.42
-13.28
-16.01
-18.71
-21.59
-24.82
-28.29
-31.62
-34.14
-35.06
-33.74
-29.93
-23.86
-16.16
-7.67
0.76
8.42
14.84
19.72
22.94
24.5
24.49
23.1
20.59
17.36
13.88
10.7
8.28
6.87
6.39
6.51
6.81
7
7.02
7.06
7.29
7.73
8.07
7.87
6.7
4.46
1.4
-2
-5.21
-7.91
-10.13
-12.21
-14.59
-17.71
-21.78
-26.67
-31.87
-36.57
-39.84
-40.8
-38.96
-34.29
-27.25
-18.67
-9.51
-0.65
7.28
13.89
19.05
22.73
25.07
26.22
26.37
25.71
24.38
22.54
20.38
18.12
16.01
14.3
13.2
12.79
13.03
13.75
14.7
15.58
16.18
16.32
15.91
14.96
13.41
11.28
8.57
5.36
1.79
-1.91
-5.56
-9.04
-12.33
-15.5
-18.65
-21.9
-25.4
-29.29
-33.61
-38.18
-42.53
-45.87
-47.3
-46.08
-41.84
-34.79
-25.66
-15.48
-5.34
3.87
11.64
17.82
22.52
25.99
28.44
30
30.78
30.86
30.36
29.46
28.32
27.07
25.81
24.63
23.61
22.83
22.3
21.9
21.49
20.86
19.93
18.72
17.34
15.83
14.15
12.13
9.63
6.64
3.33
-0.02
-3.1
-5.83
-8.26
-10.64
-13.17
-15.94
-18.97
-22.23
-25.78
-29.65
-33.71
-37.53
-40.34
-41.22
-39.47
-34.83
-27.69
-18.95
-9.73
-1.05
6.42
12.39
16.89
20.13
22.29
23.6
24.18
24.16
23.64
22.69
21.43
19.96
18.47
17.1
16.02
15.33
15.03
15.06
15.25
15.4
15.32
14.83
13.83
12.28
10.22
7.7
4.84
1.78
-1.28
-4.15
-6.69
-8.95
-11.2
-13.85
-17.24
-21.4
-25.9
-29.82
-32.13
-31.99
-29.04
-23.59
-16.4
-8.4
-0.44
6.87
13.18
18.31
22.13
24.56
25.61
25.43
24.28
22.55
20.53
18.48
16.54
14.8
13.37
12.31
11.65
11.36
11.38
11.6
11.97
12.37
12.63
12.5
11.67
9.99
7.45
4.28
0.85
-2.5
-5.57
-8.28
-10.75
-13.15
-15.68
-18.52
-21.8
-25.46
-29.23
-32.61
-34.9
-35.41
-33.69
-29.66
-23.64
-16.3
-8.4
-0.69
6.29
12.17
16.78
20.01
21.8
22.14
21.14
19.09
16.44
13.72
11.41
9.83
9.04
8.83
8.91
8.95
8.79
8.36
7.76
7.09
6.41
5.62
4.63
3.35
1.79
0.07
-1.68
-3.39
-5.11
-6.98
-9.14
-11.68
-14.62
-17.9
-21.42
-24.98
-28.23
-30.7
-31.78
-30.93
-27.84
-22.55
-15.51
-7.46
0.72
8.2
14.35
18.81
21.53
22.71
22.67
21.76
20.2
18.12
15.62
12.84
10.06
7.63
5.84
4.79
4.37
4.32
4.36
4.36
4.27
4.08
3.77
3.18
2.11
0.45
-1.76
-4.32
-7.01
-9.64
-12.26
-15.08
-18.35
-22.2
-26.41
-30.36
-33.14
-33.88
-32.03
-27.57
-21.05
-13.35
-5.37
2.21
8.99
14.8
19.5
22.91
24.84
25.21
24.2
22.17
19.64
17.06
14.71
12.66
10.85
9.21
7.74
6.53
5.72
5.4
5.54
5.95
6.33
6.39
5.88
4.69
2.85
0.44
-2.38
-5.47
-8.66
-11.8
-14.73
-17.41
-19.98
-22.7
-25.88
-29.65
-33.78
-37.67
-40.38
-40.94
-38.71
-33.56
-25.97
-16.83
-7.25
1.78
9.57
15.81
20.47
23.73
25.78
26.78
26.83
26.05
24.59
22.71
20.72
18.87
17.33
16.16
15.29
14.6
14.01
13.47
12.98
12.56
12.16
11.75
11.18
10.31
9.01
7.19
4.87
2.15
-0.79
-3.76
-6.59
-9.17
-11.43
-13.36
-15.04
-16.67
-18.54
-20.94
-24.07
-27.82
-31.76
-35.15
-37.13
-36.93
-34.09
-28.66
-21.12
-12.37
-3.42
4.81
11.7
17
20.77
23.24
24.6
25.02
24.56
23.33
21.56
19.57
17.71
16.26
15.34
14.86
14.64
14.46
14.23
13.94
13.63
13.39
13.21
13.02
12.69
12.07
11.13
9.88
8.37
6.61
4.52
1.94
-1.16
-4.64
-8.16
-11.29
-13.76
-15.56
-17.04
-18.69
-20.95
-24.06
-27.92
-32.16
-36.25
-39.57
-41.47
-41.37
-38.88
-33.97
-26.97
-18.63
-9.89
-1.63
5.56
11.42
15.93
19.16
21.19
22.01
21.73
20.52
18.8
16.99
15.44
14.31
13.52
12.93
12.42
12.02
11.86
12.07
12.63
13.38
14.07
14.44
14.37
13.85
12.93
11.66
10.04
8.08
5.75
3.11
0.25
-2.69
-5.59
-8.3
-10.71
-12.74
-14.42
-15.94
-17.63
-19.92
-23.04
-26.94
-31.12
-34.74
-36.89
-36.87
-34.43
-29.81
-23.66
-16.72
-9.63
-2.8
3.53
9.18
13.97
17.63
19.89
20.59
19.81
17.88
15.29
12.61
10.22
8.32
6.93
5.89
5.16
4.72
4.65
4.95
5.51
6.11
6.49
6.46
6.01
5.23
4.29
3.23
2.01
0.49
-1.47
-3.91
-6.7
-9.62
-12.38
-14.79
-16.84
-18.72
-20.73
-23.14
-25.99
-29.02
-31.63
-33.13
-32.88
-30.54
-26.2
-20.28
-13.39
-6.19
0.79
7.16
12.6
16.82
19.57
20.63
20.05
18.11
15.38
12.5
9.98
8.06
6.68
5.65
4.83
4.22
3.96
4.17
4.83
5.7
6.4
6.52
5.8
4.26
2.11
-0.34
-2.78
-5.03
-7.09
-9.04
-11.05
-13.29
-15.87
-18.86
-22.22
-25.83
-29.33
-32.22
-33.86
-33.6
-30.99
-25.94
-18.86
-10.55
-2
5.88
12.46
17.46
20.87
22.79
23.39
22.8
21.22
18.93
16.31
13.67
11.26
9.2
7.52
6.23
5.34
4.91
4.91
5.3
5.93
6.68
7.34
7.68
7.41
6.25
4.04
0.89
-2.83
-6.59
-9.87
-12.4
-14.26
-15.8
-17.49
-19.79
-22.94
-26.92
-31.41
-35.82
-39.36
-41.22
-40.73
-37.54
-31.74
-23.85
-14.75
-5.44
3.16
10.4
15.96
19.82
22.18
23.35
23.62
23.19
22.23
20.84
19.15
17.33
15.55
13.96
12.73
11.94
11.68
11.95
12.66
13.61
14.51
15.07
15.09
14.48
13.36
11.86
10.18
8.42
6.6
4.63
2.33
-0.42
-3.68
-7.35
-11.18
-14.89
-18.28
-21.35
-24.31
-27.51
-31.2
-35.33
-39.44
-42.76
-44.41
-43.64
-40.16
-34.09
-26.03
-16.8
-7.35
1.47
9.05
15.09
19.5
22.36
23.87
24.26
23.81
22.8
21.52
20.21
18.98
17.81
16.63
15.42
14.29
13.54
13.5
14.33
15.9
17.8
19.41
20.23
19.98
18.72
16.8
14.64
12.58
10.78
9.12
7.35
5.22
2.57
-0.59
-4.08
-7.61
-10.88
-13.69
-15.99
-18
-20.05
-22.54
-25.75
-29.65
-33.86
-37.61
-39.95
-40.03
-37.35
-31.93
-24.33
-15.41
-6.2
2.41
9.81
15.73
20.15
23.18
25
25.78
25.7
25
23.94
22.77
21.71
20.86
20.25
19.83
19.55
19.38
19.33
19.43
19.67
20
20.3
20.43
20.26
19.74
18.8
17.44
15.71
13.73
11.64
9.62
7.71
5.86
3.9
1.62
-1.06
-4.07
-7.17
-10.09
-12.65
-14.9
-17.02
-19.29
-21.92
-25.04
-28.67
-32.67
-36.73
-40.26
-42.5
-42.66
-40.17
-35.01
-27.66
-19.03
-10.11
-1.72
5.61
11.56
15.99
18.8
19.97
19.67
18.27
16.27
14.24
12.57
11.49
10.98
10.88
11.01
11.21
11.47
11.84
12.43
13.3
14.37
15.4
16.03
15.95
14.97
13.14
10.68
7.92
5.14
2.5
0.04
-2.3
-4.59
-6.84
-9.04
-11.11
-13.01
-14.79
-16.64
-18.83
-21.59
-24.95
-28.59
-31.87
-33.92
-33.94
-31.46
-26.51
-19.6
-11.59
-3.44
4.04
10.39
15.44
19.26
21.96
23.54
23.91
22.99
20.83
17.77
14.34
11.14
8.61
6.96
6.13
5.97
6.41
7.42
9.03
11.14
13.42
15.39
16.51
16.48
15.25
13.05
10.19
6.98
3.59
0.13
-3.29
-6.6
-9.79
-13
-16.49
-20.5
-25.07
-29.84
-34.05
-36.74
-37.04
-34.51
-29.24
-21.9
-13.41
-4.77
3.29
10.33
16.19
20.78
24.03
25.82
26.12
25.04
22.96
20.42
17.92
15.87
14.44
13.59
13.16
12.97
12.85
12.72
12.57
12.45
12.44
12.5
12.47
12.09
11.04
9.2
6.61
3.55
0.3
-2.89
-6.01
-9.17
-12.46
-15.9
-19.4
-22.9
-26.44
-30.21
-34.41
-38.95
-43.37
-46.76
-48.07
-46.51
-41.81
-34.44
-25.37
-15.75
-6.58
1.52
8.25
13.58
17.6
20.44
22.23
23.13
23.29
22.88
22.04
20.97
19.88
18.99
18.45
18.33
18.52
18.86
19.15
19.27
19.15
18.71
17.93
16.79
15.35
13.71
11.96
10.06
7.89
5.3
2.24
-1.15
-4.6
-7.89
-10.94
-13.85
-16.81
-19.98
-23.39
-27.02
-30.86
-34.87
-38.92
-42.52
-44.85
-44.98
-42.21
-36.44
-28.32
-18.95
-9.57
-1.06
6.2
12.27
17.4
21.69
25.07
27.33
28.38
28.28
27.36
26.06
24.79
23.75
23.05
22.63
22.43
22.42
22.57
22.88
23.28
23.65
23.8
23.53
22.68
21.18
19.13
16.76
14.34
12.11
10.12
8.24
6.2
3.77
0.89
-2.3
-5.52
-8.51
-11.14
-13.45
-15.56
-17.69
-20.05
-22.88
-26.32
-30.43
-34.92
-39.12
-42.12
-42.92
-40.84
-35.71
-27.97
-18.57
-8.67
0.65
8.63
14.92
19.52
22.63
24.52
25.4
25.44
24.77
23.61
22.23
20.93
19.9
19.22
18.82
18.64
18.65
18.92
19.52
20.44
21.52
22.47
22.99
22.84
21.92
20.3
18.13
15.63
13.02
10.51
8.22
6.15
4.2
2.15
-0.24
-3.07
-6.3
-9.68
-12.88
-15.66
-17.96
-19.98
-22.06
-24.52
-27.52
-31.01
-34.6
-37.8
-39.96
-40.48
-38.87
-34.89
-28.67
-20.67
-11.7
-2.67
5.55
12.34
17.42
20.79
22.66
23.33
23.04
21.98
20.3
18.19
15.94
13.89
12.39
11.64
11.64
12.21
13.1
14.07
14.98
15.72
16.18
16.2
15.57
14.12
11.91
9.11
6.04
3.02
0.22
-2.3
-4.63
-6.91
-9.23
-11.69
-14.37
-17.38
-20.8
-24.57
-28.46
-31.95
-34.33
-34.89
-33.1
-28.82
-22.39
-14.49
-6.01
2.22
9.54
15.57
20.1
23.04
24.4
24.3
23
20.85
18.32
15.83
13.71
12.19
11.33
11.07
11.24
11.6
11.89
11.94
11.76
11.47
11.22
11.09
10.9
10.34
9.07
6.9
3.95
0.56
-2.84
-5.92
-8.6
-10.99
-13.37
-15.95
-18.87
-22.11
-25.62
-29.34
-33.2
-37.06
-40.51
-42.92
-43.47
-41.42
-36.46
-28.89
-19.61
-9.82
-0.66
7.1
13.23
17.87
21.32
23.84
25.48
26.23
26.09
25.23
23.94
22.58
21.37
20.32
19.37
18.42
17.56
16.99
16.96
17.53
18.51
19.49
20
19.75
18.71
17.1
15.27
13.5
11.85
10.26
8.53
6.46
3.94
0.95
-2.43
-6.08
-9.73
-13.17
-16.2
-18.8
-21.14
-23.56
-26.43
-30
-34.16
-38.4
-41.91
-43.78
-43.32
-40.23
-34.66
-27.14
-18.39
-9.19
-0.23
7.89
14.75
20.11
23.87
26.11
27.05
26.98
26.24
25.17
24.05
23.09
22.37
21.88
21.55
21.29
21.11
21.04
21.18
21.53
22.02
22.42
22.46
21.89
20.58
18.55
15.99
13.23
10.6
8.32
6.41
4.68
2.86
0.66
-2.01
-5.09
-8.35
-11.48
-14.31
-16.74
-18.81
-20.69
-22.62
-24.86
-27.68
-31.23
-35.36
-39.6
-43.14
-45.02
-44.46
-41.15
-35.32
-27.7
-19.22
-10.74
-2.86
4.1
9.95
14.55
17.79
19.65
20.27
19.96
19.12
18.09
17.04
16
14.96
13.96
13.13
12.65
12.67
13.17
14.01
14.94
15.73
16.2
16.22
15.75
14.77
13.28
11.28
8.84
6.04
3.02
-0.06
-3.06
-5.86
-8.41
-10.72
-12.87
-14.95
-17.15
-19.65
-22.57
-25.88
-29.27
-32.21
-33.98
-33.93
-31.66
-27.22
-21.06
-13.93
-6.59
0.31
6.36
11.34
15.13
17.67
18.91
18.88
17.74
15.79
13.43
11.08
9.05
7.5
6.45
5.82
5.5
5.38
5.4
5.55
5.8
6.12
6.38
6.4
5.95
4.85
3.02
0.57
-2.26
-5.18
-7.91
-10.33
-12.49
-14.58
-16.91
-19.74
-23.14
-26.89
-30.42
-32.97
-33.72
-32.14
-28.09
-21.96
-14.47
-6.53
1.09
7.81
13.32
17.46
20.15
21.39
21.22
19.87
17.74
15.3
12.99
11.07
9.56
8.32
7.18
6.06
5.07
4.34
3.98
3.96
4.09
4.04
3.48
2.26
0.35
-2.08
-4.79
-7.5
-10.1
-12.57
-15.06
-17.75
-20.83
-24.42
-28.39
-32.38
-35.74
-37.67
-37.42
-34.56
-29.18
-21.82
-13.38
-4.76
3.31
10.39
16.26
20.82
23.99
25.73
26.11
25.37
23.9
22.14
20.44
19.02
17.91
17.04
16.25
15.47
14.67
13.93
13.35
12.97
12.76
12.52
12.01
10.96
9.21
