-13.93
-10.08
-5.07
0.47
5.88
10.65
14.55
17.6
19.89
21.48
22.38
22.59
22.2
21.45
20.62
19.89
19.33
18.87
18.42
17.91
17.33
16.69
16.01
15.3
14.55
13.77
12.96
12.1
11.12
9.96
8.57
7.01
5.38
3.82
2.41
1.11
-0.24
-1.84
-3.84
-6.32
-9.13
-12.02
-14.61
-16.49
-17.35
-17.01
-15.45
-12.8
-9.37
-5.57
-1.88
1.23
3.46
4.7
5.07
4.85
4.32
3.73
3.24
2.9
2.68
2.54
2.4
2.22
1.94
1.56
1.15
0.84
0.82
1.19
1.97
2.97
3.89
4.38
4.21
3.28
1.75
-0.14
-2.09
-3.87
-5.33
-6.43
-7.22
-7.82
-8.45
-9.36
-10.73
-12.52
-14.41
-15.84
-16.09
-14.65
-11.33
-6.33
-0.23
6.24
12.43
17.93
22.6
26.59
30.2
33.72
37.32
40.89
44.1
46.4
47.23
46.18
43.13
38.26
32.02
24.95
17.63
10.51
3.94
-1.87
-6.76
-10.69
-13.69
-15.95
-17.72
-19.32
-20.92
-22.57
-24.15
-25.46
-26.28
-26.42
-25.83
-24.5
-22.56
-20.24
-17.84
-15.64
-13.76
-12.04
-10.01
-7.12
-2.92
2.64
9.21
16.1
22.5
27.74
31.35
33.11
33.04
31.28
28.11
23.9
19.06
14.02
9.18
4.79
1
-2.26
-5.14
-7.79
-10.34
-12.71
-14.71
-16.13
-16.83
-16.88
-16.57
-16.23
-16.19
-16.58
-17.35
-18.39
-19.56
-20.79
-22.04
-23.3
-24.52
-25.67
-26.76
-27.91
-29.27
-30.96
-32.93
-34.88
-36.31
-36.64
-35.41
-32.41
-27.76
-21.88
-15.38
-8.86
-2.84
2.39
6.7
10.07
12.58
14.32
15.42
16.05
16.38
16.56
16.7
16.88
17.12
17.48
17.96
18.6
19.33
20.04
20.59
20.89
20.94
20.78
20.49
20.07
19.48
18.59
17.32
15.61
13.44
10.87
7.97
4.87
1.68
-1.43
-4.42
-7.27
-10
-12.57
-14.78
-16.26
-16.56
-15.44
-12.88
-9.26
-5.14
-1.11
2.46
5.42
7.78
9.63
10.9
11.49
11.33
10.48
9.19
7.85
6.79
6.11
5.75
5.44
4.98
4.36
3.7
3.21
2.99
2.98
2.95
2.69
2.04
0.96
-0.51
-2.37
-4.6
-7.18
-10
-12.95
-15.87
-18.7
-21.43
-23.93
-26
-27.27
-27.4
-26.23
-23.94
-20.96
-17.85
-15.01
-12.65
-10.78
-9.33
-8.32
-7.84
-8.01
-8.88
-10.29
-11.93
-13.37
-14.18
-14.13
-13.2
-11.66
-9.9
-8.3
-7.15
-6.55
-6.47
-6.79
-7.45
-8.36
-9.51
-10.82
-12.26
-13.76
-15.32
-16.91
-18.47
-19.91
-21.08
-21.8
-21.88
-21.13
-19.3
-16.18
-11.64
-5.7
1.33
9
16.78
24.2
30.9
36.68
41.44
45.19
48.04
50.17
51.75
52.77
52.97
51.85
48.89
43.84
36.84
28.53
19.74
11.3
3.67
-3.09
-9.28
-15.32
-21.54
-28.07
-34.8
-41.49
-47.89
-53.78
-58.9
-62.8
-64.79
-64.06
-59.96
-52.29
-41.5
-28.49
-14.29
0.42
15.42
30.75
46.22
61.06
73.96
83.46
88.66
89.66
87.6
84.18
80.95
78.78
77.63
76.85
75.59
73.39
70.27
66.66
63.07
59.79
56.81
53.88
50.81
47.61
44.48
41.64
39.07
36.48
33.4
29.52
24.76
19.29
13.26
6.61
-0.87
-9.28
-18.25
-26.86
-33.87
-38.3
-39.86
-39.19
-37.67
-36.82
-37.74
-40.65
-44.72
-48.32
-49.58
-47.19
-41
-32.23
-23.05
-15.86
-12.36
-13.12
-17.57
-24.4
-32.06
-39.02
-43.89
-45.38
-42.47
-34.69
-22.34
-6.55
10.87
27.48
40.33
46.43
43.46
30.82
10.46
-13.3
-35.08
-50.33
-57.11
-56.54
-51.93
-47
-44.22
-44.11
-45.55
-46.9
-46.86
-44.91
-41.14
-35.85
-29.22
-21.33
-12.24
-2.14
8.6
19.58
30.64
41.98
54.1
67.34
81.31
94.69
105.39
111.44
111.96
107.72
100.98
94.44
89.86
87.16
84.3
78.13
65.58
44.92
16.48
-17.05
-50.75
-78.18
-92.62
-89.03
-66.02
-27.06
20.02
65.15
99.22
116.78
117.2
103.88
82.13
57.04
32.19
9.6
-9.67
-24.83
-35.3
-40.97
-42.53
-41.56
-40.03
-39.53
-40.71
-43.09
-45.4
-46.24
-44.79
-41.21
-36.47
-31.91
-28.52
-26.62
-25.74
-25.01
-23.63
-21.26
-18.08
-14.6
-11.41
-8.81
-6.8
-5.1
-3.34
-1.32
0.98
3.34
5.51
7.23
8.44
9.17
9.57
9.78
9.9
9.98
10.01
10
10.04
10.28
10.99
12.4
14.53
17.13
19.62
21.32
21.63
20.27
17.3
13.02
7.73
1.59
-5.42
-13.4
-22.41
-32.37
-43.11
-54.35
-65.7
-76.52
-85.94
-92.98
-96.8
-96.99
-93.78
-87.99
-80.68
-72.84
-65.1
-57.59
-50.07
-42.23
-33.96
-25.46
-17.25
-9.88
-3.74
1.1
4.89
7.97
10.58
12.71
14.26
15.1
15.17
14.51
13.2
11.36
9.26
7.38
6.29
6.54
8.41
11.71
15.96
20.42
24.46
27.62
29.71
30.68
30.61
29.6
27.77
25.3
22.32
19.06
15.7
12.49
9.62
7.15
5.04
3.21
1.66
0.5
-0.09
-0.08
0.33
0.66
0.44
-0.61
-2.38
-4.39
-6.06
-6.96
-6.97
-6.35
-5.56
-5.1
-5.27
-6.19
-7.66
-9.43
-11.11
-12.33
-12.81
-12.38
-11.04
-8.95
-6.42
-3.79
-1.41
0.45
1.73
2.44
2.76
2.87
2.88
2.85
2.71
2.4
1.87
1.18
0.42
-0.26
-0.85
-1.44
-2.15
-3.11
-4.32
-5.62
-6.82
-7.75
-8.33
-8.66
-8.87
-9.09
-9.41
-9.87
-10.49
-11.3
-12.39
-13.83
-15.66
-17.88
-20.38
-22.93
-25.2
-26.81
-27.46
-26.97
-25.37
-22.82
-19.58
-15.93
-12.11
-8.34
-4.84
-1.82
0.53
2.12
3.01
3.36
3.46
3.55
3.8
4.22
4.78
5.4
6.02
6.65
7.27
7.83
8.24
8.48
8.62
8.9
9.57
10.73
12.21
13.54
14.13
13.62
11.98
9.6
7.11
5.06
3.76
3.17
2.99
2.8
2.22
0.95
-1.09
-3.76
-6.71
-9.45
-11.49
-12.47
-12.32
-11.22
-9.51
-7.55
-5.69
-4.13
-2.97
-2.23
-1.82
-1.63
-1.48
-1.24
-0.85
-0.39
0.02
0.25
0.31
0.31
0.45
0.95
1.87
3.17
4.65
6.07
7.21
7.92
8.16
7.89
7.17
6.04
4.62
3.11
1.71
0.56
-0.35
-1.17
-2.17
-3.57
-5.43
-7.65
-10.04
-12.37
-14.55
-16.53
-18.24
-19.54
-20.15
-19.86
-18.52
-16.23
-13.27
-10.02
-6.84
-3.98
-1.61
0.23
1.55
2.41
2.93
3.23
3.43
3.62
3.88
4.29
4.9
5.72
6.7
7.69
8.56
9.25
9.75
10.17
10.56
10.94
11.24
11.35
11.24
10.94
10.51
9.92
9.11
7.99
6.59
5.1
3.79
2.92
2.51
2.33
2.02
1.24
-0.16
-2.09
-4.27
-6.39
-8.2
-9.53
-10.26
-10.3
-9.58
-8.08
-5.92
-3.34
-0.62
1.94
4.16
5.93
7.25
8.13
8.6
8.7
8.46
7.93
7.14
6.1
4.87
3.56
2.35
1.39
0.78
0.44
0.21
-0.08
-0.55
-1.09
-1.56
-1.86
-1.99
-2.11
-2.37
-2.85
-3.48
-4.1
-4.56
-4.82
-4.85
-4.67
-4.27
-3.67
-2.97
-2.42
-2.33
-2.92
-4.15
-5.66
-6.88
-7.16
-6.1
-3.63
-0.14
3.68
7.07
9.36
10.23
9.72
8.2
6.17
4.14
2.49
1.43
1.02
1.21
1.88
2.9
4.06
5.14
5.92
6.18
5.78
4.75
3.25
1.68
0.46
-0.08
0.07
0.61
1.08
1.06
0.43
-0.68
-1.95
-3.16
-4.25
-5.31
-6.49
-7.75
-8.99
-10.07
-11.02
-11.95
-12.98
-14.04
-14.81
-14.91
-14.04
-12.22
-9.69
-6.89
-4.15
-1.64
0.6
2.62
4.38
5.81
6.78
7.19
6.99
6.28
5.27
4.22
3.42
3.04
3.08
3.4
3.74
3.95
3.98
3.98
4.14
4.59
5.35
6.37
7.61
8.98
10.28
11.12
11.02
9.68
7.17
4.05
1.21
-0.6
-1.15
-0.87
-0.65
-1.3
-3.18
-5.95
-8.84
-11.04
-12.01
-11.73
-10.49
-8.7
-6.67
-4.57
-2.4
-0.1
2.3
4.69
6.87
8.6
9.63
9.83
9.14
7.68
5.71
3.53
1.46
-0.25
-1.5
-2.26
-2.62
-2.65
-2.44
-2.04
-1.52
-0.98
-0.59
-0.48
-0.8
-1.61
-2.86
-4.41
-6.03
-7.53
-8.8
-9.88
-10.94
-12.21
-13.82
-15.7
-17.52
-18.82
-19.18
-18.31
-16.32
-13.58
-10.59
-7.8
-5.51
-3.74
-2.36
-1.21
-0.17
0.78
1.59
2.26
2.81
3.35
3.93
4.63
5.41
6.26
7.16
8.07
8.95
9.72
10.33
10.77
11.08
11.25
11.24
10.95
10.29
9.28
8.08
6.94
6.03
5.36
4.75
3.96
2.83
1.39
-0.13
-1.46
-2.35
-2.7
-2.49
-1.75
-0.56
0.98
2.66
4.28
5.62
6.53
6.98
7.04
6.88
6.64
6.4
6.14
5.78
5.22
4.36
3.21
1.83
0.37
-0.96
-2.01
-2.7
-3.06
-3.24
-3.46
-3.88
-4.63
-5.71
-7.03
-8.47
-9.87
-11.14
-12.22
-13.07
-13.71
-14.17
-14.49
-14.68
-14.62
-14.15
-13.07
-11.27
-8.87
-6.09
-3.28
-0.7
1.53
3.4
4.94
6.11
6.79
6.8
6.13
4.9
3.45
2.15
1.31
1.02
1.17
1.53
1.83
1.88
1.59
1.04
0.34
-0.33
-0.91
-1.4
-1.91
-2.62
-3.72
-5.31
-7.38
-9.79
-12.27
-14.51
-16.17
-16.98
-16.74
-15.41
-13.16
-10.31
-7.27
-4.43
-2.04
-0.19
1.14
2.06
2.67
2.96
2.94
2.55
1.84
0.88
-0.15
-1.07
-1.8
-2.33
-2.73
-3.15
-3.64
-4.23
-4.82
-5.31
-5.67
-5.96
-6.35
-7.06
-8.27
-10.06
-12.34
-14.85
-17.23
-18.99
-19.75
-19.22
-17.4
-14.51
-10.98
-7.3
-3.89
-0.96
1.45
3.4
4.97
6.17
6.94
7.25
7.2
6.94
6.67
6.52
6.47
6.4
6.19
5.83
5.39
5.05
4.89
4.9
4.91
4.7
4.08
2.94
1.27
-0.87
-3.41
-6.25
-9.27
-12.26
-14.98
-17.11
-18.36
-18.52
-17.52
-15.43
-12.45
-8.8
-4.74
-0.49
3.69
7.52
10.68
12.87
13.96
14.05
13.44
12.54
11.75
11.27
11.1
11.14
11.22
11.27
11.27
11.27
11.27
11.19
10.87
10.16
8.95
7.21
5.07
2.73
0.43
-1.64
-3.44
-5.08
-6.81
-8.83
-11.32
-14.25
-17.43
-20.53
-23.07
-24.62
-24.87
-23.76
-21.44
-18.29
-14.69
-10.92
-7.1
-3.19
0.81
4.78
8.42
11.39
13.45
14.63
15.22
15.61
16.17
17.08
18.31
19.69
20.99
22.06
22.84
23.38
23.71
23.93
24.05
24.04
23.7
22.7
20.65
17.32
12.82
7.65
2.63
-1.49
-4.28
-5.84
-6.73
-7.65
-9.17
-11.42
-14.19
-16.98
-19.28
-20.7
-20.97
-20.01
-17.8
-14.47
-10.24
-5.41
-0.36
4.54
8.96
12.69
15.63
17.81
19.34
20.34
20.97
21.35
21.58
21.79
22.08
22.5
23.07
23.71
24.31
24.75
24.93
24.85
24.5
23.9
23.05
21.94
20.61
19.15
17.65
16.21
14.82
13.42
11.98
10.51
9.18
8.18
7.61
7.37
7.26
7.07
6.76
6.43
6.23
6.25
6.48
6.86
7.46
8.53
10.38
13.22
16.91
21
24.86
27.96
29.97
30.86
30.72
29.64
27.7
24.99
21.72
18.21
14.8
11.7
8.98
6.54
4.26
2
-0.31
-2.79
-5.54
-8.59
-11.84
-15.01
-17.72
-19.72
-21.03
-21.97
-23.03
-24.64
-26.88
-29.49
-31.99
-33.91
-34.91
-34.79
-33.5
-30.96
-27.2
-22.32
-16.67
-10.73
-5.08
-0.17
3.71
6.54
8.47
9.75
10.59
11.18
11.62
11.96
12.24
12.46
12.63
12.74
12.72
12.55
12.19
11.64
10.97
10.2
9.32
8.23
6.82
5.04
3
0.86
-1.17
-3.04
-4.81
-6.67
-8.74
-11.03
-13.42
-15.67
-17.58
-18.92
-19.46
-18.94
-17.19
-14.2
-10.2
-5.66
-1.12
3.01
6.5
9.35
11.63
13.39
14.64
15.42
15.81
15.97
16.1
16.31
16.63
17.05
17.52
18.04
18.57
19
19.21
19.07
18.6
17.89
17.07
16.15
15.01
13.42
11.27
8.6
5.63
2.66
-0.06
-2.41
-4.41
-6.13
-7.69
-9.24
-10.97
-13.02
-15.37
-17.79
-19.74
-20.61
-19.96
-17.74
-14.27
-10.11
-5.84
-1.85
1.75
4.98
7.94
10.62
12.97
14.89
16.31
17.18
17.5
17.28
16.59
15.52
14.2
12.79
11.45
10.35
9.57
9.19
9.18
9.44
9.73
9.81
9.42
8.47
6.98
5.11
3.07
1.03
-0.89
-2.62
-4.08
-5.19
-5.99
-6.56
-7.13
-7.98
-9.32
-11.22
-13.5
-15.85
-17.82
-19.03
-19.21
-18.26
-16.23
-13.36
-9.93
-6.26
-2.67
0.64
3.47
5.71
7.31
8.27
8.64
8.53
8.1
7.54
7.06
6.87
7.08
7.67
8.47
9.24
9.67
9.64
9.13
8.32
7.39
6.48
5.63
4.77
3.86
2.9
1.98
1.22
0.66
0.25
-0.16
-0.72
-1.51
-2.5
-3.64
-4.84
-6.11
-7.53
-9.18
-11.07
-13.07
-14.9
-16.16
-16.49
-15.64
-13.6
-10.57
-6.92
-3.09
0.57
3.79
6.47
8.57
10.11
11.14
11.77
12.12
12.34
12.56
12.89
13.4
14.1
14.96
15.87
16.66
17.15
17.2
16.83
16.17
15.43
14.83
14.43
14.14
13.72
12.95
11.66
9.85
7.7
5.46
3.39
1.6
0.09
-1.33
-2.89
-4.74
-6.88
-9.17
-11.41
-13.38
-14.89
-15.74
-15.7
-14.54
-12.23
-8.94
-5.14
-1.46
1.58
3.7
4.97
5.69
6.2
6.7
7.14
7.39
7.28
6.8
6.05
5.24
4.54
4
3.62
3.31
3
2.61
2.17
1.72
1.28
0.85
0.39
-0.21
-1.02
-2.02
-3.12
-4.14
-4.95
-5.54
-6.09
-6.87
-8.12
-9.87
-11.86
-13.64
-14.69
-14.66
-13.47
-11.31
-8.54
-5.56
-2.69
-0.09
2.18
4.14
5.83
7.28
8.49
9.43
10
10.1
9.56
8.35
6.49
4.22
1.93
0.04
-1.17
-1.62
-1.52
-1.23
-1.11
-1.39
-2.11
-3.17
-4.41
-5.7
-6.93
-8.04
-9.02
-9.97
-11.03
-12.39
-14.17
-16.29
-18.49
-20.31
-21.3
-21.15
-19.76
-17.3
-14.12
-10.66
-7.35
-4.5
-2.28
-0.69
0.43
1.3
2.08
2.79
3.37
3.69
3.71
3.48
3.13
2.78
2.52
2.32
2.14
1.92
1.68
1.46
1.27
1.05
0.66
-0.05
-1.13
-2.49
-3.93
-5.3
-6.52
-7.72
-9.1
-10.81
-12.88
-15.08
-17.1
-18.57
-19.26
-19.06
-17.99
-16.16
-13.69
-10.7
-7.32
-3.73
-0.16
3.14
5.95
8.06
9.4
9.96
9.86
9.35
8.69
8.15
7.93
8.06
8.42
8.82
9.06
9.04
8.8
8.44
8.07
7.71
7.28
6.61
5.57
4.14
2.41
0.59
-1.12
-2.54
-3.61
-4.4
-5.08
-5.82
-6.83
-8.17
-9.79
-11.52
-13.03
-13.99
-14.11
-13.29
-11.61
-9.32
-6.67
-3.9
-1.16
1.41
3.66
5.39
6.48
6.9
6.78
6.35
5.86
5.52
5.45
5.7
6.2
6.87
7.55
8.09
8.41
8.53
8.57
8.69
8.93
9.19
9.29
9.05
8.46
7.67
6.95
6.52
6.4
6.36
6.06
5.17
3.6
1.53
-0.72
-2.84
-4.72
-6.52
-8.47
-10.75
-13.22
-15.49
-17.02
-17.39
-16.43
-14.33
-11.5
-8.45
-5.63
-3.32
-1.64
-0.55
0.04
0.25
0.19
-0.02
-0.28
-0.41
-0.31
0.11
0.82
1.67
2.52
3.22
3.79
4.3
4.86
5.47
6.03
6.3
6.09
5.34
4.15
2.77
1.43
0.31
-0.61
-1.48
-2.47
-3.76
-5.38
-7.23
-9.12
-10.76
-11.82
-12.03
-11.23
-9.43
-6.84
-3.8
-0.68
2.23
4.72
6.68
8.04
8.76
8.85
8.39
7.58
6.67
5.9
5.39
5.1
4.91
4.65
4.25
3.72
3.14
2.55
1.97
1.37
0.77
0.2
-0.26
-0.62
-0.96
-1.46
-2.33
-3.73
-5.64
-7.9
-10.13
-11.89
-12.78
-12.5
-10.97
-8.33
-4.93
-1.22
2.37
5.56
8.2
10.29
11.86
12.92
13.51
13.68
13.53
13.21
12.87
12.58
12.39
12.29
12.25
12.22
12.12
11.89
11.47
10.82
9.95
8.9
7.69
6.28
4.59
2.53
0.05
-2.87
-6.19
-9.79
-13.37
-16.57
-18.85
-19.77
-19.12
-17
-13.86
-10.31
-6.91
-4
-1.69
0.09
1.46
2.46
3.1
3.36
3.26
2.9
2.38
1.86
1.46
1.32
1.48
1.89
2.4
2.79
2.93
2.82
2.63
2.56
2.66
2.77
2.56
1.75
0.25
-1.76
-3.97
-6.15
-8.27
-10.46
-12.8
-15.08
-16.79
-17.33
-16.34
-13.91
-10.59
-7.12
-4.08
-1.71
0.13
1.74
3.28
4.74
5.89
6.48
6.41
5.78
4.85
3.92
3.27
3.07
3.33
3.98
4.86
5.74
6.41
6.67
6.43
5.69
4.55
3.14
1.57
-0.1
-1.91
-3.9
-6.15
-8.72
-11.62
-14.86
-18.28
-21.61
-24.38
-26.04
-26.13
-24.43
-21.08
-16.55
-11.51
-6.62
-2.37
1.03
3.56
5.37
6.61
7.48
8.12
8.63
9.03
9.28
9.32
9.09
8.63
8.01
7.4
6.92
6.67
6.62
6.69
6.74
6.63
6.26
5.6
4.7
3.62
2.42
1.1
-0.36
-2.03
-3.94
-6.1
-8.48
-11
-13.52
-15.8
-17.54
-18.36
-17.99
-16.32
-13.56
-10.1
-6.44
-3.01
-0.09
2.25
4.01
5.28
6.13
6.65
6.89
6.95
6.89
6.75
6.51
6.16
5.69
5.1
4.44
3.76
3.11
2.52
2.01
1.58
1.12
0.53
-0.32
-1.44
-2.8
-4.24
-5.58
-6.71
-7.67
-8.64
-9.87
-11.6
-13.88
-16.54
-19.14
-21.02
-21.59
-20.45
-17.62
-13.53
-8.9
-4.48
-0.75
2.1
4.2
5.71
6.73
7.26
7.25
6.73
5.92
5.1
4.53
4.34
4.46
4.79
5.16
5.46
5.61
5.56
5.27
4.76
4.08
3.29
2.43
1.46
0.32
-1.05
-2.62
-4.3
-6.03
-7.77
-9.6
-11.61
-13.83
-16.11
-18.1
-19.32
-19.34
-17.93
-15.17
-11.44
-7.32
-3.37
0.03
2.68
4.59
5.85
6.58
6.84
6.66
6.11
5.36
4.58
4.01
3.77
3.84
4.1
4.36
4.44
4.26
3.84
3.24
2.52
1.7
0.76
-0.3
-1.45
-2.61
-3.68
-4.64
-5.55
-6.56
-7.82
-9.41
-11.34
-13.47
-15.54
-17.23
-18.14
-17.98
-16.54
-13.83
-10.05
-5.61
-1.03
3.17
6.57
8.97
10.31
10.75
10.5
9.86
9.12
8.49
8.08
7.88
7.78
7.63
7.33
6.89
6.4
6.02
5.82
5.81
5.85
5.78
5.46
4.85
4.03
3.07
2.04
0.91
-0.42
-2.05
-4.04
-6.36
-8.88
-11.38
-13.56
-15.05
-15.48
-14.53
-12.12
-8.48
-4.17
0.1
3.66
6.13
7.54
8.2
8.5
8.71
8.88
8.88
8.52
7.72
6.55
5.21
3.95
2.94
2.25
1.82
1.53
1.28
1.01
0.69
0.24
-0.39
-1.29
-2.47
-3.88
-5.37
-6.83
-8.2
-9.54
-11
-12.71
-14.62
-16.51
-17.97
-18.49
-17.63
-15.15
-11.11
-5.88
-0.07
5.65
10.73
14.85
18
20.34
22.13
23.51
24.5
25.03
25.01
24.54
23.79
22.98
22.27
21.69
21.14
20.48
19.63
18.62
17.5
16.27
14.85
13.13
11.04
8.64
6.03
3.33
0.49
-2.59
-6.06
-9.92
-13.98
-17.86
-21.02
-22.97
-23.3
-21.84
-18.65
-14.01
-8.47
-2.64
2.85
7.6
11.4
14.24
16.23
17.49
18.11
18.19
17.9
17.47
17.2
17.23
17.52
17.78
17.68
16.96
15.64
14.04
12.61
11.78
11.69
12.18
12.82
13.02
12.17
9.78
5.72
0.26
-5.84
-11.45
-15.4
-16.81
-15.39
-11.52
-6.07
-0.07
5.61
10.45
14.19
16.77
18.19
18.48
17.79
16.41
14.78
13.37
12.57
12.52
13.11
14.02
14.88
15.42
15.59
15.5
15.37
15.35
15.51
15.77
16.02
16.14
16.06
15.77
15.22
14.32
13.03
11.42
9.7
8.17
7.02
6.11
4.98
2.99
-0.32
-4.99
-10.61
-16.52
-22.1
-27.01
-31.2
-34.83
-38.08
-41.01
-43.57
-45.66
-47.24
-48.36
-49.16
-49.78
-50.33
-50.76
-50.81
-50.15
-48.51
-45.95
-42.94
-40.28
-38.78
-38.77
-39.91
-41.23
-41.45
-39.54
-35.12
-28.59
-20.89
-13.13
-6.15
-0.29
4.52
8.55
12
14.84
16.9
18.05
18.3
17.91
17.24
16.61
16.2
15.97
15.75
15.33
14.55
13.34
11.74
9.93
8.04
6.24
4.54
2.8
0.75
-1.89
-5.23
-9.22
-13.62
-17.99
-21.87
-24.74
-26.14
-25.72
-23.38
-19.28
-13.87
-7.78
-1.71
3.77
8.23
11.46
13.41
14.19
14.03
13.25
12.2
11.19
10.51
10.36
10.88
12.18
14.23
16.81
19.57
22.11
24.2
25.82
27.09
28.11
28.8
28.91
28.26
26.96
25.52
24.64
24.82
26.06
27.73
28.86
28.5
26.19
22.04
16.62
10.67
4.87
-0.42
-5.08
-9.21
-13.07
-16.92
-20.97
-25.27
-29.67
-33.82
-37.28
-39.69
-40.86
-40.87
-39.98
-38.52
-36.81
-35.09
-33.56
-32.42
-31.95
-32.42
-33.97
-36.5
-39.55
-42.38
-44.11
-43.95
-41.44
-36.61
-29.94
-22.22
-14.3
-6.86
-0.32
5.15
9.53
12.8
14.94
15.98
16.09
15.56
14.75
13.97
13.42
13.14
13.16
13.45
14.01
14.83
15.76
16.58
16.97
16.68
15.59
13.73
11.28
8.47
5.67
3.25
1.61
1.06
1.77
3.75
6.84
10.86
15.58
20.79
26.24
31.56
36.17
39.43
40.72
39.77
36.75
32.27
27.25
22.58
18.94
16.62
15.53
15.31
15.51
15.75
15.73
15.25
14.08
11.96
8.64
3.94
-2.13
-9.37
-17.33
-25.41
-32.86
-38.97
-43.09
-44.8
-43.94
-40.67
-35.45
-28.99
-22.09
-15.52
-9.9
-5.62
-2.81
-1.31
-0.76
-0.68
-0.63
-0.35
0.28
1.14
2.04
2.78
3.22
3.32
3.14
2.85
2.64
2.62
2.79
2.91
2.67
1.81
0.32
-1.56
-3.39
-4.7
-5.09
-4.26
-2.03
1.77
7.17
13.94
21.54
29.21
36.22
42.1
46.72
50.07
52.01
52.18
50.14
45.76
39.52
32.46
25.83
20.56
16.89
14.35
12.16
9.62
6.43
2.66
-1.38
-5.43
-9.36
-13.14
-16.86
-20.58
-24.4
-28.38
-32.51
-36.68
-40.61
-43.88
-45.97
-46.41
-44.86
-41.25
-35.85
-29.17
-21.93
-14.85
-8.5
-3.21
0.93
4.06
6.39
8.16
9.54
10.7
11.84
13.14
14.78
16.82
19.1
21.27
22.92
23.72
23.6
22.77
21.65
20.61
19.86
19.31
18.71
17.72
16.12
13.82
10.78
7.02
2.61
-2.22
-6.99
-10.97
-13.38
-13.62
-11.57
-7.61
-2.49
2.97
8.13
12.63
16.37
19.4
21.75
23.4
24.34
24.56
24.11
23.13
21.79
20.3
18.85
17.53
16.37
15.24
13.94
12.18
9.69
6.35
2.26
-2.22
-6.56
-10.24
-12.98
-14.81
-16.1
-17.28
-18.74
-20.64
-23.02
-25.85
-29.06
-32.53
-35.88
-38.44
-39.38
-38.01
-34.11
-28.12
-21.01
-13.95
-7.88
-3.26
-0.04
2.15
3.75
5.13
6.47
7.8
9.09
10.21
11.03
11.41
11.29
10.76
10
9.29
8.85
8.74
8.87
8.99
8.84
8.24
7.13
5.59
3.84
2.11
0.58
-0.69
-1.83
-3.09
-4.77
-7.09
-10.07
-13.42
-16.66
-19.17
-20.41
-20.1
-18.24
-15.09
-11.06
-6.57
-1.99
2.35
6.19
9.26
11.37
12.38
12.36
11.5
10.14
8.65
7.35
6.45
6.03
6.01
6.18
6.27
6.06
5.51
4.75
4.02
3.55
3.38
3.35
3.11
2.35
0.87
-1.32
-4
-6.85
-9.63
-12.18
-14.52
-16.7
-18.83
-20.95
-23
-24.83
-26.2
-26.81
-26.38
-24.71
-21.78
-17.82
-13.19
-8.32
-3.61
0.73
4.61
8.03
10.96
13.29
14.87
15.64
15.68
15.28
14.77
14.41
14.25
14.14
13.88
13.36
12.64
11.91
11.36
11.05
10.91
10.77
10.51
10.08
9.49
8.78
7.95
6.95
5.74
4.38
2.99
1.66
0.42
-0.9
-2.6
-5
-8.25
-12.21
-16.39
-20.09
-22.54
-23.24
-22.06
-19.28
-15.5
-11.38
-7.49
-4.16
-1.54
0.33
1.49
2.03
2.05
1.72
1.26
0.84
0.62
0.69
1.04
1.66
2.5
3.48
4.51
5.58
6.75
8.21
10.08
12.36
14.77
16.87
18.23
18.62
18.17
17.26
16.35
15.71
15.32
14.87
13.95
12.24
9.61
6.11
1.95
-2.58
-7.2
-11.52
-15.16
-17.71
-18.91
-18.62
-16.96
-14.22
-10.84
-7.23
-3.78
-0.72
1.75
3.54
4.58
4.91
4.6
3.84
2.87
1.91
1.17
0.73
0.64
0.88
1.38
2.06
2.78
3.44
3.91
4.11
4.03
3.7
3.2
2.61
2.03
1.52
1.12
0.76
0.29
-0.48
-1.71
-3.41
-5.36
-7.16
-8.33
-8.48
-7.43
-5.22
-2.16
1.38
4.99
8.28
11
13.03
14.39
15.16
15.42
15.19
14.44
13.14
11.37
9.35
7.36
5.66
4.39
3.54
3.02
2.71
2.49
2.26
1.85
1.1
-0.09
-1.7
-3.57
-5.47
-7.2
-8.68
-10.01
-11.34
-12.84
-14.59
-16.49
-18.28
-19.57
-19.98
-19.24
-17.32
-14.42
-10.92
-7.28
-3.81
-0.67
2.08
4.38
6.11
7.03
7
6.02
4.38
2.53
0.96
-0.03
-0.42
-0.37
-0.13
0.1
0.21
0.22
0.14
-0.01
-0.22
-0.49
-0.78
-1.12
-1.6
-2.36
-3.55
-5.24
-7.33
-9.6
-11.76
-13.58
-14.85
-15.41
-15.08
-13.77
-11.46
-8.33
-4.73
-1.14
2
4.39
5.91
6.62
6.66
6.18
5.33
4.21
2.9
1.48
0.06
-1.29
-2.47
-3.43
-4.16
-4.64
-4.9
-5.01
-5.02
-5.04
-5.16
-5.48
-6.06
-6.84
-7.74
-8.63
-9.47
-10.33
-11.41
-12.95
-15.03
-17.53
-20.01
-21.87
-22.49
-21.5
-18.93
-15.14
-10.72
-6.24
-2.14
1.36
4.23
6.51
8.25
9.44
10.05
10.07
9.53
8.62
7.52
6.45
5.55
4.86
4.37
4.01
3.77
3.63
3.54
3.36
2.91
1.98
0.52
-1.35
-3.36
-5.17
-6.63
-7.77
-8.86
-10.27
-12.25
-14.78
-17.57
-20.14
-21.93
-22.48
-21.56
-19.17
-15.6
-11.3
-6.87
-2.81
0.48
2.82
4.2
4.78
4.74
4.3
3.64
2.96
2.39
2.03
1.9
1.93
2.01
2.02
1.92
1.76
1.6
1.53
1.57
1.69
1.74
1.59
1.12
0.31
-0.79
-2.13
-3.64
-5.28
-7.07
-8.98
-11.02
-13.12
-15.13
-16.79
-17.76
-17.69
-16.32
-13.66
-9.95
-5.67
-1.35
2.57
5.78
8.17
9.78
10.68
11
10.86
10.41
9.77
9.04
8.29
7.54
6.8
6.08
5.39
4.77
4.33
4.17
4.34
4.77
5.24
5.46
5.2
4.37
3.1
1.61
0.1
-1.34
-2.82
-4.52
-6.59
-9.04
-11.72
-14.27
-16.31
-17.45
-17.44
-16.18
-13.78
-10.55
-6.93
-3.36
-0.17
2.43
4.39
5.71
6.4
6.48
5.95
4.9
3.49
2.03
0.85
0.21
0.22
0.76
1.56
2.27
2.71
2.88
2.95
3.15
3.56
4.11
4.55
4.65
4.2
3.11
1.34
-1.09
-4.02
-7.13
-9.91
-11.78
-12.3
-11.29
-8.98
-5.77
-2.13
1.55
5
8.04
10.52
12.25
13.17
13.27
12.71
11.73
10.55
9.38
8.31
7.35
6.39
5.31
4.02
2.56
1.11
-0.12
-0.97
-1.48
-1.84
-2.36
-3.22
-4.49
-6.12
-8
-10.11
-12.38
-14.65
-16.52
-17.44
-16.87
-14.55
-10.64
-5.67
-0.38
4.59
8.85
12.23
14.71
16.27
16.87
16.49
15.26
13.46
11.51
9.75
8.38
7.42
6.69
6
5.21
4.33
3.49
2.83
2.36
1.93
1.29
0.16
-1.64
-4.09
-7.04
-10.2
-13.21
-15.73
-17.39
-17.85
-16.91
-14.53
-10.94
-6.57
-1.97
2.37
6.08
9
11.08
12.38
12.95
12.86
12.2
11.12
9.83
8.52
7.35
6.35
5.5
4.72
3.91
3.04
2.06
0.98
-0.24
-1.63
-3.21
-5.06
-7.2
-9.71
-12.61
-15.93
-19.54
-23.16
-26.3
-28.37
-28.9
-27.59
-24.56
-20.16
-15
-9.66
-4.72
-0.57
2.55
4.55
5.57
5.85
5.7
5.41
5.1
4.82
4.57
4.38
4.35
4.59
5.12
5.88
6.73
7.53
8.16
8.56
8.73
8.64
8.34
7.87
7.26
6.53
5.54
4.13
2.08
-0.66
-4.01
-7.66
-11.2
-14.14
-16.04
-16.54
-15.38
-12.57
-8.32
-3.08
2.53
7.92
12.65
16.55
19.61
21.94
23.61
24.63
24.98
24.72
24.04
23.24
22.58
22.19
21.99
21.72
21.15
20.17
18.84
17.39
16.04
14.92
13.98
13.04
11.86
10.28
8.25
5.87
3.36
0.95
-1.2
-3.07
-4.75
-6.45
-8.4
-10.8
-13.73
-17.12
-20.67
-23.87
-26.08
-26.74
-25.5
-22.4
-17.88
-12.59
-7.23
-2.31
1.91
5.42
8.35
10.83
12.94
14.69
16.02
16.89
17.29
17.26
16.94
16.45
15.94
15.49
15.13
14.78
14.32
13.57
12.39
10.67
8.41
5.69
2.64
-0.62
-3.95
-7.22
-10.29
-13.07
-15.51
-17.71
-19.83
-22.12
-24.71
-27.46
-29.96
-31.55
-31.56
-29.5
-25.23
-19.01
-11.4
-3.14
5.06
12.6
19.1
24.34
28.25
30.82
32.08
32.11
31.05
29.14
26.69
24.06
21.56
19.39
17.65
16.31
15.27
14.36
13.4
12.22
10.67
8.65
6.12
3.11
-0.29
-3.97
-7.78
-11.6
-15.36
-19.12
-22.97
-27.02
-31.23
-35.3
-38.65
-40.57
-40.46
-38.01
-33.39
-27.19
-20.17
-13.01
-6.23
-0.05
5.4
10.03
13.7
16.22
17.46
17.46
16.45
14.77
12.85
11.01
9.43
8.1
6.87
5.61
4.25
2.9
1.83
1.39
1.84
3.25
5.44
8.07
10.78
13.31
15.58
17.61
19.44
21.09
22.53
23.77
24.93
26.27
28.07
30.57
33.76
37.47
41.4
45.3
49.03
52.61
56.06
59.31
62.09
63.95
64.39
63.06
59.89
55.21
49.49
43.2
36.57
29.57
22.1
14.12
5.88
-2.22
-9.74
-16.52
-22.68
-28.5
-34.21
-39.79
-44.96
-49.35
-52.66
-54.78
-55.71
-55.47
-53.99
-51.13
-46.76
-40.95
-34.02
-26.58
-19.35
-12.97
-7.75
-3.64
-0.32
2.54
5.11
7.22
8.55
8.84
8.11
6.72
5.22
4.1
3.57
3.52
3.69
3.8
3.72
3.46
3.04
2.47
1.65
0.43
-1.28
-3.45
-5.93
-8.58
-11.31
-14.15
-17.18
-20.44
-23.76
-26.78
-28.96
-29.81
-29.04
-26.66
-23.01
-18.57
-13.93
-9.59
-5.89
-2.99
-0.82
0.77
1.97
2.89
3.53
3.84
3.83
3.55
3.22
3.04
3.1
3.39
3.71
3.89
3.77
3.38
2.8
2.11
1.3
0.3
-0.95
-2.39
-3.9
-5.3
-6.5
-7.53
-8.57
-9.83
-11.49
-13.55
-15.86
-18.09
-19.84
-20.68
-20.29
-18.51
-15.38
-11.25
-6.61
-2.06
1.9
4.97
7.13
8.55
9.49
10.16
10.61
10.79
10.61
10.08
9.31
8.51
7.81
7.25
6.75
6.22
5.65
5.11
4.71
4.52
4.44
4.28
3.84
2.95
1.63
0.02
-1.66
-3.28
-4.76
-6.19
-7.66
-9.31
-11.19
-13.3
-15.53
-17.69
-19.51
-20.69
-20.93
-20
-17.86
-14.7
-10.92
-6.99
-3.35
-0.21
2.38
4.47
6.11
7.25
7.81
7.77
7.24
6.48
5.78
5.3
5.08
5
4.91
4.68
4.31
3.83
3.31
2.77
2.19
1.53
0.79
-0.02
-0.91
-1.9
-2.99
-4.18
-5.42
-6.7
-8.03
-9.52
-11.26
-13.31
-15.59
-17.86
-19.73
-20.82
-20.81
-19.6
-17.3
-14.15
-10.47
-6.6
-2.76
0.85
4.12
6.89
9.03
10.39
10.89
10.53
9.49
8.06
6.63
5.51
4.87
4.68
4.73
4.71
4.41
3.74
2.82
1.85
1.03
0.44
0.09
-0.13
-0.36
-0.7
-1.25
-2.02
-3.03
-4.24
-5.61
-7.14
-8.83
-10.74
-12.89
-15.22
-17.55
-19.53
-20.72
-20.73
-19.35
-16.64
-12.97
-8.86
-4.85
-1.3
1.61
3.95
5.81
7.25
8.25
8.74
8.71
8.27
7.66
7.11
6.78
6.7
6.74
6.75
6.61
6.35
6.05
5.83
5.79
5.94
6.22
6.51
6.68
6.56
6.03
5.01
3.51
1.65
-0.36
-2.23
-3.73
-4.79
-5.53
-6.25
-7.29
-8.91
-11.15
-13.82
-16.51
-18.75
-20.07
-20.17
-18.92
-16.44
-13
-9.05
-5.07
-1.47
1.49
3.76
5.41
6.58
7.4
7.87
8
7.77
7.28
6.69
6.23
6.05
6.2
6.62
7.17
7.74
8.29
8.86
9.45
10.03
10.53
10.81
10.81
10.48
9.84
8.88
7.61
6.04
4.27
2.42
0.68
-0.82
-2
-2.88
-3.59
-4.26
-5.07
-6.22
-7.79
-9.74
-11.79
-13.45
-14.16
-13.47
-11.27
-7.82
-3.65
0.58
4.36
7.41
9.67
11.23
12.2
12.68
12.69
12.31
11.6
10.69
9.71
8.74
7.84
7.06
6.42
5.95
5.68
5.58
5.51
5.3
4.75
3.78
2.48
1.05
-0.25
-1.26
-1.98
-2.58
-3.3
-4.38
-5.88
-7.76
-9.85
-11.89
-13.63
-14.78
-15.07
-14.23
-12.2
-9.13
-5.47
-1.77
1.48
4.01
5.82
7.06
7.9
8.39
8.47
8.1
7.31
6.26
5.14
4.14
3.32
2.66
2.09
1.6
1.16
0.77
0.36
-0.14
-0.79
-1.58
-2.47
-3.38
-4.31
-5.33
-6.53
-8.03
-9.87
-11.98
-14.15
-16.11
-17.52
-18.04
-17.45
-15.68
-12.86
-9.32
-5.43
-1.59
1.89
4.79
6.99
8.37
8.93
8.76
8.02
6.98
5.87
4.87
4.04
3.39
2.87
2.51
2.32
2.3
2.37
2.37
2.12
1.52
0.56
-0.64
-1.97
-3.3
-4.66
-6.12
-7.84
-9.91
-12.4
-15.2
-18.05
-20.51
-22.09
-22.31
-20.92
-18
-13.94
-9.36
-4.88
-0.93
2.29
4.81
6.7
8.04
8.83
9.11
8.97
8.55
8.06
7.59
7.14
6.67
6.14
5.59
5.12
4.82
4.64
4.48
4.14
3.5
2.56
1.41
0.17
-1.1
-2.39
-3.81
-5.45
-7.41
-9.75
-12.44
-15.35
-18.18
-20.5
-21.83
-21.79
-20.21
-17.31
-13.48
-9.26
-5.08
-1.23
2.15
5
7.21
8.74
9.6
9.88
9.76
9.37
8.8
8.03
7.08
6
4.96
4.11
3.55
3.25
3.09
2.97
2.8
2.55
2.16
1.58
0.73
-0.37
-1.65
-3.01
-4.38
-5.85
-7.56
-9.66
-12.15
-14.82
-17.27
-19.05
-19.7
-19
-16.89
-13.57
-9.43
-4.96
-0.67
3.03
5.93
8.03
9.47
10.44
11.09
11.46
11.51
11.22
10.59
9.74
8.79
7.92
7.25
6.83
6.64
6.58
6.52
6.36
6.04
5.51
4.72
3.69
2.39
0.87
-0.81
-2.53
-4.22
-5.84
-7.46
-9.22
-11.31
-13.79
-16.5
-19.03
-20.8
-21.25
-20.06
-17.28
-13.32
-8.82
-4.35
-0.33
3.1
5.95
8.27
10.06
11.3
11.91
11.88
11.27
10.19
8.79
7.26
5.83
4.74
4.18
4.19
4.7
5.43
6.1
6.46
6.36
5.78
4.79
3.48
2
0.48
-1.01
-2.44
-3.88
-5.49
-7.39
-9.66
-12.2
-14.73
-16.83
-18.06
-18.01
-16.45
-13.42
-9.2
-4.31
0.63
5.07
8.64
11.27
13.06
14.2
14.83
15.03
14.76
14
12.79
11.29
9.71
8.32
7.35
6.87
6.85
7.11
7.39
7.46
7.15
6.43
5.39
4.16
2.86
1.53
0.17
-1.23
-2.7
-4.28
-6.07
-8.15
-10.55
-13.15
-15.6
-17.35
-17.79
-16.47
-13.29
-8.57
-3
2.62
7.57
11.45
14.17
15.89
16.84
17.25
17.27
16.95
16.34
15.47
14.45
13.43
12.58
12.01
11.74
11.68
11.66
11.54
11.23
10.71
10.09
9.41
8.68
7.82
6.69
5.19
3.39
1.41
-0.6
-2.56
-4.58
-6.82
-9.4
-12.21
-14.85
-16.7
-17.15
-15.88
-12.93
-8.78
-4.11
0.4
4.27
7.28
9.4
10.73
11.34
11.31
10.71
9.66
8.35
7.01
5.85
4.92
4.19
3.54
2.86
2.08
1.22
0.33
-0.58
-1.55
-2.63
-3.85
-5.2
-6.62
-8.12
-9.74
-11.6
-13.83
-16.44
-19.29
-22.06
-24.26
-25.35
-24.91
-22.76
-19.06
-14.26
-8.99
-3.88
0.63
4.32
7.18
9.25
10.62
11.33
11.43
11.05
10.33
9.48
8.67
8.01
7.54
7.2
6.89
6.51
5.95
5.21
4.32
3.41
2.53
1.71
0.82
-0.3
-1.86
-3.88
-6.26
-8.73
-10.9
-12.37
-12.76
-11.83
-9.54
-6.04
-1.71
3.01
7.68
11.95
15.61
18.51
20.57
21.71
21.91
21.16
19.62
17.6
15.51
13.71
12.46
11.85
11.71
11.79
11.78
11.49
10.84
9.88
8.72
7.44
6.09
4.66
3.16
1.62
0.02
-1.71
-3.75
-6.23
-9.12
-12.08
-14.53
-15.71
-15.04
-12.32
-7.84
-2.28
3.57
9
13.56
17.04
19.34
20.42
20.32
19.2
17.42
15.44
13.69
12.43
11.65
11.15
10.71
10.14
9.37
8.4
7.3
6.09
4.84
3.57
2.34
1.12
-0.2
-1.82
-3.92
-6.56
-9.63
-12.77
-15.46
-17.2
-17.57
-16.39
-13.72
-9.89
-5.39
-0.76
3.56
7.3
10.35
12.7
14.39
15.37
15.59
15.01
13.76
12.1
10.45
9.15
8.4
8.1
7.95
7.57
6.73
5.38
3.7
2
0.55
-0.58
-1.52
-2.55
-3.98
-6.05
-8.76
-11.86
-14.88
-17.18
-18.2
-17.5
-15.03
-11.02
-6.06
-0.82
4.06
8.15
11.25
13.4
14.72
15.34
15.36
14.8
13.74
12.27
10.55
8.76
7.06
5.54
4.2
3.01
1.86
0.74
-0.38
-1.47
-2.53
-3.61
-4.81
-6.24
-7.98
-10.1
-12.56
-15.23
-17.93
-20.42
-22.46
-23.78
-24.13
-23.27
-21.13
-17.8
-13.57
-8.9
-4.27
-0.1
3.38
6.11
8.1
9.38
9.92
9.68
8.7
7.17
5.44
3.9
2.83
2.32
2.23
2.3
2.26
1.97
1.38
0.56
-0.36
-1.32
-2.31
-3.37
-4.66
-6.32
-8.43
-10.94
-13.62
-16.03
-17.62
-17.88
-16.5
-13.48
-9.21
-4.29
0.61
4.89
8.21
10.44
11.64
11.9
11.35
10.14
8.52
6.85
5.48
4.63
4.25
4.06
3.7
2.94
1.86
0.74
-0.05
-0.32
-0.18
0.04
-0.1
-0.94
-2.61
-5.04
-7.97
-11.03
-13.75
-15.64
-16.29
-15.43
-13.11
-9.61
-5.41
-1.08
2.93
6.3
8.93
10.82
12.06
12.76
12.95
12.66
11.9
10.72
9.25
7.66
6.14
4.81
3.72
2.79
1.95
1.14
0.35
-0.38
-1.05
-1.71
-2.55
-3.75
-5.48
-7.78
-10.52
-13.39
-16.04
-18.06
-19.12
-18.98
-17.54
-14.83
-11.05
-6.54
-1.78
2.72
6.51
9.27
10.9
11.47
11.23
10.47
9.5
8.57
7.82
7.32
7
6.75
6.43
5.87
4.98
3.79
2.45
1.19
0.22
-0.38
-0.7
-0.99
-1.56
-2.66
-4.4
-6.78
-9.67
-12.85
-16.02
-18.73
-20.45
-20.67
-19.1
-15.85
-11.37
-6.38
-1.55
2.69
6.23
9.19
11.65
13.59
14.88
15.39
15.15
14.37
13.34
12.3
11.35
10.47
9.66
8.95
8.49
8.37
8.54
8.78
8.75
8.16
6.88
5.03
2.83
0.59
-1.49
-3.27
-4.74
-6.01
-7.24
-8.66
-10.45
-12.74
-15.42
-18.13
-20.29
-21.23
-20.49
-17.94
-13.9
-8.97
-3.89
0.77
4.66
7.72
10.01
11.63
12.65
13.05
12.92
12.33
11.47
10.51
9.57
8.69
7.87
7.09
6.4
5.93
5.76
5.91
6.28
6.62
6.64
6.11
5
3.4
1.54
-0.36
-2.11
-3.65
-4.99
-6.15
-7.23
-8.33
-9.63
-11.29
-13.41
-15.85
-18.23
-20.02
-20.65
-19.76
-17.35
-13.79
-9.66
-5.54
-1.82
1.34
4.01
6.33
8.36
10.06
11.28
11.88
11.85
11.3
10.46
9.61
8.95
8.57
8.46
8.54
8.69
8.83
8.91
8.91
8.82
8.59
8.12
7.26
5.94
4.13
1.98
-0.25
-2.25
-3.81
-4.95
-5.85
-6.83
-8.19
-10.09
-12.54
-15.38
-18.33
-21
-22.93
-23.61
-22.69
-20.07
-16.02
-11.13
-6.07
-1.47
2.34
5.28
7.47
9.02
10.01
10.45
10.36
9.82
9
8.08
7.23
6.57
6.12
5.88
5.78
5.75
5.75
5.79
5.9
6.1
6.36
6.55
6.49
6.01
5.05
3.71
2.19
0.73
-0.58
-1.75
-2.94
-4.32
-5.96
-7.77
-9.6
-11.36
-13.05
-14.79
-16.67
-18.55
-20.02
-20.48
-19.39
-16.53
-12.22
-7.12
-2.07
2.27
5.58
7.88
9.36
10.29
10.81
11.01
11
10.86
10.7
10.55
10.39
10.14
9.71
9.11
8.43
7.83
7.45
7.31
7.36
7.45
7.41
7.13
6.54
5.64
4.47
3.07
1.48
-0.22
-1.98
-3.74
-5.41
-6.96
-8.35
-9.56
-10.65
-11.66
-12.74
-14.04
-15.73
-17.81
-20.1
-22.13
-23.28
-22.98
-20.92
-17.26
-12.49
-7.37
-2.54
1.58
4.92
7.51
9.39
10.52
10.82
10.31
9.21
7.9
6.75
5.92
5.39
4.98
4.56
4.15
3.9
3.94
4.3
4.85
5.36
5.63
5.61
5.35
4.95
4.42
3.72
2.72
1.38
-0.24
-2.01
-3.72
-5.23
-6.47
-7.46
-8.34
-9.24
-10.3
-11.63
-13.27
-15.16
-17.15
-18.96
-20.27
-20.69
-19.95
-17.91
-14.65
-10.47
-5.82
-1.21
2.94
6.32
8.82
10.48
11.43
11.83
11.77
11.37
10.7
9.91
9.16
8.61
8.34
8.33
8.45
8.51
8.31
7.8
7.01
6.1
5.25
4.61
4.24
4.07
3.9
3.48
2.56
1.04
-1.02
-3.36
-5.63
-7.53
-8.93
-9.86
-10.55
-11.25
-12.21
-13.56
-15.38
-17.59
-19.95
-22.04
-23.31
-23.28
-21.64
-18.47
-14.19
-9.41
-4.79
-0.78
2.38
4.72
6.37
7.51
8.32
8.94
9.43
9.75
9.79
9.47
8.78
7.83
6.87
6.16
5.88
6.05
6.57
7.24
7.88
8.36
8.63
8.67
8.44
7.9
6.99
5.67
3.99
2.03
-0.03
-1.98
-3.68
-5.07
-6.24
-7.38
-8.7
-10.39
-12.52
-14.99
-17.56
-19.9
-21.65
-22.44
-22.02
-20.25
-17.23
-13.28
-8.84
-4.4
-0.38
2.96
5.55
7.43
8.7
9.44
9.71
9.57
9.16
8.61
8.07
7.62
7.24
6.91
6.6
6.31
6.07
5.9
5.82
5.81
5.8
5.75
5.58
5.2
4.49
3.36
1.77
-0.19
-2.32
-4.38
-6.19
-7.66
-8.81
-9.79
-10.79
-12.02
-13.61
-15.56
-17.7
-19.67
-21.05
-21.42
-20.53
-18.31
-14.96
-10.82
-6.33
-1.95
1.96
5.17
7.6
9.27
10.22
10.52
10.23
9.43
8.29
7.05
5.96
5.24
4.99
5.2
5.77
6.55
7.33
7.93
8.16
7.96
7.32
6.37
5.25
4.06
2.83
1.57
0.25
-1.08
-2.36
-3.56
-4.74
-6.1
-7.89
-10.29
-13.27
-16.52
-19.45
-21.34
-21.63
-20.03
-16.62
-11.89
-6.44
-0.97
3.99
8.07
11.1
13.05
14.02
14.16
13.66
12.64
11.26
9.66
8.05
6.61
5.5
4.8
4.47
4.43
4.58
4.81
5.06
5.23
5.19
4.83
4.13
3.17
2.1
1.1
0.24
-0.49
-1.2
-2.04
-3.16
-4.72
-6.86
-9.61
-12.82
-16.07
-18.75
-20.14
-19.71
-17.31
-13.25
-8.2
-2.99
1.66
5.35
8
9.82
11.05
11.86
12.26
12.17
11.51
10.28
8.7
7.02
5.56
4.52
4.02
4.02
4.41
4.94
5.34
5.36
4.81
3.72
2.22
0.54
-1.17
-2.92
-4.85
-7.19
-10.09
-13.51
-17.13
-20.51
-23.06
-24.3
-23.91
-21.82
-18.26
-13.63
-8.47
-3.32
1.42
5.44
8.59
10.8
12.09
12.52
12.21
11.3
10
8.49
6.96
5.54
4.27
3.17
2.19
1.32
0.53
-0.16
-0.77
-1.38
-2.06
-2.91
-4
-5.42
-7.24
-9.59
-12.54
-16.04
-19.85
-23.47
-26.29
-27.69
-27.22
-24.78
-20.62
-15.27
-9.41
-3.68
1.42
5.64
8.92
11.31
12.9
13.74
13.87
13.36
12.37
11.11
9.84
8.73
7.86
7.22
6.7
6.18
5.54
4.7
3.68
2.5
1.22
-0.16
-1.71
-3.56
-5.86
-8.64
-11.88
-15.44
-19.16
-22.78
-25.94
-28.2
-29.07
-28.11
-25.18
-20.5
-14.64
-8.3
-2.15
3.37
8.03
11.74
14.52
16.36
17.34
17.57
17.25
16.6
15.76
14.84
13.89
12.95
12.13
11.57
11.32
11.34
11.48
11.49
11.19
10.4
9.1
7.33
5.19
2.81
0.24
-2.53
-5.57
-8.96
-12.73
-16.79
-20.9
-24.63
-27.46
-28.85
-28.39
-25.9
-21.51
-15.67
-9.07
-2.44
3.61
8.7
12.78
15.94
18.35
20.09
21.15
21.51
21.22
20.47
19.59
18.9
18.55
18.52
18.6
18.57
18.32
17.91
17.46
17.04
16.51
15.61
14.06
11.78
8.91
5.8
2.79
0.11
-2.24
-4.42
-6.67
-9.2
-12.18
-15.73
-19.81
-24.14
-28.21
-31.25
-32.49
-31.38
-27.86
-22.34
-15.57
-8.41
-1.57
4.55
9.76
14.05
17.41
19.86
21.41
22.17
22.33
22.14
21.8
21.48
21.22
21.04
20.87
20.73
20.58
20.44
20.31
20.12
19.79
19.19
18.2
16.67
14.52
11.77
8.53
5.07
1.68
-1.39
-4.04
-6.34
-8.6
-11.13
-14.22
-17.93
-22.01
-25.92
-28.92
-30.25
-29.32
-25.93
-20.39
-13.39
-5.87
1.35
7.74
13.13
17.58
21.19
24.01
26.01
27.2
27.68
27.68
27.52
27.44
27.54
27.77
28.01
28.12
28.02
27.66
27.02
26.09
24.9
23.48
21.89
20.1
18.07
15.68
12.92
9.86
6.74
3.8
1.2
-1.11
-3.37
-5.94
-9.12
-12.99
-17.36
-21.75
-25.54
-28.01
-28.6
-27
-23.3
-17.95
-11.68
-5.29
0.62
5.64
9.67
12.69
14.74
15.81
15.87
15.02
13.47
11.54
9.55
7.83
6.53
5.74
5.42
5.43
5.65
5.89
6.01
5.87
5.4
4.62
3.59
2.42
1.16
-0.13
-1.42
-2.76
-4.22
-5.93
-8.01
-10.49
-13.22
-15.79
-17.58
-17.98
-16.54
-13.21
-8.33
-2.57
3.31
8.68
13.1
16.41
18.58
19.67
19.73
18.83
17.09
14.76
12.2
9.85
8.1
7.14
6.95
7.22
7.54
7.52
6.94
5.81
4.3
2.63
0.94
-0.76
-2.6
-4.72
-7.27
-10.31
-13.83
-17.73
-21.73
-25.38
-28.03
-29.01
-27.8
-24.26
-18.75
-12.02
-4.99
1.55
7.09
11.4
14.51
16.52
17.5
17.55
16.79
15.39
13.64
11.82
10.17
8.85
7.87
7.11
6.39
5.54
4.49
3.26
2.02
0.88
-0.11
-1.1
-2.35
-4.18
-6.81
-10.19
-14.01
-17.71
-20.66
-22.3
-22.29
-20.61
-17.43
-13.14
-8.21
-3.11
1.74
5.93
9.17
11.28
12.24
12.2
11.46
10.42
9.41
8.66
8.15
7.75
7.21
6.43
5.4
4.29
3.28
2.53
2.07
1.82
1.62
1.24
0.46
-1
-3.37
-6.68
-10.67
-14.71
-17.94
-19.5
-18.89
-16.09
-11.61
-6.25
-0.8
4.15
8.35
11.78
14.53
16.65
18.13
18.96
19.14
18.74
17.87
16.65
15.23
13.74
12.31
11.04
9.99
9.09
8.23
7.29
6.22
5.05
3.81
2.48
0.93
-1.06
-3.66
-6.96
-10.82
-14.91
-18.8
-21.94
-23.8
-23.95
-22.17
-18.57
-13.65
-8.11
-2.71
2.04
5.9
8.95
11.39
13.33
14.78
15.66
15.9
15.55
14.79
13.82
12.82
11.85
10.94
10.05
9.17
8.24
7.22
6.09
4.84
3.53
2.27
1.06
-0.14
-1.5
-3.21
-5.43
-8.17
-11.35
-14.8
-18.28
-21.45
-23.87
-24.99
-24.34
-21.69
-17.2
-11.49
-5.4
0.26
4.95
8.48
10.98
12.68
13.78
14.36
14.44
14.02
13.21
12.18
11.13
10.25
9.59
9.08
8.63
8.17
7.68
7.23
6.83
6.41
5.82
4.9
3.59
1.97
0.23
-1.53
-3.31
-5.29
-7.65
-10.45
-13.58
-16.74
-19.55
-21.59
-22.49
-21.97
-19.85
-16.16
-11.21
-5.54
0.14
5.18
9.12
11.8
13.38
14.14
14.37
14.26
13.94
13.43
12.82
12.21
11.71
11.35
11.05
10.68
10.11
9.36
8.56
7.91
7.52
7.29
6.96
6.18
4.78
2.76
0.35
-2.18
-4.63
-7
-9.43
-12.08
-15.1
-18.42
-21.84
-24.99
-27.4
-28.57
-28.12
-25.9
-22.09
-17.15
-11.68
-6.3
-1.44
2.66
5.91
8.34
10
10.96
11.34
11.31
11.04
10.7
10.34
9.94
9.45
8.82
8.1
7.37
6.75
6.31
6.07
6
5.96
5.78
5.22
4.1
2.35
0.08
-2.4
-4.71
-6.58
-7.91
-8.9
-9.91
-11.3
-13.3
-15.89
-18.75
-21.35
-23.08
-23.4
-22
-18.91
-14.56
-9.59
-4.7
-0.43
2.96
5.46
7.21
8.36
9.02
9.23
9.07
8.64
8.1
7.63
7.33
7.22
7.17
7.03
6.68
6.08
5.37
4.74
4.37
4.3
4.39
4.36
3.95
3
1.55
-0.25
-2.13
-3.91
-5.45
-6.71
-7.71
-8.57
-9.44
-10.54
-12.1
-14.23
-16.86
-19.67
-22.16
-23.78
-24.06
-22.77
-19.96
-15.96
-11.27
-6.43
-1.95
1.82
4.7
6.67
7.87
8.48
8.68
8.65
8.52
8.39
8.29
8.2
8.09
7.9
7.64
7.36
7.09
6.89
6.75
6.64
6.53
6.41
6.27
6.06
5.67
4.92
3.71
2.02
0.02
-2.06
-3.97
-5.56
-6.88
-8.09
-9.43
-11.17
-13.46
-16.31
-19.47
-22.47
-24.66
-25.41
-24.35
-21.49
-17.25
-12.28
-7.23
-2.58
1.4
4.66
7.17
8.96
10.06
10.53
10.49
10.11
9.55
8.93
8.34
7.81
7.38
7.03
6.76
6.52
6.29
6.05
5.79
5.49
5.11
4.6
3.91
3.01
1.91
0.66
-0.69
-2.09
-3.51
-4.95
-6.39
-7.81
-9.15
-10.46
-11.8
-13.3
-15.08
-17.13
-19.25
-21.04
-21.97
-21.6
-19.7
-16.38
-12.03
-7.23
-2.54
1.58
4.81
7.02
8.25
8.64
8.43
7.89
7.22
6.59
6.03
5.54
5.15
4.87
4.82
5.03
5.52
6.13
6.64
6.88
6.72
6.21
5.48
4.67
3.82
2.89
1.72
0.22
-1.62
-3.62
-5.53
-7.12
-8.28
-9.14
-9.95
-11.04
-12.62
-14.7
-17.05
-19.19
-20.54
-20.61
-19.1
-16.05
-11.81
-6.97
-2.15
2.12
5.54
8.04
9.69
10.61
10.93
10.7
9.99
8.97
7.84
6.85
6.18
5.87
5.86
5.98
6.1
6.14
6.12
6.07
6.02
5.95
5.75
5.41
4.89
4.24
3.49
2.71
1.95
1.23
0.6
0.02
-0.59
-1.33
-2.34
-3.71
-5.45
-7.47
-9.56
-11.43
-12.73
-13.11
-12.31
-10.2
-6.9
-2.78
1.64
5.81
9.27
11.74
13.16
13.6
13.24
12.28
10.94
9.45
7.97
6.63
5.44
4.32
3.21
2.06
0.92
-0.15
-1.08
-1.9
-2.63
-3.35
-4.05
-4.71
-5.33
-5.95
-6.66
-7.52
-8.53
-9.62
-10.75
-11.98
-13.44
-15.26
-17.27
-19.08
-20.07
-19.69
-17.71
-14.34
-10.18
-5.85
-1.82
1.73
4.82
7.5
9.69
11.18
11.75
11.28
9.9
7.96
5.92
4.22
3.13
2.65
2.59
2.64
2.45
1.88
0.95
-0.13
-1.09
-1.74
-2.07
-2.27
-2.59
-3.28
-4.46
-6.16
-8.31
-10.75
-13.19
-15.25
-16.45
-16.34
-14.7
-11.62
-7.54
-3.12
0.98
4.33
6.78
8.46
9.59
10.27
10.5
10.16
9.15
7.54
5.55
3.53
1.79
0.5
-0.4
-1.1
-1.79
-2.58
-3.38
-4.06
-4.55
-4.91
-5.33
-6.08
-7.37
-9.26
-11.67
-14.37
-17.04
-19.27
-20.69
-20.97
-19.9
-17.51
-14.02
-9.86
-5.52
-1.44
2.05
4.8
6.79
8.06
8.66
8.67
8.18
7.34
6.37
5.47
4.82
4.46
4.32
4.21
3.95
3.45
2.71
1.8
0.75
-0.43
-1.84
-3.56
-5.65
-8.11
-10.87
-13.8
-16.66
-19.11
-20.7
-20.99
-19.66
-16.67
-12.33
-7.18
-1.87
3.02
7.12
10.26
12.4
13.52
13.69
13.04
11.82
10.3
8.78
7.46
6.39
5.57
4.91
4.34
3.8
3.26
2.69
2.06
1.35
0.51
-0.56
-1.99
-3.93
-6.51
-9.74
-13.42
-17.11
-20.16
-21.89
-21.73
-19.47
-15.31
-9.91
-4.09
1.35
5.86
9.28
11.72
13.37
14.35
14.68
14.35
13.42
12.07
10.55
9.12
7.89
6.82
5.8
4.72
3.53
2.32
1.23
0.39
-0.17
-0.57
-1.07
-2.01
-3.74
-6.41
-9.98
-14.11
-18.24
-21.68
-23.78
-24.08
-22.37
-18.8
-13.79
-7.92
-1.83
3.96
9.09
13.35
16.7
19.11
20.61
21.19
20.91
19.89
18.33
16.52
14.72
13.15
11.92
11.01
10.31
9.64
8.9
8.02
6.94
5.68
4.21
2.51
0.57
-1.62
-4.08
-6.86
-10.06
-13.68
-17.55
-21.29
-24.26
-25.81
-25.4
-22.84
-18.3
-12.32
-5.61
1.07
7.08
11.95
15.48
17.64
18.63
18.75
18.3
17.53
16.54
15.39
14.08
12.71
11.42
10.27
9.28
8.3
7.13
5.67
3.94
2.09
0.34
-1.15
-2.39
-3.56
-4.92
-6.74
-9.23
-12.44
-16.26
-20.32
-24.02
-26.63
-27.43
-25.94
-22.1
-16.33
-9.37
-2.12
4.62
10.32
14.72
17.83
19.79
20.82
21.12
20.9
20.31
19.45
18.42
17.31
16.22
15.26
14.48
13.85
13.23
12.45
11.37
9.96
8.27
6.42
4.5
2.58
0.65
-1.3
-3.33
-5.55
-8.13
-11.28
-15.17
-19.7
-24.46
-28.64
-31.28
-31.54
-29.01
-23.88
-16.94
-9.24
-1.82
4.6
9.76
13.77
16.86
19.24
20.97
21.99
22.2
21.59
20.31
18.57
16.68
14.94
13.58
12.74
12.42
12.48
12.71
12.85
12.68
12.07
10.95
9.32
7.21
4.7
1.91
-1
-3.87
-6.62
-9.31
-12.18
-15.47
-19.36
-23.71
-28
-31.42
-33.04
-32.15
-28.5
-22.45
-14.86
-6.84
0.61
6.82
11.58
15.07
17.59
19.41
20.65
21.34
21.46
21.05
20.24
19.23
18.19
17.22
16.37
15.62
14.95
14.32
13.69
13
12.23
11.36
10.38
9.2
7.74
5.9
3.66
1.12
-1.56
-4.23
-6.93
-9.88
-13.31
-17.26
-21.32
-24.72
-26.51
-25.97
-22.92
-17.76
-11.26
-4.32
2.37
8.38
13.5
17.6
20.55
22.25
22.66
21.92
20.28
18.07
15.63
13.21
11.01
9.14
7.6
6.34
5.25
4.17
3.02
1.78
0.45
-0.91
-2.28
-3.69
-5.21
-6.9
-8.84
-11.05
-13.56
-16.4
-19.56
-23.03
-26.64
-30.07
-32.86
-34.44
-34.31
-32.16
-27.98
-22.13
-15.19
-7.88
-0.83
5.45
10.62
14.49
16.95
18.04
17.89
16.72
14.86
12.68
10.53
8.76
7.55
6.95
6.81
6.86
6.79
6.4
5.65
4.61
3.46
2.27
0.99
-0.52
-2.5
-5.12
-8.47
-12.48
-16.91
-21.33
-25.08
-27.38
-27.48
-24.93
-19.73
-12.44
-4.03
4.39
11.92
18.08
22.77
26.15
28.41
29.6
29.7
28.7
26.76
24.22
21.51
19
16.89
15.13
13.58
12.06
10.48
8.89
7.31
5.75
4.1
2.17
-0.24
-3.27
-6.94
-11.13
-15.58
-19.96
-23.83
-26.71
-28.17
-27.88
-25.75
-21.9
-16.74
-10.77
-4.53
1.55
7.18
12.18
16.37
19.53
21.44
21.9
20.97
18.97
16.46
14.02
12.1
10.81
9.98
9.31
8.54
7.61
6.62
5.72
4.95
4.19
3.24
1.82
-0.24
-3.01
-6.46
-10.45
-14.72
-18.89
-22.38
-24.52
-24.71
-22.64
-18.39
-12.44
-5.55
1.47
7.98
13.54
18
21.29
23.44
24.47
24.42
23.41
21.63
19.38
16.96
14.68
12.73
11.2
10.04
9.12
8.28
7.38
6.32
5.04
3.52
1.71
-0.4
-2.8
-5.46
-8.33
-11.4
-14.74
-18.34
-22.12
-25.7
-28.47
-29.69
-28.72
-25.32
-19.79
-12.84
-5.39
1.76
8.06
13.28
17.36
20.23
21.82
22.13
21.29
19.66
17.7
15.8
14.22
13
12.06
11.34
10.83
10.56
10.49
10.43
10.17
9.49
8.28
6.54
4.39
1.94
-0.7
-3.45
-6.3
-9.26
-12.41
-15.86
-19.65
-23.58
-27.22
-29.92
-30.93
-29.75
-26.24
-20.73
-13.87
-6.49
0.63
6.91
11.97
15.68
18.11
19.43
19.89
19.74
19.13
18.17
16.9
15.39
13.8
12.31
11.1
10.27
9.81
9.57
9.38
9.02
8.29
7.05
5.26
2.99
0.44
-2.09
-4.35
-6.23
-7.86
-9.54
-11.62
-14.37
-17.84
-21.77
-25.65
-28.78
-30.44
-30.01
-27.21
-22.21
-15.55
-8.09
-0.76
5.66
10.72
14.33
16.67
18.01
18.61
18.61
18.06
17
15.5
13.77
12.07
10.7
9.83
9.45
9.41
9.42
9.24
8.71
7.79
6.56
5.05
3.32
1.41
-0.65
-2.75
-4.78
-6.68
-8.54
-10.59
-13.12
-16.32
-20.11
-24.12
-27.66
-30.01
-30.53
-28.91
-25.19
-19.79
-13.31
-6.49
0.03
5.76
10.41
13.88
16.19
17.45
17.77
17.3
16.2
14.69
12.99
11.31
9.81
8.57
7.62
6.99
6.66
6.59
6.67
6.74
6.58
6.02
4.99
3.51
1.65
-0.5
-2.81
-5.18
-7.51
-9.77
-11.98
-14.35
-17.04
-20.17
-23.63
-27.02
-29.73
-31.09
-30.65
-28.23
-24.03
-18.47
-12.14
-5.63
0.55
6.01
10.48
13.81
15.99
17.05
17.14
16.45
15.23
13.78
12.32
11
9.82
8.73
7.67
6.66
5.8
5.19
4.84
4.55
4.05
3.07
1.51
-0.51
-2.66
-4.64
-6.24
-7.47
-8.56
-9.77
-11.37
-13.52
-16.24
-19.42
-22.78
-25.89
-28.18
-29.01
-27.88
-24.58
-19.3
-12.67
-5.55
1.23
7.05
11.63
14.97
17.15
18.26
18.33
17.45
15.86
13.91
12.02
10.5
9.4
8.61
7.85
6.99
6
4.99
4.13
3.49
3.04
2.64
2.09
1.23
-0.03
-1.69
-3.63
-5.69
-7.75
-9.8
-11.94
-14.35
-17.2
-20.52
-24.07
-27.37
-29.77
-30.67
-29.63
-26.54
-21.68
-15.59
-9.06
-2.8
2.59
6.81
9.83
11.8
12.93
13.4
13.32
12.77
11.83
10.64
9.39
8.26
7.43
6.97
6.89
7.08
7.34
7.44
7.16
6.4
5.2
3.68
2.03
0.36
-1.28
-2.95
-4.73
-6.68
-8.86
-11.27
-13.93
-16.78
-19.62
-22.12
-23.83
-24.3
-23.23
-20.52
-16.36
-11.18
-5.52
0.05
5.08
9.25
12.41
14.54
15.7
15.99
15.53
14.49
13.06
11.45
9.93
8.73
8.02
7.84
8.08
8.48
8.73
8.54
7.76
6.38
4.51
2.38
0.21
-1.83
-3.63
-5.17
-6.55
-8
-9.77
-12.1
-15.06
-18.45
-21.71
-24.14
-24.99
-23.8
-20.53
-15.57
-9.66
-3.59
1.95
6.52
9.93
12.18
13.34
13.55
12.98
11.9
10.59
9.32
8.28
7.56
7.12
6.87
6.8
6.85
7.02
7.21
7.28
7.03
6.4
5.42
4.29
3.23
2.36
1.62
0.78
-0.42
-2.17
-4.51
-7.32
-10.42
-13.52
-16.26
-18.23
-18.94
-18.01
-15.28
-10.92
-5.44
0.43
5.97
10.6
13.99
16.06
16.94
16.83
15.96
14.55
12.76
10.74
8.63
6.55
4.65
3.09
2
1.43
1.32
1.49
1.71
1.79
1.59
1.12
0.44
-0.4
-1.41
-2.67
-4.29
-6.32
-8.72
-11.36
-14.09
-16.75
-19.16
-21.1
-22.22
-22.16
-20.61
-17.5
-13.06
-7.78
-2.31
2.76
6.97
10.09
12.09
13.05
13.07
12.26
10.77
8.77
6.58
4.58
3.14
2.47
2.51
2.93
3.29
3.27
2.76
1.89
0.89
-0.11
-1.12
-2.32
-3.86
-5.82
-8.16
-10.74
-13.35
-15.79
-17.74
-18.88
-18.88
-17.48
-14.65
-10.55
-5.53
-0.04
5.41
10.36
14.35
17.05
18.3
18.11
16.74
14.6
12.16
9.83
7.93
6.58
5.74
5.26
4.92
4.53
4.01
3.36
2.64
1.94
1.26
0.47
-0.67
-2.44
-4.99
-8.29
-12.02
-15.54
-18.16
-19.21
-18.35
-15.61
-11.42
-6.42
-1.3
3.42
7.49
10.8
13.38
15.2
16.18
16.21
15.31
13.66
11.66
9.79
8.36
7.54
7.16
6.9
6.47
5.68
4.61
3.45
2.39
1.44
0.37
-1.18
-3.52
-6.72
-10.54
-14.43
-17.69
-19.65
-19.84
-18.11
-14.68
-10.02
-4.77
0.47
5.27
9.41
12.84
15.55
17.54
18.74
19.06
18.53
17.28
15.63
13.88
12.23
10.73
9.32
7.85
6.28
4.63
3.05
1.69
0.63
-0.19
-1.02
-2.17
-3.94
-6.49
-9.74
-13.39
-16.91
-19.71
-21.2
-21.05
-19.16
-15.75
-11.27
-6.22
-1.11
3.61
7.7
10.98
13.42
15.01
15.81
15.83
15.16
13.88
12.17
10.23
8.34
6.75
5.6
4.9
4.51
4.21
3.8
3.16
2.32
1.36
0.38
-0.61
-1.74
-3.23
-5.33
-8.14
-11.59
-15.35
-18.95
-21.8
-23.41
-23.44
-21.76
-18.47
-13.87
-8.39
-2.57
3.06
8.04
12.05
14.95
16.83
17.86
18.29
18.32
18.03
17.45
16.6
15.53
14.35
13.22
12.21
11.37
10.68
10.07
9.49
8.81
7.94
6.7
5.06
3.05
0.83
-1.39
-3.49
-5.51
-7.66
-10.2
-13.33
-17.02
-21
-24.76
-27.67
-29.08
-28.49
-25.71
-20.99
-15
-8.61
-2.61
2.51
6.64
9.9
12.48
14.44
15.78
16.45
16.53
16.23
15.81
15.5
15.35
15.25
15.01
14.52
13.76
12.86
12.01
11.32
10.82
10.38
9.79
8.83
7.39
5.45
3.18
0.78
-1.56
-3.7
-5.64
-7.48
-9.43
-11.68
-14.41
-17.65
-21.26
-24.91
-28.1
-30.21
-30.68
-29.15
-25.61
-20.46
-14.41
-8.25
-2.61
2.14
5.94
8.9
11.17
12.88
14.11
14.92
15.39
15.64
15.76
15.82
15.81
15.76
15.66
15.53
15.4
15.28
15.2
15.12
14.96
14.66
14.06
13.12
11.8
10.17
8.37
6.51
4.61
2.64
0.53
-1.73
-4.05
-6.28
-8.25
-9.91
-11.33
-12.71
-14.24
-16.07
-18.24
-20.7
-23.29
-25.71
-27.52
-28.16
-27.18
-24.39
-19.98
-14.52
-8.78
-3.44
1.07
4.64
7.34
9.31
10.6
11.24
11.28
10.89
10.31
9.82
9.59
9.66
9.97
10.38
10.78
11
10.97
10.65
10.07
9.32
8.48
7.57
6.49
5.08
3.21
0.93
-1.51
-3.78
-5.61
-6.97
-8.08
-9.32
-11.01
-13.28
-15.93
-18.55
-20.66
-21.8
-21.68
-20.19
-17.36
-13.37
-8.56
-3.39
1.63
5.96
9.3
11.51
12.73
13.23
13.28
13.09
12.72
12.19
11.53
10.8
10.06
9.37
8.73
8.07
7.36
6.56
5.76
5
4.34
3.75
3.11
2.31
1.23
-0.17
-1.86
-3.77
-5.81
-7.92
-10.08
-12.34
-14.79
-17.54
-20.59
-23.69
-26.4
-28.12
-28.31
-26.68
-23.32
-18.66
-13.34
-7.99
-3.09
1.08
4.41
6.89
8.57
9.52
9.87
9.76
9.37
8.87
8.38
8.02
7.79
7.65
7.51
7.28
6.95
6.6
6.39
6.39
6.58
6.7
6.47
5.64
4.15
2.15
-0.12
-2.38
-4.46
-6.33
-8.07
-9.8
-11.69
-13.83
-16.23
-18.73
-20.97
-22.48
-22.72
-21.34
-18.24
-13.72
-8.39
-2.96
1.85
5.58
8.04
9.32
9.69
9.49
9.01
8.48
8.06
7.84
7.84
8.02
8.28
8.46
8.43
8.19
7.8
7.41
7.11
6.9
6.68
6.32
5.66
4.68
3.4
1.9
0.26
-1.43
-3.1
-4.66
-6.14
-7.65
-9.39
-11.58
-14.36
-17.62
-20.99
-23.93
-25.88
-26.37
-25.2
-22.42
-18.33
-13.38
-8.07
-2.89
1.78
5.7
8.76
10.97
12.39
13.13
13.33
13.14
12.73
12.21
11.65
11.06
10.41
9.73
9.1
8.64
8.45
8.52
8.74
8.92
8.85
8.4
7.47
6.07
4.22
2.04
-0.28
-2.5
-4.41
-5.9
-7
-7.88
-8.78
-9.94
-11.56
-13.75
-16.47
-19.52
-22.5
-24.89
-26.09
-25.62
-23.29
-19.32
-14.21
-8.7
-3.44
1.09
4.72
7.51
9.63
11.2
12.25
12.76
12.68
12.11
11.21
10.28
9.58
9.28
9.4
9.77
10.19
10.43
10.41
10.15
9.75
9.33
8.91
8.4
7.69
6.68
5.36
3.77
2.03
0.23
-1.53
-3.2
-4.75
-6.26
-7.83
-9.65
-11.87
-14.53
-17.6
-20.84
-23.88
-26.24
-27.42
-27
-24.76
-20.76
-15.42
-9.4
-3.42
1.87
6.08
9.1
11.01
12.04
12.44
12.46
12.27
12
11.73
11.51
11.38
11.36
11.45
11.6
11.74
11.78
11.68
11.47
11.18
10.83
10.34
9.59
8.4
6.7
4.58
2.26
0.02
-1.98
-3.74
-5.45
-7.36
-9.71
-12.59
-15.93
-19.5
-22.93
-25.75
-27.45
-27.54
-25.72
-21.98
-16.68
-10.49
-4.25
1.29
5.69
8.85
10.95
12.28
13.07
13.38
13.21
12.58
11.65
10.72
10.09
9.91
10.15
10.55
10.84
10.82
10.47
9.9
9.24
8.51
7.62
6.45
4.91
3.04
0.97
-1.13
-3.14
-5.03
-6.89
-8.86
-11.08
-13.66
-16.6
-19.77
-22.92
-25.61
-27.33
-27.58
-26.03
-22.67
-17.81
-12.06
-6.07
-0.44
4.47
8.5
11.59
13.75
14.94
15.13
14.41
13.02
11.36
9.89
8.97
8.74
9.09
9.73
10.3
10.55
10.36
9.79
8.99
8.1
7.13
6.02
4.67
3.04
1.23
-0.63
-2.39
-4.03
-5.6
-7.32
-9.4
-11.99
-15.13
-18.64
-22.16
-25.13
-26.96
-27.14
-25.44
-21.98
-17.18
-11.64
-5.96
-0.64
3.96
7.68
10.4
12.14
12.94
12.92
12.21
11.04
9.59
8.1
6.82
5.96
5.65
5.84
6.35
6.91
7.28
7.31
6.96
6.31
5.4
4.3
3.03
1.61
0.1
-1.5
-3.22
-5.18
-7.55
-10.44
-13.77
-17.17
-20
-21.56
-21.29
-19.01
-14.97
-9.8
-4.29
0.93
5.47
9.23
12.26
14.61
16.24
17.07
17.05
16.26
14.98
13.51
12.14
11.07
10.34
9.96
9.91
10.2
10.75
11.4
11.87
11.86
11.16
9.79
7.96
6
4.17
2.54
0.95
-0.88
-3.2
-6.06
-9.29
-12.47
-15.07
-16.57
-16.59
-14.99
-11.9
-7.72
-3.03
1.55
5.54
8.65
10.81
12.07
12.5
12.13
10.97
9.13
6.84
4.5
2.55
1.35
1.04
1.51
2.41
3.31
3.85
3.85
3.31
2.37
1.19
-0.06
-1.35
-2.67
-4.04
-5.54
-7.25
-9.23
-11.46
-13.75
-15.66
-16.67
-16.25
-14.15
-10.54
-5.96
-1.12
3.33
6.96
9.63
11.33
12.09
11.92
10.84
8.97
6.58
4.08
1.84
0.16
-0.83
-1.18
-1.04
-0.61
-0.1
0.31
0.48
0.27
-0.4
-1.62
-3.42
-5.81
-8.69
-11.89
-15.15
-18.15
-20.55
-21.98
-22.1
-20.68
-17.69
-13.42
-8.37
-3.19
1.55
5.52
8.59
10.83
12.27
12.88
12.6
11.44
9.61
7.48
5.53
4.07
3.2
2.75
2.45
2
1.31
0.42
-0.53
-1.45
-2.38
-3.5
-5.09
-7.34
-10.36
-14.05
-18.08
-21.95
-24.98
-26.47
-25.88
-23.02
-18.15
-11.9
-5.18
1.16
6.51
10.61
13.54
15.52
16.76
17.34
17.25
16.47
15.1
13.35
11.56
10.03
8.94
8.32
8.02
7.85
7.61
7.19
6.55
5.67
4.53
3.06
1.18
-1.23
-4.27
-7.93
-12.06
-16.39
-20.45
-23.68
-25.56
-25.71
-23.95
-20.36
-15.29
-9.3
-3.02
2.94
8.19
12.54
16.03
18.72
20.7
21.9
22.23
21.68
20.44
18.85
17.34
16.22
15.58
15.26
15.03
14.68
14.12
13.35
12.35
11.1
9.53
7.58
5.29
2.72
-0.01
-2.83
-5.76
-8.9
-12.32
-16.03
-19.86
-23.4
-26.05
-27.12
-26.08
-22.73
-17.33
-10.58
-3.41
3.28
8.91
13.25
16.43
18.73
20.43
21.66
22.45
22.76
22.56
21.93
20.99
19.89
18.8
17.84
17.07
16.52
16.18
15.96
15.72
15.31
14.48
13.08
11.02
8.39
5.41
2.34
-0.51
-3.04
-5.31
-7.59
-10.2
-13.4
-17.15
-21.07
-24.5
-26.67
-26.93
-24.97
-20.92
-15.29
-8.82
-2.28
3.71
8.77
12.75
15.71
17.79
19.11
19.76
19.82
19.36
18.57
17.69
16.98
16.59
16.51
16.6
16.62
16.41
15.93
15.25
14.52
13.79
13.04
12.12
10.91
9.31
7.38
5.21
2.94
0.66
-1.6
-3.86
-6.16
-8.6
-11.24
-14.13
-17.23
-20.37
-23.22
-25.26
-25.92
-24.79
-21.77
-17.13
-11.46
-5.51
0.07
4.92
8.93
12.18
14.74
16.63
17.75
18.04
17.6
16.67
15.62
14.77
14.32
14.21
14.24
14.18
13.87
13.26
12.43
11.45
10.34
9.08
7.62
5.97
4.24
2.62
1.26
0.23
-0.58
-1.41
-2.51
-4.08
-6.18
-8.7
-11.41
-13.9
-15.74
-16.5
-15.89
-13.84
-10.54
-6.39
-1.83
2.66
6.75
10.26
13.09
15.2
16.6
17.34
17.49
17.13
16.39
15.4
14.34
13.42
12.84
12.73
13.07
13.74
14.5
15.14
15.47
15.4
14.81
13.68
11.99
9.84
7.47
5.13
3.09
1.43
0.05
-1.3
-2.89
-4.9
-7.3
-9.88
-12.24
-13.92
-14.51
-13.75
-11.63
-8.43
-4.59
-0.66
2.9
5.84
8.08
9.65
10.54
10.69
10.03
8.59
6.58
4.37
2.36
0.84
-0.04
-0.38
-0.35
-0.18
-0.05
-0.09
-0.39
-0.97
-1.81
-2.83
-3.93
-5.05
-6.2
-7.42
-8.77
-10.24
-11.87
-13.68
-15.74
-18.02
-20.33
-22.23
-23.14
-22.54
-20.18
-16.29
-11.45
-6.44
-1.91
1.74
4.42
6.22
7.3
7.82
7.92
7.75
7.42
7.01
6.57
6.15
5.8
5.6
5.58
5.69
5.79
5.73
5.41
4.87
4.2
3.49
2.7
1.66
0.22
-1.73
-4.11
-6.77
-9.49
-12.13
-14.57
-16.63
-18.01
-18.41
-17.58
-15.49
-12.37
-8.63
-4.75
-1.11
2.06
4.63
6.58
7.87
8.53
8.61
8.22
7.58
6.89
6.31
5.92
5.73
5.66
5.63
5.53
5.24
4.67
3.75
2.51
1.11
-0.26
-1.43
-2.37
-3.19
-4.13
-5.44
-7.2
-9.26
-11.25
-12.63
-12.92
-11.85
-9.48
-6.17
-2.43
1.2
4.38
6.99
9.04
10.56
11.53
11.89
11.51
10.45
8.88
7.11
5.48
4.21
3.36
2.79
2.34
1.84
1.26
0.62
-0.01
-0.59
-1.14
-1.74
-2.55
-3.7
-5.34
-7.51
-10.08
-12.71
-14.88
-16.04
-15.82
-14.19
-11.44
-8.08
-4.59
-1.35
1.5
3.88
5.73
6.98
7.57
7.49
6.84
5.81
4.58
3.33
2.17
1.17
0.33
-0.34
-0.93
-1.5
-2.13
-2.86
-3.63
-4.37
-5.01
-5.57
-6.18
-7.05
-8.41
-10.36
-12.81
-15.44
-17.8
-19.35
-19.67
-18.51
-15.9
-12.13
-7.76
-3.38
0.45
3.41
5.45
6.74
7.5
7.87
7.82
7.23
6.05
4.37
2.5
0.79
-0.49
-1.24
-1.54
-1.64
-1.72
-1.93
-2.3
-2.82
-3.42
-4.02
-4.62
-5.23
-5.92
-6.84
-8.08
-9.66
-11.46
-13.23
-14.68
-15.49
-15.42
-14.34
-12.27
-9.39
-5.99
-2.51
0.68
3.34
5.41
6.98
8.2
9.12
9.71
9.88
9.55
8.77
7.69
6.51
5.38
4.39
3.52
2.78
2.17
1.71
1.41
1.2
0.95
0.53
-0.15
-1.07
-2.15
-3.33
-4.53
-5.72
-6.9
-8.03
-9.11
-10.23
-11.58
-13.38
-15.69
-18.2
-20.31
-21.23
-20.36
-17.54
-13.22
-8.26
-3.62
0.04
2.49
3.97
4.86
5.51
6.08
6.53
6.77
6.76
6.59
6.4
6.3
6.32
6.36
6.32
6.15
5.93
5.8
5.86
6.11
6.39
6.48
6.17
5.36
4.03
2.22
0.08
-2.22
-4.43
-6.31
-7.7
-8.63
-9.31
-10.11
-11.38
-13.26
-15.52
-17.66
-19
-18.96
-17.34
-14.29
-10.35
-6.14
-2.25
0.99
3.52
5.43
6.86
7.86
8.44
8.56
8.21
7.48
6.51
5.55
4.8
4.42
4.45
4.78
5.19
5.49
5.55
5.38
5.1
4.81
4.48
3.97
3.08
1.7
-0.14
-2.25
-4.32
-6.1
-7.48
-8.45
-9.16
-9.79
-10.52
-11.54
-12.93
-14.71
-16.71
-18.6
-19.89
-20.1
-18.87
-16.18
-12.34
-7.9
-3.51
0.32
3.31
5.43
6.78
7.49
7.67
7.42
6.92
6.43
6.23
6.52
7.23
8.11
8.8
9
8.66
7.94
7.13
6.5
6.14
5.95
5.77
5.45
4.92
4.18
3.24
2.07
0.71
-0.83
-2.46
-4.07
-5.64
-7.17
-8.74
-10.42
-12.17
-13.88
-15.34
-16.25
-16.38
-15.57
-13.79
-11.21
-8.11
-4.83
-1.7
1.1
3.5
5.49
7.06
8.16
8.72
8.74
8.32
7.67
7.05
6.65
6.58
6.84
7.31
7.84
8.24
8.39
8.2
7.69
6.98
6.18
5.34
4.38
3.17
1.6
-0.31
-2.35
-4.23
-5.62
-6.41
-6.67
-6.65
-6.65
-6.91
-7.5
-8.48
-9.81
-11.47
-13.38
-15.3
-16.83
-17.47
-16.77
-14.58
-11.12
-6.94
-2.77
0.77
3.39
5.07
6.05
6.62
6.96
7.16
7.19
7.05
6.77
6.49
6.32
6.34
6.52
6.74
6.88
6.85
6.69
6.47
6.28
6.11
5.9
5.52
4.84
3.87
2.65
1.29
-0.08
-1.34
-2.44
-3.39
-4.22
-5.04
-5.92
-6.96
-8.23
-9.72
-11.34
-12.87
-13.99
-14.28
-13.46
-11.43
-8.4
-4.83
-1.23
1.98
4.61
6.63
8.08
9.02
9.47
9.49
9.17
8.69
8.19
7.73
7.31
6.9
6.5
6.25
6.31
6.78
7.62
8.62
9.49
9.99
9.98
9.5
8.68
7.69
6.68
5.73
4.85
4.07
3.41
2.91
2.59
2.42
2.29
2
1.34
0.15
-1.5
-3.34
-4.94
-5.77
-5.47
-3.92
-1.33
1.89
5.21
8.21
10.61
12.3
13.3
13.66
13.49
12.83
11.8
10.51
9.09
7.67
6.35
5.2
4.23
3.46
2.86
2.47
2.26
2.18
2.18
2.11
1.81
1.15
0.08
-1.3
-2.8
-4.21
-5.38
-6.3
-7.11
-8.06
-9.32
-10.96
-12.84
-14.64
-15.94
-16.36
-15.66
-13.8
-10.99
-7.59
-4.01
-0.66
2.17
4.32
5.73
6.44
6.55
6.18
5.54
4.75
3.93
3.11
2.28
1.43
0.56
-0.29
-1.09
-1.8
-2.42
-2.94
-3.34
-3.6
-3.76
-3.91
-4.2
-4.81
-5.85
-7.36
-9.26
-11.41
-13.6
-15.58
-17.01
-17.56
-16.97
-15.13
-12.16
-8.4
-4.35
-0.52
2.64
4.89
6.19
6.75
6.86
6.82
6.78
6.71
6.44
5.83
4.87
3.77
2.76
2.06
1.69
1.5
1.25
0.8
0.11
-0.7
-1.51
-2.22
-2.88
-3.59
-4.49
-5.68
-7.23
-9.13
-11.36
-13.8
-16.24
-18.3
-19.57
-19.64
-18.31
-15.67
-12.06
-8.03
-4.07
-0.54
2.43
4.85
6.74
8.06
8.74
8.76
8.23
7.36
6.43
5.65
5.04
4.53
3.94
3.18
2.28
1.36
0.61
0.16
-0
-0.02
-0.14
-0.59
-1.45
-2.63
-3.93
-5.17
-6.29
-7.41
-8.75
-10.46
-12.55
-14.81
-16.91
-18.51
-19.3
-19.06
-17.68
-15.14
-11.53
-7.13
-2.33
2.35
6.4
9.4
11.15
11.64
11.13
10.02
8.76
7.72
7.06
6.74
6.58
6.4
6.1
5.68
5.19
4.67
4.08
3.35
2.49
1.56
0.71
0.06
-0.39
-0.79
-1.39
-2.44
-4.04
-6.16
-8.59
-11.12
-13.58
-15.93
-18.17
-20.27
-21.99
-22.94
-22.69
-20.88
-17.49
-12.84
-7.58
-2.39
2.14
5.71
8.24
9.88
10.8
11.16
11.08
10.64
9.99
9.26
8.6
8.14
7.89
7.81
7.78
7.73
7.59
7.35
6.98
6.43
5.64
4.59
3.37
2.1
0.98
0.07
-0.67
-1.44
-2.5
-4.01
-6.05
-8.49
-11.09
-13.53
-15.39
-16.31
-15.95
-14.16
-11.03
-6.89
-2.28
2.23
6.21
9.43
11.84
13.54
14.6
15.09
15.08
14.66
13.95
13.1
12.23
11.39
10.6
9.85
9.16
8.53
7.97
7.39
6.68
5.72
4.47
2.97
1.33
-0.34
-2.01
-3.69
-5.43
-7.29
-9.27
-11.42
-13.69
-15.99
-18.08
-19.62
-20.16
-19.33
-16.98
-13.24
-8.57
-3.6
1.04
4.86
7.63
9.31
9.99
9.85
9.02
7.62
5.86
3.96
2.17
0.72
-0.3
-0.92
-1.25
-1.46
-1.71
-2.05
-2.48
-2.99
-3.53
-4.15
-4.95
-6.06
-7.63
-9.73
-12.33
-15.3
-18.36
-21.11
-23.08
-23.81
-22.97
-20.51
-16.67
-11.95
-6.93
-2.14
2.08
5.5
8
9.49
9.93
9.41
8.16
6.58
5.01
3.69
2.64
1.75
0.87
-0.06
-1.02
-1.93
-2.71
-3.41
-4.17
-5.17
-6.57
-8.49
-10.99
-13.98
-17.23
-20.39
-22.96
-24.42
-24.36
-22.6
-19.26
-14.73
-9.53
-4.22
0.81
5.28
9.09
12.16
14.44
15.85
16.35
16.04
15.11
13.87
12.63
11.63
10.94
10.52
10.17
9.71
8.97
7.93
6.66
5.27
3.87
2.42
0.76
-1.36
-4.17
-7.74
-11.83
-15.89
-19.21
-21.07
-20.98
-18.83
-14.89
-9.73
-4.01
1.69
6.99
11.79
16.04
19.69
22.55
24.36
24.93
24.25
22.59
20.41
18.2
16.36
15.05
14.25
13.8
13.52
13.24
12.83
12.16
11.15
9.72
7.87
5.58
2.82
-0.48
-4.36
-8.73
-13.28
-17.43
-20.49
-21.82
-21.09
-18.38
-14.12
-8.98
-3.61
1.58
6.36
10.71
14.58
17.83
20.2
21.43
21.41
20.29
18.43
16.3
14.31
12.7
11.56
10.85
10.5
10.35
10.23
9.91
9.21
8.08
6.63
5.13
3.78
2.65
1.56
0.15
-1.94
-4.95
-8.84
-13.3
-17.84
-21.79
-24.52
-25.46
-24.26
-20.93
-15.78
-9.41
-2.56
4.13
10.14
15.24
19.37
22.6
25.04
26.76
27.8
28.21
28.12
27.67
27.04
26.39
25.8
25.25
24.66
23.99
23.18
22.27
21.28
20.22
19.06
17.8
16.41
14.88
13.19
11.34
9.3
7.09
4.73
2.29
-0.19
-2.69
-5.28
-8.01
-10.98
-14.23
-17.74
-21.42
-25.06
-28.26
-30.46
-31.07
-29.62
-25.99
-20.46
-13.74
-6.67
-0.05
5.62
10.21
13.81
16.68
18.99
20.84
22.24
23.21
23.77
23.98
23.95
23.72
23.34
22.83
22.27
21.79
21.56
21.68
22.12
22.67
22.99
22.73
21.73
20.04
17.96
15.83
13.91
12.22
10.58
8.7
6.38
3.59
0.5
-2.57
-5.34
-7.63
-9.45
-11.02
-12.69
-14.8
-17.61
-21.11
-25.01
-28.74
-31.59
-32.83
-31.98
-28.91
-23.93
-17.71
-11.15
-5.08
-0.1
3.64
6.31
8.3
9.92
11.28
12.3
12.83
12.79
12.26
11.44
10.6
9.88
9.33
8.86
8.35
7.77
7.17
6.67
6.34
6.18
5.99
5.5
4.52
2.95
0.91
-1.3
-3.42
-5.32
-7.04
-8.77
-10.73
-13.04
-15.71
-18.61
-21.49
-24.03
-25.75
-26.22
-25
-21.95
-17.24
-11.46
-5.39
0.18
4.69
7.98
10.26
11.88
13.2
14.34
15.21
15.63
15.41
14.58
13.36
12.05
10.94
10.15
9.65
9.32
9.02
8.67
8.2
7.55
6.61
5.3
3.59
1.54
-0.71
-3.01
-5.24
-7.38
-9.54
-11.92
-14.77
-18.23
-22.23
-26.34
-29.84
-31.83
-31.64
-28.98
-24.17
-18.02
-11.47
-5.34
-0.02
4.46
8.28
11.59
14.34
16.33
17.36
17.45
16.87
16.12
15.67
15.78
16.32
16.91
17.12
16.73
15.86
14.92
14.45
14.78
15.97
17.81
19.92
21.79
22.86
22.43
19.83
14.72
7.39
-1.08
-9.14
-15.26
-18.61
-19.48
-19.07
-18.84
-19.76
-21.85
-24.2
-25.6
-25.22
-23.01
-19.58
-15.71
-11.79
-7.68
-2.96
2.6
8.66
14.32
18.63
21.13
22.04
22.06
21.77
21.25
20.11
18.03
15.17
12.32
10.49
10.3
11.57
13.42
14.82
15.17
14.53
13.45
12.42
11.51
10.4
8.65
6.09
2.98
-0.14
-2.87
-5.07
-6.97
-8.92
-11.24
-13.99
-16.99
-19.82
-22
-23.06
-22.74
-21.02
-18.22
-14.89
-11.59
-8.73
-6.44
-4.64
-3.18
-2.06
-1.46
-1.65
-2.85
-5.01
-7.81
-10.77
-13.38
-15.25
-16.22
-16.34
-15.79
-14.81
-13.64
-12.46
-11.45
-10.78
-10.59
-11.01
-12.08
-13.66
-15.59
-17.6
-19.57
-21.53
-23.61
-25.9
-28.28
-30.34
-31.48
-31.05
-28.67
-24.39
-18.63
-12.04
-5.26
1.22
7.09
12.2
16.34
19.36
21.11
21.57
20.89
19.37
17.38
15.32
13.51
12.14
11.17
10.48
9.77
8.83
7.6
6.19
4.84
3.83
3.28
3.12
3.1
2.86
2.04
0.38
-2.17
-5.45
-9.04
-12.38
-14.87
-15.98
-15.45
-13.23
-9.58
-4.96
0.08
4.95
9.2
12.47
14.67
15.84
16.14
15.84
15.18
14.42
13.71
13.07
12.44
11.71
10.77
9.64
8.45
7.41
6.65
6.19
5.88
5.46
4.69
3.43
1.61
-0.66
-3.21
-5.82
-8.32
-10.63
-12.71
-14.67
-16.61
-18.75
-21.21
-24.07
-27.17
-30.05
-32.02
-32.33
-30.45
-26.35
-20.54
-13.95
-7.54
-2.02
2.34
5.63
8.12
10
11.33
12.05
12.16
11.77
11.11
10.47
10.06
9.95
10.05
10.19
10.23
10.13
9.98
9.95
10.2
10.74
11.4
11.86
11.79
10.95
9.32
7.12
4.65
2.27
0.22
-1.44
-2.78
-3.97
-5.24
-6.79
-8.76
-11.19
-13.95
-16.83
-19.42
-21.32
-22.25
-22.07
-20.8
-18.56
-15.47
-11.65
-7.25
-2.43
2.53
7.38
11.96
16.26
20.39
24.48
28.57
32.53
36.2
39.38
41.94
43.77
44.76
44.77
43.67
41.44
38.18
34.15
29.7
25.15
20.77
16.68
12.93
9.51
6.46
3.79
1.52
-0.41
-2.15
-3.88
-5.75
-7.79
-9.91
-11.97
-13.84
-15.49
-16.97
-18.41
-19.93
-21.55
-23.21
-24.76
-26.05
-26.94
-27.4
-27.45
-27.29
-27.18
-27.42
-28.16
-29.3
-30.43
-30.89
-29.94
-27.06
-22.17
-15.65
-8.26
-0.86
5.81
11.35
15.65
18.79
20.92
22.14
22.53
22.23
21.4
20.29
19.09
17.85
16.52
15.01
13.26
11.33
9.45
7.85
6.72
6.11
5.95
6.05
6.22
6.28
6.13
5.75
5.12
4.26
3.21
1.99
0.62
-0.9
-2.52
-4.23
-5.97
-7.75
-9.56
-11.4
-13.23
-14.96
-16.49
-17.84
-19.12
-20.58
-22.45
-24.77
-27.28
-29.51
-30.83
-30.73
-28.92
-25.39
-20.38
-14.27
-7.57
-0.82
5.43
10.77
14.95
17.94
19.9
21.06
21.72
22.12
22.5
23.02
23.73
24.56
25.32
25.77
25.73
25.2
24.3
23.2
22.05
20.91
19.78
18.65
17.53
16.44
15.35
14.14
12.68
10.83
8.62
6.16
3.62
1.1
-1.39
-3.91
-6.49
-9.12
-11.69
-14.15
-16.53
-18.93
-21.47
-24.18
-26.91
-29.45
-31.6
-33.27
-34.46
-35.1
-35
-33.81
-31.2
-27.05
-21.58
-15.36
-9.13
-3.54
0.99
4.38
6.85
8.68
10.12
11.28
12.13
12.59
12.6
12.24
11.59
10.75
9.75
8.62
7.43
6.38
5.78
5.84
6.57
7.7
8.81
9.47
9.47
8.91
8.06
7.25
6.66
6.24
5.82
5.2
4.3
3.15
1.9
0.72
-0.34
-1.35
-2.46
-3.8
-5.41
-7.19
-8.99
-10.7
-12.31
-13.85
-15.34
-16.58
-17.22
-16.86
-15.23
-12.36
-8.58
-4.39
-0.31
3.29
6.25
8.53
10.11
11.01
11.28
10.98
10.27
9.27
8.08
6.73
5.24
3.71
2.33
1.29
0.72
0.58
0.66
0.74
0.63
0.3
-0.15
-0.6
-1.02
-1.46
-2.01
-2.72
-3.54
-4.39
-5.19
-5.96
-6.78
-7.72
-8.83
-10.03
-11.22
-12.29
-13.18
-13.89
-14.47
-14.98
-15.43
-15.81
-16.01
-15.87
-15.15
-13.65
-11.28
-8.08
-4.29
-0.22
3.84
7.66
11.12
14.14
16.59
18.29
19.05
18.78
17.55
15.62
13.34
11
8.77
6.69
4.74
2.95
1.4
0.21
-0.56
-0.99
-1.26
-1.61
-2.21
-3.1
-4.12
-5.08
-5.78
-6.18
-6.36
-6.5
-6.71
-7.05
-7.44
-7.78
-8.04
-8.29
-8.65
-9.19
-9.91
-10.72
-11.59
-12.56
-13.69
-14.95
-16.14
-16.81
-16.51
-14.93
-12.08
-8.31
-4.2
-0.34
2.85
5.24
6.89
7.96
8.57
8.74
8.44
7.67
6.59
5.44
4.49
3.89
3.59
3.38
3.1
2.68
2.23
1.85
1.57
1.29
0.87
0.25
-0.45
-1.03
-1.32
-1.36
-1.36
-1.6
-2.29
-3.38
-4.69
-5.93
-6.89
-7.54
-7.96
-8.35
-8.98
-10.08
-11.78
-14.08
-16.77
-19.43
-21.53
-22.5
-21.97
-19.89
-16.57
-12.59
-8.65
-5.29
-2.83
-1.29
-0.52
-0.37
-0.71
-1.45
-2.46
-3.57
-4.54
-5.19
-5.48
-5.51
-5.46
-5.43
-5.42
-5.32
-5.02
-4.44
-3.59
-2.55
-1.4
-0.22
0.95
2.08
3.16
4.16
5.04
5.77
6.29
6.52
6.41
5.94
5.1
3.86
2.19
0.07
-2.46
-5.13
-7.51
-9.07
-9.4
-8.33
-6.09
-3.13
-0
2.9
5.39
7.42
8.98
10.01
10.38
9.97
8.81
7.08
5.11
3.26
1.81
0.9
0.53
0.56
0.75
0.86
0.75
0.43
0.04
-0.21
-0.16
0.19
0.63
0.85
0.62
-0.14
-1.31
-2.66
-4.03
-5.38
-6.87
-8.68
-10.92
-13.57
-16.46
-19.33
-21.87
-23.8
-24.81
-24.64
-23.12
-20.24
-16.19
-11.38
-6.36
-1.68
2.23
5.15
7.07
8.1
8.45
8.31
7.84
7.18
6.47
5.81
5.2
4.48
3.41
1.8
-0.35
-2.79
-5.12
-6.98
-8.21
-8.94
-9.48
-10.2
-11.35
-13.01
-15.08
-17.36
-19.52
-21.28
-22.38
-22.68
-22.21
-21.19
-19.95
-18.92
-18.4
-18.57
-19.26
-20.06
-20.37
-19.59
-17.34
-13.64
-8.87
-3.66
1.35
5.75
9.38
12.32
14.79
16.89
18.64
19.94
20.62
20.6
19.94
18.88
17.74
16.8
16.22
15.95
15.79
15.56
15.15
14.61
14.04
13.49
12.89
12.06
10.85
9.19
7.24
5.22
3.34
1.72
0.28
-1.13
-2.71
-4.63
-7
-9.84
-13.04
-16.33
-19.22
-21.08
-21.33
-19.66
-16.2
-11.5
-6.31
-1.35
2.88
6.14
8.35
9.46
9.47
8.48
6.77
4.83
3.18
2.15
1.76
1.73
1.55
0.79
-0.78
-3.16
-6.11
-9.26
-12.23
-14.75
-16.71
-18.18
-19.35
-20.41
-21.49
-22.63
-23.85
-25.23
-26.89
-28.86
-30.94
-32.65
-33.28
-32.18
-29.1
-24.2
-18.08
-11.52
-5.15
0.62
5.7
10.11
13.92
17.04
19.34
20.66
20.95
20.29
18.94
17.24
15.52
14.04
12.88
11.98
11.18
10.27
9.19
7.96
6.76
5.68
4.74
3.72
2.25
-0.07
-3.44
-7.8
-12.78
-17.77
-22.07
-25.07
-26.31
-25.56
-22.87
-18.49
-12.85
-6.47
0.16
6.53
12.23
16.88
20.23
22.13
22.64
21.99
20.49
18.5
16.27
13.96
11.7
9.61
7.83
6.56
5.89
5.78
6.02
6.28
6.23
5.63
4.35
2.37
-0.34
-3.81
-8.08
-13.1
-18.56
-23.88
-28.29
-30.96
-31.3
-29.09
-24.58
-18.38
-11.3
-4.02
2.92
9.24
14.76
19.3
22.62
24.48
24.81
23.83
22.02
20
18.26
17.02
16.16
15.33
14.19
12.59
10.58
8.44
6.45
4.79
3.45
2.31
1.19
-0.04
-1.5
-3.35
-5.74
-8.85
-12.75
-17.24
-21.73
-25.36
-27.08
-26.02
-21.79
-14.56
-5.08
5.57
16.25
25.9
33.7
39.05
41.69
41.72
39.63
36.21
32.33
28.71
25.63
23.04
20.68
18.35
16.09
14.12
12.71
11.94
11.65
11.47
11.01
9.98
8.34
6.17
3.69
1.09
-1.54
-4.21
-7.02
-10.16
-13.9
-18.45
-23.88
-29.97
-36.04
-41.08
-43.92
-43.61
-39.79
-32.77
-23.5
-13.23
-3.14
5.92
13.51
19.54
24.06
27.15
28.88
29.39
28.96
27.98
26.93
26.22
26.07
26.45
27.12
27.76
28.1
28.1
27.83
27.49
27.19
26.9
26.36
25.28
23.38
20.59
17.05
13.08
9.06
5.21
1.59
-1.92
-5.56
-9.55
-14.1
-19.3
-25.14
-31.34
-37.33
-42.25
-45.09
-44.99
-41.51
-34.86
-25.88
-15.74
-5.65
3.49
11.17
17.29
21.93
25.21
27.21
28.04
27.86
27.01
25.91
24.94
24.34
24.11
24.05
23.96
23.7
23.35
23.04
22.97
23.18
23.56
23.86
23.86
23.4
22.46
21.11
19.37
17.21
14.54
11.28
7.5
3.45
-0.45
-3.83
-6.53
-8.75
-10.98
-13.79
-17.55
-22.19
-27.22
-31.84
-35.11
-36.22
-34.58
-30.04
-22.83
-13.61
-3.32
6.98
16.32
24.03
29.77
33.52
35.52
36.14
35.77
34.79
33.49
32.09
30.77
29.59
28.61
27.87
27.41
27.23
27.33
27.7
28.28
29
29.65
29.96
29.62
28.41
26.31
23.57
20.57
17.66
14.99
12.39
9.61
6.47
3.04
-0.34
-3.3
-5.63
-7.45
-9.14
-11.17
-13.85
-17.29
-21.34
-25.69
-29.82
-33.09
-34.78
-34.22
-31.08
-25.53
-18.25
-10.22
-2.43
4.43
10.07
14.49
17.82
20.17
21.53
21.88
21.23
19.76
17.71
15.42
13.18
11.17
9.46
8.03
6.85
5.95
5.43
5.39
5.9
6.88
8.05
9.07
9.59
9.45
8.68
7.47
6.01
4.47
2.89
1.26
-0.43
-2.16
-3.91
-5.62
-7.28
-8.87
-10.42
-12
-13.74
-15.86
-18.55
-21.84
-25.37
-28.4
-30
-29.26
-25.77
-19.7
-11.77
-2.99
5.62
13.31
19.71
24.67
28.23
30.46
31.44
31.28
30.19
28.53
26.73
25.22
24.28
23.99
24.19
24.63
25.1
25.48
25.81
26.08
26.23
26.07
25.35
23.93
21.81
19.19
16.29
13.3
10.29
7.26
4.2
1.1
-2.04
-5.19
-8.32
-11.34
-14.15
-16.61
-18.69
-20.44
-22.07
-23.86
-26.04
-28.67
-31.62
-34.54
-36.87
-37.95
-37.11
-33.94
-28.4
-20.93
-12.35
-3.62
4.43
11.27
16.69
20.71
23.41
24.87
25.25
24.8
23.89
22.84
21.91
21.16
20.53
19.96
19.48
19.26
19.45
20.1
21.01
21.85
22.26
22
21.06
19.55
17.65
15.48
13.06
10.42
7.62
4.73
1.84
-1.06
-4.04
-7.2
-10.57
-14.05
-17.45
-20.57
-23.26
-25.54
-27.51
-29.37
-31.31
-33.51
-36.03
-38.77
-41.36
-43.17
-43.48
-41.63
-37.32
-30.69
-22.32
-13.13
-4.08
3.99
10.51
15.22
18.13
19.45
19.53
18.76
17.59
16.4
15.52
15.08
15.07
15.31
15.59
15.7
15.54
15.09
14.39
13.45
12.28
10.86
9.19
7.31
5.3
3.22
1.11
-0.95
-2.91
-4.64
-6.13
-7.41
-8.71
-10.29
-12.33
-14.81
-17.46
-19.94
-21.97
-23.52
-24.76
-25.99
-27.4
-29.02
-30.69
-32.17
-33.17
-33.4
-32.54
-30.33
-26.65
-21.64
-15.76
-9.64
-3.93
0.89
4.61
7.21
8.73
9.26
8.85
7.69
6.06
4.33
2.87
1.96
1.69
1.98
2.64
3.46
4.31
5.14
6.02
7.02
8.16
9.3
10.22
10.65
10.4
9.46
7.99
6.21
4.34
2.47
0.59
-1.38
-3.49
-5.75
-8.19
-10.87
-13.82
-16.98
-20.02
-22.36
-23.28
-22.19
-18.95
-13.94
-7.99
-2.06
3.06
6.96
9.63
11.26
12.1
12.36
12.18
11.68
11.01
10.31
9.73
9.32
9.08
8.96
8.89
8.81
8.68
8.46
8.17
7.81
7.42
7.05
6.74
6.43
6.04
5.42
4.45
3.1
1.41
-0.42
-2.22
-3.94
-5.7
-7.78
-10.47
-13.93
-17.97
-22.09
-25.57
-27.74
-28.14
-26.67
-23.61
-19.42
-14.66
-9.79
-5.15
-1
2.55
5.38
7.49
8.81
9.31
8.94
7.7
5.67
3.07
0.17
-2.74
-5.49
-7.98
-10.15
-11.88
-12.96
-13.24
-12.71
-11.62
-10.43
-9.6
-9.49
-10.12
-11.31
-12.75
-14.19
-15.53
-16.76
-17.95
-19.19
-20.57
-22.26
-24.41
-27.09
-30.16
-33.19
-35.48
-36.31
-35.19
-32.04
-27.22
-21.45
-15.5
-9.95
-5.14
-1.12
2.16
4.74
6.59
7.66
7.96
7.64
6.96
6.22
5.64
5.32
5.23
5.24
5.25
5.2
5.09
4.96
4.87
4.83
4.79
4.67
4.38
3.83
2.94
1.68
0.02
-1.98
-4.19
-6.43
-8.53
-10.39
-12.05
-13.67
-15.46
-17.62
-20.16
-22.98
-25.75
-28.09
-29.53
-29.63
-28.05
-24.62
-19.54
-13.33
-6.76
-0.65
4.32
7.85
10
11.1
11.56
11.71
11.74
11.72
11.67
11.64
11.69
11.8
11.96
12.06
12.01
11.8
11.48
11.09
10.68
10.25
9.77
9.25
8.77
8.34
7.96
7.46
6.62
5.27
3.42
1.25
-0.93
-2.81
-4.27
-5.43
-6.56
-8.01
-10.03
-12.66
-15.74
-18.87
-21.56
-23.26
-23.5
-22.03
-18.84
-14.21
-8.64
-2.7
3.06
8.21
12.51
15.86
18.28
19.85
20.69
20.92
20.7
20.16
19.45
18.71
18.08
17.69
17.61
17.81
18.21
18.67
19.11
19.45
19.7
19.79
19.62
19.03
17.87
16.13
13.91
11.47
9.03
6.74
4.58
2.47
0.32
-1.91
-4.17
-6.42
-8.67
-11.01
-13.57
-16.42
-19.55
-22.8
-25.9
-28.49
-30.12
-30.36
-28.88
-25.56
-20.7
-14.85
-8.83
-3.42
0.87
3.87
5.78
6.92
7.62
8.02
8.1
7.77
7.04
6.02
4.95
4.08
3.58
3.51
3.82
4.43
5.19
5.93
6.49
6.74
6.6
6.11
5.39
4.59
3.76
2.9
1.95
0.82
-0.53
-2.06
-3.74
-5.52
-7.36
-9.22
-11.01
-12.68
-14.22
-15.72
-17.37
-19.37
-21.73
-24.16
-26.09
-26.84
-25.82
-22.89
-18.31
-12.68
-6.74
-1.1
3.84
7.89
10.98
13.12
14.34
14.76
14.55
13.95
13.25
12.68
12.42
12.58
13.15
14.03
15.01
15.85
16.39
16.62
16.66
16.7
16.82
16.96
16.9
16.39
15.33
13.78
11.98
10.22
8.63
7.16
5.63
3.92
2.03
0.18
-1.35
-2.44
-3.19
-4
-5.31
-7.38
-10.08
-12.91
-15.18
-16.22
-15.67
-13.5
-9.97
-5.53
-0.67
4.12
8.42
11.95
14.56
16.21
16.95
16.85
15.98
14.4
12.27
9.87
7.56
5.69
4.47
3.88
3.72
3.72
3.65
3.51
3.41
3.54
3.98
4.62
5.18
5.31
4.82
3.68
2.11
0.38
-1.28
-2.84
-4.34
-5.95
-7.77
-9.86
-12.23
-14.87
-17.69
-20.51
-22.94
-24.47
-24.6
-22.97
-19.61
-14.91
-9.59
-4.44
-0.12
3.04
5.03
6.06
6.45
6.47
6.25
5.85
5.25
4.5
3.67
2.91
2.39
2.18
2.31
2.64
3.07
3.47
3.79
4
4.04
3.77
3.02
1.72
-0.05
-2.01
-3.82
-5.25
-6.31
-7.28
-8.52
-10.34
-12.85
-15.93
-19.27
-22.46
-24.99
-26.39
-26.27
-24.43
-20.98
-16.31
-10.97
-5.55
-0.54
3.7
6.96
9.17
10.36
10.63
10.23
9.38
8.31
7.19
6.12
5.22
4.57
4.29
4.43
4.94
5.67
6.4
6.9
6.98
6.57
5.67
4.37
2.83
1.23
-0.29
-1.65
-2.85
-3.99
-5.22
-6.78
-8.84
-11.55
-14.91
-18.72
-22.6
-26.07
-28.64
-29.88
-29.53
-27.49
-23.88
-19.02
-13.41
-7.69
-2.42
1.97
5.36
7.87
9.78
11.29
12.51
13.4
13.93
14.13
14.14
14.14
14.3
14.7
15.33
16.13
17.02
17.94
18.78
19.49
20
20.33
20.5
20.5
20.27
19.67
18.53
16.8
14.61
12.21
9.93
7.94
6.24
4.62
2.77
0.42
-2.51
-5.93
-9.55
-12.96
-15.72
-17.45
-17.84
-16.78
-14.31
-10.67
-6.22
-1.45
3.17
7.23
10.41
12.58
13.72
13.99
13.62
12.85
11.92
11
10.27
9.86
9.84
10.22
10.89
11.69
12.4
12.88
13.06
12.91
12.45
11.66
10.5
9.01
7.26
5.44
3.71
2.12
0.58
-1.15
-3.31
-6.05
-9.32
-12.87
-16.25
-18.9
-20.36
-20.32
-18.72
-15.73
-11.74
-7.22
-2.61
1.77
5.75
9.24
12.15
14.4
15.85
16.38
15.99
14.85
13.28
11.67
10.33
9.42
8.93
8.74
8.71
8.78
8.91
9.02
9
8.64
7.76
6.27
4.24
1.86
-0.64
-3.1
-5.44
-7.71
-10
-12.45
-15.14
-18.1
-21.23
-24.24
-26.71
-28.13
