14.22
16.14
17.49
18.54
19.54
20.7
22.14
23.86
25.81
27.77
29.46
30.61
31.05
30.82
30.16
29.41
28.8
28.39
28.08
27.72
27.29
26.83
26.47
26.28
26.22
26.14
25.89
25.36
24.5
23.21
21.28
18.45
14.51
9.46
3.62
-2.5
-8.31
-13.37
-17.51
-20.78
-23.34
-25.3
-26.65
-27.27
-26.98
-25.63
-23.2
-19.75
-15.51
-10.78
-5.94
-1.33
2.8
6.35
9.34
11.86
13.98
15.76
17.19
18.28
19.07
19.66
20.13
20.46
20.53
20.11
19.06
17.33
15.1
12.7
10.41
8.42
6.71
5.13
3.45
1.59
-0.41
-2.41
-4.26
-5.89
-7.37
-8.82
-10.31
-11.82
-13.28
-14.58
-15.65
-16.53
-17.25
-17.89
-18.47
-19.04
-19.63
-20.28
-20.93
-21.46
-21.56
-20.88
-19.15
-16.28
-12.47
-8.14
-3.78
0.21
3.58
6.31
8.46
10.18
11.58
12.7
13.54
14.14
14.53
14.76
14.89
14.86
14.6
14.01
13.09
11.95
10.83
9.95
9.43
9.18
8.96
8.47
7.54
6.19
4.57
2.91
1.3
-0.28
-1.94
-3.74
-5.7
-7.74
-9.82
-11.99
-14.28
-16.7
-19.14
-21.35
-23.01
-23.88
-23.86
-23.06
-21.68
-19.99
-18.29
-16.79
-15.66
-14.99
-14.76
-14.9
-15.31
-15.88
-16.55
-17.24
-17.86
-18.33
-18.58
-18.53
-18.15
-17.42
-16.28
-14.66
-12.53
-9.85
-6.69
-3.14
0.69
4.73
8.95
13.37
18.03
22.92
28
33.03
37.63
41.24
43.32
43.51
41.86
38.81
35.09
31.48
28.54
26.51
25.33
24.78
24.64
24.8
25.2
25.8
26.44
26.86
26.73
25.73
23.71
20.69
16.96
12.99
9.36
6.54
4.74
3.82
3.34
2.75
1.72
0.32
-0.96
-1.43
-0.5
1.97
5.53
9.26
12.05
12.96
11.51
7.77
2.29
-4.13
-10.62
-16.47
-21.31
-25.13
-28.31
-31.43
-35.01
-39.26
-43.97
-48.54
-52.14
-54.04
-53.83
-51.47
-47.16
-41.21
-33.77
-24.88
-14.53
-2.92
9.38
21.33
31.48
38.37
40.8
38.25
30.91
19.64
5.89
-8.5
-21.41
-30.8
-35.03
-33.31
-25.97
-14.37
-0.52
13.47
25.89
35.74
42.63
46.62
47.99
47.1
44.28
39.79
33.73
26.13
17.08
6.89
-3.85
-14.32
-23.73
-31.43
-37.11
-40.77
-42.62
-42.99
-42.13
-40.3
-37.71
-34.62
-31.36
-28.42
-26.31
-25.4
-25.82
-27.3
-29.31
-31.22
-32.56
-33.17
-33.21
-32.99
-32.87
-33.08
-33.71
-34.68
-35.78
-36.68
-36.94
-36.21
-34.34
-31.53
-28.25
-25.06
-22.34
-20.12
-18.13
-15.98
-13.39
-10.31
-6.84
-3.11
0.81
4.91
9.03
12.8
15.67
17.09
16.78
14.87
11.81
8.19
4.51
1.12
-1.7
-3.72
-4.75
-4.7
-3.73
-2.28
-0.89
0.02
0.3
0.1
-0.33
-0.8
-1.39
-2.36
-4.04
-6.58
-9.84
-13.5
-17.11
-20.36
-23.15
-25.5
-27.47
-28.98
-29.82
-29.69
-28.27
-25.43
-21.22
-15.94
-10.01
-3.81
2.49
8.99
16.05
24.05
33.06
42.74
52.18
60.28
66.02
68.79
68.58
65.81
61.18
55.39
48.99
42.43
36.1
30.33
25.33
21.13
17.52
14.15
10.63
6.79
2.71
-1.25
-4.66
-7.26
-9.08
-10.48
-11.95
-13.88
-16.32
-19.07
-21.63
-23.44
-24.1
-23.4
-21.43
-18.48
-14.97
-11.37
-8.13
-5.51
-3.58
-2.18
-1.01
0.25
1.78
3.53
5.26
6.64
7.47
7.75
7.68
7.56
7.63
7.95
8.43
8.92
9.3
9.54
9.61
9.47
9.01
8.1
6.7
4.9
2.89
0.92
-0.84
-2.32
-3.53
-4.47
-5.14
-5.41
-5.17
-4.32
-2.88
-1.01
1
2.84
4.25
5.07
5.3
5.02
4.34
3.45
2.55
1.88
1.62
1.81
2.23
2.43
1.95
0.5
-1.85
-4.67
-7.41
-9.67
-11.37
-12.81
-14.37
-16.37
-18.79
-21.4
-23.91
-26.11
-28.03
-29.8
-31.54
-33.26
-34.82
-35.98
-36.54
-36.39
-35.54
-34.16
-32.48
-30.79
-29.36
-28.3
-27.62
-27.14
-26.65
-25.96
-25.03
-23.93
-22.85
-22.02
-21.67
-21.99
-23.16
-25.23
-28.12
-31.41
-34.32
-35.6
-33.79
-27.59
-16.48
-1
17.11
35.42
51.49
63.59
71.11
74.36
74.22
71.61
67.29
61.8
55.6
49.24
43.22
37.93
33.55
29.91
26.68
23.5
20.13
16.5
12.82
9.36
6.42
4.16
2.43
0.81
-1.23
-4.09
-7.74
-11.6
-14.65
-15.74
-14.03
-9.21
-1.65
7.81
18.15
28.43
38.01
46.61
54.19
60.85
66.62
71.39
74.91
76.88
77.06
75.44
72.17
67.6
62.12
56.12
49.91
43.78
37.95
32.5
27.27
21.89
16
9.46
2.59
-3.84
-8.87
-11.71
-12.13
-10.67
-8.62
-7.69
-9.45
-14.7
-23.06
-32.9
-41.75
-47.15
-47.32
-41.8
-31.36
-17.74
-3.09
10.51
21.38
28.43
31.36
30.66
27.44
22.99
18.33
13.87
9.4
4.49
-1.13
-7.24
-13.07
-17.47
-19.27
-17.62
-12.23
-3.55
7.38
19.09
30.14
39.49
46.64
51.63
54.81
56.53
57.1
56.78
55.8
54.39
52.65
50.39
47.2
42.57
36.26
28.45
19.76
10.95
2.59
-5.24
-12.79
-20.4
-28.15
-35.71
-42.42
-47.64
-51
-52.61
-53.08
-53.46
-55.01
-58.86
-65.5
-74.48
-84.32
-93
-98.67
-100.5
-98.9
-95.12
-90.6
-86.06
-81.49
-76.42
-70.57
-64.34
-58.62
-54.28
-51.58
-49.95
-48.29
-45.66
-41.85
-37.51
-33.87
-32.06
-32.55
-34.85
-37.96
-40.79
-42.75
-43.82
-44.28
-44.14
-42.95
-39.93
-34.55
-26.99
-18.17
-9.24
-0.97
6.59
13.73
20.44
25.97
29.09
28.93
25.86
21.63
18.68
18.83
22.23
27.31
31.58
33.03
31.19
27.18
22.97
20.35
20.07
21.63
23.78
25.21
25.15
23.68
21.6
20.01
19.82
21.44
24.69
28.99
33.38
36.47
36.41
31.18
19.3
0.87
-21.81
-44.48
-62.19
-71.07
-69.88
-60.3
-46.09
-31.3
-18.88
-9.99
-4.41
-1.42
-0.58
-1.76
-4.91
-9.6
-14.9
-19.75
-23.37
-25.68
-27.29
-29.16
-32.05
-36.1
-40.77
-45.03
-47.79
-48.43
-46.98
-44.15
-40.97
-38.32
-36.54
-35.24
-33.53
-30.37
-25.03
-17.42
-8.2
1.41
10
16.52
20.59
22.76
24.31
26.79
31.28
37.82
45.29
51.78
55.48
55.49
52.21
47.02
41.5
36.63
32.47
28.35
23.59
18.06
12.4
7.68
4.88
4.34
5.67
8.09
10.81
13.33
15.57
17.63
19.55
21.23
22.37
22.72
22.26
21.26
20.16
19.36
18.96
18.77
18.48
17.9
17.15
16.64
16.76
17.59
18.71
19.26
18.37
15.52
10.73
4.35
-3.22
-11.75
-21.14
-31.11
-41.03
-50.01
-57.22
-62.3
-65.4
-66.68
-65.75
-61.4
-52.24
-37.74
-19.36
-0.53
14.4
22.09
21.83
15.81
8.09
2.52
1.13
3.42
7.27
10.33
11.35
10.61
9.29
8.55
8.76
9.36
9.33
7.94
5.18
1.77
-1.23
-3.05
-3.61
-3.48
-3.65
-4.96
-7.69
-11.47
-15.48
-18.84
-21
-21.91
-21.95
-21.67
-21.56
-21.83
-22.41
-23.11
-23.73
-24.24
-24.82
-25.84
-27.66
-30.39
-33.69
-36.66
-38.01
-36.49
-31.24
-22.19
-9.97
4.33
19.59
35.02
50.26
65.13
79.31
92.11
102.54
109.56
112.61
111.75
107.73
101.6
94.36
86.6
78.56
70.25
61.83
53.66
46.29
40.16
35.41
31.77
28.73
25.73
22.44
18.84
15.14
11.67
8.72
6.42
4.73
3.44
2.29
1.05
-0.43
-2.11
-3.89
-5.54
-6.91
-7.88
-8.47
-8.74
-8.8
-8.77
-8.8
-8.99
-9.38
-9.97
-10.63
-11.28
-11.87
-12.42
-13.07
-13.88
-14.83
-15.72
-16.29
-16.25
-15.44
-13.91
-11.81
-9.45
-7.11
-5.01
-3.28
-1.98
-1.08
-0.56
-0.4
-0.57
-1.05
-1.78
-2.69
-3.66
-4.61
-5.46
-6.15
-6.7
-7.08
-7.36
-7.56
-7.76
-8.03
-8.4
-8.9
-9.46
-10.04
-10.53
-10.9
-11.15
-11.28
-11.31
-11.23
-11.01
-10.57
-9.9
-8.97
-7.83
-6.48
-5
-3.46
-1.97
-0.65
0.38
1.05
1.35
1.33
1.08
0.66
0.13
-0.45
-1.05
-1.58
-2.02
-2.33
-2.5
-2.54
-2.48
-2.41
-2.38
-2.44
-2.58
-2.71
-2.67
-2.34
-1.72
-0.98
-0.4
-0.31
-0.9
-2.15
-3.81
-5.5
-6.75
-7.25
-6.85
-5.65
-3.91
-1.97
-0.14
1.36
2.41
3
3.16
2.96
2.49
1.84
1.11
0.35
-0.47
-1.43
-2.57
-3.92
-5.46
-7.08
-8.67
-10.14
-11.44
-12.54
-13.48
-14.33
-15.23
-16.28
-17.54
-18.92
-20.23
-21.34
-22.2
-22.99
-24
-25.41
-27.19
-28.97
-30.33
-30.98
-31.07
-31.21
-32.27
-35.06
-39.93
-46.6
-54.1
-60.85
-64.88
-64.18
-57.11
-42.79
-21.51
5.18
34.57
63.48
88.98
109.05
122.94
130.99
134.24
133.85
130.83
125.84
119.35
111.73
103.26
94.11
84.28
73.66
62.18
49.98
37.5
25.36
14.23
4.69
-2.91
-8.37
-11.68
-13
-12.63
-11.08
-8.93
-6.77
-5.02
-3.85
-3.27
-3.14
-3.35
-3.9
-4.87
-6.33
-8.16
-10.13
-11.88
-13.12
-13.75
-13.96
-14.1
-14.5
-15.31
-16.39
-17.46
-18.21
-18.53
-18.58
-18.64
-19
-19.75
-20.78
-21.89
-22.94
-23.93
-24.93
-26.02
-27.06
-27.82
-27.98
-27.37
-26.09
-24.42
-22.72
-21.23
-20
-18.91
-17.84
-16.76
-15.84
-15.28
-15.23
-15.55
-15.98
-16.11
-15.65
-14.49
-12.7
-10.5
-8.09
-5.59
-3.1
-0.66
1.69
3.86
5.74
7.2
8.08
8.21
7.49
5.92
3.6
0.73
-2.47
-5.88
-9.48
-13.4
-17.72
-22.35
-27.02
-31.21
-34.38
-36.08
-36.15
-34.72
-32.1
-28.58
-24.25
-18.96
-12.5
-4.97
3.1
10.82
17.16
21.48
23.65
24.04
23.24
21.94
20.88
20.87
22.72
26.8
32.59
38.52
42.41
42.33
37.65
29.26
19.17
9.44
1.27
-5.33
-11.18
-17.11
-23.51
-30.06
-35.87
-39.74
-40.41
-37.02
-29.48
-18.92
-7.55
1.99
7.62
8.69
6.19
2.08
-1.65
-3.76
-4.02
-2.84
-0.84
1.42
3.42
4.55
4.13
1.67
-2.84
-8.74
-14.82
-19.49
-21.19
-18.7
-11.52
-0.09
14.04
28.43
40.3
47.33
48.48
44.26
36.49
27.5
19.23
12.65
7.7
3.72
0.01
-3.74
-7.49
-11.05
-14.4
-17.67
-20.99
-24.24
-26.92
-28.38
-28.13
-26.19
-23.12
-19.87
-17.3
-15.82
-15.33
-15.31
-15.2
-14.67
-13.73
-12.65
-11.68
-10.83
-9.86
-8.46
-6.5
-4.11
-1.62
0.74
2.95
5.07
7.04
8.45
8.59
6.97
3.73
-0.2
-3.38
-4.54
-3.22
0.03
4
7.44
9.68
10.77
11.25
11.69
12.28
12.93
13.4
13.6
13.63
13.76
14.12
14.58
14.81
14.43
13.15
10.99
8.24
5.32
2.64
0.45
-1.15
-2.22
-2.89
-3.33
-3.62
-3.78
-3.81
-3.71
-3.55
-3.43
-3.48
-3.67
-3.92
-4.04
-3.93
-3.63
-3.34
-3.26
-3.54
-4.12
-4.79
-5.33
-5.64
-5.77
-5.87
-6.11
-6.56
-7.26
-8.2
-9.33
-10.58
-11.66
-12.18
-11.72
-10
-7.12
-3.44
0.45
3.97
6.76
8.69
9.88
10.47
10.66
10.55
10.24
9.78
9.28
8.81
8.46
8.21
8.03
7.82
7.48
6.99
6.38
5.73
5.08
4.39
3.59
2.61
1.48
0.34
-0.67
-1.51
-2.32
-3.37
-4.96
-7.25
-10.08
-13
-15.35
-16.53
-16.11
-14.1
-10.91
-7.24
-3.96
-1.88
-1.59
-3.26
-6.61
-10.9
-15.09
-18.19
-19.5
-18.89
-16.75
-13.7
-10.26
-6.67
-2.91
1
4.67
7.3
7.94
5.93
1.34
-4.97
-11.66
-17.47
-21.62
-24.05
-25.22
-25.8
-26.39
-27.27
-28.4
-29.48
-30.1
-29.77
-28.13
-24.94
-20.21
-14.14
-7.03
0.69
8.59
16.13
22.76
28
31.56
33.48
34.08
33.86
33.3
32.63
31.89
30.98
29.8
28.36
26.79
25.24
23.85
22.64
21.56
20.53
19.41
18.06
16.37
14.3
11.9
9.34
6.79
4.34
1.93
-0.62
-3.51
-6.73
-10.05
-12.99
-15
-15.61
-14.67
-12.3
-8.87
-4.84
-0.63
3.44
7.13
10.24
12.6
14.11
14.75
14.63
13.96
13.04
12.14
11.46
11.05
10.84
10.72
10.59
10.43
10.24
10.06
9.9
9.67
9.26
8.56
7.5
6.12
4.49
2.69
0.77
-1.25
-3.32
-5.37
-7.37
-9.35
-11.44
-13.79
-16.46
-19.26
-21.68
-23.05
-22.75
-20.49
-16.45
-11.28
-5.81
-0.83
3.24
6.32
8.55
10.19
11.34
11.97
12.04
11.55
10.69
9.76
9.06
8.71
8.69
8.79
8.89
9.02
9.36
10.06
11.06
12.05
12.5
11.97
10.28
7.63
4.46
1.22
-1.79
-4.47
-6.84
-8.99
-10.95
-12.88
-15
-17.58
-20.69
-24.08
-27.09
-28.82
-28.49
-25.78
-20.96
-14.84
-8.37
-2.4
2.62
6.6
9.7
12.11
13.91
15.05
15.47
15.18
14.37
13.38
12.53
12.09
12.06
12.33
12.64
12.84
12.87
12.82
12.82
12.92
13.04
12.97
12.44
11.25
9.36
6.88
4.06
1.19
-1.54
-4.03
-6.31
-8.55
-10.93
-13.7
-17
-20.86
-25.03
-28.99
-31.99
-33.26
-32.29
-28.98
-23.77
-17.46
-10.9
-4.78
0.58
5.14
8.96
12.03
14.25
15.51
15.83
15.48
14.86
14.38
14.25
14.47
14.79
15
14.95
14.71
14.42
14.25
14.24
14.27
14.11
13.53
12.36
10.58
8.31
5.73
3.03
0.31
-2.38
-5
-7.54
-9.98
-12.37
-14.82
-17.53
-20.57
-23.77
-26.67
-28.5
-28.53
-26.28
-21.75
-15.44
-8.14
-0.67
6.35
12.56
17.71
21.58
23.9
24.53
23.57
21.51
19.12
17.17
16.22
16.37
17.39
18.87
20.5
22.18
23.96
25.98
28.29
30.82
33.42
35.95
38.25
40.16
41.54
42.32
42.46
42.04
41.22
40.15
38.93
37.46
35.49
32.58
28.28
22.25
14.38
4.95
-5.32
-15.29
-23.68
-29.32
-31.62
-30.78
-27.77
-23.96
-20.6
-18.37
-17.23
-16.55
-15.59
-13.83
-11.19
-7.92
-4.42
-1.03
1.93
4.17
5.43
5.46
4.3
2.27
-0.04
-2.04
-3.35
-4.01
-4.43
-5.15
-6.56
-8.73
-11.42
-14.36
-17.44
-20.77
-24.51
-28.69
-32.96
-36.8
-39.81
-42
-43.89
-46.27
-49.68
-54.04
-58.53
-61.9
-63.03
-61.34
-56.99
-50.69
-43.38
-35.82
-28.47
-21.46
-14.76
-8.34
-2.33
2.98
7.26
10.33
12.23
13.31
14
14.63
15.32
15.95
16.36
16.6
16.99
18.07
20.31
23.77
27.98
31.97
34.69
35.33
33.72
30.33
26.1
22.04
18.87
16.83
15.66
14.86
13.9
12.46
10.48
8.21
6.07
4.63
4.43
5.95
9.32
14.29
20.22
26.24
31.55
35.66
38.43
39.98
40.43
39.71
37.6
33.89
28.66
22.38
15.76
9.54
4.27
0.24
-2.39
-3.47
-2.91
-0.79
2.42
5.9
8.71
10.11
9.88
8.26
5.82
3.16
0.76
-1.05
-2.03
-2.04
-1.16
0.19
1.34
1.47
0.01
-3.15
-7.52
-12.17
-16.02
-18.24
-18.35
-16.36
-12.63
-7.75
-2.28
3.24
8.39
12.9
16.58
19.37
21.3
22.4
22.76
22.39
21.33
19.58
17.28
14.63
11.97
9.63
7.84
6.58
5.67
4.78
3.6
1.86
-0.55
-3.57
-6.98
-10.3
-12.86
-13.97
-13.27
-11.07
-8.42
-6.81
-7.62
-11.44
-17.74
-25.03
-31.36
-35.04
-35.1
-31.48
-24.83
-16.27
-7.02
1.77
9.22
14.82
18.48
20.44
21.11
20.89
20.06
18.84
17.41
15.99
14.87
14.42
15.01
16.93
20.33
25.1
30.81
36.69
41.72
44.88
45.34
42.75
37.2
29.2
19.4
8.52
-2.76
-13.86
-24.13
-32.94
-39.61
-43.53
-44.27
-41.74
-36.33
-28.9
-20.62
-12.62
-5.78
-0.47
3.38
6.04
7.68
8.4
8.19
7.18
5.75
4.38
3.44
2.99
2.71
2.17
1.08
-0.51
-2.29
-3.82
-4.91
-5.62
-6.25
-7.15
-8.51
-10.3
-12.3
-14.29
-16.16
-17.97
-19.9
-21.99
-24.12
-25.85
-26.55
-25.59
-22.55
-17.41
-10.6
-2.84
5.01
12.19
18.19
22.77
25.95
27.87
28.73
28.79
28.27
27.42
26.48
25.59
24.81
24.06
23.16
21.94
20.29
18.22
15.84
13.33
10.87
8.58
6.5
4.61
2.85
1.12
-0.67
-2.59
-4.67
-6.9
-9.14
-11.15
-12.53
-12.82
-11.62
-8.75
-4.38
0.94
6.43
11.23
14.59
16.13
15.8
13.89
10.93
7.44
3.87
0.46
-2.69
-5.62
-8.29
-10.61
-12.37
-13.39
-13.65
-13.28
-12.6
-11.95
-11.59
-11.58
-11.86
-12.26
-12.67
-13.06
-13.44
-13.82
-14.12
-14.3
-14.39
-14.55
-15.06
-16.08
-17.51
-18.86
-19.35
-18.22
-15.09
-10.09
-3.91
2.57
8.56
13.54
17.37
20.09
21.73
22.32
21.82
20.36
18.25
15.99
14.11
12.96
12.57
12.65
12.73
12.3
11.04
8.86
5.89
2.39
-1.36
-5.14
-8.84
-12.41
-15.94
-19.49
-23.22
-27.24
-31.59
-36.21
-40.81
-44.99
-48.19
-49.9
-49.68
-47.36
-43.04
-37.22
-30.73
-24.51
-19.42
-15.96
-14.17
-13.8
-14.42
-15.66
-17.13
-18.34
-18.7
-17.58
-14.66
-10.18
-4.99
-0.19
3.33
5.35
6.31
7.07
8.28
10.11
12.19
13.84
14.5
13.9
12.2
9.76
7.03
4.44
2.32
0.93
0.46
1.06
2.74
5.41
8.8
12.51
16.04
18.94
20.89
21.77
21.68
20.89
19.67
18.29
16.9
15.58
14.37
13.33
12.48
11.86
11.42
11.05
10.57
9.84
8.76
7.35
5.74
4.04
2.34
0.58
-1.34
-3.59
-6.25
-9.24
-12.37
-15.3
-17.63
-18.91
-18.76
-16.94
-13.46
-8.6
-2.95
2.8
8.03
12.33
15.57
17.86
19.36
20.23
20.53
20.31
19.66
18.72
17.67
16.7
15.89
15.23
14.63
13.96
13.11
12
10.62
8.98
7.14
5.2
3.31
1.59
0.06
-1.4
-3.01
-4.97
-7.37
-10.11
-12.85
-15.18
-16.63
-16.85
-15.64
-13
-9.08
-4.19
1.29
6.95
12.42
17.38
21.58
24.92
27.39
29.13
30.46
31.85
33.76
36.48
39.87
43.28
45.55
45.29
41.23
32.62
19.63
3.5
-13.71
-29.51
-41.64
-48.77
-50.76
-48.74
-44.66
-40.81
-39.16
-40.87
-46.06
-53.79
-62.3
-69.45
-73.22
-72.25
-66.13
-55.47
-41.69
-26.61
-12.08
0.46
10.15
16.87
21.08
23.61
25.27
26.62
27.78
28.5
28.38
27.19
24.93
21.97
18.85
16.14
14.27
13.46
13.63
14.47
15.47
16.15
16.12
15.32
13.87
12.04
10.04
7.97
5.78
3.29
0.44
-2.76
-6.08
-9.12
-11.38
-12.39
-11.78
-9.45
-5.59
-0.69
4.56
9.46
13.47
16.28
17.88
18.38
18.03
17.06
15.7
14.16
12.69
11.46
10.63
10.23
10.19
10.33
10.41
10.25
9.71
8.77
7.5
5.98
4.33
2.64
1.03
-0.44
-1.72
-2.86
-3.97
-5.26
-6.94
-9.18
-11.99
-15.17
-18.33
-20.92
-22.4
-22.32
-20.51
-17.11
-12.59
-7.64
-2.95
1.03
4.12
6.34
7.86
8.75
8.99
8.49
7.27
5.51
3.55
1.71
0.23
-0.83
-1.58
-2.15
-2.61
-2.96
-3.13
-3.03
-2.61
-1.87
-0.85
0.38
1.75
3.18
4.62
5.98
7.15
7.91
8
7.12
5.06
1.83
-2.32
-6.89
-11.23
-14.71
-16.82
-17.28
-16.05
-13.32
-9.47
-5.03
-0.55
3.44
6.58
8.74
9.96
10.47
10.51
10.29
9.94
9.58
9.28
9.2
9.46
10.12
11.12
12.35
13.68
14.98
16.24
17.41
18.43
19.18
19.52
19.34
18.63
17.45
15.85
13.91
11.59
8.87
5.7
2.1
-1.77
-5.6
-8.96
-11.41
-12.54
-12.17
-10.29
-7.2
-3.38
0.57
4.09
6.79
8.52
9.3
9.24
8.47
7.1
5.24
3.11
1.05
-0.58
-1.49
-1.65
-1.24
-0.58
0.07
0.6
1.03
1.4
1.7
1.79
1.5
0.72
-0.53
-2.1
-3.81
-5.49
-7.04
-8.47
-9.82
-11.22
-12.79
-14.63
-16.71
-18.83
-20.68
-21.84
-22
-20.96
-18.73
-15.54
-11.78
-7.9
-4.34
-1.43
0.69
2.05
2.82
3.13
3.13
2.86
2.36
1.71
1.06
0.56
0.3
0.25
0.27
0.23
0.04
-0.29
-0.64
-0.93
-1.1
-1.22
-1.41
-1.76
-2.34
-3.16
-4.28
-5.73
-7.57
-9.78
-12.18
-14.36
-15.85
-16.16
-15.07
-12.59
-9.04
-4.91
-0.74
3.04
6.12
8.32
9.59
9.97
9.61
8.73
7.51
6.15
4.76
3.46
2.36
1.59
1.21
1.21
1.41
1.52
1.27
0.57
-0.5
-1.67
-2.66
-3.39
-4.01
-4.9
-6.36
-8.54
-11.28
-14.18
-16.71
-18.41
-18.94
-18.17
-16.23
-13.37
-10.01
-6.54
-3.3
-0.46
1.9
3.75
5.05
5.75
5.77
5.06
3.69
1.84
-0.2
-2.08
-3.47
-4.17
-4.12
-3.5
-2.64
-1.9
-1.55
-1.67
-2.18
-2.95
-3.93
-5.18
-6.81
-8.85
-11.18
-13.56
-15.68
-17.24
-18.08
-18.15
-17.46
-16.05
-13.98
-11.35
-8.35
-5.24
-2.37
-0.06
1.48
2.19
2.19
1.74
1.16
0.72
0.58
0.82
1.45
2.49
4.01
6.12
8.9
12.38
16.48
21.04
25.81
30.47
34.58
37.67
39.21
38.84
36.43
32.22
26.79
20.92
15.35
10.52
6.38
2.44
-2.01
-7.49
-14.07
-21.26
-28.16
-33.79
-37.45
-38.9
-38.38
-36.42
-33.58
-30.34
-27
-23.8
-20.95
-18.69
-17.2
-16.5
-16.38
-16.46
-16.35
-15.79
-14.84
-13.79
-13.06
-12.94
-13.51
-14.64
-16.08
-17.7
-19.52
-21.65
-24.12
-26.71
-28.82
-29.68
-28.55
-25.04
-19.36
-12.15
-4.37
3.14
9.81
15.45
20.05
23.66
26.24
27.67
27.94
27.26
26
24.66
23.56
22.81
22.19
21.39
20.15
18.39
16.26
13.97
11.72
9.6
7.59
5.61
3.57
1.39
-1.01
-3.74
-6.85
-10.3
-13.91
-17.35
-20.19
-22.02
-22.54
-21.62
-19.31
-15.82
-11.46
-6.63
-1.79
2.6
6.16
8.66
10.06
10.54
10.39
9.93
9.41
8.95
8.59
8.34
8.25
8.35
8.64
9.02
9.3
9.28
8.9
8.2
7.32
6.32
5.17
3.73
1.87
-0.39
-2.85
-5.23
-7.27
-8.95
-10.46
-12.08
-14.01
-16.19
-18.29
-19.78
-20.18
-19.17
-16.7
-12.99
-8.45
-3.57
1.12
5.21
8.41
10.59
11.85
12.33
12.26
11.81
11.12
10.36
9.71
9.4
9.57
10.21
11.09
11.9
12.32
12.21
11.64
10.79
9.89
9.06
8.28
7.44
6.42
5.14
3.56
1.76
-0.12
-1.9
-3.45
-4.69
-5.69
-6.68
-7.89
-9.57
-11.76
-14.34
-16.92
-19.02
-20.09
-19.69
-17.63
-14
-9.19
-3.8
1.46
6.03
9.56
11.96
13.35
13.93
13.88
13.34
12.47
11.42
10.41
9.64
9.2
9.11
9.23
9.37
9.34
9.06
8.49
7.72
6.83
5.87
4.81
3.59
2.11
0.38
-1.48
-3.22
-4.56
-5.37
-5.68
-5.7
-5.67
-5.76
-6
-6.35
-6.82
-7.41
-8.12
-8.79
-9.1
-8.65
-7.22
-4.85
-1.84
1.41
4.6
7.58
10.28
12.62
14.43
15.52
15.89
15.77
15.65
16.03
17.28
19.44
22.28
25.45
28.55
31.28
33.38
34.7
35.18
34.88
33.99
32.73
31.35
29.99
28.72
27.53
26.3
24.86
22.98
20.46
17.13
13
8.16
2.9
-2.39
-7.22
-11.09
-13.59
-14.48
-13.82
-12.02
-9.76
-7.71
-6.44
-6.2
-6.91
-8.33
-10.11
-12.05
-14.01
-16.01
-18.03
-20.02
-21.9
-23.55
-24.87
-25.82
-26.39
-26.58
-26.41
-25.88
-25.08
-24.18
-23.43
-23.1
-23.37
-24.22
-25.47
-26.82
-28.06
-29.12
-30.1
-31.2
-32.62
-34.43
-36.53
-38.65
-40.38
-41.29
-40.93
-39.07
-35.67
-31
-25.52
-19.76
-14.16
-8.98
-4.25
0.08
4.04
7.57
10.53
12.81
14.39
15.41
16.11
16.69
17.22
17.56
17.46
16.67
15.16
13.15
11.09
9.4
8.35
7.83
7.45
6.77
5.49
3.64
1.5
-0.53
-2.21
-3.49
-4.59
-5.77
-7.28
-9.23
-11.58
-14.1
-16.48
-18.33
-19.29
-19.13
-17.84
-15.61
-12.79
-9.71
-6.65
-3.75
-1.12
1.16
2.96
4.15
4.5
3.82
2.05
-0.56
-3.34
-5.33
-5.63
-3.87
-0.43
3.69
7.3
9.67
10.77
11.15
11.53
12.28
13.21
13.79
13.56
12.4
10.66
8.88
7.56
6.85
6.6
6.4
5.9
4.87
3.31
1.36
-0.76
-2.86
-4.8
-6.44
-7.59
-8.01
-7.4
-5.6
-2.67
1.03
4.99
8.61
11.42
13.16
13.73
13.19
11.69
9.49
6.96
4.55
2.66
1.55
1.18
1.3
1.57
1.78
1.87
1.94
2.16
2.55
3.01
3.33
3.31
2.81
1.83
0.45
-1.21
-2.98
-4.69
-6.18
-7.36
-8.21
-8.84
-9.38
-10
-10.85
-12.04
-13.6
-15.41
-17.17
-18.43
-18.7
-17.63
-15.13
-11.49
-7.23
-2.95
0.82
3.76
5.73
6.75
6.94
6.45
5.46
4.18
2.87
1.77
1.02
0.62
0.42
0.18
-0.24
-0.82
-1.31
-1.43
-1.05
-0.31
0.36
0.58
0.21
-0.49
-0.97
-0.66
0.76
3.25
6.45
9.87
12.99
15.35
16.56
16.38
14.82
12.31
9.58
7.49
6.52
6.45
6.22
4.35
-0.39
-8.24
-18.26
-28.51
-36.85
-41.79
-42.9
-40.81
-36.71
-31.78
-26.79
-22.1
-17.74
-13.64
-9.71
-5.78
-1.68
2.66
7.13
11.43
15.14
17.93
19.63
20.28
19.97
18.88
17.14
15.02
12.81
10.91
9.55
8.71
8.15
7.49
6.44
4.95
3.29
1.91
1.27
1.68
3.19
5.6
8.54
11.63
14.55
17.05
19.07
20.6
21.65
22.28
22.52
22.37
21.91
21.19
20.35
19.56
18.96
18.59
18.42
18.29
18.02
17.53
16.78
15.84
14.82
13.78
12.71
11.54
10.19
8.59
6.75
4.72
2.57
0.35
-1.97
-4.46
-7.2
-10.2
-13.31
-16.2
-18.44
-19.57
-19.36
-17.8
-15.18
-11.94
-8.57
-5.45
-2.83
-0.81
0.59
1.37
1.47
0.84
-0.53
-2.53
-4.87
-7.19
-9.09
-10.33
-10.83
-10.72
-10.22
-9.56
-8.94
-8.51
-8.33
-8.39
-8.61
-8.84
-8.94
-8.84
-8.62
-8.48
-8.73
-9.55
-10.91
-12.46
-13.55
-13.44
-11.52
-7.58
-1.93
4.7
11.33
17.05
21.25
23.63
24.14
22.88
19.98
15.63
10.12
4.01
-2.03
-7.33
-11.43
-14.24
-16
-17.1
-17.88
-18.5
-18.91
-18.97
-18.61
-17.83
-16.81
-15.74
-14.84
-14.27
-14.16
-14.6
-15.65
-17.27
-19.22
-21.15
-22.6
-23.14
-22.49
-20.61
-17.71
-14.13
-10.29
-6.53
-3.12
-0.21
2.11
3.79
4.83
5.3
5.33
5.03
4.49
3.78
2.96
2.17
1.61
1.45
1.71
2.26
2.81
3.07
2.88
2.27
1.35
0.27
-0.94
-2.38
-4.21
-6.57
-9.49
-12.8
-16.18
-19.15
-21.23
-22.01
-21.28
-19.05
-15.6
-11.35
-6.77
-2.33
1.62
4.85
7.22
8.72
9.46
9.59
9.34
8.92
8.47
8.09
7.8
7.58
7.46
7.46
7.6
7.87
8.18
8.35
8.14
7.36
5.98
4.12
1.99
-0.17
-2.27
-4.31
-6.4
-8.57
-10.8
-13
-15.1
-17.08
-18.96
-20.6
-21.73
-21.92
-20.67
-17.76
-13.27
-7.7
-1.79
3.68
8.16
11.4
13.51
14.78
15.55
16.07
16.46
16.71
16.78
16.68
16.53
16.47
16.62
16.97
17.36
17.59
17.48
16.99
16.25
15.45
14.75
14.16
13.52
12.62
11.31
9.59
7.63
5.66
3.9
2.44
1.24
0.13
-1.08
-2.61
-4.61
-7.07
-9.88
-12.75
-15.25
-16.94
-17.42
-16.46
-14
-10.24
-5.51
-0.35
4.75
9.27
12.89
15.46
17.05
17.86
18.17
18.26
18.31
18.45
18.69
18.99
19.3
19.61
19.92
20.29
20.66
20.95
21.02
20.72
19.99
18.94
17.78
16.73
15.92
15.28
14.59
13.64
12.31
10.69
9.01
7.52
6.28
5.17
3.92
2.27
0.14
-2.36
-4.98
-7.42
-9.42
-10.73
-11.18
-10.55
-8.71
-5.65
-1.6
2.94
7.34
10.98
13.47
14.71
14.87
14.22
13.08
11.66
10.15
8.73
7.6
6.94
6.84
7.25
7.96
8.74
9.41
9.86
10.08
10.02
9.58
8.65
7.17
5.22
3.04
0.94
-0.85
-2.24
-3.41
-4.64
-6.19
-8.23
-10.74
-13.56
-16.47
-19.17
-21.31
-22.53
-22.42
-20.74
-17.48
-13.01
-7.96
-3.07
1.1
4.29
6.55
8.15
9.32
10.16
10.64
10.66
10.2
9.41
8.61
8.12
8.18
8.8
9.78
10.81
11.65
12.27
12.78
13.42
14.27
15.28
16.14
16.52
16.22
15.27
13.91
12.41
10.98
9.6
8.1
6.19
3.69
0.56
-3.02
-6.66
-9.87
-12.12
-13.02
-12.38
-10.29
-7.09
-3.27
0.64
4.23
7.21
9.48
11.06
12.04
12.55
12.71
12.6
12.27
11.76
11.11
10.4
9.71
9.11
8.58
8.04
7.45
6.78
6.08
5.46
4.97
4.55
4.05
3.25
2.05
0.44
-1.42
-3.31
-5.04
-6.5
-7.69
-8.72
-9.71
-10.86
-12.29
-14.1
-16.27
-18.65
-20.99
-22.92
-24.07
-24.14
-22.95
-20.54
-17.19
-13.3
-9.34
-5.71
-2.67
-0.23
1.75
3.47
5.07
6.58
7.87
8.74
9.07
8.92
8.47
8.03
7.82
7.9
8.18
8.45
8.54
8.4
8.12
7.83
7.56
7.19
6.51
5.39
3.83
2.05
0.38
-0.86
-1.56
-1.8
-1.79
-1.82
-2.08
-2.69
-3.79
-5.46
-7.82
-10.86
-14.43
-18.19
-21.71
-24.64
-26.73
-27.96
-28.38
-28.07
-27.05
-25.32
-22.94
-20.1
-17.1
-14.25
-11.73
-9.5
-7.38
-5.19
-2.87
-0.62
1.33
2.79
3.79
4.55
5.31
6.23
7.24
8.13
8.63
8.6
8.06
7.11
5.92
4.62
3.29
1.96
0.71
-0.41
-1.3
-1.91
-2.22
-2.26
-2.19
-2.2
-2.47
-3.11
-4.1
-5.31
-6.51
-7.57
-8.42
-9.08
-9.63
-10.18
-10.85
-11.76
-13.04
-14.66
-16.35
-17.62
-17.9
-16.75
-14.07
-10.19
-5.78
-1.57
1.86
4.23
5.58
6.15
6.23
6.09
5.86
5.6
5.28
4.77
3.93
2.67
1.09
-0.61
-2.11
-3.15
-3.64
-3.69
-3.53
-3.4
-3.44
-3.71
-4.15
-4.68
-5.21
-5.68
-6.02
-6.26
-6.54
-7.1
-8.15
-9.78
-11.91
-14.17
-16.18
-17.63
-18.35
-18.45
-18.18
-17.91
-17.97
-18.56
-19.66
-20.97
-21.97
-22.03
-20.63
-17.52
-12.8
-6.93
-0.59
5.43
10.44
13.91
15.62
15.67
14.52
12.86
11.47
11.01
11.83
13.9
16.79
19.88
22.5
24.19
24.78
24.43
23.51
22.4
21.33
20.35
19.34
18.1
16.49
14.49
12.14
9.54
6.8
4.09
1.54
-0.64
-2.37
-3.65
-4.66
-5.64
-6.84
-8.3
-9.84
-11.09
-11.66
-11.31
-10.04
-8.03
-5.58
-2.96
-0.44
1.69
3.18
3.78
3.45
2.32
0.76
-0.77
-1.78
-1.87
-0.72
1.87
5.94
11.34
17.62
24.18
30.4
35.9
40.55
44.49
47.81
50.43
52.04
52.25
50.81
47.7
43.12
37.33
30.6
23.22
15.68
8.72
3.19
-0.28
-1.58
-1.26
-0.35
-0.01
-1.01
-3.56
-7.29
-11.5
-15.45
-18.57
-20.57
-21.35
-21.01
-19.74
-17.8
-15.56
-13.36
-11.49
-10.15
-9.39
-9.15
-9.3
-9.69
-10.19
-10.74
-11.25
-11.61
-11.71
-11.42
-10.68
-9.56
-8.2
-6.81
-5.55
-4.5
-3.64
-2.89
-2.22
-1.68
-1.4
-1.51
-2.1
-3.11
-4.26
-5.2
-5.65
-5.53
-5.01
-4.42
-4.09
-4.15
-4.59
-5.23
-5.91
-6.52
-6.99
-7.2
-6.99
-6.16
-4.6
-2.45
0
2.3
4.07
5.1
5.36
4.97
4.1
2.92
1.55
0.11
-1.31
-2.59
-3.63
-4.35
-4.71
-4.73
-4.49
-4.09
-3.6
-3.05
-2.44
-1.77
-1.14
-0.71
-0.64
-1.02
-1.8
-2.81
-3.88
-4.9
-5.86
-6.8
-7.78
-8.8
-9.8
-10.77
-11.71
-12.66
-13.56
-14.25
-14.45
-13.86
-12.36
-10.01
-7.09
-3.97
-1.01
1.56
3.59
5.03
5.87
6.11
5.84
5.16
4.25
3.31
2.51
2
1.87
2.07
2.49
2.87
2.93
2.47
1.44
-0.03
-1.73
-3.5
-5.31
-7.26
-9.51
-12.05
-14.71
-17.16
-19.04
-20.09
-20.23
-19.55
-18.26
-16.66
-15
-13.58
-12.64
-12.34
-12.69
-13.5
-14.35
-14.76
-14.32
-12.91
-10.73
-8.23
-5.95
-4.26
-3.29
-2.97
-3.08
-3.53
-4.29
-5.42
-6.85
-8.35
-9.57
-10.16
-9.98
-9.19
-8.2
-7.46
-7.28
-7.69
-8.42
-9.11
-9.47
-9.54
-9.66
-10.27
-11.7
-13.94
-16.63
-19.14
-20.92
-21.6
-21.13
-19.64
-17.38
-14.55
-11.33
-7.85
-4.28
-0.83
2.31
4.97
7.04
8.5
9.36
9.73
9.73
9.5
9.15
8.72
8.22
7.67
7.1
6.62
6.29
6.18
6.25
6.37
6.38
6.13
5.48
4.43
3.03
1.41
-0.28
-1.95
-3.53
-5.02
-6.42
-7.71
-8.9
-10.02
-11.18
-12.52
-14.07
-15.71
-17.11
-17.78
-17.28
-15.38
-12.19
-8.16
-3.94
-0.11
2.95
5.11
6.46
7.14
7.23
6.77
5.79
4.46
3.07
1.98
1.47
1.61
2.27
3.14
3.9
4.31
4.37
4.23
4.1
4.21
4.6
5.16
5.68
5.96
5.86
5.36
4.51
3.33
1.94
0.42
-1.06
-2.33
-3.28
-3.99
-4.75
-5.92
-7.85
-10.58
-13.9
-17.28
-20.06
-21.61
-21.55
-19.82
-16.74
-12.9
-8.93
-5.31
-2.27
0.21
2.31
4.18
5.86
7.25
8.17
8.49
8.21
7.49
6.59
5.81
5.35
5.3
5.59
6.1
6.67
7.19
7.62
7.91
8.04
7.93
7.51
6.62
5.2
3.18
0.64
-2.26
-5.33
-8.33
-11.12
-13.55
-15.55
-17.04
-17.92
-18.2
-17.96
-17.43
-16.82
-16.24
-15.53
-14.3
-12.12
-8.68
-4.03
1.44
7.16
12.52
17.15
20.91
23.76
25.71
26.69
26.62
25.55
23.66
21.35
19.07
17.17
15.84
15
14.5
14.16
13.94
13.84
13.92
14.09
14.19
13.98
13.26
12.03
10.5
9.1
8.29
8.37
9.4
11.13
13.13
14.92
16.13
16.58
16.32
15.6
14.82
14.44
14.82
16.17
18.42
21.26
24.28
27.1
29.45
31.31
32.71
33.71
34.19
33.94
32.74
30.54
27.54
24.26
21.31
19.25
18.33
18.29
18.42
17.62
14.76
9.03
0.24
-10.99
-23.33
-35
-44.27
-49.93
-51.66
-50.03
-46.25
-41.74
-37.66
-34.72
-33.14
-32.93
-34.01
-36.32
-39.73
-43.89
-48.13
-51.57
-53.35
-52.93
-50.2
-45.53
-39.53
-32.91
-26.16
-19.63
-13.44
-7.72
-2.63
1.64
4.93
7.2
8.58
9.36
9.82
10.21
10.58
10.93
11.24
11.51
11.79
12.11
12.46
12.74
12.84
12.69
12.25
11.52
10.49
9.09
7.29
5.08
2.63
0.16
-2.1
-4.02
-5.63
-7.18
-8.98
-11.31
-14.32
-17.86
-21.57
-24.93
-27.39
-28.48
-27.95
-25.75
-22.06
-17.25
-11.78
-6.18
-0.9
3.71
7.46
10.28
12.24
13.48
14.09
14.16
13.77
13.02
12.08
11.13
10.35
9.83
9.58
9.53
9.59
9.71
9.84
9.96
10
9.86
9.32
8.23
6.46
4.05
1.2
-1.77
-4.59
-7.09
-9.27
-11.23
-13.12
-15.08
-17.18
-19.55
-22.28
-25.4
-28.71
-31.69
-33.56
-33.54
-31.17
-26.55
-20.36
-13.51
-6.88
-0.98
4.04
8.24
11.66
14.22
15.73
16.1
15.48
14.32
13.21
12.65
12.84
13.72
15
16.37
17.61
18.65
19.57
20.47
21.45
22.51
23.55
24.38
24.77
24.52
23.61
22.2
20.58
19.11
18.04
17.4
16.97
16.4
15.35
13.65
11.39
8.9
6.65
5.12
4.66
5.39
7.14
9.47
11.69
13.02
12.8
10.69
6.82
1.75
-3.69
-8.76
-12.98
-16.25
-18.62
-20.09
-20.41
-19.1
-15.7
-10.13
-2.87
5.1
12.63
18.84
23.42
26.63
29.02
31
32.55
33.18
32.23
29.3
24.55
18.78
13.12
8.63
5.84
4.63
4.27
3.82
2.55
0.12
-3.22
-6.91
-10.19
-12.47
-13.34
-12.73
-10.79
-7.84
-4.31
-0.63
2.88
6.08
8.99
11.68
14.15
16.2
17.44
17.52
16.28
13.95
11.05
8.19
5.83
4.12
3
2.4
2.41
3.31
5.32
8.42
12.13
15.67
18.22
19.22
18.65
16.9
14.55
12.11
9.84
7.86
6.3
5.48
5.81
7.53
10.51
14.14
17.54
20.01
21.39
22.06
22.8
24.3
26.83
30.11
33.52
36.46
38.6
39.93
40.53
40.4
39.31
36.98
33.27
28.43
23.07
17.99
13.85
10.97
9.24
8.25
7.48
6.54
5.18
3.39
1.22
-1.22
-3.82
-6.52
-9.28
-12.15
-15.21
-18.61
-22.49
-26.95
-31.91
-37.08
-41.94
-45.83
-48.07
-48.15
-45.88
-41.44
-35.34
-28.3
-21.06
-14.3
-8.48
-3.92
-0.78
0.87
1.08
-0.06
-2.34
-5.38
-8.66
-11.61
-13.75
-14.86
-15.03
-14.66
-14.22
-14.12
-14.57
-15.54
-16.87
-18.43
-20.2
-22.27
-24.79
-27.85
-31.44
-35.48
-39.76
-43.92
-47.47
-49.73
-50.04
-47.93
-43.35
-36.74
-28.89
-20.75
-13.17
-6.68
-1.53
2.28
4.8
6.12
6.31
5.44
3.71
1.36
-1.21
-3.6
-5.47
-6.7
-7.37
-7.78
-8.32
-9.21
-10.51
-12.11
-13.87
-15.72
-17.77
-20.27
-23.48
-27.61
-32.66
-38.48
-44.61
-50.37
-54.97
-57.61
-57.71
-55.16
-50.34
-44.02
-37.19
-30.7
-25.13
-20.74
-17.59
-15.71
-15.2
-16.25
-18.89
-22.86
-27.43
-31.58
-34.26
-34.68
-32.56
-28.14
-22.03
-15.02
-7.97
-1.68
3.19
6.21
7.39
7.14
6.14
5.05
4.19
3.47
2.42
0.6
-2.14
-5.4
-8.28
-9.66
-8.44
-3.9
4
14.61
26.67
38.62
48.99
56.84
61.84
64.25
64.65
63.63
61.62
58.92
55.81
52.61
49.69
47.3
45.48
44.03
42.61
40.99
39.11
37.14
35.27
33.63
32.17
30.67
28.85
26.53
23.63
20.22
16.41
12.29
7.87
3.06
-2.26
-8.14
-14.39
-20.5
-25.66
-28.94
-29.56
-27.2
-22.09
-14.93
-6.71
1.63
9.31
15.83
20.97
24.68
27.09
28.41
28.87
28.74
28.19
27.35
26.28
25.04
23.73
22.48
21.4
20.55
19.9
19.34
18.71
17.87
16.76
15.33
13.58
11.54
9.23
6.75
4.19
1.71
-0.56
-2.53
-4.19
-5.51
-6.49
-7.12
-7.41
-7.42
-7.27
-7.1
-6.99
-6.93
-6.72
-5.99
-4.26
-1.06
3.95
10.81
19.18
28.44
37.75
46.28
53.38
58.6
61.71
62.6
61.23
57.61
51.89
44.43
35.8
26.78
18.16
10.7
4.86
0.8
-1.64
-2.9
-3.45
-3.76
-4.11
-4.67
-5.52
-6.74
-8.35
-10.39
-12.8
-15.42
-18.05
-20.54
-22.85
-25.08
-27.39
-29.89
-32.6
-35.42
-38.18
-40.77
-43.2
-45.61
-48.21
-51.11
-54.2
-57.11
-59.28
-60.06
-58.95
-55.76
-50.62
-43.97
-36.39
-28.38
-20.24
-12.11
-3.94
4.33
12.68
20.98
28.98
36.38
42.94
48.53
53.11
56.68
59.21
60.6
60.79
59.82
57.96
55.59
53.07
50.58
48.03
45.23
42.04
38.52
34.9
31.44
28.26
25.2
22
18.41
14.41
10.22
6.14
2.47
-0.69
-3.4
-5.89
-8.39
-11.1
-14.11
-17.38
-20.74
-23.79
-25.99
-26.78
-25.69
-22.55
-17.61
-11.45
-4.89
1.29
6.52
10.57
13.5
15.51
16.79
17.43
17.42
16.79
15.65
14.27
13.04
12.23
11.97
12.18
12.62
13.04
13.29
13.26
12.94
12.24
11.08
9.37
7.19
4.74
2.35
0.32
-1.25
-2.47
-3.7
-5.33
-7.53
-10.19
-12.77
-14.56
-14.9
-13.4
-10.1
-5.45
-0.15
4.99
9.31
12.39
14.16
14.98
15.5
16.5
18.63
22.19
27
32.52
38.07
43.03
46.99
49.76
51.24
51.41
50.26
47.86
44.36
40.08
35.36
30.61
26.14
22.19
18.83
15.96
13.36
10.77
7.96
4.9
1.7
-1.44
-4.35
-6.95
-9.29
-11.47
-13.59
-15.64
-17.6
-19.41
-21.06
-22.58
-24.01
-25.34
-26.54
-27.59
-28.47
-29.28
-30.17
-31.31
-32.77
-34.46
-36.02
-36.88
-36.43
-34.2
-30.12
-24.55
-18.19
-11.88
-6.27
-1.74
1.71
4.22
5.98
7.11
7.63
7.55
7
6.22
5.5
5.09
5.11
5.49
6.05
6.61
7.04
7.29
7.32
7.08
6.46
5.39
3.87
2.04
0.16
-1.53
-2.9
-4
-5.01
-6.14
-7.57
-9.32
-11.32
-13.42
-15.48
-17.43
-19.32
-21.27
-23.44
-25.94
-28.75
-31.61
-34.07
-35.55
-35.57
-33.96
-30.88
-26.82
-22.42
-18.25
-14.69
-11.88
-9.82
-8.43
-7.65
-7.45
-7.78
-8.56
-9.58
-10.59
-11.24
-11.23
-10.36
-8.58
-6.02
-2.97
0.32
3.65
6.98
10.37
13.88
17.57
21.38
25.15
28.64
31.61
33.87
35.31
35.96
35.9
35.27
34.14
32.54
30.42
27.76
24.56
20.86
16.82
12.65
8.67
5.27
2.83
1.62
1.72
2.91
4.78
6.85
8.66
9.93
10.54
10.47
9.74
8.41
6.57
4.37
2.09
0.05
-1.48
-2.38
-2.76
-2.92
-3.19
-3.79
-4.78
-6.02
-7.25
-8.29
-9.03
-9.5
-9.82
-10.14
-10.61
-11.33
-12.36
-13.67
-15.18
-16.76
-18.32
-19.81
-21.28
-22.83
-24.52
-26.33
-28.06
-29.37
-29.84
-29.16
-27.2
-24.08
-20.2
-16.06
-12.17
-8.87
-6.34
-4.58
-3.53
-3.13
-3.28
-3.92
-4.84
-5.8
-6.46
-6.63
-6.23
-5.42
-4.48
-3.71
-3.28
-3.19
-3.31
-3.52
-3.8
-4.21
-4.92
-6
-7.39
-8.9
-10.28
-11.43
-12.34
-13.18
-14.13
-15.35
-16.85
-18.57
-20.35
-21.97
-23.14
-23.53
-22.84
-20.9
-17.84
-14.06
-10.15
-6.66
-3.93
-2
-0.7
0.16
0.7
0.86
0.55
-0.27
-1.45
-2.71
-3.78
-4.49
-4.91
-5.26
-5.78
-6.62
-7.75
-9
-10.2
-11.23
-12.13
-13.03
-14.07
-15.32
-16.72
-18.1
-19.26
-19.97
-20.16
-19.86
-19.24
-18.49
-17.77
-17.14
-16.52
-15.7
-14.34
-12.08
-8.53
-3.47
3.02
10.5
18.1
24.78
29.59
32.02
32.16
30.67
28.46
26.31
24.54
22.99
21.27
19.06
16.35
13.4
10.58
8.02
5.56
2.84
-0.5
-4.62
-9.36
-14.31
-19.03
-23.1
-26.31
-28.58
-30.01
-30.82
-31.24
-31.47
-31.57
-31.51
-31.14
-30.45
-29.5
-28.45
-27.49
-26.72
-26.13
-25.63
-25.08
-24.39
-23.38
-21.91
-19.78
-16.93
-13.41
-9.51
-5.61
-2.06
0.93
3.34
5.29
6.84
7.97
8.59
8.57
7.96
6.98
5.96
5.18
4.81
4.81
5.03
5.31
5.49
5.56
5.54
5.47
5.35
5.13
4.68
3.88
2.69
1.21
-0.37
-1.83
-3.04
-3.97
-4.77
-5.62
-6.68
-7.89
-9.03
-9.78
-9.83
-9.05
-7.46
-5.25
-2.66
0.09
2.81
5.28
7.34
8.84
9.7
9.95
9.69
9.1
8.37
7.67
7.12
6.81
6.74
6.84
6.93
6.83
6.39
5.61
4.55
3.36
2.18
1.08
0.11
-0.76
-1.59
-2.5
-3.6
-5.05
-6.88
-9.06
-11.33
-13.35
-14.71
-15.04
-14.11
-11.94
-8.76
-4.98
-1.09
2.53
5.63
8.12
10.03
11.43
12.4
12.99
13.24
13.19
12.92
12.56
12.23
12.02
11.95
11.97
11.94
11.75
11.36
10.83
10.31
9.91
9.68
9.51
9.14
8.4
7.18
5.59
3.85
2.19
0.76
-0.34
-1.07
-1.35
-1.02
0.1
2.09
4.87
8.2
11.76
15.27
18.54
21.49
24.01
25.86
26.72
26.31
24.55
21.72
18.41
15.39
13.35
12.75
13.65
15.8
18.7
21.73
24.29
25.83
25.97
24.51
21.39
16.67
10.43
2.75
-6.26
-16.29
-26.8
-37.02
-46.13
-53.49
-58.84
-62.35
-64.34
-65
-64.08
-60.91
-54.63
-44.67
-31.1
-14.77
3.01
20.86
37.79
53.41
67.76
81.03
93.18
103.88
112.55
118.6
121.65
121.6
118.47
112.36
103.38
91.74
77.96
62.97
48
34.25
22.55
13.07
5.34
-1.43
-7.9
-14.27
-20.26
-25.31
-28.99
-31.26
-32.43
-32.9
-32.89
-32.46
-31.75
-31.22
-31.65
-33.74
-37.5
-41.97
-45.28
-45.45
-41.27
-32.94
-21.98
-10.6
-0.62
7.17
13.11
18.15
23.15
28.35
33.3
37.35
39.97
41.16
41.32
40.91
40.14
38.85
36.62
33.15
28.52
23.16
17.7
12.65
8.21
4.29
0.65
-2.9
-6.44
-9.92
-13.27
-16.45
-19.45
-22.29
-24.9
-27.19
-29.06
-30.48
-31.57
-32.53
-33.61
-34.94
-36.47
-38.04
-39.4
-40.29
-40.5
-39.89
-38.32
-35.71
-32.09
-27.64
-22.74
-17.9
-13.6
-10.16
-7.61
-5.73
-4.2
-2.71
-1.15
0.36
1.6
2.36
2.59
2.48
2.29
2.24
2.36
2.47
2.33
1.8
0.93
-0.07
-0.98
-1.71
-2.34
-3.1
-4.14
-5.51
-7.09
-8.7
-10.16
-11.43
-12.55
-13.64
-14.77
-16
-17.28
-18.56
-19.78
-20.95
-22.09
-23.25
-24.41
-25.53
-26.5
-27.18
-27.41
-26.97
-25.66
-23.34
-20.03
-16
-11.69
-7.62
-4.12
-1.3
0.94
2.78
4.26
5.3
5.74
5.49
4.65
3.49
2.3
1.28
0.5
-0.07
-0.47
-0.74
-0.87
-0.88
-0.86
-0.97
-1.37
-2.17
-3.4
-5
-6.85
-8.85
-10.86
-12.79
-14.51
-15.95
-17.09
-17.97
-18.72
-19.46
-20.27
-21.08
-21.79
-22.27
-22.53
-22.69
-22.93
-23.39
-24.04
-24.62
-24.71
-23.87
-21.81
-18.54
-14.41
-10.04
-6.14
-3.26
-1.57
-0.76
-0.17
0.89
2.77
5.2
7.28
7.87
6
1.38
-5.4
-13.06
-20.18
-25.62
-28.67
-29.06
-26.87
-22.59
-17.22
-12.12
-8.71
-7.86
-9.55
-12.88
-16.6
-19.88
-22.74
-25.85
-29.85
-34.59
-38.76
-40.32
-37.44
-29.42
-17.23
-3.11
10.19
20.33
26.16
27.86
26.65
24.13
21.62
19.85
19
18.98
19.72
21.27
23.68
26.81
30.11
32.78
34.05
33.56
31.49
28.51
25.49
23.13
21.71
21.07
20.77
20.38
19.66
18.58
17.35
16.22
15.38
14.9
14.68
14.52
14.16
13.4
12.2
10.65
8.93
7.21
5.64
4.27
3.16
2.4
2.04
2.07
2.32
2.54
2.46
1.93
0.97
-0.21
-1.32
-2.04
-2.14
-1.51
-0.21
1.48
3.14
4.3
4.66
4.11
2.95
1.63
0.66
0.32
0.61
1.29
2.02
2.5
2.58
2.24
1.52
0.49
-0.79
-2.31
-4.04
-5.93
-7.96
-10.1
-12.34
-14.66
-17.05
-19.38
-21.52
-23.25
-24.34
-24.53
-23.64
-21.6
-18.6
-15.12
-11.87
-9.55
-8.66
-9.21
-10.73
-12.33
-13.08
-12.32
-9.82
-5.84
-0.92
4.38
9.64
14.6
19.14
23.18
26.6
29.27
31.08
31.99
32.04
31.38
30.18
28.69
27.12
25.67
24.42
23.32
22.16
20.7
18.76
16.29
13.45
10.47
7.6
5.03
2.82
0.96
-0.62
-1.99
-3.22
-4.43
-5.74
-7.27
-9.05
-11.01
-12.99
-14.8
-16.3
-17.49
-18.5
-19.54
-20.78
-22.24
-23.75
-24.98
-25.54
-25.09
-23.47
-20.75
-17.21
-13.21
-9.17
-5.41
-2.16
0.45
2.39
3.72
4.55
5.07
5.46
5.82
6.15
6.4
6.43
6.17
5.64
4.95
4.3
3.88
3.78
3.97
4.32
4.61
4.67
4.4
3.82
2.98
2.03
1.06
0.1
-0.83
-1.77
-2.79
-3.97
-5.37
-7
-8.79
-10.54
-11.91
-12.58
-12.24
-10.78
-8.29
-5.1
-1.62
1.69
4.49
6.63
8.13
9.11
9.75
10.13
10.28
10.19
9.81
9.17
8.32
7.4
6.54
5.84
5.33
4.95
4.61
4.23
3.75
3.12
2.39
1.58
0.72
-0.15
-1.01
-1.87
-2.69
-3.49
-4.25
-5
-5.77
-6.61
-7.54
-8.53
-9.51
-10.22
-10.35
-9.56
-7.66
-4.69
-0.96
3.05
6.87
10.12
12.65
14.43
15.47
15.81
15.46
14.52
13.18
11.75
10.51
9.66
9.19
9.01
9.03
9.17
9.4
9.62
9.69
9.39
8.58
7.22
5.43
3.38
1.19
-1.01
-3.12
-5.04
-6.67
-7.96
-8.95
-9.78
-10.66
-11.75
-13.08
-14.56
-15.98
-17.03
-17.44
-16.98
-15.54
-13.12
-9.87
-6.08
-2.15
1.51
4.54
6.73
8.09
8.76
9.01
9.04
8.95
8.71
8.23
7.48
6.59
5.79
5.34
5.36
5.8
6.41
6.84
6.82
6.23
5.13
3.71
2.18
0.7
-0.71
-2.08
-3.49
-4.94
-6.41
-7.9
-9.42
-11.05
-12.83
-14.73
-16.55
-17.87
-18.25
-17.31
-14.96
-11.43
-7.23
-2.97
0.87
4.05
6.57
8.57
10.16
11.33
12.02
12.13
11.71
10.97
10.16
9.51
9.09
8.83
8.58
8.29
8.02
7.94
8.12
8.47
8.72
8.55
7.75
6.31
4.42
2.39
0.41
-1.41
-3.14
-4.86
-6.64
-8.49
-10.34
-12.03
-13.29
-13.82
-13.29
-11.57
-8.73
-5.14
-1.32
2.24
5.18
7.38
8.89
9.81
10.26
10.31
10.03
9.51
8.91
8.36
7.94
7.63
7.34
6.94
6.41
5.8
5.3
5.05
5.14
5.5
5.99
6.38
6.51
6.27
5.63
4.57
3.16
1.49
-0.32
-2.13
-3.88
-5.53
-7.18
-8.86
-10.56
-12.13
-13.29
-13.78
-13.34
-11.9
-9.49
-6.35
-2.77
0.88
4.25
7.03
9.01
10.15
10.53
10.36
9.83
9.12
8.33
7.5
6.73
6.1
5.71
5.56
5.55
5.5
5.3
4.94
4.54
4.33
4.45
4.89
5.45
5.86
5.9
5.48
4.66
3.58
2.44
1.31
0.24
-0.81
-1.87
-3.02
-4.31
-5.85
-7.71
-9.88
-12.2
-14.31
-15.75
-16.11
-15.14
-12.9
-9.7
-5.95
-2.11
1.48
4.55
6.9
8.42
9.12
9.12
8.73
8.23
7.85
7.67
7.67
7.75
7.94
8.26
8.8
9.46
10.08
10.38
10.18
9.5
8.52
7.57
6.87
6.46
6.16
5.69
4.82
3.58
2.21
1.05
0.41
0.32
0.64
1.08
1.37
1.38
1.09
0.48
-0.43
-1.6
-2.84
-3.78
-3.93
-2.86
-0.49
2.94
6.86
10.66
13.86
16.29
18.02
19.22
20.06
20.61
20.9
20.98
20.98
21.09
21.46
22.14
23.03
23.91
24.53
24.73
24.56
24.21
23.93
23.91
24.14
24.33
24.02
22.71
20.07
16.12
11.18
5.87
0.83
-3.46
-6.91
-9.75
-12.42
-15.29
-18.48
-21.87
-25.2
-28.22
-30.72
-32.56
-33.62
-33.66
-32.53
-30.24
-27.09
-23.6
-20.34
-17.73
-15.88
-14.59
-13.55
-12.5
-11.35
-10.12
-8.86
-7.49
-5.87
-3.8
-1.2
1.82
5.06
8.24
11.2
13.92
16.5
19
21.32
23.17
24.23
24.34
23.58
22.34
21.07
20.13
19.58
19.24
18.84
18.14
17.05
15.6
13.82
11.66
9.06
6.07
2.85
-0.2
-2.65
-4.2
-4.76
-4.47
-3.56
-2.31
-0.92
0.44
1.64
2.57
3.24
3.71
4.12
4.56
5.03
5.37
5.38
4.98
4.22
3.33
2.53
1.9
1.33
0.67
-0.19
-1.28
-2.48
-3.73
-5.02
-6.47
-8.23
-10.32
-12.65
-15.03
-17.3
-19.37
-21.27
-23.06
-24.87
-26.75
-28.74
-30.78
-32.72
-34.26
-35.11
-35.03
-34.02
-32.32
-30.28
-28.26
-26.41
-24.67
-22.85
-20.78
-18.41
-15.83
-13.23
-10.73
-8.36
-6.01
-3.54
-0.88
1.89
4.6
6.96
8.81
10.05
10.77
11.17
11.46
11.82
12.27
12.72
13.03
13.1
12.86
12.32
11.48
10.33
8.87
7.14
5.3
3.67
2.56
2.21
2.68
3.76
5.12
6.41
7.39
7.96
8.13
7.98
7.53
6.85
5.94
4.85
3.65
2.42
1.25
0.2
-0.68
-1.37
-1.9
-2.32
-2.75
-3.27
-3.92
-4.63
-5.36
-5.98
-6.47
-6.87
-7.26
-7.77
-8.49
-9.47
-10.67
-12.01
-13.3
-14.34
-14.96
-15.02
-14.51
-13.43
-11.86
-9.91
-7.72
-5.5
-3.43
-1.7
-0.41
0.42
0.83
0.86
0.58
0.03
-0.66
-1.35
-1.85
-2.11
-2.2
-2.29
-2.54
-3.03
-3.65
-4.24
-4.63
-4.81
-4.9
-5.09
-5.59
-6.46
-7.68
-9.15
-10.8
-12.53
-14.28
-15.97
-17.45
-18.53
-18.99
-18.68
-17.57
-15.79
-13.56
-11.2
-8.97
-7.11
-5.82
-5.38
-6.11
-8.26
-11.85
-16.45
-21.29
-25.46
-28.23
-29.35
-29.01
-27.65
-25.57
-22.74
-18.79
-13.21
-5.63
4.02
15.54
28.56
42.57
56.91
70.67
82.66
91.6
96.46
96.92
93.73
88.67
84.09
82.16
84.15
89.98
98.43
107.66
115.95
122.18
125.9
127.19
126.27
123.47
119.13
113.68
107.58
101.16
94.48
87.28
79.27
70.38
60.98
51.81
43.68
37.17
32.33
28.83
26.07
23.49
20.62
17.22
13.12
8.27
2.65
-3.56
-10.04
-16.31
-21.8
-26.06
-28.79
-30.1
-30.34
-30.17
-30.22
-31
-32.61
-34.78
-36.93
-38.43
-38.79
-37.81
-35.61
-32.54
-29.01
-25.42
-22.1
-19.26
-17.02
-15.42
-14.38
-13.81
-13.6
-13.61
-13.71
-13.7
-13.41
-12.66
-11.42
-9.83
-8.25
-7.2
-7.21
-8.77
-12.14
-17.4
-24.38
-32.77
-42.09
-51.81
-61.3
-69.97
-77.36
-83.21
-87.57
-90.71
-92.94
-94.47
-95.25
-95
-93.38
-90.17
-85.44
-79.58
-73.13
-66.61
-60.41
-54.67
-49.37
-44.44
-39.78
-35.41
-31.37
-27.8
-24.73
-22.17
-20.04
-18.25
-16.79
-15.69
-15.04
-14.85
-15.06
-15.5
-16.03
-16.57
-17.13
-17.74
-18.43
-19.14
-19.77
-20.25
-20.57
-20.8
-21.08
-21.49
-22.07
-22.71
-23.21
-23.29
-22.67
-21.16
-18.74
-15.6
-12.06
-8.5
-5.24
-2.45
-0.19
1.62
3.05
4.18
5.08
5.8
6.43
7
7.51
7.86
7.95
7.68
7.07
6.26
5.47
4.88
4.57
4.45
4.35
4.13
3.7
3.06
2.29
1.46
0.63
-0.21
-1.06
-1.97
-3.02
-4.33
-6
-8.03
-10.18
-12.09
-13.31
-13.51
-12.65
-10.91
-8.66
-6.21
-3.83
-1.63
0.35
2.05
3.44
4.5
5.23
5.67
5.86
5.82
5.46
4.73
3.59
2.13
0.59
-0.72
-1.56
-1.81
-1.57
-1.11
-0.82
-0.99
-1.78
-3.16
-4.89
-6.71
-8.36
-9.72
-10.81
-11.76
-12.78
-14.06
-15.69
-17.6
-19.53
-21.14
-22.15
-22.47
-22.28
-22.09
-22.52
-24.16
-27.4
-32.19
-38.01
-43.97
-49
-52.15
-52.94
-51.65
-49.32
-47.4
-47.12
-48.95
-52.32
-55.82
-57.74
-56.57
-51.36
-41.63
-27.31
-8.71
13.2
36.68
59.24
78.2
91.55
98.56
100.01
97.71
93.72
89.63
86.39
84.37
83.72
84.42
86.3
88.81
91.14
92.38
92.01
90.08
87.22
84.21
81.6
79.45
77.35
74.64
70.76
65.43
58.68
50.82
42.27
33.48
24.86
16.68
9.09
2.17
-3.99
-9.32
-13.83
-17.71
-21.18
-24.29
-26.71
-27.73
-26.68
-23.37
-18.47
-13.29
-9.21
-6.99
-6.47
-6.79
-7.05
-6.83
-6.34
-6.07
-6.24
-6.62
-6.67
-5.99
-4.69
-3.39
-2.86
-3.7
-5.96
-9.21
-12.81
-16.19
-19.06
-21.48
-23.72
-26.15
-28.98
-32.22
-35.69
-39.03
-41.96
-44.32
-46.24
-47.98
-49.88
-52.13
-54.73
-57.52
-60.29
-62.93
-65.46
-68.06
-70.88
-73.88
-76.74
-78.81
-79.35
-77.63
-73.28
-66.22
-56.68
-45
-31.56
-16.64
-0.44
16.79
34.62
52.37
69.13
83.9
95.88
104.7
110.46
113.66
114.81
114.21
111.83
107.43
100.87
92.32
82.3
71.49
60.41
49.33
38.23
27.09
16.04
5.51
-3.98
-12.01
-18.5
-23.7
-28.02
-31.75
-34.86
-36.96
-37.44
-35.81
-31.85
-25.82
-18.37
-10.3
-2.4
4.74
10.71
15.32
18.5
20.29
20.85
20.54
19.83
19.22
19.11
19.64
20.68
21.87
22.77
23.06
22.62
21.55
20.13
18.73
17.65
17.02
16.77
16.61
16.22
15.36
14.05
12.51
11.03
9.8
8.76
7.76
6.55
5.03
3.18
1.13
-1.08
-3.41
-5.91
-8.55
-11.2
-13.68
-15.8
-17.5
-18.85
-20.01
-21.12
-22.21
-23.22
-24.02
-24.57
-24.9
-25.15
-25.48
-25.99
-26.63
-27.25
-27.67
-27.76
-27.57
-27.27
-27.02
-27
-27.26
-27.75
-28.34
-28.82
-28.9
-28.34
-27.02
-25.04
-22.7
-20.35
-18.27
-16.51
-14.97
-13.52
-12.18
-11.08
-10.42
-10.29
-10.58
-11
-11.22
-11.03
-10.39
-9.42
-8.25
-6.92
-5.42
-3.63
-1.48
1.02
3.7
6.34
8.7
10.63
12.13
13.3
14.32
15.32
16.36
17.45
18.59
19.73
20.84
21.8
22.44
22.6
22.2
21.29
20.12
18.99
18.14
17.69
17.57
17.55
17.38
16.83
15.85
14.5
13
11.64
10.73
10.54
11.2
12.67
14.8
17.26
19.68
21.68
22.99
23.5
23.28
22.54
21.57
20.63
19.82
19.17
18.6
18.08
17.65
17.33
17.15
17.04
16.81
16.28
15.29
13.78
11.65
8.8
5.03
0.18
-5.68
-12.22
-18.81
-24.8
-29.67
-33.32
-35.91
-37.85
-39.41
-40.72
-41.73
-42.29
-42.36
-42.07
-41.7
-41.59
-41.95
-42.77
-43.78
-44.59
-44.79
-44.19
-42.81
-40.72
-37.93
-34.31
-29.65
-23.89
-17.26
-10.25
-3.49
2.52
7.51
11.51
14.62
16.94
18.5
19.33
19.58
19.46
19.19
18.89
18.49
17.93
17.15
16.23
15.29
14.44
13.68
12.96
12.21
11.44
10.71
10.05
9.44
8.79
8.01
7.11
6.17
5.33
4.68
4.15
3.59
2.81
1.72
0.35
-1.16
-2.65
-3.97
-5.07
-5.98
-6.86
-7.88
-9.16
-10.67
-12.19
-13.41
-14.07
-14.07
-13.57
-12.8
-12.01
-11.22
-10.32
-9.09
-7.4
-5.31
-3.04
-0.92
0.71
1.58
1.51
0.37
-1.81
-4.9
-8.49
-12.02
-14.88
-16.74
-17.64
-17.99
-18.4
-19.31
-20.82
-22.71
-24.6
-26.26
-27.67
-28.98
-30.22
-31.21
-31.6
-31.08
-29.68
-27.85
-26.18
-25.19
-24.95
-25.09
-24.92
-23.74
-21.06
-16.79
-11.14
-4.54
2.58
9.84
16.98
23.78
30.05
35.56
40.09
43.44
45.58
46.6
46.76
46.41
45.86
45.34
44.87
44.33
43.51
42.21
40.35
37.96
35.21
32.27
29.26
26.19
22.97
19.54
15.94
12.31
8.79
5.45
2.25
-1.04
-4.58
-8.41
-12.29
-15.78
-18.33
-19.55
-19.31
-17.73
-15.18
-12.07
-8.79
-5.64
-2.86
-0.58
1.12
2.27
2.94
3.27
3.34
3.23
2.97
2.55
2.05
1.56
1.27
1.3
1.73
2.47
3.34
4.05
4.35
4.1
3.35
2.26
1.07
-0.06
-1.1
-2.22
-3.65
-5.56
-8.01
-10.88
-13.86
-16.52
-18.36
-18.93
-17.91
-15.25
-11.17
-6.13
-0.72
4.5
9.1
12.79
15.45
17.09
17.9
18.22
18.45
18.92
19.76
20.79
21.7
22.16
22.09
21.72
21.5
21.87
23.09
25.09
27.52
29.85
31.56
32.21
31.55
29.59
26.56
22.89
18.92
14.7
9.9
3.82
-4.23
-14.61
-27.02
-40.36
-52.95
-62.87
-68.44
-68.74
-63.84
-54.92
-44
-33.34
-24.79
-19.29
-16.66
-15.97
-16.02
-15.99
-15.63
-15.15
-14.83
-14.78
-14.79
-14.51
-13.71
-12.38
-10.65
-8.64
-6.27
-3.29
0.49
4.95
9.59
13.59
16.17
16.85
15.69
13.21
10.16
7.28
5.03
3.49
2.48
1.6
0.44
-1.34
-4
-7.59
-11.95
-16.65
-21
-24.2
-25.56
-24.7
-21.69
-17.02
-11.41
-5.59
-0.13
4.61
8.52
11.62
14.01
15.82
17.2
18.25
18.98
19.31
19.09
18.25
16.86
15.2
13.68
12.66
12.33
12.56
13.07
13.49
13.6
13.4
13.04
12.68
12.35
11.91
11.13
9.87
8.14
6.13
4.05
2.03
0.08
-1.96
-4.24
-6.88
-9.9
-13.21
-16.67
-20.09
-23.19
-25.53
-26.63
-26.02
-23.49
-19.16
-13.46
-7.1
-0.85
4.58
8.68
11.35
12.93
14.14
15.82
18.52
22.19
26.26
29.84
32.31
33.58
34.03
34.16
34.29
34.4
34.33
34.06
33.83
33.95
34.65
35.84
37.18
38.31
38.99
39.1
38.54
37.12
34.62
30.89
26.01
20.19
13.68
6.67
-0.79
-8.56
-16.35
-23.65
-29.92
-34.75
-37.97
-39.7
-40.11
-39.34
-37.39
-34.2
-29.82
-24.46
-18.5
-12.37
-6.41
-0.78
4.49
9.38
13.74
17.32
19.83
21.12
21.24
20.43
19.08
17.55
16.2
15.25
14.82
14.9
15.34
15.9
16.33
16.51
16.4
16.09
15.63
15
14.12
12.89
11.31
9.48
7.54
5.56
3.52
1.36
-0.95
-3.32
-5.59
-7.62
-9.39
-11.02
-12.65
-14.3
-15.78
-16.67
-16.51
-14.99
-12.05
-7.95
-3.14
1.9
6.76
11.2
15.13
18.58
21.59
24.26
26.61
28.68
30.44
31.87
32.96
33.73
34.12
34.06
33.38
31.88
29.4
25.96
21.8
17.33
13.03
9.28
6.2
3.63
1.19
-1.52
-4.72
-8.33
-12.01
-15.34
-18.01
-20
-21.57
-23.11
-24.9
-27
-29.19
-31.17
-32.75
-33.89
-34.75
-35.46
-35.93
-35.83
-34.68
-32.12
-28.14
-23.19
-18.02
-13.35
-9.68
-7.04
-5.15
-3.62
-2.17
-0.79
0.35
1.03
1.16
0.89
0.47
0.22
0.35
0.97
2.04
3.46
5.05
6.64
8.02
9
9.46
9.32
8.58
7.37
5.88
4.39
3.13
2.17
1.41
0.59
-0.57
-2.17
-4.09
-6.01
-7.63
-8.82
-9.77
-10.85
-12.43
-14.62
-17.15
-19.46
-20.91
-21.03
-19.71
-17.13
-13.77
-10.11
-6.57
-3.38
-0.61
1.74
3.64
5.01
5.73
5.79
5.3
4.53
3.83
3.42
3.38
3.62
3.98
4.34
4.67
5.02
5.4
5.75
5.99
6.01
5.76
5.21
4.38
3.27
1.92
0.41
-1.06
-2.2
-2.84
-2.92
-2.67
-2.51
-2.84
-3.89
-5.65
-7.89
-10.32
-12.62
-14.44
-15.37
-14.95
-12.91
-9.38
-5.04
-0.96
1.81
2.67
1.77
-0.1
-1.96
-3.09
-3.36
-3.19
-3.21
-3.91
-5.35
-7.18
-8.82
-9.75
-9.78
-9.11
-8.2
-7.54
-7.43
-7.85
-8.61
-9.52
-10.54
-11.79
-13.39
-15.27
-17.11
-18.44
-18.94
-18.55
-17.53
-16.26
-14.96
-13.6
-11.99
-9.97
-7.68
-5.47
-3.75
-2.71
-2.19
-1.76
-1.03
0.1
1.34
2.23
2.43
2
1.4
1.23
1.86
3.26
4.98
6.44
7.18
7.06
6.27
5.19
4.16
3.41
2.96
2.69
2.36
1.75
0.71
-0.76
-2.52
-4.3
-5.87
-7.06
-7.89
-8.48
-9.03
-9.68
-10.39
-10.96
-11.05
-10.33
-8.56
-5.74
-2.05
2.16
6.5
10.59
14.18
17.11
19.28
20.69
21.34
21.31
20.72
19.74
18.57
17.43
16.53
15.99
15.78
15.73
15.57
15.05
14.07
12.76
11.32
10.02
8.95
8.03
7.03
5.78
4.22
2.49
0.81
-0.64
-1.82
-2.78
-3.63
-4.47
-5.32
-6.22
-7.27
-8.55
-10.06
-11.65
-12.92
-13.39
-12.69
-10.71
-7.73
-4.25
-0.89
1.97
4.15
5.75
6.95
7.87
8.57
9
9.1
8.93
8.6
8.29
8.11
8.08
8.12
8.1
7.89
7.44
6.78
6.02
5.3
4.76
4.45
4.35
4.31
4.07
3.43
2.24
0.58
-1.33
-3.2
-4.77
-5.95
-6.85
-7.6
-8.37
-9.25
-10.24
-11.33
-12.5
-13.64
-14.54
-14.85
-14.25
-12.54
-9.82
-6.48
-3.09
-0.16
1.96
3.23
3.76
3.75
3.38
2.74
1.91
1.01
0.21
-0.28
-0.31
0.11
0.86
1.67
2.3
2.62
2.66
2.53
2.32
2.09
1.77
1.29
0.58
-0.34
-1.46
-2.74
-4.17
-5.72
-7.31
-8.8
-9.98
-10.74
-10.96
-10.61
-9.58
-7.74
-4.93
-1.04
3.84
9.42
15.26
20.93
26.1
30.67
34.63
38.03
40.86
43.06
44.57
45.35
45.42
44.83
43.62
41.83
39.44
36.43
32.71
28.12
22.44
15.51
7.27
-2.04
-11.94
-21.74
-30.71
-38.31
-44.16
-48.19
-50.52
-51.44
-51.35
-50.68
-49.75
-48.67
-47.32
-45.36
-42.39
-38.1
-32.37
-25.34
-17.38
-9.02
-0.82
6.68
13.12
18.31
22.26
25.16
27.3
28.99
30.45
31.81
32.99
33.87
34.21
33.88
32.92
31.5
29.9
28.39
27.16
26.33
26.02
26.25
26.93
27.66
27.75
26.52
23.56
18.96
13.28
7.21
1.18
-4.82
-11.05
-17.66
-24.26
-29.94
-33.61
-34.51
-32.53
-28.29
-22.78
-16.89
-11.29
-6.34
-2.26
0.74
2.46
2.89
2.26
1.07
-0.06
-0.6
-0.24
1.03
2.96
5.16
7.19
8.68
9.38
9.3
8.76
8.26
8.36
9.43
11.54
14.44
17.72
20.94
23.72
25.73
26.75
26.62
25.17
22.23
17.63
11.2
2.96
-6.78
-17.3
-27.49
-36.1
-42.16
-45.27
-45.74
-44.43
-42.37
-40.45
-39.24
-38.98
-39.65
-41.03
-42.67
-43.99
-44.45
-43.66
-41.58
-38.47
-34.75
-30.77
-26.65
-22.37
-17.93
-13.51
-9.42
-5.94
-3.19
-1.09
0.5
1.71
2.52
2.89
2.83
2.49
2.09
1.75
1.47
1.14
0.63
-0.15
-1.21
-2.5
-4
-5.64
-7.26
-8.54
-9.13
-8.75
-7.33
-5.09
-2.42
0.27
2.71
4.8
6.58
8.11
9.38
10.32
10.87
11.01
10.88
10.64
10.44
10.4
10.46
10.55
10.55
10.37
9.98
9.45
8.92
8.54
8.44
8.65
9.04
9.44
9.64
9.55
9.15
8.49
7.64
6.66
5.58
4.5
3.53
2.77
2.24
1.82
1.41
0.96
0.57
0.5
1.01
2.25
4.13
6.38
8.62
10.56
12.07
13.22
14.2
15.25
16.49
17.92
19.42
20.85
22.11
23.19
24.19
25.21
26.33
27.59
28.99
30.57
32.42
34.66
37.32
40.31
43.37
46.1
48.09
48.92
48.18
45.45
40.2
31.9
20.22
5.3
-11.98
-30.06
-47
-60.99
-70.8
-75.96
-76.62
-73.32
-66.75
-57.71
-47.19
-36.39
-26.65
-19.22
-14.86
-13.79
-15.7
-20.04
-26.32
-34.22
-43.49
-53.79
-64.49
-74.71
-83.5
-90.08
-93.79
-94.08
-90.28
-81.63
-67.51
-47.96
-23.97
2.48
28.85
52.75
72.53
87.45
97.54
103.17
104.78
102.89
98.28
92.04
85.55
80.03
76.17
73.86
72.38
70.81
68.42
65.03
60.98
56.89
53.28
50.39
48.02
45.78
43.22
40.14
36.66
33.12
29.96
27.43
25.5
23.86
22.13
20.11
17.87
15.77
14.17
13.21
12.68
12.11
11.06
9.37
7.19
4.97
3.1
1.73
0.69
-0.4
-1.85
-3.79
-6.1
-8.59
-11.13
-13.76
-16.56
-19.58
-22.72
-25.69
-28.26
-30.3
-31.92
-33.32
-34.61
-35.73
-36.39
-36.3
-35.36
-33.75
-31.83
-29.98
-28.37
-26.89
-25.27
-23.23
-20.63
-17.52
-14.12
-10.7
-7.58
-5.09
-3.51
-3.06
-3.86
-5.8
-8.64
-12.07
-15.77
-19.52
-23.1
-26.29
-28.82
-30.47
-31.11
-30.77
-29.64
-28.01
-26.09
-24.02
-21.8
-19.43
-17
-14.73
-12.97
-11.96
-11.78
-12.26
-13.03
-13.69
-14.04
-14.08
-14
-14.03
-14.24
-14.51
-14.59
-14.3
-13.68
-12.96
-12.51
-12.57
-13.1
-13.78
-14.19
-14
-13.17
-11.92
-10.63
-9.62
-9.06
-8.86
-8.84
-8.79
-8.61
-8.34
-8.04
-7.79
-7.62
-7.48
-7.32
-7.06
-6.71
-6.32
-6.05
-6.06
-6.47
-7.24
-8.25
-9.3
-10.19
-10.81
-11.11
-11.04
-10.52
-9.47
-7.78
-5.48
-2.72
0.24
3.16
5.8
8.04
9.76
10.83
11.13
10.61
9.35
7.65
5.89
4.48
3.64
3.39
3.55
3.84
4.06
4.13
4.06
3.93
3.81
3.71
3.62
3.52
3.37
3.13
2.77
2.28
1.66
0.91
0.03
-0.97
-2.05
-3.16
-4.22
-5.14
-5.84
-6.28
-6.47
-6.37
-5.92
-5.06
-3.75
-2.01
-0.01
2.04
3.84
5.14
5.83
5.93
5.63
5.2
4.85
4.68
4.6
4.43
4.03
3.41
2.72
2.17
1.91
1.96
2.17
2.37
2.39
2.19
1.87
1.54
1.38
1.5
1.92
2.49
3
3.19
2.92
2.21
1.23
0.23
-0.62
-1.24
-1.69
-1.97
-1.97
-1.43
-0.01
2.47
5.95
10.01
13.98
17.13
18.86
18.88
17.32
14.71
11.9
9.92
9.76
12.1
17.08
24.25
32.58
40.83
47.87
52.91
55.63
56
54.09
49.81
42.9
33.02
20.03
4.32
-12.99
-30.1
-44.81
-55.02
-59.45
-58.1
-52.31
-44.38
-36.72
-31.1
-28.17
-27.5
-28.09
-28.99
-29.67
-30.06
-30.29
-30.41
-30.3
-29.8
-28.99
-28.31
-28.42
-29.92
-32.96
-37.19
-41.77
-45.73
-48.2
-48.58
-46.6
-42.31
-35.96
-28.01
-19.11
-9.95
-1.24
6.48
12.94
18.1
22.12
25.29
27.88
30.1
32.08
33.88
35.54
37.05
38.41
39.59
40.55
41.29
41.88
42.48
43.27
44.34
45.63
46.86
47.66
47.78
47.16
45.96
44.41
42.73
40.94
38.94
36.63
33.95
30.97
27.8
24.47
20.93
17
12.48
7.32
1.67
-4.15
-9.78
-14.96
-19.66
-24.01
-28.17
-32.16
-35.81
-38.76
-40.71
-41.55
-41.5
-40.99
-40.47
-40.27
-40.46
-40.91
-41.44
-41.81
-41.86
-41.39
-40.33
-38.63
-36.37
-33.71
-30.9
-28.22
-25.88
-24.04
-22.72
-21.89
-21.45
-21.33
-21.46
-21.78
-22.24
-22.78
-23.34
-23.87
-24.31
-24.65
-24.94
-25.25
-25.67
-26.3
-27.09
-27.87
-28.34
-28.1
-26.82
-24.24
-20.25
-14.79
-7.83
0.64
10.55
21.6
33.24
44.66
55.03
63.67
70.28
74.94
78.04
80.04
81.34
82.14
82.54
82.63
82.62
82.81
83.45
84.61
85.96
86.92
86.77
85.03
81.66
77.08
72.13
67.69
64.42
62.56
61.8
61.43
60.58
58.41
54.39
48.42
40.89
32.49
24.04
16.19
9.14
2.58
-4.13
-11.73
-20.65
-30.85
-41.78
-52.56
-62.18
-69.8
-74.87
-77.24
-77.16
-75.2
-72.14
-68.71
-65.44
-62.54
-59.97
-57.57
-55.28
-53.22
-51.64
-50.73
-50.51
-50.74
-51.01
-50.82
-49.71
-47.42
-43.96
-39.6
-34.89
-30.51
-27.06
-24.91
-24.02
-24.02
-24.42
-24.73
-24.69
-24.19
-23.33
-22.27
-21.24
-20.52
-20.39
-21.08
-22.63
-24.87
-27.44
-29.94
-32.01
-33.37
-33.89
-33.42
-31.81
-28.82
-24.36
-18.61
-12.1
-5.68
-0.23
3.68
6.13
7.79
9.65
12.5
16.62
21.69
27.03
32.07
36.58
40.63
44.4
47.82
50.55
52.24
52.83
52.81
53.13
54.79
58.38
63.74
70.01
76
80.62
83.31
84.05
83.24
81.4
78.81
75.5
71.19
65.49
58.03
48.61
37.27
24.33
10.35
-3.9
-17.59
-29.92
-40.22
-48.1
-53.43
-56.41
-57.38
-56.85
-55.33
-53.29
-51.14
-49.16
-47.56
-46.41
-45.64
-45.12
-44.63
-43.98
-42.95
-41.35
-39.05
-36
-32.3
-28.22
-24.21
-20.68
-17.94
-16.02
-14.69
-13.58
-12.37
-10.96
-9.41
-7.96
-6.72
-5.69
-4.7
-3.62
-2.43
-1.31
-0.52
-0.26
-0.71
-1.92
-4.03
-7.19
-11.46
-16.57
-21.8
-26.11
-28.5
-28.56
-26.75
-24.2
-22.17
-21.32
-21.27
-20.66
-17.79
-11.41
-1.35
11.38
24.97
37.52
47.71
55.08
59.89
62.76
64.29
64.8
64.35
62.93
60.56
57.46
53.89
50.09
46.13
41.98
37.56
32.88
28.11
23.54
19.42
15.92
13.03
10.63
8.55
6.63
4.76
2.85
0.93
-0.93
-2.62
-4.08
-5.39
-6.81
-8.65
-11.14
-14.21
-17.49
-20.44
-22.63
-24
-24.86
-25.63
-26.47
-27.16
-27.15
-25.98
-23.67
-20.79
-18.31
-17.05
-17.33
-18.9
-21.17
-23.48
-25.24
-25.77
-24.06
-18.88
-9.09
5.59
24.13
44.18
62.77
77.3
86.36
90.12
89.95
87.68
84.84
82.18
79.67
76.94
73.6
69.52
64.84
59.75
54.33
48.46
41.98
34.87
27.37
20.02
13.45
8.16
4.29
1.57
-0.57
-2.77
-5.5
-8.88
-12.72
-16.65
-20.34
-23.66
-26.74
-29.77
-32.91
-36.11
-39.11
-41.61
-43.38
-44.39
-44.78
-44.81
-44.65
-44.38
-43.96
-43.31
-42.41
-41.34
-40.21
-39.13
-38.12
-37.16
-36.17
-35.12
-33.97
-32.73
-31.38
-29.9
-28.29
-26.71
-25.41
-24.66
-24.6
-25.06
-25.59
-25.6
-24.59
-22.4
-19.22
-15.52
-11.86
-8.58
-5.8
-3.44
-1.4
0.29
1.5
2
1.71
0.76
-0.48
-1.59
-2.19
-2.16
-1.58
-0.72
0.2
1
1.64
2.1
2.39
2.44
2.17
1.5
0.46
-0.84
-2.2
-3.42
-4.41
-5.21
-6.01
-6.99
-8.32
-10.03
-11.99
-14.02
-15.85
-17.22
-17.88
-17.63
-16.38
-14.19
-11.35
-8.24
-5.31
-2.84
-0.96
0.44
1.54
2.53
3.47
4.34
5.02
5.4
5.41
5.1
4.58
4.01
3.53
3.23
3.06
2.9
2.59
2
1.09
-0.08
-1.36
-2.65
-3.86
-5.03
-6.22
-7.52
-8.99
-10.65
-12.51
-14.58
-16.82
-19.21
-21.72
-24.33
-26.96
-29.44
-31.42
-32.46
-32.15
-30.4
-27.52
-24.1
-20.71
-17.56
-14.46
-11
-7.03
-2.78
1.24
4.64
7.48
10.09
12.72
14.96
15.83
14.26
9.78
3.09
-4.23
-10.31
-13.93
-14.8
-13.47
-10.75
-7.2
-3.01
1.74
6.81
11.58
15.18
16.88
16.37
14.01
10.74
7.82
6.4
7.04
9.56
13.01
16.08
17.55
16.73
13.66
9
3.85
-0.67
-3.64
-4.52
-3.2
-0.01
4.39
9.21
13.63
17.03
19.05
19.62
18.91
17.2
14.81
12.05
9.17
6.41
4.06
2.38
1.58
1.71
2.58
3.73
4.67
5.09
5
4.73
4.67
5.05
5.74
6.3
6.26
5.35
3.7
1.72
-0.07
-1.36
-2.07
-2.37
-2.53
-2.78
-3.23
-3.92
-4.87
-6.09
-7.56
-9.12
-10.47
-11.17
-10.78
-9.06
-6.05
-2.13
2.16
6.28
9.88
12.83
15.16
16.94
18.22
18.97
19.22
19.07
18.76
18.54
18.62
19.06
19.81
20.69
21.44
21.83
21.55
20.4
18.23
15.09
11.18
6.87
2.58
-1.37
-4.75
-7.48
-9.58
-11.13
-12.19
-12.9
-13.43
-13.95
-14.62
-15.49
-16.53
-17.62
-18.62
-19.44
-20.03
-20.39
-20.53
-20.4
-19.91
-18.86
-17.07
-14.38
-10.73
-6.28
-1.35
3.59
8.03
11.58
14.06
15.51
16.15
16.24
15.96
15.42
14.64
13.66
12.6
11.64
10.98
10.79
11.02
11.51
11.97
12.18
12.01
11.53
10.92
10.36
9.97
9.72
9.54
9.33
9.03
8.64
8.19
7.68
7.11
6.48
5.82
5.21
4.68
4.24
3.77
3.1
2.08
0.62
-1.18
-3.13
-4.87
-6.05
-6.44
-5.88
-4.44
-2.29
0.28
2.9
5.26
7.1
8.29
8.85
8.93
8.63
8.06
7.25
6.23
5.06
3.91
2.92
2.21
1.76
1.46
1.17
0.8
0.32
-0.24
-0.86
-1.56
-2.35
-3.19
-4.04
-4.82
-5.5
-6.06
-6.53
-6.91
-7.24
-7.6
-8.14
-9.01
-10.23
-11.59
-12.69
-13.04
-12.3
-10.48
-7.85
-4.88
-1.97
0.63
2.85
4.68
6.14
7.19
7.82
8.07
8.04
7.82
7.48
7.07
6.65
6.24
5.89
5.54
5.13
4.61
3.99
3.41
3.02
2.9
2.95
2.95
2.64
1.89
0.72
-0.73
-2.32
-3.97
-5.68
-7.45
-9.19
-10.69
-11.69
-11.98
-11.46
-10.2
-8.4
-6.28
-4.09
-1.99
-0.12
1.48
2.75
3.71
4.35
4.72
4.83
4.71
4.38
3.92
3.44
3.06
2.85
2.84
2.92
2.99
2.92
2.67
2.24
1.7
1.14
0.54
-0.07
-0.71
-1.35
-1.96
-2.5
-3.05
-3.74
-4.77
-6.24
-8.14
-10.21
-12.06
-13.27
-13.54
-12.81
-11.26
-9.19
-6.93
-4.72
-2.68
-0.88
0.65
1.78
2.41
2.43
1.88
0.95
-0.06
-0.81
-1.07
-0.77
-0.04
0.89
1.78
2.51
3.08
3.62
4.31
5.31
6.74
8.63
10.98
13.71
16.74
19.89
22.97
25.73
27.97
29.49
30.15
29.83
28.41
25.88
22.34
17.99
13.17
8.23
3.47
-0.93
-4.93
-8.58
-11.89
-14.77
-16.98
-18.16
-18.01
-16.4
-13.53
-10
-6.66
-4.44
-3.87
-4.84
-6.55
-7.73
-7.18
-4.3
0.73
7.02
13.41
18.98
23.24
26.13
27.75
28.28
27.94
27.16
26.57
26.85
28.35
30.79
33.25
34.52
33.56
29.83
23.44
15.05
5.65
-3.53
-11.24
-16.37
-18.35
-17.49
-15.02
-12.8
-12.62
-15.51
-21.32
-28.78
-36.1
-41.59
-44.24
-43.85
-40.85
-36.01
-30.09
-23.73
-17.38
-11.4
-6.09
-1.64
1.91
4.6
6.59
8.02
8.91
9.22
8.9
8.03
6.84
5.63
4.64
3.93
3.36
2.68
1.68
0.34
-1.18
-2.63
-3.79
-4.51
-4.79
-4.66
-4.18
-3.45
-2.54
-1.53
-0.5
0.46
1.24
1.68
1.6
0.9
-0.34
-1.9
-3.38
-4.39
-4.68
-4.28
-3.44
-2.55
-1.94
-1.73
-1.82
-1.98
-2.04
-1.93
-1.7
-1.46
-1.35
-1.64
-2.8
-5.41
-9.95
-16.41
-24.12
-31.83
-38.25
-42.46
-44.25
-43.96
-42.03
-38.61
-33.49
-26.4
-17.44
-7.27
2.99
12.2
19.66
25.25
29.31
32.36
34.81
36.89
38.67
40.16
41.31
42.04
42.19
41.63
40.25
38.01
34.96
31.17
26.71
21.66
16.24
10.74
5.49
0.77
-3.38
-7.1
-10.68
-14.32
-18.07
-21.76
-25.08
-27.75
-29.59
-30.58
-30.76
-30.13
-28.65
-26.21
-22.75
-18.31
-13.09
-7.44
-1.79
3.45
7.96
11.6
14.42
16.59
18.34
19.83
21.14
22.24
23.05
23.54
23.71
23.64
23.41
23.05
22.58
21.96
21.13
20.02
18.56
16.73
14.63
12.43
10.38
8.66
7.3
6.19
5.06
3.74
2.17
0.46
-1.2
-2.67
-3.85
-4.72
-5.21
-5.18
-4.5
-3.16
-1.37
0.51
2.04
2.96
3.23
3.05
2.66
2.19
1.62
0.84
-0.21
-1.44
-2.64
-3.59
-4.16
-4.39
-4.39
-4.25
-4.03
-3.7
-3.26
-2.69
-2.04
-1.3
-0.43
0.63
1.84
3.08
4.12
4.76
4.96
4.86
4.71
4.68
4.74
4.66
4.14
3.02
1.49
0.02
-0.79
-0.55
0.72
2.64
4.65
6.3
7.47
8.29
9.02
9.84
10.85
12.2
14.06
16.58
19.6
22.48
24.24
23.87
20.87
15.49
8.66
1.59
-4.64
-9.41
-12.55
-14.18
-14.52
-13.83
-12.47
-10.94
-9.78
-9.41
-10
-11.38
-13.22
-15.08
-16.57
-17.41
-17.46
-16.66
-15.04
-12.69
-9.71
-6.22
-2.33
1.86
6.22
10.56
14.66
18.23
21.01
22.89
23.92
24.34
24.52
24.79
25.3
25.96
26.45
26.35
25.34
23.33
20.54
17.45
14.58
12.3
10.73
9.66
8.71
7.43
5.52
2.84
-0.54
-4.4
-8.49
-12.56
-16.39
-19.84
-22.83
-25.33
-27.36
-28.92
-29.99
-30.43
-30.03
-28.57
-25.96
-22.3
-17.96
-13.44
-9.19
-5.54
-2.54
-0.1
1.95
3.71
5.22
6.49
7.57
8.54
9.52
10.53
11.51
12.32
12.9
13.31
13.73
14.39
15.44
16.9
18.62
20.44
22.18
23.78
25.17
26.38
27.42
28.37
29.36
30.47
31.54
32.11
31.31
28.11
21.74
11.98
-0.49
-14.37
-27.95
-39.69
-48.51
-54
-56.4
-56.36
-54.74
-52.32
-49.66
-46.95
-44.16
-41.17
-37.99
-34.91
-32.38
-30.83
-30.38
-30.77
-31.47
-31.97
-32.01
-31.7
-31.35
-31.26
-31.54
-32
-32.35
-32.35
-31.91
-31.21
-30.56
-30.24
-30.37
-30.87
-31.52
-32.06
-32.32
-32.17
-31.48
-30.05
-27.56
-23.72
-18.33
-11.41
-3.16
6.14
16.22
26.85
37.74
48.47
58.49
67.24
74.36
79.74
83.49
85.71
86.22
84.59
80.32
73.16
63.31
51.45
38.49
25.37
12.83
1.45
-8.34
-16.18
-21.88
-25.48
-27.34
-28
-28.01
-27.73
-27.27
-26.49
-25.25
-23.42
-21.07
-18.37
-15.64
-13.21
-11.38
-10.36
-10.14
-10.61
-11.58
-12.88
-14.44
-16.24
-18.28
-20.46
-22.63
-24.57
-26.05
-26.82
-26.66
-25.41
-22.98
-19.47
-15.19
-10.57
-6.13
-2.31
0.6
2.45
3.24
3.04
2.07
0.75
-0.34
-0.55
0.55
3.06
6.62
10.57
14.11
16.58
17.67
17.37
15.97
13.85
11.4
8.84
6.26
3.64
0.9
-1.96
-4.78
-7.36
-9.37
-10.62
-11.09
-10.97
-10.6
-10.39
-10.66
-11.47
-12.6
-13.64
-14.16
-13.89
-12.85
-11.3
-9.65
-8.21
-7.13
-6.32
-5.64
-5.02
-4.49
-4.21
-4.24
-4.52
-4.86
-4.98
-4.72
-4.04
-3.07
-1.98
-0.95
-0.01
0.89
1.9
3.13
4.6
6.22
7.82
9.18
10.2
10.88
11.35
11.83
12.48
13.32
14.15
14.62
14.29
12.84
10.16
6.39
1.92
-2.75
-7.05
-10.47
-12.66
-13.5
-13.19
-12.21
-11.2
-10.74
-11.06
-11.95
-12.81
-12.87
-11.61
-8.92
-5.24
-1.35
1.98
4.25
5.29
5.21
4.27
2.68
0.58
-1.82
-4.26
-6.33
-7.69
-8.12
-7.7
-6.72
-5.61
-4.72
-4.25
-4.19
-4.41
-4.76
-5.13
-5.59
-6.25
-7.25
-8.64
-10.19
-11.49
-12.03
-11.45
-9.71
-7.13
-4.25
-1.6
0.51
2.04
3.11
3.81
4.14
4.01
3.38
2.35
1.2
0.26
-0.21
-0.17
0.32
1.05
1.87
2.62
3.25
3.72
4.04
4.17
4.09
3.74
3.09
2.11
0.86
-0.49
-1.83
-3.02
-4.11
-5.22
-6.54
-8.2
-10.09
-11.94
-13.32
-13.85
-13.35
-11.96
-10.05
-8.08
-6.39
-5.07
-3.96
-2.86
-1.64
-0.36
0.73
1.41
1.52
1.1
0.28
-0.77
-1.91
-3.02
-3.95
-4.61
-4.88
-4.74
-4.3
-3.73
-3.22
-2.89
-2.76
-2.76
-2.81
-2.84
-2.89
-3.07
-3.49
-4.16
-4.93
-5.53
-5.63
-5.06
-3.83
-2.23
-0.69
0.28
0.27
-0.97
-3.41
-6.75
-10.44
-13.79
-16.11
-16.97
-16.25
-14.17
-11.22
-7.93
-4.8
-2.18
-0.28
0.91
1.57
2.08
2.86
4.28
6.53
9.51
12.95
16.49
19.86
22.95
25.77
28.38
30.76
32.78
34.2
34.82
34.5
33.24
31.14
28.29
24.85
21.02
17.06
13.28
9.89
6.97
4.39
1.99
-0.33
-2.45
-4.1
-5.06
-5.3
-5.1
-4.85
-4.92
-5.37
-5.99
-6.4
-6.36
-5.84
-5.02
-4.22
-3.62
-3.25
-2.97
-2.62
-2.11
-1.5
-0.93
-0.58
-0.51
-0.69
-0.97
-1.24
-1.44
-1.59
-1.77
-2.01
-2.32
-2.71
-3.17
-3.78
-4.65
-5.86
-7.41
-9.17
-10.87
-12.18
-12.76
-12.33
-10.78
-8.22
-4.96
-1.46
1.82
4.52
6.5
7.77
8.5
8.83
8.86
8.63
8.17
7.53
6.87
6.34
6.1
6.21
6.58
7.03
7.36
7.41
7.16
6.65
5.99
5.26
4.51
3.78
3.1
2.5
1.97
1.41
0.66
-0.42
-1.89
-3.62
-5.32
-6.58
-7
-6.34
-4.54
-1.8
1.48
4.8
7.77
10.24
12.44
14.93
18.39
23.35
29.88
37.53
45.45
52.64
58.37
62.34
64.78
66.16
67.01
67.61
67.9
67.44
65.6
61.69
55.15
45.65
33.22
18.41
2.34
-13.26
-26.41
-35.3
-38.91
-37.33
-31.87
-24.53
-17.36
-11.81
-8.38
-6.78
-6.28
-6.28
-6.44
-6.67
-6.77
-6.28
-4.56
-1.22
3.52
8.58
12.29
13
9.75
2.68
-7.01
-17.49
-26.98
-34.19
-38.64
-40.53
-40.49
-39.25
-37.47
-35.61
-33.96
-32.65
-31.71
-31.11
-30.71
-30.4
-30.02
-29.48
-28.76
-27.92
-27.05
-26.28
-25.68
-25.32
-25.19
-25.21
-25.17
-24.78
-23.74
-21.84
-19.03
-15.48
-11.49
-7.34
-3.27
0.59
4.15
7.33
10.02
12.13
13.64
14.62
15.19
15.46
15.56
15.59
15.63
15.81
16.17
16.73
17.44
18.22
18.97
19.63
20.12
20.4
20.39
19.97
19.04
17.53
15.48
13
10.28
7.51
4.83
2.29
-0.14
-2.54
-5
-7.53
-10
-12.17
-13.68
-14.23
-13.68
-12.08
-9.64
-6.74
-3.74
-0.93
1.51
3.45
4.87
5.74
6.05
5.94
5.65
5.5
5.82
6.74
8.18
9.86
11.4
12.57
13.29
13.64
13.75
13.69
13.4
12.81
11.89
10.71
9.42
8.15
6.98
5.89
4.8
3.63
2.37
1.06
-0.2
-1.34
-2.34
-3.29
-4.32
-5.51
-6.86
-8.13
-8.94
-8.92
-7.82
-5.68
-2.77
0.51
3.78
6.71
9.12
10.85
11.88
12.25
12.21
12.15
12.53
13.68
15.69
18.3
21
23.32
24.95
25.9
26.48
27.1
28.01
29.16
30.31
31.09
31.31
31.02
30.5
30.12
30.11
30.46
30.97
31.32
31.23
30.53
29.16
27.19
24.74
22.05
19.46
17.3
15.75
14.6
13.2
10.47
5.29
-2.97
-14.06
-26.69
-38.87
-48.61
-54.57
-56.49
-55.07
-51.5
-46.92
-42.02
-37.06
-32.07
-27.22
-22.9
-19.62
-17.82
-17.62
-18.78
-20.79
-23.1
-25.31
-27.24
-28.94
-30.52
-32.06
-33.53
-34.8
-35.74
-36.24
-36.26
-35.71
-34.47
-32.37
-29.35
-25.5
-21.2
-16.98
-13.33
-10.52
-8.5
-7.03
-5.82
-4.64
-3.51
-2.6
-2.19
-2.51
-3.65
-5.48
-7.67
-9.71
-11.09
-11.39
-10.44
-8.4
-5.83
-3.49
-2.05
-1.78
-2.32
-2.9
-2.73
-1.43
0.71
3.01
4.73
5.61
5.96
6.41
7.39
8.87
10.37
11.34
11.59
11.44
11.48
12.15
13.45
14.87
15.71
15.49
14.11
11.96
9.57
7.43
5.73
4.42
3.35
2.45
1.79
1.46
1.48
1.66
1.74
1.48
0.84
0.04
-0.65
-1.03
-1.21
-1.49
-2.23
-3.67
-5.74
-8.17
-10.59
-12.64
-13.98
-14.35
-13.58
-11.63
-8.7
-5.17
-1.51
1.86
4.69
6.93
8.65
10.01
11.15
12.23
13.38
14.68
16.16
17.74
19.31
20.77
22.11
23.33
24.4
25.2
25.49
24.98
23.44
20.72
16.78
11.71
5.77
-0.67
-7.08
-12.9
-17.65
-21.06
-23.2
-24.45
-25.36
-26.55
-28.39
-30.83
-33.42
-35.41
-35.95
-34.43
-30.64
-24.83
-17.61
-9.8
-2.15
4.73
10.49
15.04
18.46
21.01
23.04
24.89
26.8
28.85
31
33.02
34.69
35.8
36.24
36.1
35.59
35.05
34.78
34.99
35.76
36.95
38.24
39.24
39.57
39.01
37.55
35.39
32.84
30.21
27.75
25.58
23.74
22.15
20.64
18.91
16.62
13.57
9.78
5.59
1.54
-1.82
-4.25
-5.91
-7.23
-8.67
-10.5
-12.69
-15.01
-17.24
-19.41
-21.65
-24.06
-26.37
-28.04
-28.36
-26.9
-23.75
-19.55
-15.23
-11.59
-8.87
-6.73
-4.43
-1.29
3.11
8.73
15.37
22.89
31.23
40.33
49.85
59
66.65
71.66
73.29
71.52
66.98
60.68
53.54
46.17
38.81
31.49
24.32
17.52
11.45
6.38
2.42
-0.57
-2.81
-4.55
-5.88
-6.74
-7.07
-6.88
-6.37
-5.86
-5.62
-5.79
-6.34
-7.09
-7.85
-8.52
-9.07
-9.55
-9.95
-10.26
-10.41
-10.36
-10.1
-9.71
-9.27
-8.85
-8.48
-8.14
-7.8
-7.51
-7.31
-7.29
-7.47
-7.86
-8.43
-9.14
-10.05
-11.17
-12.5
-13.96
-15.36
-16.49
-17.22
-17.54
-17.57
-17.56
-17.76
-18.34
-19.36
-20.7
-22.06
-23.09
-23.41
-22.8
-21.31
-19.15
-16.72
-14.4
-12.46
-10.99
-9.97
-9.23
-8.66
-8.15
-7.71
-7.42
-7.39
-7.71
-8.33
-9.09
-9.74
-10.02
-9.75
-8.93
-7.73
-6.4
-5.22
-4.38
-3.92
-3.74
-3.69
-3.57
-3.32
-3
-2.74
-2.72
-3.01
-3.57
-4.33
-5.2
-6.14
-7.18
-8.32
-9.54
-10.76
-11.94
-13.06
-14.18
-15.31
-16.41
-17.31
-17.72
-17.42
-16.28
-14.38
-11.95
-9.33
-6.84
-4.71
-3.11
-2.07
-1.56
-1.48
-1.74
-2.25
-2.89
-3.6
-4.21
-4.58
-4.59
-4.21
-3.57
-2.9
-2.46
-2.36
-2.56
-2.87
-3.1
-3.09
-2.85
-2.49
-2.16
-1.99
-2.05
-2.35
-2.82
-3.4
-3.99
-4.58
-5.19
-5.91
-6.85
-8.04
-9.5
-11.14
-12.87
-14.64
-16.34
-17.82
-18.8
-18.99
-18.15
-16.27
-13.65
-10.76
-8.08
-5.87
-4.11
-2.58
-1.06
0.49
1.91
2.93
3.37
3.21
2.69
2.1
1.73
1.68
1.97
2.49
3.11
3.72
4.25
4.64
4.89
4.97
4.9
4.58
3.94
2.9
1.44
-0.36
-2.33
-4.22
-5.86
-7.14
-8.02
-8.61
-9.07
-9.53
-10.07
-10.67
-11.25
-11.71
-12
-12.1
-11.97
-11.5
-10.52
-8.84
-6.47
-3.6
-0.65
1.93
3.75
4.7
4.87
4.51
3.91
3.26
2.66
2.15
1.7
1.35
1.1
0.99
1.06
1.25
1.5
1.73
1.91
2.08
2.27
2.54
2.81
2.99
2.9
2.47
1.73
0.84
-0.02
-0.73
-1.29
-1.84
-2.55
-3.51
-4.72
-5.99
-7.01
-7.49
-7.22
-6.22
-4.69
-2.95
-1.3
0.03
1.02
1.78
2.42
2.96
3.29
3.23
2.62
1.53
0.17
-1.13
-2.1
-2.63
-2.75
-2.62
-2.41
-2.3
-2.4
-2.82
-3.69
-5.04
-6.75
-8.47
-9.72
-10.09
-9.48
-8.19
-6.87
-6.21
-6.62
-8.03
-9.87
-11.37
-11.88
-11.1
-9.16
-6.44
-3.42
-0.49
2.06
4.09
5.49
6.26
6.47
6.27
5.84
5.37
4.97
4.65
4.41
4.17
3.92
3.62
3.24
2.82
2.41
2.08
1.84
1.65
1.43
1.1
0.63
0.03
-0.67
-1.57
-2.79
-4.47
-6.62
-9.05
-11.41
-13.29
-14.4
-14.58
-13.88
-12.39
-10.25
-7.61
-4.65
-1.62
1.17
3.44
5.09
6.14
6.78
7.18
7.46
7.6
7.57
7.37
7.09
6.85
6.76
6.8
6.88
6.87
6.74
6.56
6.43
6.41
6.4
6.19
5.52
4.25
2.41
0.15
-2.33
-4.87
-7.43
-10.04
-12.77
-15.66
-18.74
-22.01
-25.47
-29.11
-32.9
-36.59
-39.76
-41.82
-42.22
-40.7
-37.39
-32.79
-27.58
-22.41
-17.75
-13.95
-11.21
-9.63
-9.14
-9.41
-9.9
-10.01
-9.35
-7.92
-6.04
-4.15
-2.58
-1.41
-0.46
0.43
1.29
2
2.41
2.41
2.09
1.63
1.23
1
0.86
0.61
0
-1.12
-2.82
-4.98
-7.38
-9.74
-11.8
-13.33
-14.16
-14.16
-13.24
-11.42
-8.8
-5.6
-2.11
1.3
4.33
6.71
8.33
9.17
9.39
9.19
8.82
8.49
8.36
8.44
8.7
9.01
9.31
9.59
9.88
10.2
10.48
10.61
10.45
9.84
8.77
7.31
5.61
3.83
2.12
0.53
-0.89
-2.12
-3.11
-3.89
-4.56
-5.35
-6.52
-8.25
-10.43
-12.66
-14.26
-14.6
-13.31
-10.47
-6.59
-2.37
1.53
4.77
7.35
9.43
11.18
12.59
13.52
13.82
13.48
12.7
11.83
11.2
11.03
11.28
11.78
12.27
12.54
12.48
12.15
11.61
11.02
10.43
9.83
9.18
8.4
7.39
6.12
4.59
2.83
0.86
-1.23
-3.35
-5.36
-7.15
-8.69
-10.04
-11.37
-12.79
-14.25
-15.5
-16.16
-15.84
-14.33
-11.7
-8.24
-4.45
-0.82
2.18
4.22
5.12
4.91
3.78
2.16
0.58
-0.45
-0.53
0.49
2.53
5.26
8.26
11.08
13.36
14.87
15.59
15.63
15.14
14.26
13.1
11.7
10.11
8.44
6.8
5.18
3.48
1.48
-0.98
-3.87
-6.81
-9.16
-10.2
-9.4
-6.71
-2.6
2.01
6.05
8.74
9.83
9.65
8.87
8.23
8.09
8.41
8.87
9.09
8.91
8.39
7.77
7.21
6.78
6.34
5.79
5.06
4.21
3.37
2.62
1.97
1.33
0.56
-0.45
-1.74
-3.32
-5.2
-7.39
-9.96
-12.92
-16.16
-19.3
-21.79
-22.98
-22.4
-19.94
-15.98
-11.25
-6.64
-2.92
-0.57
0.31
-0.04
-1.17
-2.49
-3.46
-3.66
-2.95
-1.48
0.38
2.27
3.97
5.59
7.45
9.94
13.34
17.69
22.68
27.65
31.68
33.76
33.15
29.63
23.66
16.26
8.6
1.67
-3.92
-7.83
-9.8
-9.54
-6.77
-1.52
5.65
13.64
21.09
26.7
29.68
29.84
27.53
23.52
18.7
13.93
9.9
7
5.32
4.6
4.35
3.97
2.94
0.95
-1.97
-5.4
-8.68
-11.1
-12.17
-11.75
-10.08
-7.56
-4.65
-1.71
1.04
3.53
5.78
7.95
10.21
12.69
15.44
18.39
21.42
24.48
27.54
30.66
33.78
36.79
39.48
41.73
43.55
45.11
46.53
47.74
48.43
48.17
46.62
43.71
39.73
35.11
30.24
25.31
20.35
15.31
10.28
5.48
1.24
-2.12
-4.46
-5.82
-6.42
-6.62
-6.77
-7.21
-8.17
-9.74
-11.8
-14.12
-16.33
-18.1
-19.25
-19.78
-19.86
-19.79
-19.84
-20.17
-20.73
-21.25
-21.26
-20.21
-17.67
-13.48
-7.88
-1.48
4.95
10.76
15.56
19.33
22.23
24.46
26.09
27.11
27.52
27.5
27.39
27.6
28.42
29.78
31.27
32.25
32.09
30.43
27.29
23.03
18.17
13.05
7.77
2.21
-3.73
-9.98
-16.15
-21.82
-26.72
-30.98
-34.97
-38.99
-42.97
-46.4
-48.68
-49.53
-49.33
-48.98
-49.3
-50.53
-51.93
-52.24
-50.26
-45.66
-39.05
-31.78
-25.14
-19.85
-15.87
-12.71
-9.89
-7.29
-5.09
-3.56
-2.71
-2.16
-1.28
0.5
3.44
7.35
11.68
15.71
18.85
20.8
21.68
21.86
21.76
21.63
21.44
20.94
19.88
18.17
15.98
13.63
11.44
9.58
8.01
6.52
4.89
2.94
0.61
-2.08
-5.01
-7.96
-10.64
-12.67
-13.71
-13.55
-12.22
-9.93
-7.08
-4.12
-1.5
0.5
1.73
2.24
2.21
1.91
1.61
1.56
1.91
2.72
3.97
5.53
7.25
8.88
10.22
11.07
11.41
11.35
11.17
11.14
11.43
12.01
12.66
13.12
13.15
12.64
11.57
10.02
8.16
6.12
4.11
2.24
0.6
-0.83
-2.17
-3.54
-5.06
-6.73
-8.44
-9.99
-11.09
-11.42
-10.7
-8.81
-5.8
-1.94
2.34
6.54
10.24
13.17
15.27
16.66
17.57
18.23
18.87
19.52
20.12
20.49
20.54
20.32
20.09
20.3
21.29
23.12
25.35
27.17
27.56
25.62
20.81
13.02
2.59
-9.74
-22.83
-35.25
-45.43
-51.98
-54.14
-51.95
-46.39
-39.03
-31.64
-25.77
-22.53
-22.4
-25.32
-30.62
-37.1
-43.17
-47.22
-47.99
-44.91
-38.3
-29.19
-18.94
-8.85
0.15
7.59
13.35
17.56
20.47
22.38
23.62
24.44
24.98
25.28
25.25
24.8
23.94
22.81
21.61
20.54
19.67
18.91
18.09
16.99
15.54
13.75
11.75
9.66
7.62
5.66
3.74
1.83
-0.14
-2.17
-4.28
-6.46
-8.7
-10.91
-12.86
-14.19
-14.5
-13.46
-10.96
-7.21
-2.68
1.99
6.17
9.44
11.62
12.87
13.62
14.44
15.87
18.33
21.96
26.61
31.9
37.31
42.29
46.34
49.08
50.3
49.98
48.19
45.07
40.76
35.36
28.97
21.72
13.78
5.35
-3.43
-12.44
-21.58
-30.66
-39.34
-47.19
-53.76
-58.86
-62.5
-64.9
-66.31
-66.81
-66.28
-64.54
-61.51
-57.41
-52.67
-47.83
-43.27
-39.11
-35.17
-31.21
-27.05
-22.67
-18.24
-13.94
-9.85
-5.99
-2.42
0.65
2.93
4.29
4.92
5.33
6.16
7.76
9.98
12.26
13.88
14.46
14.05
13.06
11.91
10.7
9.23
7.21
4.52
1.39
-1.76
-4.55
-6.8
-8.53
-9.78
-10.54
-10.64
-9.89
-8.18
-5.65
-2.63
0.41
3.03
5
6.31
7.1
7.57
7.84
7.92
7.76
7.36
6.85
6.4
6.21
6.39
6.91
7.6
8.26
8.75
9.02
9.09
9.01
8.8
8.45
7.91
7.13
6.1
4.87
3.52
2.14
0.75
-0.69
-2.33
-4.29
-6.56
-8.97
-11.18
-12.78
-13.43
-12.93
-11.29
-8.68
-5.41
-1.83
1.7
4.9
7.56
9.62
11.12
12.16
12.84
13.24
13.41
13.37
13.18
12.93
12.7
12.64
12.79
13.2
13.78
14.41
14.91
15.15
15.07
14.66
13.96
13.01
11.83
10.43
8.8
6.99
5.04
3.03
1.07
-0.72
-2.31
-3.7
-4.97
-6.29
-7.78
-9.44
-11.1
-12.37
-12.82
-12.1
-10.13
-7.12
-3.48
0.25
3.55
6.05
7.58
8.14
7.9
7.14
6.12
5.05
4.09
3.32
2.8
2.55
2.59
2.87
3.24
3.49
