2023-01-29 15:01:10.023974,0.17090420424938196
2023-01-29 15:01:10.028974,0.20500168125813123
2023-01-29 15:01:10.033974,0.19020876288413996
2023-01-29 15:01:10.038974,0.18316489016926524
2023-01-29 15:01:10.043974,0.19912779331207267
2023-01-29 15:01:10.048974,0.2077669929701777
2023-01-29 15:01:10.053974,0.19516110420227054
2023-01-29 15:01:10.058974,0.18101253658218083
2023-01-29 15:01:10.063974,0.17640948295593253
2023-01-29 15:01:10.068974,0.1665976149424221
2023-01-29 15:01:10.073974,0.14256040751934046
2023-01-29 15:01:10.078974,0.11679485116283295
2023-01-29 15:01:10.083974,0.09837388992309572
2023-01-29 15:01:10.088974,0.07873489346644798
2023-01-29 15:01:10.093974,0.05197564885020254
2023-01-29 15:01:10.098974,0.027298520839958217
2023-01-29 15:01:10.103974,0.011587540619075217
2023-01-29 15:01:10.108974,-0.0019380021992685954
2023-01-29 15:01:10.113974,-0.018679499626159578
2023-01-29 15:01:10.118974,-0.03235009569078732
2023-01-29 15:01:10.123974,-0.0381523370742797
2023-01-29 15:01:10.128974,-0.04207582928896236
2023-01-29 15:01:10.133974,-0.04901866242289542
2023-01-29 15:01:10.138974,-0.05416829468409326
2023-01-29 15:01:10.143974,-0.05368252843618389
2023-01-29 15:01:10.148974,-0.05261376889648343
2023-01-29 15:01:10.153974,-0.055124960839748306
2023-01-29 15:01:10.158974,-0.05706451553796649
2023-01-29 15:01:10.163974,-0.054884552955627344
2023-01-29 15:01:10.168974,-0.05253714513404558
2023-01-29 15:01:10.173974,-0.05327383801341044
2023-01-29 15:01:10.178974,-0.053295653290490574
2023-01-29 15:01:10.183974,-0.04949947446584702
2023-01-29 15:01:10.188974,-0.04552921583145848
2023-01-29 15:01:10.193974,-0.04454712197184557
2023-01-29 15:01:10.198974,-0.04345983553667662
2023-01-29 15:01:10.203974,-0.03959476947784415
2023-01-29 15:01:10.208974,-0.03608448106876913
2023-01-29 15:01:10.213974,-0.035580001771450015
2023-01-29 15:01:10.218974,-0.035204608391591626
2023-01-29 15:01:10.223974,-0.032550893723964615
2023-01-29 15:01:10.228974,-0.03048567531028228
2023-01-29 15:01:10.233974,-0.031420987099409055
2023-01-29 15:01:10.238974,-0.032663430611065546
2023-01-29 15:01:10.243974,-0.03180563449859611
2023-01-29 15:01:10.248974,-0.031187356812071375
2023-01-29 15:01:10.253974,-0.032863419502973536
2023-01-29 15:01:10.258974,-0.03445151919666142
2023-01-29 15:01:10.263974,-0.033969283103942774
2023-01-29 15:01:10.268974,-0.033747049439735284
2023-01-29 15:01:10.273974,-0.03570020198822017
2023-01-29 15:01:10.278974,-0.037505057705332114
2023-01-29 15:01:10.283974,-0.03711859509348862
2023-01-29 15:01:10.288974,-0.03650636306807773
2023-01-29 15:01:10.293974,-0.03740708157420144
2023-01-29 15:01:10.298974,-0.037847059348656766
2023-01-29 15:01:10.303974,-0.03625313565134996
2023-01-29 15:01:10.308974,-0.03478462670785496
2023-01-29 15:01:10.313974,-0.0353155545890331
2023-01-29 15:01:10.318974,-0.03614830730002617
2023-01-29 15:01:10.323974,-0.03579636663198467
2023-01-29 15:01:10.328974,-0.03607183284479381
2023-01-29 15:01:10.333974,-0.03839274495840068
2023-01-29 15:01:10.338974,-0.04080299728902147
2023-01-29 15:01:10.343974,-0.04156609624624245
2023-01-29 15:01:10.348974,-0.04209456203681684
2023-01-29 15:01:10.353974,-0.04353741928935052
2023-01-29 15:01:10.358974,-0.04397120376590665
2023-01-29 15:01:10.363974,-0.04166225716471677
2023-01-29 15:01:10.368974,-0.03776178788171184
2023-01-29 15:01:10.373974,-0.03324806690216062
2023-01-29 15:01:10.378974,-0.026523436268073432
2023-01-29 15:01:10.383974,-0.016563933342695198
2023-01-29 15:01:10.388974,-0.005345459041494223
2023-01-29 15:01:10.393974,0.0051927566528319645
2023-01-29 15:01:10.398974,0.015603144098704556
2023-01-29 15:01:10.403974,0.02625226974487301
2023-01-29 15:01:10.408974,0.03524019327902016
2023-01-29 15:01:10.413974,0.04110932350158687
2023-01-29 15:01:10.418974,0.04480529404630621
2023-01-29 15:01:10.423974,0.0470713786780834
2023-01-29 15:01:10.428974,0.04668157241605524
2023-01-29 15:01:10.433974,0.042936407029628705
2023-01-29 15:01:10.438974,0.03713808826320118
2023-01-29 15:01:10.443974,0.030170878395438184
2023-01-29 15:01:10.448974,0.021521752250319087
2023-01-29 15:01:10.453974,0.011900067329406714
2023-01-29 15:01:10.458974,0.0035990196895422837
2023-01-29 15:01:10.463974,-0.0030291080474852804
2023-01-29 15:01:10.468974,-0.010096936480615644
2023-01-29 15:01:10.473974,-0.01788616180419916
2023-01-29 15:01:10.478974,-0.023598418536808944
2023-01-29 15:01:10.483974,-0.02591570280492296
2023-01-29 15:01:10.488974,-0.02720104388757493
2023-01-29 15:01:10.493974,-0.029425621032714837
2023-01-29 15:01:10.498974,-0.031466127439313776
2023-01-29 15:01:10.503974,-0.03233452886343007
2023-01-29 15:01:10.508974,-0.03349173359080008
2023-01-29 15:01:10.513974,-0.03560404106974599
2023-01-29 15:01:10.518974,-0.036011325086458
2023-01-29 15:01:10.523974,-0.031445026397705
2023-01-29 15:01:10.528974,-0.02019592152527201
2023-01-29 15:01:10.533974,0.0003846486506516461
2023-01-29 15:01:10.538974,0.03503569728038673
2023-01-29 15:01:10.543974,0.0859930142760276
2023-01-29 15:01:10.548974,0.14862506279500293
2023-01-29 15:01:10.553974,0.21268665790557856
2023-01-29 15:01:10.558974,0.26522421934113266
2023-01-29 15:01:10.563974,0.29153963923454274
2023-01-29 15:01:10.568974,0.2784528618759696
2023-01-29 15:01:10.573974,0.22182206809520716
2023-01-29 15:01:10.578974,0.13100312203878814
2023-01-29 15:01:10.583974,0.024833878502249673
2023-01-29 15:01:10.588974,-0.07572623563039928
2023-01-29 15:01:10.593974,-0.1522968262434004
2023-01-29 15:01:10.598974,-0.19284456022427252
2023-01-29 15:01:10.603974,-0.19607464969158164
2023-01-29 15:01:10.608974,-0.17147644454773087
2023-01-29 15:01:10.613974,-0.13270378112792958
2023-01-29 15:01:10.618974,-0.090949006428784
2023-01-29 15:01:10.623974,-0.05380272865295416
2023-01-29 15:01:10.628974,-0.026045662622033214
2023-01-29 15:01:10.633974,-0.008462270721793109
2023-01-29 15:01:10.638974,0.002126449426924798
2023-01-29 15:01:10.643974,0.009183486923575424
2023-01-29 15:01:10.648974,0.013816749954681644
2023-01-29 15:01:10.653974,0.016539892181754088
2023-01-29 15:01:10.658974,0.019058326472261702
2023-01-29 15:01:10.663974,0.02250194549560546
2023-01-29 15:01:10.668974,0.025982036917445526
2023-01-29 15:01:10.673974,0.028680365532636604
2023-01-29 15:01:10.678974,0.03152931407114411
2023-01-29 15:01:10.683974,0.035315554589033175
2023-01-29 15:01:10.688974,0.03910349077337573
2023-01-29 15:01:10.693974,0.04211902618408205
2023-01-29 15:01:10.698974,0.04529799159978645
2023-01-29 15:01:10.703974,0.049451392143964726
2023-01-29 15:01:10.708974,0.053798578213794274
2023-01-29 15:01:10.713974,0.05784153938293452
2023-01-29 15:01:10.718974,0.06284075727524015
2023-01-29 15:01:10.723974,0.06993393599987034
2023-01-29 15:01:10.728974,0.07858107296045959
2023-01-29 15:01:10.733974,0.08827686309814453
2023-01-29 15:01:10.738974,0.0999380824159685
2023-01-29 15:01:10.743974,0.11409640312194816
2023-01-29 15:01:10.748974,0.1294515202500601
2023-01-29 15:01:10.753974,0.14462789893150313
2023-01-29 15:01:10.758974,0.15965603124481537
2023-01-29 15:01:10.763974,0.17439007759094222
2023-01-29 15:01:10.768974,0.18726622314171876
2023-01-29 15:01:10.773974,0.19708435237407668
2023-01-29 15:01:10.778974,0.20438195723487654
2023-01-29 15:01:10.783974,0.20970563590526575
2023-01-29 15:01:10.788974,0.21215606607504783
2023-01-29 15:01:10.793974,0.21090766787528983
2023-01-29 15:01:10.798974,0.20646609854574619
2023-01-29 15:01:10.803974,0.19910375773906697
2023-01-29 15:01:10.808974,0.18772062251441252
2023-01-29 15:01:10.813974,0.17162542045116408
2023-01-29 15:01:10.818974,0.15194034815575172
2023-01-29 15:01:10.823974,0.13005933165550226
2023-01-29 15:01:10.828974,0.10632557270517963
2023-01-29 15:01:10.833974,0.08142530918121332
2023-01-29 15:01:10.838974,0.05740500894150249
2023-01-29 15:01:10.843974,0.03594060987234118
2023-01-29 15:01:10.848974,0.01701484464254806
2023-01-29 15:01:10.853974,0.00040868920041245356
2023-01-29 15:01:10.858974,-0.013085323596958753
2023-01-29 15:01:10.863974,-0.02310295961797226
2023-01-29 15:01:10.868974,-0.03077038191917927
2023-01-29 15:01:10.873974,-0.03709455579519263
2023-01-29 15:01:10.878974,-0.04173429950637746
2023-01-29 15:01:10.883974,-0.044450961053371374
2023-01-29 15:01:10.888974,-0.04622846740806151
2023-01-29 15:01:10.893974,-0.047792594879865605
2023-01-29 15:01:10.898974,-0.04851089305697075
2023-01-29 15:01:10.903974,-0.04791279882192601
2023-01-29 15:01:10.908974,-0.04685348419135542
2023-01-29 15:01:10.913974,-0.04606167599558823
2023-01-29 15:01:10.918974,-0.04498167311585496
2023-01-29 15:01:10.923974,-0.043152771890163366
2023-01-29 15:01:10.928974,-0.0412953153558066
2023-01-29 15:01:10.933974,-0.039931338280439245
2023-01-29 15:01:10.938974,-0.03834921682333797
2023-01-29 15:01:10.943974,-0.03603677079081522
2023-01-29 15:01:10.948974,-0.03377166475603117
2023-01-29 15:01:10.953974,-0.03223836421966546
2023-01-29 15:01:10.958974,-0.030930431102949126
2023-01-29 15:01:10.963974,-0.02944966219365592
2023-01-29 15:01:10.968974,-0.028511306052784614
2023-01-29 15:01:10.973974,-0.02860824391245841
2023-01-29 15:01:10.978974,-0.02900403846536753
2023-01-29 15:01:10.983974,-0.029065012931823658
2023-01-29 15:01:10.988974,-0.029286355295870786
2023-01-29 15:01:10.993974,-0.03002663515508169
2023-01-29 15:01:10.998974,-0.030549754489644587
2023-01-29 15:01:11.003974,-0.03031512163579464
2023-01-29 15:01:11.008974,-0.02995303808768876
2023-01-29 15:01:11.013974,-0.030026635155081662
2023-01-29 15:01:11.018974,-0.030095194839326846
2023-01-29 15:01:11.023974,-0.02990643307566638
2023-01-29 15:01:11.028974,-0.030224545949012856
2023-01-29 15:01:11.033974,-0.03154119104146948
2023-01-29 15:01:11.038974,-0.0331817845080497
2023-01-29 15:01:11.043974,-0.03454625606536863
2023-01-29 15:01:11.048974,-0.03600808738338272
2023-01-29 15:01:11.053974,-0.03776768967509259
2023-01-29 15:01:11.058974,-0.03906855983319632
2023-01-29 15:01:11.063974,-0.039378404617309494
2023-01-29 15:01:11.068974,-0.03914833951935286
2023-01-29 15:01:11.073974,-0.0386571884155273
2023-01-29 15:01:11.078974,-0.03733289735881522
2023-01-29 15:01:11.083974,-0.034930907189846
2023-01-29 15:01:11.088974,-0.03215284237219291
2023-01-29 15:01:11.093974,-0.02944966219365592
2023-01-29 15:01:11.098974,-0.02646328079073096
2023-01-29 15:01:11.103974,-0.023175081238150482
2023-01-29 15:01:11.108974,-0.02017016349153537
2023-01-29 15:01:11.113974,-0.017188986763358116
2023-01-29 15:01:11.118974,-0.01298636922303274
2023-01-29 15:01:11.123974,-0.007380445953458481
2023-01-29 15:01:11.128974,-0.001975482899254738
2023-01-29 15:01:11.133974,0.0018511216621844822
2023-01-29 15:01:11.138974,0.004165797758797491
2023-01-29 15:01:11.143974,0.005024473182856989
2023-01-29 15:01:11.148974,0.003533636952557856
2023-01-29 15:01:11.153974,-0.0006490945816040702
2023-01-29 15:01:11.158974,-0.006387000836063255
2023-01-29 15:01:11.163974,-0.012621283531188856
2023-01-29 15:01:11.168974,-0.019458839609654513
2023-01-29 15:01:11.173974,-0.02680520340800284
2023-01-29 15:01:11.178974,-0.03337242204583899
2023-01-29 15:01:11.183974,-0.0380802154541015
2023-01-29 15:01:11.188974,-0.041171376053864596
2023-01-29 15:01:11.193974,-0.04305660724639884
2023-01-29 15:01:11.198974,-0.04341912214547837
2023-01-29 15:01:11.203974,-0.042407512664794894
2023-01-29 15:01:11.208974,-0.041357953822989686
2023-01-29 15:01:11.213974,-0.04127760976552963
2023-01-29 15:01:11.218974,-0.041734188151815704
2023-01-29 15:01:11.223974,-0.04202286526560781
2023-01-29 15:01:11.228974,-0.04203085209077292
2023-01-29 15:01:11.233974,-0.040868919342756216
2023-01-29 15:01:11.238974,-0.035736395245151306
2023-01-29 15:01:11.243974,-0.023030837997794092
2023-01-29 15:01:11.248974,0.00034315354633026847
2023-01-29 15:01:11.253974,0.03690223023295396
2023-01-29 15:01:11.258974,0.08741750806600723
2023-01-29 15:01:11.263974,0.14765700697898848
2023-01-29 15:01:11.268974,0.20670140479051188
2023-01-29 15:01:11.273974,0.24968504905700667
2023-01-29 15:01:11.278974,0.2627189238795155
2023-01-29 15:01:11.283974,0.23701569437980644
2023-01-29 15:01:11.288974,0.17232810804283444
2023-01-29 15:01:11.293974,0.07926166057586657
2023-01-29 15:01:11.298974,-0.02274584780430399
2023-01-29 15:01:11.303974,-0.11248569190502158
2023-01-29 15:01:11.308974,-0.17432498434419463
2023-01-29 15:01:11.313974,-0.20148377120494843
2023-01-29 15:01:11.318974,-0.19596580505119296
2023-01-29 15:01:11.323974,-0.1670096367597579
2023-01-29 15:01:11.328974,-0.12743456394638877
2023-01-29 15:01:11.333974,-0.08832494914531698
2023-01-29 15:01:11.338974,-0.05580119843882293
2023-01-29 15:01:11.343974,-0.031853716820478425
2023-01-29 15:01:11.348974,-0.016340446465573578
2023-01-29 15:01:11.353974,-0.0075006484985351415
2023-01-29 15:01:11.358974,-0.0024403948238895102
2023-01-29 15:01:11.363974,0.0010818243026733114
2023-01-29 15:01:11.368974,0.0036987000811909755
2023-01-29 15:01:11.373974,0.005673567764460995
2023-01-29 15:01:11.378974,0.007903938131352001
2023-01-29 15:01:11.383974,0.010962486267089778
2023-01-29 15:01:11.388974,0.014358593404582905
2023-01-29 15:01:11.393974,0.017669796943664478
2023-01-29 15:01:11.398974,0.021401089972052968
2023-01-29 15:01:11.403974,0.025963783264160132
2023-01-29 15:01:11.408974,0.030898028562617547
2023-01-29 15:01:11.413974,0.03591656684875478
2023-01-29 15:01:11.418974,0.041655320719813434
2023-01-29 15:01:11.423974,0.048585932701826005
2023-01-29 15:01:11.428974,0.0562261923094195
2023-01-29 15:01:11.433974,0.06421228498220438
2023-01-29 15:01:11.438974,0.07312071907278528
2023-01-29 15:01:11.443974,0.08346875756978986
2023-01-29 15:01:11.448974,0.09494435982384358
2023-01-29 15:01:11.453974,0.10736505687236775
2023-01-29 15:01:11.458974,0.12129435925216742
2023-01-29 15:01:11.463974,0.13686279952526087
2023-01-29 15:01:11.468974,0.15295665716895093
2023-01-29 15:01:11.473974,0.16833186149597157
2023-01-29 15:01:11.478974,0.1825552981709777
2023-01-29 15:01:11.483974,0.1951851546764373
2023-01-29 15:01:11.488974,0.20516374457072148
2023-01-29 15:01:11.493974,0.2118692845106124
2023-01-29 15:01:11.498974,0.21576965238313148
2023-01-29 15:01:11.503974,0.21723031997680656
2023-01-29 15:01:11.508974,0.21561058845026168
2023-01-29 15:01:11.513974,0.21023452281951893
2023-01-29 15:01:11.518974,0.2012401192855037
2023-01-29 15:01:11.523974,0.18876633048057545
2023-01-29 15:01:11.528974,0.17239805708363234
2023-01-29 15:01:11.533974,0.15227279067039473
2023-01-29 15:01:11.538974,0.12981064893051675
2023-01-29 15:01:11.543974,0.10659575462341304
2023-01-29 15:01:11.548974,0.08343648053802583
2023-01-29 15:01:11.553974,0.06113509461283682
2023-01-29 15:01:11.558974,0.041051472020077466
2023-01-29 15:01:11.563974,0.024040540680289192
2023-01-29 15:01:11.568974,0.009740792387856193
2023-01-29 15:01:11.573974,-0.0023559730034321165
2023-01-29 15:01:11.578974,-0.01206254554000073
2023-01-29 15:01:11.583974,-0.019376676529645854
2023-01-29 15:01:11.588974,-0.025144970933668447
2023-01-29 15:01:11.593974,-0.030050676316022786
2023-01-29 15:01:11.598974,-0.03385982456637761
2023-01-29 15:01:11.603974,-0.036373339593410395
2023-01-29 15:01:11.608974,-0.038149174493169805
2023-01-29 15:01:11.613974,-0.039546690881252206
2023-01-29 15:01:11.618974,-0.04002987814442081
2023-01-29 15:01:11.623974,-0.03918608278036105
2023-01-29 15:01:11.628974,-0.03752086595475274
2023-01-29 15:01:11.633974,-0.03553191944956772
2023-01-29 15:01:11.638974,-0.03294802993286104
2023-01-29 15:01:11.643974,-0.0296179465949535
2023-01-29 15:01:11.648974,-0.02619862198656372
2023-01-29 15:01:11.653974,-0.023199122399091672
2023-01-29 15:01:11.658974,-0.020255367119113257
2023-01-29 15:01:11.663974,-0.017092823982238665
2023-01-29 15:01:11.668974,-0.014291989337077647
2023-01-29 15:01:11.673974,-0.012356838211417068
2023-01-29 15:01:11.678974,-0.010938986602145552
2023-01-29 15:01:11.683974,-0.009736418724060053
2023-01-29 15:01:11.688974,-0.009242479155817707
2023-01-29 15:01:11.693974,-0.009808540344238243
2023-01-29 15:01:11.698974,-0.010832730892542362
2023-01-29 15:01:11.703974,-0.011683702468872027
2023-01-29 15:01:11.708974,-0.012626003016883075
2023-01-29 15:01:11.713974,-0.01406371593475338
2023-01-29 15:01:11.718974,-0.015647661856039823
2023-01-29 15:01:11.723974,-0.016876459121704154
2023-01-29 15:01:11.728974,-0.017828526623291794
2023-01-29 15:01:11.733974,-0.018583338707685405
2023-01-29 15:01:11.738974,-0.01864864485098328
2023-01-29 15:01:11.743974,-0.017645757645368434
2023-01-29 15:01:11.748974,-0.015870370235129248
2023-01-29 15:01:11.753974,-0.013582905754446907
2023-01-29 15:01:11.758974,-0.010491708109997982
2023-01-29 15:01:11.763974,-0.006514986511319781
2023-01-29 15:01:11.768974,-0.0022677765221505598
2023-01-29 15:01:11.773974,0.0018030405044555285
2023-01-29 15:01:11.778974,0.006002035618245315
2023-01-29 15:01:11.783974,0.010553797706961594
2023-01-29 15:01:11.788974,0.014979264718857915
2023-01-29 15:01:11.793974,0.018823742866516047
2023-01-29 15:01:11.798974,0.022157224192329066
2023-01-29 15:01:11.803974,0.02478579804301259
2023-01-29 15:01:11.808974,0.025819815604790023
2023-01-29 15:01:11.813974,0.024641554802656087
2023-01-29 15:01:11.818974,0.021535122451688787
2023-01-29 15:01:11.823974,0.016852419823408106
2023-01-29 15:01:11.828974,0.010435118693116825
2023-01-29 15:01:11.833974,0.002452135086059447
2023-01-29 15:01:11.838974,-0.0060377359480353375
2023-01-29 15:01:11.843974,-0.013967554084956561
2023-01-29 15:01:11.848974,-0.020940019459273082
2023-01-29 15:01:11.853974,-0.026564797386527002
2023-01-29 15:01:11.858974,-0.03008302621290119
2023-01-29 15:01:11.863974,-0.03132482618093487
2023-01-29 15:01:11.868974,-0.031241756180350723
2023-01-29 15:01:11.873974,-0.03086805343627921
2023-01-29 15:01:11.878974,-0.030469737056131055
2023-01-29 15:01:11.883974,-0.030146837234496987
2023-01-29 15:01:11.888974,-0.03029904989847444
2023-01-29 15:01:11.893974,-0.030795931816101026
2023-01-29 15:01:11.898974,-0.030412037897145087
2023-01-29 15:01:11.903974,-0.02755045890808099
2023-01-29 15:01:11.908974,-0.020583370527201054
2023-01-29 15:01:11.913974,-0.006875594612210903
2023-01-29 15:01:11.918974,0.017439863458592147
2023-01-29 15:01:11.923974,0.05541344732046114
2023-01-29 15:01:11.928974,0.10666820962822883
2023-01-29 15:01:11.933974,0.1661441773176192
2023-01-29 15:01:11.938974,0.2238557367636572
2023-01-29 15:01:11.943974,0.2656479775905609
2023-01-29 15:01:11.948974,0.27671562287967494
2023-01-29 15:01:11.953974,0.2477618157863616
2023-01-29 15:01:11.958974,0.17990334946621941
2023-01-29 15:01:11.963974,0.08498331159353252
2023-01-29 15:01:11.968974,-0.01800306277966059
2023-01-29 15:01:11.973974,-0.10820647329092022
2023-01-29 15:01:11.978974,-0.16900135886403
2023-01-29 15:01:11.983974,-0.19321382045745839
2023-01-29 15:01:11.988974,-0.18434189202669746
2023-01-29 15:01:11.993974,-0.15292188525199885
2023-01-29 15:01:11.998974,-0.1113429682170962
2023-01-29 15:01:12.003974,-0.07034262269735331
2023-01-29 15:01:12.008974,-0.03710455836264091
2023-01-29 15:01:12.013974,-0.014207959175109787
2023-01-29 15:01:12.018974,-0.0003325235566672025
2023-01-29 15:01:12.023974,0.00726024340838191
2023-01-29 15:01:12.028974,0.010847308135628382
2023-01-29 15:01:12.033974,0.012308756820857454
2023-01-29 15:01:12.038974,0.01344542833281894
2023-01-29 15:01:12.043974,0.015265743248164624
2023-01-29 15:01:12.048974,0.01764925083662062
2023-01-29 15:01:12.053974,0.020338296890258695
2023-01-29 15:01:12.058974,0.023624640055967466
2023-01-29 15:01:12.063974,0.02767066285014152
2023-01-29 15:01:12.068974,0.03205008475579883
2023-01-29 15:01:12.073974,0.0365416221320629
2023-01-29 15:01:12.078974,0.04158879639936838
2023-01-29 15:01:12.083974,0.04743198677897456
2023-01-29 15:01:12.088974,0.05357134628551501
2023-01-29 15:01:12.093974,0.05962054058909412
2023-01-29 15:01:12.098974,0.06591607744303284
2023-01-29 15:01:12.103974,0.07279475778341289
2023-01-29 15:01:12.108974,0.08011433888826978
2023-01-29 15:01:12.113974,0.08803646266460415
2023-01-29 15:01:12.118974,0.09744266862004053
2023-01-29 15:01:12.123974,0.1089517325162887
2023-01-29 15:01:12.128974,0.12221820033753196
2023-01-29 15:01:12.133974,0.13664643466472615
2023-01-29 15:01:12.138974,0.15194481336936924
2023-01-29 15:01:12.143974,0.16744236648082725
2023-01-29 15:01:12.148974,0.18173708987046053
2023-01-29 15:01:12.153974,0.1936946362257002
2023-01-29 15:01:12.158974,0.20312762408111862
2023-01-29 15:01:12.163974,0.2100181579589842
2023-01-29 15:01:12.168974,0.21386867516304292
2023-01-29 15:01:12.173974,0.21432141959667195
2023-01-29 15:01:12.178974,0.21155733018607223
2023-01-29 15:01:12.183974,0.20547449588775618
2023-01-29 15:01:12.188974,0.1952559801495206
2023-01-29 15:01:12.193974,0.18037617206573475
2023-01-29 15:01:12.198974,0.16138380365471808
2023-01-29 15:01:12.203974,0.13926684856414784
2023-01-29 15:01:12.208974,0.11488281810503174
2023-01-29 15:01:12.213974,0.08952697366476048
2023-01-29 15:01:12.218974,0.06515064888952955
2023-01-29 15:01:12.223974,0.043272972106933476
2023-01-29 15:01:12.228974,0.024257352519334693
2023-01-29 15:01:12.233974,0.008077621459960908
2023-01-29 15:01:12.238974,-0.00502031488097005
2023-01-29 15:01:12.243974,-0.015121500007808191
2023-01-29 15:01:12.248974,-0.02302049209908281
2023-01-29 15:01:12.253974,-0.02932946011424057
2023-01-29 15:01:12.258974,-0.0338944794129442
2023-01-29 15:01:12.263974,-0.036613743752241114
2023-01-29 15:01:12.268974,-0.03806508913450796
2023-01-29 15:01:12.273974,-0.038777392357587794
2023-01-29 15:01:12.278974,-0.03865953475363779
2023-01-29 15:01:12.283974,-0.03771960735321043
2023-01-29 15:01:12.288974,-0.03657510136217442
2023-01-29 15:01:12.293974,-0.035652123391628224
2023-01-29 15:01:12.298974,-0.0346091289473736
2023-01-29 15:01:12.303974,-0.033127866685390424
2023-01-29 15:01:12.308974,-0.03155210890862157
2023-01-29 15:01:12.313974,-0.030194919556379266
2023-01-29 15:01:12.318974,-0.028773071314792256
2023-01-29 15:01:12.323974,-0.02711772918701169
2023-01-29 15:01:12.328974,-0.02570998195500441
2023-01-29 15:01:12.333974,-0.02490600012242788
2023-01-29 15:01:12.338974,-0.024325075404780815
2023-01-29 15:01:12.343974,-0.023583769798278757
2023-01-29 15:01:12.348974,-0.02293916223539671
2023-01-29 15:01:12.353974,-0.022622149437665873
2023-01-29 15:01:12.358974,-0.022223587506679406
2023-01-29 15:01:12.363974,-0.02134799957275391
2023-01-29 15:01:12.368974,-0.020250999396795984
2023-01-29 15:01:12.373974,-0.019280513748526473
2023-01-29 15:01:12.378974,-0.018316707805177822
2023-01-29 15:01:12.383974,-0.01728514954447737
2023-01-29 15:01:12.388974,-0.016575080852126983
2023-01-29 15:01:12.393974,-0.016419690102338687
2023-01-29 15:01:12.398974,-0.016481830583621983
2023-01-29 15:01:12.403974,-0.016539892181754084
2023-01-29 15:01:12.408974,-0.016949024557434123
2023-01-29 15:01:12.413974,-0.017958283424377365
2023-01-29 15:01:12.418974,-0.019219853682941077
2023-01-29 15:01:12.423974,-0.02041041851043703
2023-01-29 15:01:12.428974,-0.021640400848330823
2023-01-29 15:01:12.433974,-0.0227904319763183
2023-01-29 15:01:12.438974,-0.02316686921754526
2023-01-29 15:01:12.443974,-0.022333662956952972
2023-01-29 15:01:12.448974,-0.020640777412224413
2023-01-29 15:01:12.453974,-0.018487175926566086
2023-01-29 15:01:12.458974,-0.015748352435433408
2023-01-29 15:01:12.463974,-0.012356838211417009
2023-01-29 15:01:12.468974,-0.008692313779719237
2023-01-29 15:01:12.473974,-0.0049042701721191025
2023-01-29 15:01:12.478974,-0.0005880827869931029
2023-01-29 15:01:12.483974,0.00432729721069335
2023-01-29 15:01:12.488974,0.009025516179651874
2023-01-29 15:01:12.493974,0.01259724330157037
2023-01-29 15:01:12.498974,0.01471548380594003
2023-01-29 15:01:12.503974,0.015121500007808205
2023-01-29 15:01:12.508974,0.013241557519578883
2023-01-29 15:01:12.513974,0.008870959281921297
2023-01-29 15:01:12.518974,0.0025698081995666417
2023-01-29 15:01:12.523974,-0.005096594803035202
2023-01-29 15:01:12.528974,-0.014013359250854757
2023-01-29 15:01:12.533974,-0.02375205419957629
2023-01-29 15:01:12.538974,-0.03309469572159546
2023-01-29 15:01:12.543974,-0.040868919342756216
2023-01-29 15:01:12.548974,-0.0466657506304295
2023-01-29 15:01:12.553974,-0.05038897320628161
2023-01-29 15:01:12.558974,-0.05191759644018645
2023-01-29 15:01:12.563974,-0.051735244691371904
2023-01-29 15:01:12.568974,-0.051115309459257255
2023-01-29 15:01:12.573974,-0.05103806778788565
2023-01-29 15:01:12.578974,-0.05143491355593023
2023-01-29 15:01:12.583974,-0.051807366311550127
2023-01-29 15:01:12.588974,-0.051742686670979
2023-01-29 15:01:12.593974,-0.050220690667629166
2023-01-29 15:01:12.598974,-0.0450322310838107
2023-01-29 15:01:12.603974,-0.033344231545925106
2023-01-29 15:01:12.608974,-0.01229027536306871
2023-01-29 15:01:12.613974,0.02096335217356676
2023-01-29 15:01:12.618974,0.06805738219287212
2023-01-29 15:01:12.623974,0.12662152945995325
2023-01-29 15:01:12.628974,0.1882973900529485
2023-01-29 15:01:12.633974,0.23985247313976268
2023-01-29 15:01:12.638974,0.266630593834008
2023-01-29 15:01:12.643974,0.25677701830863936
2023-01-29 15:01:12.648974,0.20581239871806065
2023-01-29 15:01:12.653974,0.12017866224050518
2023-01-29 15:01:12.658974,0.016682326327095598
2023-01-29 15:01:12.663974,-0.08308410644531249
2023-01-29 15:01:12.668974,-0.1600025133331618
2023-01-29 15:01:12.673974,-0.20254155993461592
2023-01-29 15:01:12.678974,-0.2088436700660937
2023-01-29 15:01:12.683974,-0.1861218661069868
2023-01-29 15:01:12.688974,-0.1470584222809846
2023-01-29 15:01:12.693974,-0.10431190580129619
2023-01-29 15:01:12.698974,-0.06651447693981136
2023-01-29 15:01:12.703974,-0.03771960735321037
2023-01-29 15:01:12.708974,-0.01862861377897883
2023-01-29 15:01:12.713974,-0.007572770118713296
2023-01-29 15:01:12.718974,-0.0016212369922781278
2023-01-29 15:01:12.723974,0.0017309188842773201
2023-01-29 15:01:12.728974,0.003723975182492732
2023-01-29 15:01:12.733974,0.005096594803035243
2023-01-29 15:01:12.738974,0.006769321961255253
2023-01-29 15:01:12.743974,0.009279648773372076
2023-01-29 15:01:12.748974,0.012356091031647344
2023-01-29 15:01:12.753974,0.01569847390055647
2023-01-29 15:01:12.758974,0.01957980594521707
2023-01-29 15:01:12.763974,0.024208825081586824
2023-01-29 15:01:12.768974,0.02922182254005938
2023-01-29 15:01:12.773974,0.034353934228420265
2023-01-29 15:01:12.778974,0.0399364441813149
2023-01-29 15:01:12.783974,0.04620591923594466
2023-01-29 15:01:12.788974,0.05281783677651904
2023-01-29 15:01:12.793974,0.059596501290798035
2023-01-29 15:01:12.798974,0.06710212168726587
2023-01-29 15:01:12.803974,0.07592003047466273
2023-01-29 15:01:12.808974,0.08603585448593003
2023-01-29 15:01:12.813974,0.09738823026418675
2023-01-29 15:01:12.818974,0.11028864806132178
2023-01-29 15:01:12.823974,0.12469828128814688
2023-01-29 15:01:12.828974,0.13974380712240075
2023-01-29 15:01:12.833974,0.15450856089591963
2023-01-29 15:01:12.838974,0.16867991058208337
2023-01-29 15:01:12.843974,0.18193881213664997
2023-01-29 15:01:12.848974,0.19344343221705146
2023-01-29 15:01:12.853974,0.20249347388744343
2023-01-29 15:01:12.858974,0.20902601850760372
2023-01-29 15:01:12.863974,0.21287898719310755
2023-01-29 15:01:12.868974,0.21322310087864607
2023-01-29 15:01:12.873974,0.20929694175720215
2023-01-29 15:01:12.878974,0.201086306538864
2023-01-29 15:01:12.883974,0.18879036605358118
2023-01-29 15:01:12.888974,0.17236208865765928
2023-01-29 15:01:12.893974,0.1522006690502166
2023-01-29 15:01:12.898974,0.1296450360609669
2023-01-29 15:01:12.903974,0.10616302490234367
2023-01-29 15:01:12.908974,0.08261708336465107
2023-01-29 15:01:12.913974,0.05978882312774654
2023-01-29 15:01:12.918974,0.038855453203749446
2023-01-29 15:01:12.923974,0.02067486569285389
2023-01-29 15:01:12.928974,0.005205174617443049
2023-01-29 15:01:12.933974,-0.007789134979248075
2023-01-29 15:01:12.938974,-0.01809182230547007
2023-01-29 15:01:12.943974,-0.025651257485151242
2023-01-29 15:01:12.948974,-0.031139420146728422
2023-01-29 15:01:12.953974,-0.035243432968854925
2023-01-29 15:01:12.958974,-0.03800887871158929
2023-01-29 15:01:12.963974,-0.039474569261074
2023-01-29 15:01:12.968974,-0.04028634812227438
2023-01-29 15:01:12.973974,-0.04101316258311269
2023-01-29 15:01:12.978974,-0.04146650501017528
2023-01-29 15:01:12.983974,-0.041349731385707716
2023-01-29 15:01:12.988974,-0.0409622400922831
2023-01-29 15:01:12.993974,-0.04058043286204326
2023-01-29 15:01:12.998974,-0.039765194212876644
2023-01-29 15:01:13.003974,-0.03805617615580556
2023-01-29 15:01:13.008974,-0.035849948587361055
2023-01-29 15:01:13.013974,-0.03384908288717259
2023-01-29 15:01:13.018974,-0.032085024304378124
2023-01-29 15:01:13.023974,-0.03019491955637931
2023-01-29 15:01:13.028974,-0.028256048385569353
2023-01-29 15:01:13.033974,-0.026636919006705246
2023-01-29 15:01:13.038974,-0.025335712334878583
2023-01-29 15:01:13.043974,-0.024088621139526305
2023-01-29 15:01:13.048974,-0.022862115280147647
2023-01-29 15:01:13.053974,-0.021732648834586143
2023-01-29 15:01:13.058974,-0.02059781680605014
2023-01-29 15:01:13.063974,-0.019472837448120096
2023-01-29 15:01:13.068974,-0.018736150753982068
2023-01-29 15:01:13.073974,-0.018655460327863665
2023-01-29 15:01:13.078974,-0.01901636814098623
2023-01-29 15:01:13.083974,-0.019569000229239405
2023-01-29 15:01:13.088974,-0.02040962556661524
2023-01-29 15:01:13.093974,-0.021564364433288442
2023-01-29 15:01:13.098974,-0.02267895786206816
2023-01-29 15:01:13.103974,-0.023511648178100527
2023-01-29 15:01:13.108974,-0.024258822269816713
2023-01-29 15:01:13.113974,-0.025026202201843147
2023-01-29 15:01:13.118974,-0.025495253867834057
2023-01-29 15:01:13.123974,-0.02550701424479473
2023-01-29 15:01:13.128974,-0.025461905881547637
2023-01-29 15:01:13.133974,-0.02574741840362539
2023-01-29 15:01:13.138974,-0.026274757332210734
2023-01-29 15:01:13.143974,-0.026925405487418032
2023-01-29 15:01:13.148974,-0.027860973377155526
2023-01-29 15:01:13.153974,-0.028968852013349415
2023-01-29 15:01:13.158974,-0.029577286496378537
2023-01-29 15:01:13.163974,-0.029185216873884166
2023-01-29 15:01:13.168974,-0.027982034527664162
2023-01-29 15:01:13.173974,-0.02627631090581415
2023-01-29 15:01:13.178974,-0.023978250244197225
2023-01-29 15:01:13.183974,-0.02103547379374498
2023-01-29 15:01:13.188974,-0.01777493320341877
2023-01-29 15:01:13.193974,-0.014376243576407363
2023-01-29 15:01:13.198974,-0.010601130966581135
2023-01-29 15:01:13.203974,-0.006514986511319802
2023-01-29 15:01:13.208974,-0.002930768859533359
2023-01-29 15:01:13.213974,-0.0006971756811252637
2023-01-29 15:01:13.218974,-7.502807464118652e-05
2023-01-29 15:01:13.223974,-0.0011779865017159637
2023-01-29 15:01:13.228974,-0.004365514529375924
2023-01-29 15:01:13.233974,-0.009688338264822913
2023-01-29 15:01:13.238974,-0.01649443735335048
2023-01-29 15:01:13.243974,-0.024040540680289154
2023-01-29 15:01:13.248974,-0.03194931275904592
2023-01-29 15:01:13.253974,-0.03966689109802243
2023-01-29 15:01:13.258974,-0.04613354904102232
2023-01-29 15:01:13.263974,-0.05055725574493395
2023-01-29 15:01:13.268974,-0.05304226307721416
2023-01-29 15:01:13.273974,-0.0540671758353709
2023-01-29 15:01:13.278974,-0.053936520035472425
2023-01-29 15:01:13.283974,-0.05315363407135002
2023-01-29 15:01:13.288974,-0.05262331434639471
2023-01-29 15:01:13.293974,-0.05284110829234118
2023-01-29 15:01:13.298974,-0.053291972612176226
2023-01-29 15:01:13.303974,-0.052985351532697574
2023-01-29 15:01:13.308974,-0.05088173716418636
2023-01-29 15:01:13.313974,-0.04519621655344961
2023-01-29 15:01:13.318974,-0.03282966551261797
2023-01-29 15:01:13.323974,-0.010193189606070518
2023-01-29 15:01:13.328974,0.025360759400815676
2023-01-29 15:01:13.333974,0.0743814334273338
2023-01-29 15:01:13.338974,0.13378628809513435
2023-01-29 15:01:13.343974,0.19504091143608077
2023-01-29 15:01:13.348974,0.24437049917242096
2023-01-29 15:01:13.353974,0.26653748750686634
2023-01-29 15:01:13.358974,0.2503738465337652
2023-01-29 15:01:13.363974,0.19316574931144698
2023-01-29 15:01:13.368974,0.10266064365982265
2023-01-29 15:01:13.373974,-0.003846486564725602
2023-01-29 15:01:13.378974,-0.10421628788649892
2023-01-29 15:01:13.383974,-0.17890970408916473
2023-01-29 15:01:13.388974,-0.21721700719451317
2023-01-29 15:01:13.393974,-0.21903336048126215
2023-01-29 15:01:13.398974,-0.19269615714763025
2023-01-29 15:01:13.403974,-0.15109479427337635
2023-01-29 15:01:13.408974,-0.10718717477359098
2023-01-29 15:01:13.413974,-0.06995797157287588
2023-01-29 15:01:13.418974,-0.04282855299234948
2023-01-29 15:01:13.423974,-0.025170445442199697
2023-01-29 15:01:13.428974,-0.014745628670672813
2023-01-29 15:01:13.433974,-0.008967122063040667
2023-01-29 15:01:13.438974,-0.00543659608928949
2023-01-29 15:01:13.443974,-0.0027165811043231257
2023-01-29 15:01:13.448974,-0.0005782756475946798
2023-01-29 15:01:13.453974,0.0009135405416599553
2023-01-29 15:01:13.458974,0.002186924562245726
2023-01-29 15:01:13.463974,0.0037503242492674645
2023-01-29 15:01:13.468974,0.005669658986075632
2023-01-29 15:01:13.473974,0.008005499839782668
2023-01-29 15:01:13.478974,0.011224769120326519
2023-01-29 15:01:13.483974,0.015626352280378304
2023-01-29 15:01:13.488974,0.020842800178494287
2023-01-29 15:01:13.493974,0.026420554146170623
2023-01-29 15:01:13.498974,0.03242018108048915
2023-01-29 15:01:13.503974,0.0389937572181224
2023-01-29 15:01:13.508974,0.0459327774340418
2023-01-29 15:01:13.513974,0.0531776770949363
2023-01-29 15:01:13.518974,0.06127579881749263
2023-01-29 15:01:13.523974,0.07079939544200889
2023-01-29 15:01:13.528974,0.08175149179319355
2023-01-29 15:01:13.533974,0.0939744710922241
2023-01-29 15:01:13.538974,0.10756850205889854
2023-01-29 15:01:13.543974,0.12234231084585175
2023-01-29 15:01:13.548974,0.13733165629408184
2023-01-29 15:01:13.553974,0.15140733122825617
2023-01-29 15:01:13.558974,0.16395212769094178
2023-01-29 15:01:13.563974,0.17453432083129874
2023-01-29 15:01:13.568974,0.1824919332813645
2023-01-29 15:01:13.573974,0.18739601969718928
2023-01-29 15:01:13.578974,0.18943250723646185
2023-01-29 15:01:13.583974,0.1887663304805754
2023-01-29 15:01:13.588974,0.18494719456129935
2023-01-29 15:01:13.593974,0.17741918563842757
2023-01-29 15:01:13.598974,0.16616080233872604
2023-01-29 15:01:13.603974,0.1513832807540893
2023-01-29 15:01:13.608974,0.13316277333077453
2023-01-29 15:01:13.613974,0.11195679754018774
2023-01-29 15:01:13.618974,0.08904255808580505
2023-01-29 15:01:13.623974,0.06589512526988975
2023-01-29 15:01:13.628974,0.043491984066804074
2023-01-29 15:01:13.633974,0.022598108276724826
2023-01-29 15:01:13.638974,0.004137859543653732
2023-01-29 15:01:13.643974,-0.01132309436798092
2023-01-29 15:01:13.648974,-0.024045940947346144
2023-01-29 15:01:13.653974,-0.03454625606536857
2023-01-29 15:01:13.658974,-0.04295128544316961
2023-01-29 15:01:13.663974,-0.04935523122549053
2023-01-29 15:01:13.668974,-0.05428318358800934
2023-01-29 15:01:13.673974,-0.058226190507411964
2023-01-29 15:01:13.678974,-0.06112582050004134
2023-01-29 15:01:13.683974,-0.0628419741988183
2023-01-29 15:01:13.688974,-0.06372521021847032
2023-01-29 15:01:13.693974,-0.06421228498220441
2023-01-29 15:01:13.698974,-0.06424777115905664
2023-01-29 15:01:13.703974,-0.06361126899719226
2023-01-29 15:01:13.708974,-0.06244952380599879
2023-01-29 15:01:13.713974,-0.06101489067077626
2023-01-29 15:01:13.718974,-0.0592515088016558
2023-01-29 15:01:13.723974,-0.05709628388285627
2023-01-29 15:01:13.728974,-0.05481824475826267
2023-01-29 15:01:13.733974,-0.052624743431806474
2023-01-29 15:01:13.738974,-0.050304647226765066
2023-01-29 15:01:13.743974,-0.04767239093780508
2023-01-29 15:01:13.748974,-0.04498314977789019
2023-01-29 15:01:13.753974,-0.04252771660685522
2023-01-29 15:01:13.758974,-0.040235120766757775
2023-01-29 15:01:13.763974,-0.038056176155805456
2023-01-29 15:01:13.768974,-0.03628699011694464
2023-01-29 15:01:13.773974,-0.03509918972849842
2023-01-29 15:01:13.778974,-0.034185358112135814
2023-01-29 15:01:13.783974,-0.03327210992574684
2023-01-29 15:01:13.788974,-0.03254614444373478
2023-01-29 15:01:13.793974,-0.032190285623073425
2023-01-29 15:01:13.798974,-0.03197628311689122
2023-01-29 15:01:13.803974,-0.03173351287841785
2023-01-29 15:01:13.808974,-0.031753601753499706
2023-01-29 15:01:13.813974,-0.032310485839843694
2023-01-29 15:01:13.818974,-0.03323757213647158
2023-01-29 15:01:13.823974,-0.034377973526716135
2023-01-29 15:01:13.828974,-0.03595213963894101
2023-01-29 15:01:13.833974,-0.03803213685750951
2023-01-29 15:01:13.838974,-0.04012521717018349
2023-01-29 15:01:13.843974,-0.04173437878489488
2023-01-29 15:01:13.848974,-0.04290076965763884
2023-01-29 15:01:13.853974,-0.04380186647176731
2023-01-29 15:01:13.858974,-0.04431946893832174
2023-01-29 15:01:13.863974,-0.04445096105337143
2023-01-29 15:01:13.868974,-0.04464432031672267
2023-01-29 15:01:13.873974,-0.04522025585174563
2023-01-29 15:01:13.878974,-0.045868888574129914
2023-01-29 15:01:13.883974,-0.046133797615766484
2023-01-29 15:01:13.888974,-0.045945954295041766
2023-01-29 15:01:13.893974,-0.04529237747192377
2023-01-29 15:01:13.898974,-0.0438981168517784
2023-01-29 15:01:13.903974,-0.041734378784894846
2023-01-29 15:01:13.908974,-0.03936413165701232
2023-01-29 15:01:13.913974,-0.03726283833384511
2023-01-29 15:01:13.918974,-0.035178180076058746
2023-01-29 15:01:13.923974,-0.03257493302226059
2023-01-29 15:01:13.928974,-0.029276240262161347
2023-01-29 15:01:13.933974,-0.025290649384260074
2023-01-29 15:01:13.938974,-0.020576561691331135
2023-01-29 15:01:13.943974,-0.015530189499258938
2023-01-29 15:01:13.948974,-0.011266264485316682
2023-01-29 15:01:13.953974,-0.008870959281921302
2023-01-29 15:01:13.958974,-0.00868516830610712
2023-01-29 15:01:13.963974,-0.010649959556758393
2023-01-29 15:01:13.968974,-0.014819659724898161
2023-01-29 15:01:13.973974,-0.02103547379374496
2023-01-29 15:01:13.978974,-0.02855760313476966
2023-01-29 15:01:13.983974,-0.03654162213206289
2023-01-29 15:01:13.988974,-0.04450188562258757
2023-01-29 15:01:13.993974,-0.051903527230024296
2023-01-29 15:01:13.998974,-0.05781941128407029
2023-01-29 15:01:14.003974,-0.061567824333906104
2023-01-29 15:01:14.008974,-0.06335637815881498
2023-01-29 15:01:14.013974,-0.06387571990489949
2023-01-29 15:01:14.018974,-0.06366440823205444
2023-01-29 15:01:14.023974,-0.06325066089630119
2023-01-29 15:01:14.028974,-0.06333495315670457
2023-01-29 15:01:14.033974,-0.06416420638561243
2023-01-29 15:01:14.038974,-0.06496825809213992
2023-01-29 15:01:14.043974,-0.06435652822256083
2023-01-29 15:01:14.048974,-0.06075364802455238
2023-01-29 15:01:14.053974,-0.05190352723002432
2023-01-29 15:01:14.058974,-0.034441027595590507
2023-01-29 15:01:14.063974,-0.004856189247220707
2023-01-29 15:01:14.068974,0.03865662096642936
2023-01-29 15:01:14.073974,0.0945995301008223
2023-01-29 15:01:14.078974,0.15688606327039833
2023-01-29 15:01:14.083974,0.21415314078330985
2023-01-29 15:01:14.088974,0.2513632120728385
2023-01-29 15:01:14.093974,0.2545412480831145
2023-01-29 15:01:14.098974,0.2164922600962055
2023-01-29 15:01:14.103974,0.14030060172080985
2023-01-29 15:01:14.108974,0.03930299311402725
2023-01-29 15:01:14.113974,-0.0661836117506027
2023-01-29 15:01:14.118974,-0.15481676614644155
2023-01-29 15:01:14.123974,-0.21112403273582442
2023-01-29 15:01:14.128974,-0.22995813147345884
2023-01-29 15:01:14.133974,-0.21624466776847823
2023-01-29 15:01:14.138974,-0.18119918789600223
2023-01-29 15:01:14.143974,-0.13777634501457203
2023-01-29 15:01:14.148974,-0.09685440099962586
2023-01-29 15:01:14.153974,-0.06471713632345184
2023-01-29 15:01:14.158974,-0.0426988486567851
2023-01-29 15:01:14.163974,-0.02904097363352766
2023-01-29 15:01:14.168974,-0.02116357717076043
2023-01-29 15:01:14.173974,-0.016684135422110575
2023-01-29 15:01:14.178974,-0.013587537277059634
2023-01-29 15:01:14.183974,-0.01057783793658002
2023-01-29 15:01:14.188974,-0.007303054171652547
2023-01-29 15:01:14.193974,-0.0038464865647256184
2023-01-29 15:01:14.198974,-0.00015584633805812586
2023-01-29 15:01:14.203974,0.0037984054069966264
2023-01-29 15:01:14.208974,0.007728626197146828
2023-01-29 15:01:14.213974,0.011371175758540639
2023-01-29 15:01:14.218974,0.014901875021805783
2023-01-29 15:01:14.223974,0.018679499626159658
2023-01-29 15:01:14.228974,0.022843300715969093
2023-01-29 15:01:14.233974,0.027478337287902832
2023-01-29 15:01:14.238974,0.03288649400133474
2023-01-29 15:01:14.243974,0.039354365319013575
2023-01-29 15:01:14.248974,0.04689223149922142
2023-01-29 15:01:14.253974,0.05548556894063942
2023-01-29 15:01:14.258974,0.06536620622097009
2023-01-29 15:01:14.263974,0.07678548991680138
2023-01-29 15:01:14.268974,0.08972308062314073
2023-01-29 15:01:14.273974,0.1039512977004051
2023-01-29 15:01:14.278974,0.11909363235764685
2023-01-29 15:01:14.283974,0.13448278605937947
2023-01-29 15:01:14.288974,0.14924556933756086
2023-01-29 15:01:14.293974,0.16261021792888636
2023-01-29 15:01:14.298974,0.1738901775157301
2023-01-29 15:01:14.303974,0.18234750628471358
2023-01-29 15:01:14.308974,0.1876320144765322
2023-01-29 15:01:14.313974,0.19025683403015117
2023-01-29 15:01:14.318974,0.1909089318344955
2023-01-29 15:01:14.323974,0.18922309577465035
2023-01-29 15:01:14.328974,0.18396104828470117
2023-01-29 15:01:14.333974,0.1744862496852873
2023-01-29 15:01:14.338974,0.16126624840600115
2023-01-29 15:01:14.343974,0.14482021331787098
2023-01-29 15:01:14.348974,0.12517985890936295
2023-01-29 15:01:14.353974,0.10279735177755346
2023-01-29 15:01:14.358974,0.07908692705349658
2023-01-29 15:01:14.363974,0.05550960823893532
2023-01-29 15:01:14.368974,0.03280696970461774
2023-01-29 15:01:14.373974,0.011563500389456685
2023-01-29 15:01:14.378974,-0.007286132988126058
2023-01-29 15:01:14.383974,-0.023127000778913387
2023-01-29 15:01:14.388974,-0.036203887179908384
2023-01-29 15:01:14.393974,-0.04692713543772685
2023-01-29 15:01:14.398974,-0.055217396602788564
2023-01-29 15:01:14.403974,-0.06103893369436261
2023-01-29 15:01:14.408974,-0.06495129732823175
2023-01-29 15:01:14.413974,-0.06755392253398892
2023-01-29 15:01:14.418974,-0.06892632180214174
2023-01-29 15:01:14.423974,-0.06914059817790984
2023-01-29 15:01:14.428974,-0.06875743545855456
2023-01-29 15:01:14.433974,-0.06825109571218481
2023-01-29 15:01:14.438974,-0.06745951458048399
2023-01-29 15:01:14.443974,-0.06613552570343009
2023-01-29 15:01:14.448974,-0.06452961925942449
2023-01-29 15:01:14.453974,-0.0629140958189964
2023-01-29 15:01:14.458974,-0.061070615182384325
2023-01-29 15:01:14.463974,-0.058803163468837724
2023-01-29 15:01:14.468974,-0.05645661652918551
2023-01-29 15:01:14.473974,-0.05437970161437971
2023-01-29 15:01:14.478974,-0.05235319457822989
2023-01-29 15:01:14.483974,-0.050076447427272644
2023-01-29 15:01:14.488974,-0.04774029029572813
2023-01-29 15:01:14.493974,-0.045604906976222895
2023-01-29 15:01:14.498974,-0.043514101096664336
2023-01-29 15:01:14.503974,-0.041373770684003774
2023-01-29 15:01:14.508974,-0.03962929399712553
2023-01-29 15:01:14.513974,-0.03870527073740941
2023-01-29 15:01:14.518974,-0.038398022090190595
2023-01-29 15:01:14.523974,-0.03832062333822245
2023-01-29 15:01:14.528974,-0.03847564487532997
2023-01-29 15:01:14.533974,-0.03887355327606196
2023-01-29 15:01:14.538974,-0.03908767238577855
2023-01-29 15:01:14.543974,-0.03877739235758783
2023-01-29 15:01:14.548974,-0.0382398762808384
2023-01-29 15:01:14.553974,-0.03791193291544915
2023-01-29 15:01:14.558974,-0.03774231731703653
2023-01-29 15:01:14.563974,-0.0375513248145581
2023-01-29 15:01:14.568974,-0.037533203227518186
2023-01-29 15:01:14.573974,-0.03783981129527088
2023-01-29 15:01:14.578974,-0.038101748819364414
2023-01-29 15:01:14.583974,-0.03793597221374512
2023-01-29 15:01:14.588974,-0.03755115171310642
2023-01-29 15:01:14.593974,-0.037334959954023236
2023-01-29 15:01:14.598974,-0.03723683192674767
2023-01-29 15:01:14.603974,-0.03704647347331044
2023-01-29 15:01:14.608974,-0.036829967404926674
2023-01-29 15:01:14.613974,-0.036541622132062954
2023-01-29 15:01:14.618974,-0.03563244670048664
2023-01-29 15:01:14.623974,-0.03363271802663794
2023-01-29 15:01:14.628974,-0.03078809090512044
2023-01-29 15:01:14.633974,-0.027622580528259225
2023-01-29 15:01:14.638974,-0.024250441365192558
2023-01-29 15:01:14.643974,-0.020602744072675695
2023-01-29 15:01:14.648974,-0.016901913459961917
2023-01-29 15:01:14.653974,-0.013366540893912319
2023-01-29 15:01:14.658974,-0.009846967211501636
2023-01-29 15:01:14.663974,-0.006322662346064987
2023-01-29 15:01:14.668974,-0.003421964611646942
2023-01-29 15:01:14.673974,-0.0019232432823628376
2023-01-29 15:01:14.678974,-0.0020611662310760057
2023-01-29 15:01:14.683974,-0.0037743649445474287
2023-01-29 15:01:14.688974,-0.007210802702312378
2023-01-29 15:01:14.693974,-0.01242895983159544
2023-01-29 15:01:14.698974,-0.018942177290128162
2023-01-29 15:01:14.703974,-0.026083987206220606
2023-01-29 15:01:14.708974,-0.03350468180677891
2023-01-29 15:01:14.713974,-0.04084488004446017
2023-01-29 15:01:14.718974,-0.04732862083528343
2023-01-29 15:01:14.723974,-0.052264135330915354
2023-01-29 15:01:14.728974,-0.055686319409108814
2023-01-29 15:01:14.733974,-0.05805790424346912
2023-01-29 15:01:14.738974,-0.05967176030245928
2023-01-29 15:01:14.743974,-0.060774486511945704
2023-01-29 15:01:14.748974,-0.06182488870692643
2023-01-29 15:01:14.753974,-0.06301026046276097
2023-01-29 15:01:14.758974,-0.06374135256206127
2023-01-29 15:01:14.763974,-0.06303429603576659
2023-01-29 15:01:14.768974,-0.05994904940336914
2023-01-29 15:01:14.773974,-0.053009390830993576
2023-01-29 15:01:14.778974,-0.03943389176635595
2023-01-29 15:01:14.783974,-0.015626352280378283
2023-01-29 15:01:14.788974,0.02123804056810128
2023-01-29 15:01:14.793974,0.07149656862020488
2023-01-29 15:01:14.798974,0.1312817047911508
2023-01-29 15:01:14.803974,0.1911463439464569
2023-01-29 15:01:14.808974,0.23682629375438696
2023-01-29 15:01:14.813974,0.2533632516860961
2023-01-29 15:01:14.818974,0.23089782978662282
2023-01-29 15:01:14.823974,0.16898095607757557
2023-01-29 15:01:14.828974,0.07766983061015276
2023-01-29 15:01:14.833974,-0.024761756882071405
2023-01-29 15:01:14.838974,-0.11718006000873583
2023-01-29 15:01:14.843974,-0.18246769905090324
2023-01-29 15:01:14.848974,-0.21265381967697408
2023-01-29 15:01:14.853974,-0.20975372195243827
2023-01-29 15:01:14.858974,-0.1828853213495702
2023-01-29 15:01:14.863974,-0.14405092597007746
2023-01-29 15:01:14.868974,-0.10422712845291658
2023-01-29 15:01:14.873974,-0.07058303058147432
2023-01-29 15:01:14.878974,-0.045716325410243105
2023-01-29 15:01:14.883974,-0.028992891311645456
2023-01-29 15:01:14.888974,-0.018503457995704516
2023-01-29 15:01:14.893974,-0.012188553810119563
2023-01-29 15:01:14.898974,-0.008245765693856915
2023-01-29 15:01:14.903974,-0.005433162208646498
2023-01-29 15:01:14.908974,-0.0031018058218465682
2023-01-29 15:01:14.913974,-0.0008414189214818369
2023-01-29 15:01:14.918974,0.001647407846450515
2023-01-29 15:01:14.923974,0.004327297210693317
2023-01-29 15:01:14.928974,0.00702419520300599
2023-01-29 15:01:14.933974,0.010048946365713983
2023-01-29 15:01:14.938974,0.014082069221212279
2023-01-29 15:01:14.943974,0.01923243328928938
2023-01-29 15:01:14.948974,0.02481907872717066
2023-01-29 15:01:14.953974,0.0303632020950317
2023-01-29 15:01:14.958974,0.03615639735988534
2023-01-29 15:01:14.963974,0.042527716606855274
2023-01-29 15:01:14.968974,0.049279509224584996
2023-01-29 15:01:14.973974,0.05635102838277809
2023-01-29 15:01:14.978974,0.06439934404233182
2023-01-29 15:01:14.983974,0.0741410255432128
2023-01-29 15:01:14.988974,0.08561149810639047
2023-01-29 15:01:14.993974,0.09854217618703837
2023-01-29 15:01:14.998974,0.11287426866656682
2023-01-29 15:01:15.003974,0.12830436229705794
2023-01-29 15:01:15.008974,0.14381873853485364
2023-01-29 15:01:15.013974,0.15828292071819294
2023-01-29 15:01:15.018974,0.17110976304729786
2023-01-29 15:01:15.023974,0.18189072608947746
2023-01-29 15:01:15.028974,0.189897185806393
2023-01-29 15:01:15.033974,0.1945360600948332
2023-01-29 15:01:15.038974,0.19586340305206826
2023-01-29 15:01:15.043974,0.19407927989959695
2023-01-29 15:01:15.048974,0.18890831202219607
2023-01-29 15:01:15.053974,0.1799915283918379
2023-01-29 15:01:15.058974,0.16746235007362156
2023-01-29 15:01:15.063974,0.15162369608879073
2023-01-29 15:01:15.068974,0.13253275548662524
2023-01-29 15:01:15.073974,0.11051436513662329
2023-01-29 15:01:15.078974,0.08671336735713064
2023-01-29 15:01:15.083974,0.06257753074169141
2023-01-29 15:01:15.088974,0.03911659934851033
2023-01-29 15:01:15.093974,0.017092823982238645
2023-01-29 15:01:15.098974,-0.0025849908440332427
2023-01-29 15:01:15.103974,-0.019304554909467656
2023-01-29 15:01:15.108974,-0.03323926442458369
2023-01-29 15:01:15.113974,-0.044835608452558476
2023-01-29 15:01:15.118974,-0.05413709765260368
2023-01-29 15:01:15.123974,-0.061087012290954514
2023-01-29 15:01:15.128974,-0.06606544479532175
2023-01-29 15:01:15.133974,-0.06954928487539282
2023-01-29 15:01:15.138974,-0.07160117538088032
2023-01-29 15:01:15.143974,-0.0722418278455734
2023-01-29 15:01:15.148974,-0.0719648139215984
2023-01-29 15:01:15.153974,-0.07132828235626217
2023-01-29 15:01:15.158974,-0.07037390094458751
2023-01-29 15:01:15.163974,-0.06897231191396708
2023-01-29 15:01:15.168974,-0.06738389478571813
2023-01-29 15:01:15.173974,-0.06594320386648167
2023-01-29 15:01:15.178974,-0.06454809536526772
2023-01-29 15:01:15.183974,-0.06301026046276088
2023-01-29 15:01:15.188974,-0.061572076131732066
2023-01-29 15:01:15.193974,-0.060534082353114964
2023-01-29 15:01:15.198974,-0.0596955405045299
2023-01-29 15:01:15.203974,-0.05868295952677719
2023-01-29 15:01:15.208974,-0.05749415336760916
2023-01-29 15:01:15.213974,-0.05620678514242165
2023-01-29 15:01:15.218974,-0.05452785397464675
2023-01-29 15:01:15.223974,-0.05221605300903318
2023-01-29 15:01:15.228974,-0.049654942580475515
2023-01-29 15:01:15.233974,-0.047480069100856656
2023-01-29 15:01:15.238974,-0.04593366358277505
2023-01-29 15:01:15.243974,-0.04505197331309311
2023-01-29 15:01:15.248974,-0.04507564859231407
2023-01-29 15:01:15.253974,-0.04606167599558828
2023-01-29 15:01:15.258974,-0.04738123666804079
2023-01-29 15:01:15.263974,-0.04817724227905274
2023-01-29 15:01:15.268974,-0.04809947204528104
2023-01-29 15:01:15.273974,-0.04716753959655767
2023-01-29 15:01:15.278974,-0.04530918773887935
2023-01-29 15:01:15.283974,-0.04259983822703364
2023-01-29 15:01:15.288974,-0.039605957055850724
2023-01-29 15:01:15.293974,-0.03685414791107173
2023-01-29 15:01:15.298974,-0.03416168425041591
2023-01-29 15:01:15.303974,-0.030988257378339643
2023-01-29 15:01:15.308974,-0.02719694462631025
2023-01-29 15:01:15.313974,-0.023030837997794117
2023-01-29 15:01:15.318974,-0.018729828743683934
2023-01-29 15:01:15.323974,-0.01476089190691698
2023-01-29 15:01:15.328974,-0.012118476035971156
2023-01-29 15:01:15.333974,-0.011755824089050189
2023-01-29 15:01:15.338974,-0.013845774471898087
2023-01-29 15:01:15.343974,-0.018006365746259596
2023-01-29 15:01:15.348974,-0.02392651351106838
2023-01-29 15:01:15.353974,-0.031252704560756614
2023-01-29 15:01:15.358974,-0.03918293190873261
2023-01-29 15:01:15.363974,-0.046782892197370474
2023-01-29 15:01:15.368974,-0.05353559470752388
2023-01-29 15:01:15.373974,-0.05913972854614251
2023-01-29 15:01:15.378974,-0.06308881648377385
2023-01-29 15:01:15.383974,-0.0650296658277511
2023-01-29 15:01:15.388974,-0.06533524243711444
2023-01-29 15:01:15.393974,-0.06481330096721642
2023-01-29 15:01:15.398974,-0.06403084753893627
2023-01-29 15:01:15.403974,-0.06332278251647941
2023-01-29 15:01:15.408974,-0.0631020460169371
2023-01-29 15:01:15.413974,-0.06353914737701406
2023-01-29 15:01:15.418974,-0.06405721306191776
2023-01-29 15:01:15.423974,-0.0635151118040084
2023-01-29 15:01:15.428974,-0.06050479590249721
2023-01-29 15:01:15.433974,-0.052841108292341135
2023-01-29 15:01:15.438974,-0.03702860866869671
2023-01-29 15:01:15.443974,-0.009159445762634187
2023-01-29 15:01:15.448974,0.03294070976076002
2023-01-29 15:01:15.453974,0.08765181154012681
2023-01-29 15:01:15.458974,0.1482402023108239
2023-01-29 15:01:15.463974,0.20268580317497245
2023-01-29 15:01:15.468974,0.2358752412510715
2023-01-29 15:01:15.473974,0.2346356809139251
2023-01-29 15:01:15.478974,0.19340105556451498
2023-01-29 15:01:15.483974,0.11719763278961177
2023-01-29 15:01:15.488974,0.02061217962535769
2023-01-29 15:01:15.493974,-0.07640083879232398
2023-01-29 15:01:15.498974,-0.15449655038737553
2023-01-29 15:01:15.503974,-0.20090679824352253
2023-01-29 15:01:15.508974,-0.21277190461249226
2023-01-29 15:01:15.513974,-0.19617080688476551
2023-01-29 15:01:15.518974,-0.1620786072991719
2023-01-29 15:01:15.523974,-0.12202978134155269
2023-01-29 15:01:15.528974,-0.08507215826729103
2023-01-29 15:01:15.533974,-0.05618274211883536
2023-01-29 15:01:15.538974,-0.03627738527425006
2023-01-29 15:01:15.543974,-0.023728013038635216
2023-01-29 15:01:15.548974,-0.016231472347209803
2023-01-29 15:01:15.553974,-0.011779865249991436
2023-01-29 15:01:15.558974,-0.008815774005969662
2023-01-29 15:01:15.563974,-0.0063226623460649585
2023-01-29 15:01:15.568974,-0.0038892516531037606
2023-01-29 15:01:15.573974,-0.0014424324035643631
2023-01-29 15:01:15.578974,0.0010805170043275704
2023-01-29 15:01:15.583974,0.0037743649445475046
2023-01-29 15:01:15.588974,0.006740370003852585
2023-01-29 15:01:15.593974,0.010121067985892239
2023-01-29 15:01:15.598974,0.013909411452431141
2023-01-29 15:01:15.603974,0.017741918563842697
2023-01-29 15:01:15.608974,0.021330143914889448
2023-01-29 15:01:15.613974,0.025146406143903656
2023-01-29 15:01:15.618974,0.030135898677698246
2023-01-29 15:01:15.623974,0.036637783050537054
2023-01-29 15:01:15.628974,0.044212701505042466
2023-01-29 15:01:15.633974,0.05269686505198471
2023-01-29 15:01:15.638974,0.06266419013063783
2023-01-29 15:01:15.643974,0.07447759807109826
2023-01-29 15:01:15.648974,0.08758948095609535
2023-01-29 15:01:15.653974,0.10123471915721889
2023-01-29 15:01:15.658974,0.11514431981423873
2023-01-29 15:01:15.663974,0.1290496289730072
2023-01-29 15:01:15.668974,0.14212995541972326
2023-01-29 15:01:15.673974,0.1535950154066084
2023-01-29 15:01:15.678974,0.16331946365052763
2023-01-29 15:01:15.683974,0.17131289839744546
2023-01-29 15:01:15.688974,0.17703056621526472
2023-01-29 15:01:15.693974,0.17977516353130332
2023-01-29 15:01:15.698974,0.17930687118666996
2023-01-29 15:01:15.703974,0.17547190189361564
2023-01-29 15:01:15.708974,0.167704855203053
2023-01-29 15:01:15.713974,0.1555663347244261
2023-01-29 15:01:15.718974,0.13944534175380272
2023-01-29 15:01:15.723974,0.12020270526409126
2023-01-29 15:01:15.728974,0.09853181697873674
2023-01-29 15:01:15.733974,0.07522284984588615
2023-01-29 15:01:15.738974,0.05159746462870304
2023-01-29 15:01:15.743974,0.02899289131164548
2023-01-29 15:01:15.748974,0.008079476231957284
2023-01-29 15:01:15.753974,-0.010818243026733223
2023-01-29 15:01:15.758974,-0.027144823066668728
2023-01-29 15:01:15.763974,-0.04046022891998293
2023-01-29 15:01:15.768974,-0.05099941489191546
2023-01-29 15:01:15.773974,-0.059283971786499
2023-01-29 15:01:15.778974,-0.06548719488265205
2023-01-29 15:01:15.783974,-0.06971757113933555
2023-01-29 15:01:15.788974,-0.07254215334361167
2023-01-29 15:01:15.793974,-0.07459779828786833
2023-01-29 15:01:15.798974,-0.07597141908818848
2023-01-29 15:01:15.803974,-0.0765210390090942
2023-01-29 15:01:15.808974,-0.07648547612834547
2023-01-29 15:01:15.813974,-0.07620851695537564
2023-01-29 15:01:15.818974,-0.07559306388087494
2023-01-29 15:01:15.823974,-0.07442951202392578
2023-01-29 15:01:15.828974,-0.07297631557388977
2023-01-29 15:01:15.833974,-0.07164081186056129
2023-01-29 15:01:15.838974,-0.07036812606050402
2023-01-29 15:01:15.843974,-0.06890019029378885
2023-01-29 15:01:15.848974,-0.06733982812339372
2023-01-29 15:01:15.853974,-0.06589512526988983
2023-01-29 15:01:15.858974,-0.06437039828130472
2023-01-29 15:01:15.863974,-0.06250540912151331
2023-01-29 15:01:15.868974,-0.0605660496427022
2023-01-29 15:01:15.873974,-0.05904356762766829
2023-01-29 15:01:15.878974,-0.058016271681282344
2023-01-29 15:01:15.883974,-0.05731264874339099
2023-01-29 15:01:15.888974,-0.056981771679530974
2023-01-29 15:01:15.893974,-0.05702416226267807
2023-01-29 15:01:15.898974,-0.05694223356230431
2023-01-29 15:01:15.903974,-0.056158702820539357
2023-01-29 15:01:15.908974,-0.054679125095011154
2023-01-29 15:01:15.913974,-0.05284110829234118
2023-01-29 15:01:15.918974,-0.05067398002251536
2023-01-29 15:01:15.923974,-0.048008959740400314
2023-01-29 15:01:15.928974,-0.044916610442509046
2023-01-29 15:01:15.933974,-0.041493974626064356
2023-01-29 15:01:15.938974,-0.0375296337915253
2023-01-29 15:01:15.943974,-0.03298362344503401
2023-01-29 15:01:15.948974,-0.028583566084342794
2023-01-29 15:01:15.953974,-0.025410851463675423
2023-01-29 15:01:15.958974,-0.024095631135274003
2023-01-29 15:01:15.963974,-0.02483387850224977
2023-01-29 15:01:15.968974,-0.027808271041184704
2023-01-29 15:01:15.973974,-0.032983623445034034
2023-01-29 15:01:15.978974,-0.03974583319750191
2023-01-29 15:01:15.983974,-0.047311782836913965
2023-01-29 15:01:15.988974,-0.055279367816658105
2023-01-29 15:01:15.993974,-0.06329874694347379
2023-01-29 15:01:15.998974,-0.07053583913541511
2023-01-29 15:01:16.003974,-0.07606427371501912
2023-01-29 15:01:16.008974,-0.07959518996345381
2023-01-29 15:01:16.013974,-0.08137723058462135
2023-01-29 15:01:16.018974,-0.08172507142320184
2023-01-29 15:01:16.023974,-0.08118490874767298
2023-01-29 15:01:16.028974,-0.08078454816552796
2023-01-29 15:01:16.033974,-0.08140127360820765
2023-01-29 15:01:16.038974,-0.08297964138997435
2023-01-29 15:01:16.043974,-0.08479098975658406
2023-01-29 15:01:16.048974,-0.08612668207276741
2023-01-29 15:01:16.053974,-0.08616130053997029
2023-01-29 15:01:16.058974,-0.08336610459964108
2023-01-29 15:01:16.063974,-0.07553537935018526
2023-01-29 15:01:16.068974,-0.060109398763797686
2023-01-29 15:01:16.073974,-0.03418564796447749
2023-01-29 15:01:16.078974,0.004796825215090147
2023-01-29 15:01:16.083974,0.05671163648366915
2023-01-29 15:01:16.088974,0.11618587495446682
2023-01-29 15:01:16.093974,0.17227451503276814
2023-01-29 15:01:16.098974,0.21084076661987775
2023-01-29 15:01:16.103974,0.2185044735670088
2023-01-29 15:01:16.108974,0.1873330126722833
2023-01-29 15:01:16.113974,0.11907279491424552
2023-01-29 15:01:16.118974,0.026247642739640017
2023-01-29 15:01:16.123974,-0.07161676883697501
2023-01-29 15:01:16.128974,-0.15470570033347475
2023-01-29 15:01:16.133974,-0.20881614089012138
2023-01-29 15:01:16.138974,-0.2285509592785689
2023-01-29 15:01:16.143974,-0.217735171318054
2023-01-29 15:01:16.148974,-0.18688837762430596
2023-01-29 15:01:16.153974,-0.14833013713359822
2023-01-29 15:01:16.158974,-0.11165279794965909
2023-01-29 15:01:16.163974,-0.0821224898099899
2023-01-29 15:01:16.168974,-0.061421644408799256
2023-01-29 15:01:16.173974,-0.048634015023708274
2023-01-29 15:01:16.178974,-0.04117990669513268
2023-01-29 15:01:16.183974,-0.036397378891706425
2023-01-29 15:01:16.188974,-0.03283268445574533
2023-01-29 15:01:16.193974,-0.029906433075666365
2023-01-29 15:01:16.198974,-0.026951765231165443
2023-01-29 15:01:16.203974,-0.02341548725962622
2023-01-29 15:01:16.208974,-0.019569812258915496
2023-01-29 15:01:16.213974,-0.01598696038126938
2023-01-29 15:01:16.218974,-0.012465689030849266
2023-01-29 15:01:16.223974,-0.008390149101614848
2023-01-29 15:01:16.228974,-0.0039465199730884274
2023-01-29 15:01:16.233974,9.616216266291625e-05
2023-01-29 15:01:16.238974,0.003839606056133533
2023-01-29 15:01:16.243974,0.008462270721793145
2023-01-29 15:01:16.248974,0.01477363880468016
2023-01-29 15:01:16.253974,0.022429823875427187
2023-01-29 15:01:16.258974,0.03081327280103215
2023-01-29 15:01:16.263974,0.0398832559585571
2023-01-29 15:01:16.268974,0.04984830525508418
2023-01-29 15:01:16.273974,0.06070236489176746
2023-01-29 15:01:16.278974,0.07246448764302812
2023-01-29 15:01:16.283974,0.08534391969442356
2023-01-29 15:01:16.288974,0.09929912487786237
2023-01-29 15:01:16.293974,0.11375983804464336
2023-01-29 15:01:16.298974,0.1279561108933569
2023-01-29 15:01:16.303974,0.1411900967359541
2023-01-29 15:01:16.308974,0.15273498681377762
2023-01-29 15:01:16.313974,0.16191303730010975
2023-01-29 15:01:16.318974,0.16841231221592515
2023-01-29 15:01:16.323974,0.17217835783958416
2023-01-29 15:01:16.328974,0.17291876537555081
2023-01-29 15:01:16.333974,0.17003874480724324
2023-01-29 15:01:16.338974,0.16308287704394558
2023-01-29 15:01:16.343974,0.15193621814250943
2023-01-29 15:01:16.348974,0.13669745273042866
2023-01-29 15:01:16.353974,0.11782269179821005
2023-01-29 15:01:16.358974,0.09642063942374776
2023-01-29 15:01:16.363974,0.0739967823028563
2023-01-29 15:01:16.368974,0.05182286495137748
2023-01-29 15:01:16.373974,0.030771892517805037
2023-01-29 15:01:16.378974,0.011575016038447468
2023-01-29 15:01:16.383974,-0.005240838043391733
2023-01-29 15:01:16.388974,-0.019646174736311306
2023-01-29 15:01:16.393974,-0.031925838440656606
2023-01-29 15:01:16.398974,-0.04219673549392057
2023-01-29 15:01:16.403974,-0.050413012504577664
2023-01-29 15:01:16.408974,-0.05672152679197778
2023-01-29 15:01:16.413974,-0.06139954179525371
2023-01-29 15:01:16.418974,-0.06451937771751459
2023-01-29 15:01:16.423974,-0.06608744710683817
2023-01-29 15:01:16.428974,-0.06646012322984994
2023-01-29 15:01:16.433974,-0.06623169034719459
2023-01-29 15:01:16.438974,-0.06576082503503335
2023-01-29 15:01:16.443974,-0.06514986604452128
2023-01-29 15:01:16.448974,-0.06456233245415831
2023-01-29 15:01:16.453974,-0.06414016336202617
2023-01-29 15:01:16.458974,-0.06368938596707814
2023-01-29 15:01:16.463974,-0.06286601722240442
2023-01-29 15:01:16.468974,-0.061634113851842524
2023-01-29 15:01:16.473974,-0.06019751355051981
2023-01-29 15:01:16.478974,-0.058595565675225794
2023-01-29 15:01:16.483974,-0.05675971508026121
2023-01-29 15:01:16.488974,-0.054866485694469135
2023-01-29 15:01:16.493974,-0.05322575569152837
2023-01-29 15:01:16.498974,-0.05189089128093284
2023-01-29 15:01:16.503974,-0.0507495813071727
2023-01-29 15:01:16.508974,-0.04989643955484246
2023-01-29 15:01:16.513974,-0.04952351376414286
2023-01-29 15:01:16.518974,-0.04952749916333192
2023-01-29 15:01:16.523974,-0.04959563538432127
2023-01-29 15:01:16.528974,-0.04957989426256851
2023-01-29 15:01:16.533974,-0.049427352845668716
2023-01-29 15:01:16.538974,-0.048885200142244345
2023-01-29 15:01:16.543974,-0.047696433961391345
2023-01-29 15:01:16.548974,-0.04599930085587358
2023-01-29 15:01:16.553974,-0.04413843154907219
2023-01-29 15:01:16.558974,-0.04215212525648881
2023-01-29 15:01:16.563974,-0.03978709504008291
2023-01-29 15:01:16.568974,-0.0368918590869348
2023-01-29 15:01:16.573974,-0.03344039246439928
2023-01-29 15:01:16.578974,-0.0293495732821218
2023-01-29 15:01:16.583974,-0.024737715721130298
2023-01-29 15:01:16.588974,-0.0202956483365219
2023-01-29 15:01:16.593974,-0.016996663063764506
2023-01-29 15:01:16.598974,-0.01546772829634339
2023-01-29 15:01:16.603974,-0.015914838761091222
2023-01-29 15:01:16.608974,-0.018451362975966713
2023-01-29 15:01:16.613974,-0.023054879158735227
2023-01-29 15:01:16.618974,-0.02930078379140097
2023-01-29 15:01:16.623974,-0.03654162213206289
2023-01-29 15:01:16.628974,-0.04427065485178249
2023-01-29 15:01:16.633974,-0.05197564885020249
2023-01-29 15:01:16.638974,-0.058820952855576016
2023-01-29 15:01:16.643974,-0.06394784152507776
2023-01-29 15:01:16.648974,-0.0670661617016126
2023-01-29 15:01:16.653974,-0.06844341754913319
2023-01-29 15:01:16.658974,-0.06847193590222996
2023-01-29 15:01:16.663974,-0.06762604415416706
2023-01-29 15:01:16.668974,-0.06665617134720515
2023-01-29 15:01:16.673974,-0.06630381196737274
2023-01-29 15:01:16.678974,-0.06678775819488457
2023-01-29 15:01:16.683974,-0.06784240901470169
2023-01-29 15:01:16.688974,-0.06908208008844631
2023-01-29 15:01:16.693974,-0.06988584995269767
2023-01-29 15:01:16.698974,-0.06896331527846582
2023-01-29 15:01:16.703974,-0.06435652822256074
2023-01-29 15:01:16.708974,-0.05376839848806451
2023-01-29 15:01:16.713974,-0.034666460007429054
2023-01-29 15:01:16.718974,-0.004598603194028574
2023-01-29 15:01:16.723974,0.03743112087249755
2023-01-29 15:01:16.728974,0.08898342529397159
2023-01-29 15:01:16.733974,0.1430892944335937
2023-01-29 15:01:16.738974,0.18886275310272216
2023-01-29 15:01:16.743974,0.21374444663524617
2023-01-29 15:01:16.748974,0.20720351184914473
2023-01-29 15:01:16.753974,0.1651344746351242
2023-01-29 15:01:16.758974,0.09279332964181689
2023-01-29 15:01:16.763974,0.00411093235015863
2023-01-29 15:01:16.768974,-0.08256083800921868
2023-01-29 15:01:16.773974,-0.15015721321105946
2023-01-29 15:01:16.778974,-0.18783864308720177
2023-01-29 15:01:16.783974,-0.19364655017852775
2023-01-29 15:01:16.788974,-0.17389710981754952
2023-01-29 15:01:16.793974,-0.13955533504486076
2023-01-29 15:01:16.798974,-0.10164349725738762
2023-01-29 15:01:16.803974,-0.06808280944824208
2023-01-29 15:01:16.808974,-0.04272557083569925
2023-01-29 15:01:16.813974,-0.02589166164398187
2023-01-29 15:01:16.818974,-0.015712786208444674
2023-01-29 15:01:16.823974,-0.00976045988500112
2023-01-29 15:01:16.828974,-0.006155396281818563
2023-01-29 15:01:16.833974,-0.0037262837868183188
2023-01-29 15:01:16.838974,-0.0017684984252857134
2023-01-29 15:01:16.843974,2.4040540665689984e-05
2023-01-29 15:01:16.848974,0.001713540548148084
2023-01-29 15:01:16.853974,0.0035339593887328863
2023-01-29 15:01:16.858974,0.005937315581746124
2023-01-29 15:01:16.863974,0.009039243683218852
2023-01-29 15:01:16.868974,0.012400091506159592
2023-01-29 15:01:16.873974,0.015674432739615385
2023-01-29 15:01:16.878974,0.019133444897115177
2023-01-29 15:01:16.883974,0.02322316169738762
2023-01-29 15:01:16.888974,0.0280011557465014
2023-01-29 15:01:16.893974,0.03341635316610331
2023-01-29 15:01:16.898974,0.039759629223450714
2023-01-29 15:01:16.903974,0.04733582586050026
2023-01-29 15:01:16.908974,0.05597445928257551
2023-01-29 15:01:16.913974,0.06534218788146967
2023-01-29 15:01:16.918974,0.0754781196011073
2023-01-29 15:01:16.923974,0.08654594421386708
2023-01-29 15:01:16.928974,0.09829777103287354
2023-01-29 15:01:16.933974,0.11024992167949668
2023-01-29 15:01:16.938974,0.12215256372897378
2023-01-29 15:01:16.943974,0.13380965590476973
2023-01-29 15:01:16.948974,0.14465626813676397
2023-01-29 15:01:16.953974,0.15400370955467219
2023-01-29 15:01:16.958974,0.1615260469148402
2023-01-29 15:01:16.963974,0.1670577228069305
2023-01-29 15:01:16.968974,0.17010843074983006
2023-01-29 15:01:16.973974,0.1700387448072432
2023-01-29 15:01:16.978974,0.1665419759887672
2023-01-29 15:01:16.983974,0.1595330238342284
2023-01-29 15:01:16.988974,0.14879801002655238
2023-01-29 15:01:16.993974,0.13426642119884485
2023-01-29 15:01:16.998974,0.11650167017680464
2023-01-29 15:01:17.003974,0.09649872779846183
2023-01-29 15:01:17.008974,0.07516066227738917
2023-01-29 15:01:17.013974,0.053369998931884696
2023-01-29 15:01:17.018974,0.03231681875035048
2023-01-29 15:01:17.023974,0.013198256492614717
2023-01-29 15:01:17.028974,-0.0033555349026587085
2023-01-29 15:01:17.033974,-0.017213027924299146
2023-01-29 15:01:17.038974,-0.02832395971932605
2023-01-29 15:01:17.043974,-0.036806069314479786
2023-01-29 15:01:17.048974,-0.04322673103400024
2023-01-29 15:01:17.053974,-0.048273406922817154
2023-01-29 15:01:17.058974,-0.052208629439653764
2023-01-29 15:01:17.063974,-0.05500475689768787
2023-01-29 15:01:17.068974,-0.05681943339353529
2023-01-29 15:01:17.073974,-0.05791366100311272
2023-01-29 15:01:17.078974,-0.05828959082331479
2023-01-29 15:01:17.083974,-0.05786558240652077
2023-01-29 15:01:17.088974,-0.05686711428701052
2023-01-29 15:01:17.093974,-0.055629812180995844
2023-01-29 15:01:17.098974,-0.05418073466387671
2023-01-29 15:01:17.103974,-0.05243241786956778
2023-01-29 15:01:17.108974,-0.05061919521937416
2023-01-29 15:01:17.113974,-0.04911482334136957
2023-01-29 15:01:17.118974,-0.04797961041374002
2023-01-29 15:01:17.123974,-0.04709541797637926
2023-01-29 15:01:17.128974,-0.0465552695882849
2023-01-29 15:01:17.133974,-0.04647036641836161
2023-01-29 15:01:17.138974,-0.04654608915493166
2023-01-29 15:01:17.143974,-0.046278040856122894
2023-01-29 15:01:17.148974,-0.04542907606696472
2023-01-29 15:01:17.153974,-0.04394610971212372
2023-01-29 15:01:17.158974,-0.04164899954749132
2023-01-29 15:01:17.163974,-0.038488905876874896
2023-01-29 15:01:17.168974,-0.03496016750258516
2023-01-29 15:01:17.173974,-0.031781595200300224
2023-01-29 15:01:17.178974,-0.0292397062284085
2023-01-29 15:01:17.183974,-0.027165811508893835
2023-01-29 15:01:17.188974,-0.02533201940576033
2023-01-29 15:01:17.193974,-0.023463567718863317
2023-01-29 15:01:17.198974,-0.021125252911456355
2023-01-29 15:01:17.203974,-0.018150608986616114
2023-01-29 15:01:17.208974,-0.015114486303786501
2023-01-29 15:01:17.213974,-0.012981891632080021
2023-01-29 15:01:17.218974,-0.012401549099865784
2023-01-29 15:01:17.223974,-0.013655027374625187
2023-01-29 15:01:17.228974,-0.017002233496754587
2023-01-29 15:01:17.233974,-0.022550027817487696
2023-01-29 15:01:17.238974,-0.029902531937518687
2023-01-29 15:01:17.243974,-0.0383687019348144
2023-01-29 15:01:17.248974,-0.047378373648874116
2023-01-29 15:01:17.253974,-0.05632698535919178
2023-01-29 15:01:17.258974,-0.0642682135529938
2023-01-29 15:01:17.263974,-0.07029454410076141
2023-01-29 15:01:17.268974,-0.07415938047252102
2023-01-29 15:01:17.273974,-0.07618447393178934
2023-01-29 15:01:17.278974,-0.07676401735543704
2023-01-29 15:01:17.283974,-0.07635276019573208
2023-01-29 15:01:17.288974,-0.0756677777674788
2023-01-29 15:01:17.293974,-0.07534305751323685
2023-01-29 15:01:17.298974,-0.07543977920455892
2023-01-29 15:01:17.303974,-0.07563154399394972
2023-01-29 15:01:17.308974,-0.07562743159121874
2023-01-29 15:01:17.313974,-0.07493436336517328
2023-01-29 15:01:17.318974,-0.07232919002385603
2023-01-29 15:01:17.323974,-0.06591916084289548
2023-01-29 15:01:17.328974,-0.053491505892184876
2023-01-29 15:01:17.333974,-0.03250281140208237
2023-01-29 15:01:17.338974,-0.00039081123654395117
2023-01-29 15:01:17.343974,0.043801866471767405
2023-01-29 15:01:17.348974,0.09723962115817987
2023-01-29 15:01:17.353974,0.15229682624340043
2023-01-29 15:01:17.358974,0.19740410937931566
2023-01-29 15:01:17.363974,0.21944205462932564
2023-01-29 15:01:17.368974,0.2076384368753652
2023-01-29 15:01:17.373974,0.15828292071819297
2023-01-29 15:01:17.378974,0.07775453437213593
2023-01-29 15:01:17.383974,-0.018559297546744288
2023-01-29 15:01:17.388974,-0.11105709585268374
2023-01-29 15:01:17.393974,-0.18189072608947746
2023-01-29 15:01:17.398974,-0.2199914221527362
2023-01-29 15:01:17.403974,-0.22386550903320296
2023-01-29 15:01:17.408974,-0.20092245331377256
2023-01-29 15:01:17.413974,-0.16333143413066856
2023-01-29 15:01:17.418974,-0.12288927526386408
2023-01-29 15:01:17.423974,-0.08782009780406938
2023-01-29 15:01:17.428974,-0.06201538106895513
2023-01-29 15:01:17.433974,-0.04553278535604469
2023-01-29 15:01:17.438974,-0.03589020866877555
2023-01-29 15:01:17.443974,-0.030098756775259815
2023-01-29 15:01:17.448974,-0.026241548271042043
2023-01-29 15:01:17.453974,-0.0234395265579223
2023-01-29 15:01:17.458974,-0.02105463957622536
2023-01-29 15:01:17.463974,-0.018631419166922444
2023-01-29 15:01:17.468974,-0.016235805058872236
2023-01-29 15:01:17.473974,-0.014039675705134811
2023-01-29 15:01:17.478974,-0.011693109525832796
2023-01-29 15:01:17.483974,-0.008726716041564851
2023-01-29 15:01:17.488974,-0.005334635875479369
2023-01-29 15:01:17.493974,-0.00204344606027
2023-01-29 15:01:17.498974,0.001181026126408208
2023-01-29 15:01:17.503974,0.004711946006864215
2023-01-29 15:01:17.508974,0.008343627138759245
2023-01-29 15:01:17.513974,0.011563500389456673
2023-01-29 15:01:17.518974,0.014835940800384709
2023-01-29 15:01:17.523974,0.019761323928832914
2023-01-29 15:01:17.528974,0.027695320448010246
2023-01-29 15:01:17.533974,0.03880143165588364
2023-01-29 15:01:17.538974,0.052537998902455064
2023-01-29 15:01:17.543974,0.06829917430877676
2023-01-29 15:01:17.548974,0.0852611994198652
2023-01-29 15:01:17.553974,0.10224442183971395
2023-01-29 15:01:17.558974,0.11821599977283156
2023-01-29 15:01:17.563974,0.13267974555492393
2023-01-29 15:01:17.568974,0.14540592573621566
2023-01-29 15:01:17.573974,0.1561192721128462
2023-01-29 15:01:17.578974,0.164580798686176
2023-01-29 15:01:17.583974,0.17059168219566334
2023-01-29 15:01:17.588974,0.17372605656665902
2023-01-29 15:01:17.593974,0.1733323037624358
2023-01-29 15:01:17.598974,0.1689079506696298
2023-01-29 15:01:17.603974,0.16025424003601066
2023-01-29 15:01:17.608974,0.147317073253823
2023-01-29 15:01:17.613974,0.13027569651603682
2023-01-29 15:01:17.618974,0.10987455959739642
2023-01-29 15:01:17.623974,0.08736332505941387
2023-01-29 15:01:17.628974,0.06404096634290442
2023-01-29 15:01:17.633974,0.04106124490499488
2023-01-29 15:01:17.638974,0.01954885563602274
2023-01-29 15:01:17.643974,0.00045677027082993504
2023-01-29 15:01:17.648974,-0.015787282344812154
2023-01-29 15:01:17.653974,-0.029233297333121175
2023-01-29 15:01:17.658974,-0.0400249337916829
2023-01-29 15:01:17.663974,-0.04832148551940905
2023-01-29 15:01:17.668974,-0.054495362826131113
2023-01-29 15:01:17.673974,-0.059019528329372406
2023-01-29 15:01:17.678974,-0.06213752462804032
2023-01-29 15:01:17.683974,-0.06392379850149144
2023-01-29 15:01:17.688974,-0.0646212899481208
2023-01-29 15:01:17.693974,-0.0646209716796875
2023-01-29 15:01:17.698974,-0.06417151686799084
2023-01-29 15:01:17.703974,-0.0634189471602439
2023-01-29 15:01:17.708974,-0.06265912740155521
2023-01-29 15:01:17.713974,-0.06221691891551008
2023-01-29 15:01:17.718974,-0.06211727810017769
2023-01-29 15:01:17.723974,-0.06216883659362783
2023-01-29 15:01:17.728974,-0.06229497367210856
2023-01-29 15:01:17.733974,-0.062481366097926996
2023-01-29 15:01:17.738974,-0.06249928138928339
2023-01-29 15:01:17.743974,-0.06202459335327141
2023-01-29 15:01:17.748974,-0.06097673360901155
2023-01-29 15:01:17.753974,-0.05945225805044167
2023-01-29 15:01:17.758974,-0.05743289419200798
2023-01-29 15:01:17.763974,-0.05488455295562743
2023-01-29 15:01:17.768974,-0.052043341437315586
2023-01-29 15:01:17.773974,-0.049259066581726026
2023-01-29 15:01:17.778974,-0.046615715915651224
2023-01-29 15:01:17.783974,-0.0439941883087158
2023-01-29 15:01:17.788974,-0.04139973268190622
2023-01-29 15:01:17.793974,-0.03892163559794421
2023-01-29 15:01:17.798974,-0.036496505061053404
2023-01-29 15:01:17.803974,-0.03404140472412101
2023-01-29 15:01:17.808974,-0.03169517667182641
2023-01-29 15:01:17.813974,-0.029569864273071213
2023-01-29 15:01:17.818974,-0.02734933828801555
2023-01-29 15:01:17.823974,-0.024473270401358636
2023-01-29 15:01:17.828974,-0.020670591766727274
2023-01-29 15:01:17.833974,-0.01608312129974367
2023-01-29 15:01:17.838974,-0.011068219896560975
2023-01-29 15:01:17.843974,-0.006250540725886871
2023-01-29 15:01:17.848974,-0.0026218292961309436
2023-01-29 15:01:17.853974,-0.0011539459228514914
2023-01-29 15:01:17.858974,-0.002278604459500973
2023-01-29 15:01:17.863974,-0.005938013549893995
2023-01-29 15:01:17.868974,-0.011947251782851206
2023-01-29 15:01:17.873974,-0.019953649491071663
2023-01-29 15:01:17.878974,-0.02917468240706924
2023-01-29 15:01:17.883974,-0.03856102749705304
2023-01-29 15:01:17.888974,-0.04720270512605702
2023-01-29 15:01:17.893974,-0.05437970161437975
2023-01-29 15:01:17.898974,-0.059452922924879296
2023-01-29 15:01:17.903974,-0.06212075799703583
2023-01-29 15:01:17.908974,-0.06272767398754098
2023-01-29 15:01:17.913974,-0.062024593353271366
2023-01-29 15:01:17.918974,-0.060699198807015624
2023-01-29 15:01:17.923974,-0.05933205410838114
2023-01-29 15:01:17.928974,-0.05852885780084444
2023-01-29 15:01:17.933974,-0.058634877204895
2023-01-29 15:01:17.938974,-0.05932145889300388
2023-01-29 15:01:17.943974,-0.05964457988739003
2023-01-29 15:01:17.948974,-0.05826592142991929
2023-01-29 15:01:17.953974,-0.053225755691528265
2023-01-29 15:01:17.958974,-0.04163476411749988
2023-01-29 15:01:17.963974,-0.020097892731428087
2023-01-29 15:01:17.968974,0.014134304428090183
2023-01-29 15:01:17.973974,0.06176014989614475
2023-01-29 15:01:17.978974,0.11983819406738848
2023-01-29 15:01:17.983974,0.1803761720657347
2023-01-29 15:01:17.988974,0.2305404936796629
2023-01-29 15:01:17.993974,0.25567114353179915
2023-01-29 15:01:17.998974,0.2442656338597781
2023-01-29 15:01:18.003974,0.19266089797019936
2023-01-29 15:01:18.008974,0.10750278453823983
2023-01-29 15:01:18.013974,0.004928310867398883
2023-01-29 15:01:18.018974,-0.09388469090927032
2023-01-29 15:01:18.023974,-0.16953389346599562
2023-01-29 15:01:18.028974,-0.21045726767208817
2023-01-29 15:01:18.033974,-0.21540324389934523
2023-01-29 15:01:18.038974,-0.19191732043150406
2023-01-29 15:01:18.043974,-0.15239298343658436
2023-01-29 15:01:18.048974,-0.10943994249332457
2023-01-29 15:01:18.053974,-0.07212162017822257
2023-01-29 15:01:18.058974,-0.04444070750793478
2023-01-29 15:01:18.063974,-0.026276310905814126
2023-01-29 15:01:18.068974,-0.01539197571326963
2023-01-29 15:01:18.073974,-0.009063283912837491
2023-01-29 15:01:18.078974,-0.005034729811383996
2023-01-29 15:01:18.083974,-0.0019472837448119926
2023-01-29 15:01:18.088974,0.0008586404222684128
2023-01-29 15:01:18.093974,0.0037984054069966173
2023-01-29 15:01:18.098974,0.0070127659749331505
2023-01-29 15:01:18.103974,0.010145108215510845
2023-01-29 15:01:18.108974,0.01292604473570438
2023-01-29 15:01:18.113974,0.016035040840506543
2023-01-29 15:01:18.118974,0.020517525687004247
2023-01-29 15:01:18.123974,0.02615610882639888
2023-01-29 15:01:18.128974,0.03147607223583964
2023-01-29 15:01:18.133974,0.03586848825216288
2023-01-29 15:01:18.138974,0.04061230658115152
2023-01-29 15:01:18.143974,0.046951174736022894
2023-01-29 15:01:18.148974,0.05417837499878756
2023-01-29 15:01:18.153974,0.06087064743041988
2023-01-29 15:01:18.158974,0.06736845704680018
2023-01-29 15:01:18.163974,0.07563154399394978
2023-01-29 15:01:18.168974,0.08683633428792363
2023-01-29 15:01:18.173974,0.10034521669149385
2023-01-29 15:01:18.178974,0.1150039075947399
2023-01-29 15:01:18.183974,0.13022761046886439
2023-01-29 15:01:18.188974,0.14552717962368444
2023-01-29 15:01:18.193974,0.15996575355529769
2023-01-29 15:01:18.198974,0.17260818155227903
2023-01-29 15:01:18.203974,0.18299660086631767
2023-01-29 15:01:18.208974,0.1909178257619857
2023-01-29 15:01:18.213974,0.19614677131175987
2023-01-29 15:01:18.218974,0.1985766475888152
2023-01-29 15:01:18.223974,0.19816617667675002
2023-01-29 15:01:18.228974,0.1945993169567523
2023-01-29 15:01:18.233974,0.1873238980770111
2023-01-29 15:01:18.238974,0.17599882966691555
2023-01-29 15:01:18.243974,0.1606629341840743
2023-01-29 15:01:18.248974,0.1416020347457738
2023-01-29 15:01:18.253974,0.11948148906230915
2023-01-29 15:01:18.258974,0.09558029793503203
2023-01-29 15:01:18.263974,0.07149656862020488
2023-01-29 15:01:18.268974,0.04857730520017586
2023-01-29 15:01:18.273974,0.02781490609049787
2023-01-29 15:01:18.278974,0.010035201656348396
2023-01-29 15:01:18.283974,-0.004279216285794954
2023-01-29 15:01:18.288974,-0.015274180901092624
2023-01-29 15:01:18.293974,-0.023463567718863414
2023-01-29 15:01:18.298974,-0.02926422494347467
2023-01-29 15:01:18.303974,-0.03305574506521212
2023-01-29 15:01:18.308974,-0.035448024144060786
2023-01-29 15:01:18.313974,-0.03704647347331035
2023-01-29 15:01:18.318974,-0.03807196365926936
2023-01-29 15:01:18.323974,-0.038561027497053015
2023-01-29 15:01:18.328974,-0.03875328830411885
2023-01-29 15:01:18.333974,-0.03889759629964817
2023-01-29 15:01:18.338974,-0.038866081463920996
2023-01-29 15:01:18.343974,-0.0383687019348144
2023-01-29 15:01:18.348974,-0.03739762011241428
2023-01-29 15:01:18.353974,-0.0361088924109935
2023-01-29 15:01:18.358974,-0.03448907700222575
2023-01-29 15:01:18.363974,-0.03255089372396455
2023-01-29 15:01:18.368974,-0.030662120123191073
2023-01-29 15:01:18.373974,-0.029257338494062396
2023-01-29 15:01:18.378974,-0.028370084472853788
2023-01-29 15:01:18.383974,-0.027790864929556795
2023-01-29 15:01:18.388974,-0.02745797743384029
2023-01-29 15:01:18.393974,-0.027310054749250412
2023-01-29 15:01:18.398974,-0.027003905870750404
2023-01-29 15:01:18.403974,-0.02622823044657701
2023-01-29 15:01:18.408974,-0.025130545525633735
2023-01-29 15:01:18.413974,-0.024064581841230292
2023-01-29 15:01:18.418974,-0.02312875208726454
2023-01-29 15:01:18.423974,-0.022309621796011873
2023-01-29 15:01:18.428974,-0.021793887711225805
2023-01-29 15:01:18.433974,-0.021684568375349017
2023-01-29 15:01:18.438974,-0.021615092720640453
2023-01-29 15:01:18.443974,-0.02105951309204101
2023-01-29 15:01:18.448974,-0.0198407151945052
2023-01-29 15:01:18.453974,-0.018006365746259585
2023-01-29 15:01:18.458974,-0.015512099720071842
2023-01-29 15:01:18.463974,-0.012453000061213913
2023-01-29 15:01:18.468974,-0.00932573841262224
2023-01-29 15:01:18.473974,-0.0065871081314979995
2023-01-29 15:01:18.478974,-0.004135074756431447
2023-01-29 15:01:18.483974,-0.0015866756439207954
2023-01-29 15:01:18.488974,0.001183228322770989
2023-01-29 15:01:18.493974,0.004110932350158589
2023-01-29 15:01:18.498974,0.007170341901347636
2023-01-29 15:01:18.503974,0.010048946365713997
2023-01-29 15:01:18.508974,0.011877647664547087
2023-01-29 15:01:18.513974,0.011755824089050211
2023-01-29 15:01:18.518974,0.009355755113038563
2023-01-29 15:01:18.523974,0.004711946006864262
2023-01-29 15:01:18.528974,-0.0021745753564283254
2023-01-29 15:01:18.533974,-0.01103460788726799
2023-01-29 15:01:18.538974,-0.020951029413221304
2023-01-29 15:01:18.543974,-0.030771892517805002
2023-01-29 15:01:18.548974,-0.039684405386828776
2023-01-29 15:01:18.553974,-0.04707137867808338
2023-01-29 15:01:18.558974,-0.052264742377023776
2023-01-29 15:01:18.563974,-0.05500475689768786
2023-01-29 15:01:18.568974,-0.055872083672557304
2023-01-29 15:01:18.573974,-0.055798094719648306
2023-01-29 15:01:18.578974,-0.055397437160371564
2023-01-29 15:01:18.583974,-0.055100917816162054
2023-01-29 15:01:18.588974,-0.05544292194013413
2023-01-29 15:01:18.593974,-0.05661547183990469
2023-01-29 15:01:18.598974,-0.05799087368009629
2023-01-29 15:01:18.603974,-0.05846659466624253
2023-01-29 15:01:18.608974,-0.05680871635510115
2023-01-29 15:01:18.613974,-0.0510621070861816
2023-01-29 15:01:18.618974,-0.037978938097148904
2023-01-29 15:01:18.623974,-0.013775229454040501
2023-01-29 15:01:18.628974,0.024237662131119976
2023-01-29 15:01:18.633974,0.07613639533519737
2023-01-29 15:01:18.638974,0.13781509731652825
2023-01-29 15:01:18.643974,0.1995605230331419
2023-01-29 15:01:18.648974,0.24678351499476395
2023-01-29 15:01:18.653974,0.2642536163330077
2023-01-29 15:01:18.658974,0.24193302741193232
2023-01-29 15:01:18.663974,0.17919819056987757
2023-01-29 15:01:18.668974,0.086049123818635
2023-01-29 15:01:18.673974,-0.018799703568220073
2023-01-29 15:01:18.678974,-0.11319305945717484
2023-01-29 15:01:18.683974,-0.17895779013633717
2023-01-29 15:01:18.688974,-0.2076442275963177
2023-01-29 15:01:18.693974,-0.20143568515777577
2023-01-29 15:01:18.698974,-0.17006058351426814
2023-01-29 15:01:18.703974,-0.1265253722667693
2023-01-29 15:01:18.708974,-0.08298317391694433
2023-01-29 15:01:18.713974,-0.047263704240322064
2023-01-29 15:01:18.718974,-0.02168194945751321
2023-01-29 15:01:18.723974,-0.004904270172119046
2023-01-29 15:01:18.728974,0.005357992553618454
2023-01-29 15:01:18.733974,0.011347135528922006
2023-01-29 15:01:18.738974,0.015322982193449127
2023-01-29 15:01:18.743974,0.018895864486694287
2023-01-29 15:01:18.748974,0.02227397318913563
2023-01-29 15:01:18.753974,0.025026202201843203
2023-01-29 15:01:18.758974,0.027434333268731813
2023-01-29 15:01:18.763974,0.030363202095031756
2023-01-29 15:01:18.768974,0.034110446760123134
2023-01-29 15:01:18.773974,0.03827254101634024
2023-01-29 15:01:18.778974,0.042596586579393025
2023-01-29 15:01:18.783974,0.04716753959655754
2023-01-29 15:01:18.788974,0.05188064605441749
2023-01-29 15:01:18.793974,0.05649527162313457
2023-01-29 15:01:18.798974,0.06117411829012707
2023-01-29 15:01:18.803974,0.06637593358755117
2023-01-29 15:01:18.808974,0.07234690162528822
2023-01-29 15:01:18.813974,0.07926166057586653
2023-01-29 15:01:18.818974,0.08762654925274328
2023-01-29 15:01:18.823974,0.09791712462902055
2023-01-29 15:01:18.828974,0.10997435949699395
2023-01-29 15:01:18.833974,0.12325584888458249
2023-01-29 15:01:18.838974,0.137402300596929
2023-01-29 15:01:18.843974,0.15203237533569325
2023-01-29 15:01:18.848974,0.16633430757462203
2023-01-29 15:01:18.853974,0.17948667705059052
2023-01-29 15:01:18.858974,0.19121717008933706
2023-01-29 15:01:18.863974,0.20141164958477015
2023-01-29 15:01:18.868974,0.20951618950044598
2023-01-29 15:01:18.873974,0.21487435698509194
2023-01-29 15:01:18.878974,0.21726021796272463
2023-01-29 15:01:18.883974,0.21648506820201854
2023-01-29 15:01:18.888974,0.2118862072171719
2023-01-29 15:01:18.893974,0.20285408198833446
2023-01-29 15:01:18.898974,0.18953920781352887
2023-01-29 15:01:18.903974,0.1725149154663084
2023-01-29 15:01:18.908974,0.15222290588484977
2023-01-29 15:01:18.913974,0.12938618659973133
2023-01-29 15:01:18.918974,0.10549578511143837
2023-01-29 15:01:18.923974,0.08217056840658173
2023-01-29 15:01:18.928974,0.06035965602978924
2023-01-29 15:01:18.933974,0.040676593780517474
2023-01-29 15:01:18.938974,0.023931510226063265
2023-01-29 15:01:18.943974,0.010601878166198772
2023-01-29 15:01:18.948974,0.00023550404413114732
2023-01-29 15:01:18.953974,-0.00793337821960435
2023-01-29 15:01:18.958974,-0.01420928171255764
2023-01-29 15:01:18.963974,-0.01884778402745712
2023-01-29 15:01:18.968974,-0.022607358412428908
2023-01-29 15:01:18.973974,-0.02610802650451654
2023-01-29 15:01:18.978974,-0.02912024648705242
2023-01-29 15:01:18.983974,-0.031180581077933273
2023-01-29 15:01:18.988974,-0.03238857812853741
2023-01-29 15:01:18.993974,-0.03293554112315171
2023-01-29 15:01:18.998974,-0.03248954806660096
2023-01-29 15:01:19.003974,-0.03084401413798325
2023-01-29 15:01:19.008974,-0.02860690061982297
2023-01-29 15:01:19.013974,-0.026468634605407656
2023-01-29 15:01:19.018974,-0.024342430727577958
2023-01-29 15:01:19.023974,-0.02194901369512084
2023-01-29 15:01:19.028974,-0.01959396343046632
2023-01-29 15:01:19.033974,-0.017573636025190277
2023-01-29 15:01:19.038974,-0.01548609481350124
2023-01-29 15:01:19.043974,-0.012981891632079967
2023-01-29 15:01:19.048974,-0.010554827668533493
2023-01-29 15:01:19.053974,-0.008750757202506001
2023-01-29 15:01:19.058974,-0.007256016264349341
2023-01-29 15:01:19.063974,-0.005601446144282789
2023-01-29 15:01:19.068974,-0.0040520822419063875
2023-01-29 15:01:19.073974,-0.002932945964857905
2023-01-29 15:01:19.078974,-0.0018333594025120637
2023-01-29 15:01:19.083974,-0.00040868920041242044
2023-01-29 15:01:19.088974,0.000781255850813892
2023-01-29 15:01:19.093974,0.0011779865017160014
2023-01-29 15:01:19.098974,0.001209209051752121
2023-01-29 15:01:19.103974,0.001442432403564368
2023-01-29 15:01:19.108974,0.001577976807746874
2023-01-29 15:01:19.113974,0.0012501081218941532
2023-01-29 15:01:19.118974,0.000953073456489046
2023-01-29 15:01:19.123974,0.0011299054604022368
2023-01-29 15:01:19.128974,0.0012236845307604274
2023-01-29 15:01:19.133974,0.0007212162017822218
2023-01-29 15:01:19.138974,0.0002620405888504038
2023-01-29 15:01:19.143974,0.000625054060947131
2023-01-29 15:01:19.148974,0.0015362921713085408
2023-01-29 15:01:19.153974,0.002572337863966794
2023-01-29 15:01:19.158974,0.004208520342901171
2023-01-29 15:01:19.163974,0.006755392067134309
2023-01-29 15:01:19.168974,0.009306127581506738
2023-01-29 15:01:19.173974,0.011058649048209086
2023-01-29 15:01:19.178974,0.012703688768714434
2023-01-29 15:01:19.183974,0.015241703018546094
2023-01-29 15:01:19.188974,0.018493695469172716
2023-01-29 15:01:19.193974,0.02204517647624011
2023-01-29 15:01:19.198974,0.02638934509855096
2023-01-29 15:01:19.203974,0.0316133126616477
2023-01-29 15:01:19.208974,0.03614185844393552
2023-01-29 15:01:19.213974,0.03836870193481441
2023-01-29 15:01:19.218974,0.03841614684896945
2023-01-29 15:01:19.223974,0.03683010861277582
2023-01-29 15:01:19.228974,0.03294515701910343
2023-01-29 15:01:19.233974,0.026276310905814112
2023-01-29 15:01:19.238974,0.01816399477521562
2023-01-29 15:01:19.243974,0.010217229835688992
2023-01-29 15:01:19.248974,0.00248984433688193
2023-01-29 15:01:19.253974,-0.005000432487577115
2023-01-29 15:01:19.258974,-0.010571296554592019
2023-01-29 15:01:19.263974,-0.012837648391723576
2023-01-29 15:01:19.268974,-0.012885499970691692
2023-01-29 15:01:19.273974,-0.01238087844103569
2023-01-29 15:01:19.278974,-0.011163927668253444
2023-01-29 15:01:19.283974,-0.008943080902099618
2023-01-29 15:01:19.288974,-0.007425490871889086
2023-01-29 15:01:19.293974,-0.008029541000723813
2023-01-29 15:01:19.298974,-0.009202109275095426
2023-01-29 15:01:19.303974,-0.008678635582327818
2023-01-29 15:01:19.308974,-0.006322663540434149
2023-01-29 15:01:19.313974,-0.0015626351814717243
2023-01-29 15:01:19.318974,0.009890234224131838
2023-01-29 15:01:19.323974,0.033127866685390375
2023-01-29 15:01:19.328974,0.06946868427229137
2023-01-29 15:01:19.333974,0.11755824089050282
2023-01-29 15:01:19.338974,0.17541453091161321
2023-01-29 15:01:19.343974,0.23610214889049522
2023-01-29 15:01:19.348974,0.28391513495559295
2023-01-29 15:01:19.353974,0.30132412910461404
2023-01-29 15:01:19.358974,0.2797328100782169
2023-01-29 15:01:19.363974,0.22040367126464827
2023-01-29 15:01:19.368974,0.12974037145768288
2023-01-29 15:01:19.373974,0.02175668999552719
2023-01-29 15:01:19.378974,-0.07847635426289087
2023-01-29 15:01:19.383974,-0.1463347673416136
2023-01-29 15:01:19.388974,-0.17560053997570602
2023-01-29 15:01:19.393974,-0.1771787852048872
2023-01-29 15:01:19.398974,-0.15971480618591893
2023-01-29 15:01:19.403974,-0.12260675430297846
2023-01-29 15:01:19.408974,-0.07095973698647375
2023-01-29 15:01:19.413974,-0.023679932579398003
2023-01-29 15:01:19.418974,0.0033433826559405968
2023-01-29 15:01:19.423974,0.01408775709569457
2023-01-29 15:01:19.428974,0.022762939740622178
2023-01-29 15:01:19.433974,0.033560596406459794
2023-01-29 15:01:19.438974,0.04021561819587535
2023-01-29 15:01:19.443974,0.04096508026123043
2023-01-29 15:01:19.448974,0.041957647577705294
2023-01-29 15:01:19.453974,0.04639824479818343
2023-01-29 15:01:19.458974,0.05058355367230068
2023-01-29 15:01:19.463974,0.05219201371073719
2023-01-29 15:01:19.468974,0.05429132707058764
2023-01-29 15:01:19.473974,0.058971446007490026
2023-01-29 15:01:19.478974,0.06376536858068779
2023-01-29 15:01:19.483974,0.06685674190521237
2023-01-29 15:01:19.488974,0.07031072006357263
2023-01-29 15:01:19.493974,0.0757277011871337
2023-01-29 15:01:19.498974,0.08139157723658993
2023-01-29 15:01:19.503974,0.0860651358962059
2023-01-29 15:01:19.508974,0.09158042798414588
2023-01-29 15:01:19.513974,0.09945571422576893
2023-01-29 15:01:19.518974,0.10844460962373384
2023-01-29 15:01:19.523974,0.11746208369731895
2023-01-29 15:01:19.528974,0.12777611632083813
2023-01-29 15:01:19.533974,0.14034867286682112
2023-01-29 15:01:19.538974,0.15380171873597198
2023-01-29 15:01:19.543974,0.16681730747222895
2023-01-29 15:01:19.548974,0.18000357213682894
2023-01-29 15:01:19.553974,0.19369463622570018
2023-01-29 15:01:19.558974,0.20625705176507267
2023-01-29 15:01:19.563974,0.21622061729431144
2023-01-29 15:01:19.568974,0.22399754018288096
2023-01-29 15:01:19.573974,0.23001989722251875
2023-01-29 15:01:19.578974,0.23317465756380665
2023-01-29 15:01:19.583974,0.23252010345458962
2023-01-29 15:01:19.588974,0.2287043001920357
2023-01-29 15:01:19.593974,0.22230288386344893
2023-01-29 15:01:19.598974,0.212456162194378
2023-01-29 15:01:19.603974,0.19847869873046858
2023-01-29 15:01:19.608974,0.18128343764601096
2023-01-29 15:01:19.613974,0.16203324496746055
2023-01-29 15:01:19.618974,0.14089743194291274
2023-01-29 15:01:19.623974,0.11830350011587139
2023-01-29 15:01:19.628974,0.09596333743546549
2023-01-29 15:01:19.633974,0.07543921470642082
2023-01-29 15:01:19.638974,0.0568910621805457
2023-01-29 15:01:19.643974,0.04021982476115221
2023-01-29 15:01:19.648974,0.026165486503958703
2023-01-29 15:01:19.653974,0.015241703018546078
2023-01-29 15:01:19.658974,0.0067682107162074295
2023-01-29 15:01:19.663974,-2.404054066572314e-05
2023-01-29 15:01:19.668974,-0.004978681441854391
2023-01-29 15:01:19.673974,-0.007981459610164025
2023-01-29 15:01:19.678974,-0.009852784159609055
2023-01-29 15:01:19.683974,-0.01134713552892201
2023-01-29 15:01:19.688974,-0.012211176220114419
2023-01-29 15:01:19.693974,-0.012068351730704297
2023-01-29 15:01:19.698974,-0.011320030868664782
2023-01-29 15:01:19.703974,-0.010385513305663998
2023-01-29 15:01:19.708974,-0.00895977261482427
2023-01-29 15:01:19.713974,-0.006827513687312617
2023-01-29 15:01:19.718974,-0.004594089966279412
2023-01-29 15:01:19.723974,-0.0028608243446797276
2023-01-29 15:01:19.728974,-0.0014348352065449129
2023-01-29 15:01:19.733974,-2.4040540665652088e-05
2023-01-29 15:01:19.738974,0.0010598054601522334
2023-01-29 15:01:19.743974,0.0015626351814717243
2023-01-29 15:01:19.748974,0.0019173621064026633
2023-01-29 15:01:19.753974,0.0025482974015176105
2023-01-29 15:01:19.758974,0.0031986047320569735
2023-01-29 15:01:19.763974,0.003533959388732948
2023-01-29 15:01:19.768974,0.003756366493709682
2023-01-29 15:01:19.773974,0.004038810729980336
2023-01-29 15:01:19.778974,0.003982069661434555
2023-01-29 15:01:19.783974,0.003221432445570817
2023-01-29 15:01:19.788974,0.0020244891073733034
2023-01-29 15:01:19.793974,0.0007692973013035432
2023-01-29 15:01:19.798974,-0.0006298718819520274
2023-01-29 15:01:19.803974,-0.0022838513832538656
2023-01-29 15:01:19.808974,-0.003843705407426152
2023-01-29 15:01:19.813974,-0.00495235156267871
2023-01-29 15:01:19.818974,-0.00572896354199018
2023-01-29 15:01:19.823974,-0.006370743270963376
2023-01-29 15:01:19.828974,-0.006717451872055625
2023-01-29 15:01:19.833974,-0.006635189056396363
2023-01-29 15:01:19.838974,-0.006431469331124129
2023-01-29 15:01:19.843974,-0.006490945816039968
2023-01-29 15:01:19.848974,-0.00684433952590119
2023-01-29 15:01:19.853974,-0.007428526878356908
2023-01-29 15:01:19.858974,-0.008415303475410297
2023-01-29 15:01:19.863974,-0.009928743354976097
2023-01-29 15:01:19.868974,-0.011699690933584885
2023-01-29 15:01:19.873974,-0.013270378112792833
2023-01-29 15:01:19.878974,-0.014305527207322602
2023-01-29 15:01:19.883974,-0.01452048681676381
2023-01-29 15:01:19.888974,-0.013608987769732626
2023-01-29 15:01:19.893974,-0.011515418998896972
2023-01-29 15:01:19.898974,-0.008621708473274273
2023-01-29 15:01:19.903974,-0.005481243133544931
2023-01-29 15:01:19.908974,-0.002432789724480765
2023-01-29 15:01:19.913974,0.0005288919201120782
2023-01-29 15:01:19.918974,0.0036888936484623866
2023-01-29 15:01:19.923974,0.00745256757363678
2023-01-29 15:01:19.928974,0.012064814893966987
2023-01-29 15:01:19.933974,0.01735727116465561
2023-01-29 15:01:19.938974,0.022709446751059792
2023-01-29 15:01:19.943974,0.02716581150889388
2023-01-29 15:01:19.948974,0.029672432255714642
2023-01-29 15:01:19.953974,0.02949774265289298
2023-01-29 15:01:19.958974,0.026536056912109366
2023-01-29 15:01:19.963974,0.021083554252982088
2023-01-29 15:01:19.968974,0.01347221040243725
2023-01-29 15:01:19.973974,0.00425517559051507
2023-01-29 15:01:19.978974,-0.005476084591637047
2023-01-29 15:01:19.983974,-0.014544527046382405
2023-01-29 15:01:19.988974,-0.022358873373700097
2023-01-29 15:01:19.993974,-0.0286082439124584
2023-01-29 15:01:19.998974,-0.0326727682374221
2023-01-29 15:01:20.003974,-0.034281812608242
2023-01-29 15:01:20.008974,-0.034455049124196786
2023-01-29 15:01:20.013974,-0.03457029908895489
2023-01-29 15:01:20.018974,-0.03470271201855418
2023-01-29 15:01:20.023974,-0.03428181260824196
2023-01-29 15:01:20.028974,-0.03396531985767971
2023-01-29 15:01:20.033974,-0.034618377685546806
2023-01-29 15:01:20.038974,-0.03432227610602266
2023-01-29 15:01:20.043974,-0.029137134552001905
2023-01-29 15:01:20.048974,-0.017629168309797785
2023-01-29 15:01:20.053974,-0.0014905135612933976
2023-01-29 15:01:20.058974,0.020149827829354337
2023-01-29 15:01:20.063974,0.05363444611430164
2023-01-29 15:01:20.068974,0.1040891580304122
2023-01-29 15:01:20.073974,0.1667211502790451
2023-01-29 15:01:20.078974,0.22728294428963702
2023-01-29 15:01:20.083974,0.26987910270690907
2023-01-29 15:01:20.088974,0.28207305021909984
2023-01-29 15:01:20.093974,0.255599021911621
2023-01-29 15:01:20.098974,0.18906160196125685
2023-01-29 15:01:20.103974,0.09265224635601035
2023-01-29 15:01:20.108974,-0.012898869697843863
2023-01-29 15:01:20.113974,-0.10503312200307838
2023-01-29 15:01:20.118974,-0.16784225087067023
2023-01-29 15:01:20.123974,-0.19463221728801727
2023-01-29 15:01:20.128974,-0.1872983537360432
2023-01-29 15:01:20.133974,-0.1553740203380584
2023-01-29 15:01:20.138974,-0.11264609788790429
2023-01-29 15:01:20.143974,-0.07101576030254358
2023-01-29 15:01:20.148974,-0.036630652170177996
2023-01-29 15:01:20.153974,-0.011130770668387408
2023-01-29 15:01:20.158974,0.0057607931229184854
2023-01-29 15:01:20.163974,0.015794634819030703
2023-01-29 15:01:20.168974,0.021998897163257338
2023-01-29 15:01:20.173974,0.02678116224706171
2023-01-29 15:01:20.178974,0.030718438982233066
2023-01-29 15:01:20.183974,0.03387312218546862
2023-01-29 15:01:20.188974,0.037040895730471826
2023-01-29 15:01:20.193974,0.04079679772257801
2023-01-29 15:01:20.198974,0.044579099485423844
2023-01-29 15:01:20.203974,0.04781663417816165
2023-01-29 15:01:20.208974,0.050987947591346616
2023-01-29 15:01:20.213974,0.054668188095092704
2023-01-29 15:01:20.218974,0.05855490089344916
2023-01-29 15:01:20.223974,0.062361162155866595
2023-01-29 15:01:20.228974,0.06670482160732316
2023-01-29 15:01:20.233974,0.07219374179840074
2023-01-29 15:01:20.238974,0.07852567291841317
2023-01-29 15:01:20.243974,0.08536796271800987
2023-01-29 15:01:20.248974,0.0932561091916643
2023-01-29 15:01:20.253974,0.10274927318096153
2023-01-29 15:01:20.258974,0.11350590914811644
2023-01-29 15:01:20.263974,0.12501081824302668
2023-01-29 15:01:20.268974,0.1373938984508218
2023-01-29 15:01:20.273974,0.15068611502647383
2023-01-29 15:01:20.278974,0.16403011613376234
2023-01-29 15:01:20.283974,0.17645756900310508
2023-01-29 15:01:20.288974,0.18775254839944144
2023-01-29 15:01:20.293974,0.19780556857585888
2023-01-29 15:01:20.298974,0.20587134756776518
2023-01-29 15:01:20.303974,0.21126827597618086
2023-01-29 15:01:20.308974,0.2141248292329432
2023-01-29 15:01:20.313974,0.2146579921245574
2023-01-29 15:01:20.318974,0.21236361837493775
2023-01-29 15:01:20.323974,0.20665249228477467
2023-01-29 15:01:20.328974,0.1976315054668052
2023-01-29 15:01:20.333974,0.18554489314556113
2023-01-29 15:01:20.338974,0.170142548203562
2023-01-29 15:01:20.343974,0.1514073312282561
2023-01-29 15:01:20.348974,0.13033941970669494
2023-01-29 15:01:20.353974,0.10830263793468461
2023-01-29 15:01:20.358974,0.08614789787246385
2023-01-29 15:01:20.363974,0.06459693610668174
2023-01-29 15:01:20.368974,0.044773378035617116
2023-01-29 15:01:20.373974,0.027526419609784955
2023-01-29 15:01:20.378974,0.012734959761956962
2023-01-29 15:01:20.383974,-2.4040540665637878e-05
2023-01-29 15:01:20.388974,-0.010639429357455033
2023-01-29 15:01:20.393974,-0.01891990564763535
2023-01-29 15:01:20.398974,-0.025253582981635356
2023-01-29 15:01:20.403974,-0.030074715614318744
2023-01-29 15:01:20.408974,-0.03320373635134072
2023-01-29 15:01:20.413974,-0.034426055848598335
2023-01-29 15:01:20.418974,-0.0342261802398512
2023-01-29 15:01:20.423974,-0.03327210992574687
2023-01-29 15:01:20.428974,-0.03167555786635182
2023-01-29 15:01:20.433974,-0.029425621032714767
2023-01-29 15:01:20.438974,-0.02702792900106092
2023-01-29 15:01:20.443974,-0.02500216290354711
2023-01-29 15:01:20.448974,-0.023208979545219166
2023-01-29 15:01:20.453974,-0.021347999572753847
2023-01-29 15:01:20.458974,-0.019664512629521066
2023-01-29 15:01:20.463974,-0.01851121708750719
2023-01-29 15:01:20.468974,-0.017685946521293107
2023-01-29 15:01:20.473974,-0.016876459121704077
2023-01-29 15:01:20.478974,-0.016309870929961334
2023-01-29 15:01:20.483974,-0.0162994861602783
2023-01-29 15:01:20.488974,-0.01659627823704497
2023-01-29 15:01:20.493974,-0.016852419823408155
2023-01-29 15:01:20.498974,-0.017286577572470818
2023-01-29 15:01:20.503974,-0.018222730606794278
2023-01-29 15:01:20.508974,-0.01939437258291712
2023-01-29 15:01:20.513974,-0.0203623380511999
2023-01-29 15:01:20.518974,-0.021196925263248397
2023-01-29 15:01:20.523974,-0.022093256935477153
2023-01-29 15:01:20.528974,-0.022755644177457974
2023-01-29 15:01:20.533974,-0.02286255359649643
2023-01-29 15:01:20.538974,-0.022746936690392402
2023-01-29 15:01:20.543974,-0.022934675216674798
2023-01-29 15:01:20.548974,-0.023387304028868336
2023-01-29 15:01:20.553974,-0.02384821698069566
2023-01-29 15:01:20.558974,-0.024504243086283174
2023-01-29 15:01:20.563974,-0.025579135864973044
2023-01-29 15:01:20.568974,-0.026640699472829234
2023-01-29 15:01:20.573974,-0.02702156826853751
2023-01-29 15:01:20.578974,-0.026593071644957788
2023-01-29 15:01:20.583974,-0.025482973083853694
2023-01-29 15:01:20.588974,-0.02347160114971128
2023-01-29 15:01:20.593974,-0.020434459671378136
2023-01-29 15:01:20.598974,-0.017004633586556454
2023-01-29 15:01:20.603974,-0.01399159431457511
2023-01-29 15:01:20.608974,-0.0114272808303772
2023-01-29 15:01:20.613974,-0.008895000442862538
2023-01-29 15:01:20.618974,-0.006408554645590413
2023-01-29 15:01:20.623974,-0.004159013740718317
2023-01-29 15:01:20.628974,-0.0018189975671556529
2023-01-29 15:01:20.633974,0.0008895000210030635
2023-01-29 15:01:20.638974,0.003177294339415558
2023-01-29 15:01:20.643974,0.003774364944547358
2023-01-29 15:01:20.648974,0.002444642046410853
2023-01-29 15:01:20.653974,-7.212162017822266e-05
2023-01-29 15:01:20.658974,-0.0035913493667161494
2023-01-29 15:01:20.663974,-0.008870959281921309
2023-01-29 15:01:20.668974,-0.01622313651378219
2023-01-29 15:01:20.673974,-0.024641554802656077
2023-01-29 15:01:20.678974,-0.03267617456023566
2023-01-29 15:01:20.683974,-0.03949860855936999
2023-01-29 15:01:20.688974,-0.044815937725904545
2023-01-29 15:01:20.693974,-0.04844168946146962
2023-01-29 15:01:20.698974,-0.050455804815805964
2023-01-29 15:01:20.703974,-0.051398675888776724
2023-01-29 15:01:20.708974,-0.0519046324083499
2023-01-29 15:01:20.713974,-0.052312217652797595
2023-01-29 15:01:20.718974,-0.05273481400083518
2023-01-29 15:01:20.723974,-0.0531776770949364
2023-01-29 15:01:20.728974,-0.05339337845454577
2023-01-29 15:01:20.733974,-0.05279302597045883
2023-01-29 15:01:20.738974,-0.05043890151191668
2023-01-29 15:01:20.743974,-0.04469136521220194
2023-01-29 15:01:20.748974,-0.03271930788108604
2023-01-29 15:01:20.753974,-0.010794202797114783
2023-01-29 15:01:20.758974,0.02426561183522759
2023-01-29 15:01:20.763974,0.07305920124053948
2023-01-29 15:01:20.768974,0.1316671177122848
2023-01-29 15:01:20.773974,0.19056937098503107
2023-01-29 15:01:20.778974,0.23566689235506594
2023-01-29 15:01:20.783974,0.2521852850914
2023-01-29 15:01:20.788974,0.23022245801128582
2023-01-29 15:01:20.793974,0.16919732093811019
2023-01-29 15:01:20.798974,0.07909786297705286
2023-01-29 15:01:20.803974,-0.021949013695120763
2023-01-29 15:01:20.808974,-0.1130959550198469
2023-01-29 15:01:20.813974,-0.17739515006542186
2023-01-29 15:01:20.818974,-0.20677790560103804
2023-01-29 15:01:20.823974,-0.20311853289604168
2023-01-29 15:01:20.828974,-0.17555741508649209
2023-01-29 15:01:20.833974,-0.13618966937065108
2023-01-29 15:01:20.838974,-0.09605270399870364
2023-01-29 15:01:20.843974,-0.062409244477748704
2023-01-29 15:01:20.848974,-0.037943986899263205
2023-01-29 15:01:20.853974,-0.021900933235883654
2023-01-29 15:01:20.858974,-0.01201816200833704
2023-01-29 15:01:20.863974,-0.005865891929715777
2023-01-29 15:01:20.868974,-0.0013826877840300825
2023-01-29 15:01:20.873974,0.002788702724501377
2023-01-29 15:01:20.878974,0.007118787043083059
2023-01-29 15:01:20.883974,0.011515418998896985
2023-01-29 15:01:20.888974,0.01584468727619559
2023-01-29 15:01:20.893974,0.020025771111249875
2023-01-29 15:01:20.898974,0.02387632274652439
2023-01-29 15:01:20.903974,0.0272860135883092
2023-01-29 15:01:20.908974,0.03052363891550601
2023-01-29 15:01:20.913974,0.03408948704600324
2023-01-29 15:01:20.918974,0.03832144954003287
2023-01-29 15:01:20.923974,0.04339317604899404
2023-01-29 15:01:20.928974,0.04956136492346792
2023-01-29 15:01:20.933974,0.0570722445845603
2023-01-29 15:01:20.938974,0.06588899518480497
2023-01-29 15:01:20.943974,0.07582386583089823
2023-01-29 15:01:20.948974,0.08688058703699304
2023-01-29 15:01:20.953974,0.09916722774505612
2023-01-29 15:01:20.958974,0.11252881288707783
2023-01-29 15:01:20.963974,0.12654940783977497
2023-01-29 15:01:20.968974,0.14083543161608156
2023-01-29 15:01:20.973974,0.15498936176300035
2023-01-29 15:01:20.978974,0.16837948982641268
2023-01-29 15:01:20.983974,0.18028001487255085
2023-01-29 15:01:20.988974,0.19024194106851508
2023-01-29 15:01:20.993974,0.19807001948356612
2023-01-29 15:01:20.998974,0.20349394794184297
2023-01-29 15:01:21.003974,0.20614764094352714
2023-01-29 15:01:21.008974,0.20581278059266245
2023-01-29 15:01:21.013974,0.2023732662200926
2023-01-29 15:01:21.018974,0.19555863935665999
2023-01-29 15:01:21.023974,0.18504004180431358
2023-01-29 15:01:21.028974,0.1708022402723166
2023-01-29 15:01:21.033974,0.15321037173271174
2023-01-29 15:01:21.038974,0.1327983003038212
2023-01-29 15:01:21.043974,0.11029800027608869
2023-01-29 15:01:21.048974,0.0868362750356008
2023-01-29 15:01:21.053974,0.06375551223754879
2023-01-29 15:01:21.058974,0.04214175687478091
2023-01-29 15:01:21.063974,0.022670229896902972
2023-01-29 15:01:21.068974,0.005797337507051632
2023-01-29 15:01:21.073974,-0.008221864700317268
2023-01-29 15:01:21.078974,-0.01950969958128541
2023-01-29 15:01:21.083974,-0.028464000672101877
2023-01-29 15:01:21.088974,-0.035417570568237966
2023-01-29 15:01:21.093974,-0.04058043286204329
2023-01-29 15:01:21.098974,-0.04426782972972219
2023-01-29 15:01:21.103974,-0.04690309613943093
2023-01-29 15:01:21.108974,-0.0487584932018542
2023-01-29 15:01:21.113974,-0.049908161163329925
2023-01-29 15:01:21.118974,-0.05043906299968575
2023-01-29 15:01:21.123974,-0.05048513412475573
2023-01-29 15:01:21.128974,-0.05005762992171558
2023-01-29 15:01:21.133974,-0.04909078404307361
2023-01-29 15:01:21.138974,-0.04769839322907174
2023-01-29 15:01:21.143974,-0.04618187993764864
2023-01-29 15:01:21.148974,-0.044754450720126
2023-01-29 15:01:21.153974,-0.04344125837087627
2023-01-29 15:01:21.158974,-0.04225125143273384
2023-01-29 15:01:21.163974,-0.04122952744364738
2023-01-29 15:01:21.168974,-0.040309752346521135
2023-01-29 15:01:21.173974,-0.03933032602071758
2023-01-29 15:01:21.178974,-0.03826957246888673
2023-01-29 15:01:21.183974,-0.037310920655727345
2023-01-29 15:01:21.188974,-0.03663837875095475
2023-01-29 15:01:21.193974,-0.036325257271528244
2023-01-29 15:01:21.198974,-0.03645153645253571
2023-01-29 15:01:21.203974,-0.037142634391784585
2023-01-29 15:01:21.208974,-0.03839961131345137
2023-01-29 15:01:21.213974,-0.04000345990061751
2023-01-29 15:01:21.218974,-0.041637404908685734
2023-01-29 15:01:21.223974,-0.04298448562622068
2023-01-29 15:01:21.228974,-0.04366178034283536
2023-01-29 15:01:21.233974,-0.04322489351034155
2023-01-29 15:01:21.238974,-0.041408879175182135
2023-01-29 15:01:21.243974,-0.0383687019348144
2023-01-29 15:01:21.248974,-0.03461740786448495
2023-01-29 15:01:21.253974,-0.03072381019592279
2023-01-29 15:01:21.258974,-0.02707377041159113
2023-01-29 15:01:21.263974,-0.023824175819754573
2023-01-29 15:01:21.268974,-0.020907802276359844
2023-01-29 15:01:21.273974,-0.018006365746259547
2023-01-29 15:01:21.278974,-0.01469945890318445
2023-01-29 15:01:21.283974,-0.010938446037471142
2023-01-29 15:01:21.288974,-0.007426356178037091
2023-01-29 15:01:21.293974,-0.005264878273010178
2023-01-29 15:01:21.298974,-0.005075877294141781
2023-01-29 15:01:21.303974,-0.0067073106765746645
2023-01-29 15:01:21.308974,-0.009969127678309967
2023-01-29 15:01:21.313974,-0.015265743248164635
2023-01-29 15:01:21.318974,-0.023007475975349773
2023-01-29 15:01:21.323974,-0.03257493302226056
2023-01-29 15:01:21.328974,-0.04243948935873074
2023-01-29 15:01:21.333974,-0.05132655426859857
2023-01-29 15:01:21.338974,-0.05876672390619632
2023-01-29 15:01:21.343974,-0.06452481448650361
2023-01-29 15:01:21.348974,-0.06821544800259827
2023-01-29 15:01:21.353974,-0.06983777135610578
2023-01-29 15:01:21.358974,-0.07017972664162088
2023-01-29 15:01:21.363974,-0.07024645805358876
2023-01-29 15:01:21.368974,-0.07055505232274005
2023-01-29 15:01:21.373974,-0.07123212516307822
2023-01-29 15:01:21.378974,-0.07234862200482357
2023-01-29 15:01:21.383974,-0.0736602172255516
2023-01-29 15:01:21.388974,-0.07420081875453062
2023-01-29 15:01:21.393974,-0.07243414968252182
2023-01-29 15:01:21.398974,-0.06649027984155237
2023-01-29 15:01:21.403974,-0.05385081097483636
2023-01-29 15:01:21.408974,-0.03120756947655309
2023-01-29 15:01:21.413974,0.004375378601253
2023-01-29 15:01:21.418974,0.05328581225653031
2023-01-29 15:01:21.423974,0.11150002479553213
2023-01-29 15:01:21.428974,0.16988483072337351
2023-01-29 15:01:21.433974,0.21509072184562675
2023-01-29 15:01:21.438974,0.23267048623704917
2023-01-29 15:01:21.443974,0.21222989261150352
2023-01-29 15:01:21.448974,0.152371910449109
2023-01-29 15:01:21.453974,0.06250540912151334
2023-01-29 15:01:21.458974,-0.03953990015704926
2023-01-29 15:01:21.463974,-0.13287207484245292
2023-01-29 15:01:21.468974,-0.19984232756675302
2023-01-29 15:01:21.473974,-0.231197878718376
2023-01-29 15:01:21.478974,-0.22800656847976195
2023-01-29 15:01:21.483974,-0.1994884014129637
2023-01-29 15:01:21.488974,-0.15828349465899094
2023-01-29 15:01:21.493974,-0.11592348664998994
2023-01-29 15:01:21.498974,-0.08016143421128123
2023-01-29 15:01:21.503974,-0.05421141907572732
2023-01-29 15:01:21.508974,-0.037520153131735394
2023-01-29 15:01:21.513974,-0.027598541229963303
2023-01-29 15:01:21.518974,-0.021858241575263913
2023-01-29 15:01:21.523974,-0.018415054306387825
2023-01-29 15:01:21.528974,-0.015986655316941767
2023-01-29 15:01:21.533974,-0.013751189224421869
2023-01-29 15:01:21.538974,-0.011381615688210762
2023-01-29 15:01:21.543974,-0.00884691905230272
2023-01-29 15:01:21.548974,-0.006061864530223957
2023-01-29 15:01:21.553974,-0.0028848648071288967
2023-01-29 15:01:21.558974,0.0006435489326790579
2023-01-29 15:01:21.563974,0.004375378601253061
2023-01-29 15:01:21.568974,0.008369649598839337
2023-01-29 15:01:21.573974,0.012885729782283261
2023-01-29 15:01:21.578974,0.01809331991707348
2023-01-29 15:01:21.583974,0.02404054068028921
2023-01-29 15:01:21.588974,0.030865151067208593
2023-01-29 15:01:21.593974,0.03875335305929175
2023-01-29 15:01:21.598974,0.047696661587841846
2023-01-29 15:01:21.603974,0.057553052902221555
2023-01-29 15:01:21.608974,0.06834272682465783
2023-01-29 15:01:21.613974,0.08022328466176973
2023-01-29 15:01:21.618974,0.09316291879013806
2023-01-29 15:01:21.623974,0.1068602055311203
2023-01-29 15:01:21.628974,0.12094244322144092
2023-01-29 15:01:21.633974,0.13496360182762135
2023-01-29 15:01:21.638974,0.14821638517283858
2023-01-29 15:01:21.643974,0.15984556078910817
2023-01-29 15:01:21.648974,0.1692130220065787
2023-01-29 15:01:21.653974,0.17595271766185755
2023-01-29 15:01:21.658974,0.17969215290698246
2023-01-29 15:01:21.663974,0.17999152839183802
2023-01-29 15:01:21.668974,0.1765813771542412
2023-01-29 15:01:21.673974,0.16941368579864496
2023-01-29 15:01:21.678974,0.15847114365403864
2023-01-29 15:01:21.683974,0.1438105106353759
2023-01-29 15:01:21.688974,0.1258669906896668
2023-01-29 15:01:21.693974,0.10548989474773399
2023-01-29 15:01:21.698974,0.08362150037501892
2023-01-29 15:01:21.703974,0.061135094612836796
2023-01-29 15:01:21.708974,0.038972444935763025
2023-01-29 15:01:21.713974,0.018126567825675035
2023-01-29 15:01:21.718974,-0.0006516001733571339
2023-01-29 15:01:21.723974,-0.016972621902823396
2023-01-29 15:01:21.728974,-0.030618506322388373
2023-01-29 15:01:21.733974,-0.04146993160247798
2023-01-29 15:01:21.738974,-0.04968345214085718
2023-01-29 15:01:21.743974,-0.055701933801174115
2023-01-29 15:01:21.748974,-0.0599707629855479
2023-01-29 15:01:21.753974,-0.0627938956022261
2023-01-29 15:01:21.758974,-0.06449937775199212
2023-01-29 15:01:21.763974,-0.06551047414541238
2023-01-29 15:01:21.768974,-0.0661357018075986
2023-01-29 15:01:21.773974,-0.0664480552077293
2023-01-29 15:01:21.778974,-0.06644253097922628
2023-01-29 15:01:21.783974,-0.06613552570343012
2023-01-29 15:01:21.788974,-0.06544127437500612
2023-01-29 15:01:21.793974,-0.06416420638561232
2023-01-29 15:01:21.798974,-0.06225707036713689
2023-01-29 15:01:21.803974,-0.05995710939168925
2023-01-29 15:01:21.808974,-0.05757267565705098
2023-01-29 15:01:21.813974,-0.05526920408010476
2023-01-29 15:01:21.818974,-0.05313569050613696
2023-01-29 15:01:21.823974,-0.05127847194671624
2023-01-29 15:01:21.828974,-0.049709390363976536
2023-01-29 15:01:21.833974,-0.04827340692281724
2023-01-29 15:01:21.838974,-0.046832296535796576
2023-01-29 15:01:21.843974,-0.045436620712280204
2023-01-29 15:01:21.848974,-0.044214973278225725
2023-01-29 15:01:21.853974,-0.04320085048675534
2023-01-29 15:01:21.858974,-0.0423883694706453
2023-01-29 15:01:21.863974,-0.041854582726955344
2023-01-29 15:01:21.868974,-0.041675265657568746
2023-01-29 15:01:21.873974,-0.04178246110677709
2023-01-29 15:01:21.878974,-0.04205105572166759
2023-01-29 15:01:21.883974,-0.04247963428497309
2023-01-29 15:01:21.888974,-0.04312052079179233
2023-01-29 15:01:21.893974,-0.04382590577006338
2023-01-29 15:01:21.898974,-0.04421234094996372
2023-01-29 15:01:21.903974,-0.04392206668853752
2023-01-29 15:01:21.908974,-0.04282037855497002
2023-01-29 15:01:21.913974,-0.04094104096293439
2023-01-29 15:01:21.918974,-0.038435667821361784
2023-01-29 15:01:21.923974,-0.035676162689924185
2023-01-29 15:01:21.928974,-0.03317255591200829
2023-01-29 15:01:21.933974,-0.03108441829681389
2023-01-29 15:01:21.938974,-0.028869678527691053
2023-01-29 15:01:21.943974,-0.025747418403625374
2023-01-29 15:01:21.948974,-0.021585506890795362
2023-01-29 15:01:21.953974,-0.017044743523001546
2023-01-29 15:01:21.958974,-0.012760131135755547
2023-01-29 15:01:21.963974,-0.008798837661743126
2023-01-29 15:01:21.968974,-0.005253441838010285
2023-01-29 15:01:21.973974,-0.003005067585036054
2023-01-29 15:01:21.978974,-0.003312095419694363
2023-01-29 15:01:21.983974,-0.00668327044695611
2023-01-29 15:01:21.988974,-0.012615824503188482
2023-01-29 15:01:21.993974,-0.02038637921214101
2023-01-29 15:01:21.998974,-0.029496603716749472
2023-01-29 15:01:22.003974,-0.03918608278036106
2023-01-29 15:01:22.008974,-0.048119343678000116
2023-01-29 15:01:22.013974,-0.05502879619598383
2023-01-29 15:01:22.018974,-0.059460406588557134
2023-01-29 15:01:22.023974,-0.06168802827596659
2023-01-29 15:01:22.028974,-0.06226498631585061
2023-01-29 15:01:22.033974,-0.06197651475667952
2023-01-29 15:01:22.038974,-0.061844522802046845
2023-01-29 15:01:22.043974,-0.0626015663146972
2023-01-29 15:01:22.048974,-0.06412588798885747
2023-01-29 15:01:22.053974,-0.06558259576559063
2023-01-29 15:01:22.058974,-0.0658911801406971
2023-01-29 15:01:22.063974,-0.06368339061737065
2023-01-29 15:01:22.068974,-0.056900882510639676
2023-01-29 15:01:22.073974,-0.04279216378927233
2023-01-29 15:01:22.078974,-0.018432420716276744
2023-01-29 15:01:22.083974,0.01848717592656609
2023-01-29 15:01:22.088974,0.06833176322968638
2023-01-29 15:01:22.093974,0.12753507494926447
2023-01-29 15:01:22.098974,0.18716761205762766
2023-01-29 15:01:22.103974,0.23381829261779777
2023-01-29 15:01:22.108974,0.2531462215748417
2023-01-29 15:01:22.113974,0.2347558736801147
2023-01-29 15:01:22.118974,0.17658121364004659
2023-01-29 15:01:22.123974,0.08709888160228713
2023-01-29 15:01:22.128974,-0.016108862643592365
2023-01-29 15:01:22.133974,-0.11164426803588859
2023-01-29 15:01:22.138974,-0.18127576277646767
2023-01-29 15:01:22.143974,-0.21525900065898887
2023-01-29 15:01:22.148974,-0.21397834161993198
2023-01-29 15:01:22.153974,-0.18607378005981437
2023-01-29 15:01:22.158974,-0.14432552997097298
2023-01-29 15:01:22.163974,-0.10092218965291973
2023-01-29 15:01:22.168974,-0.06401718157369639
2023-01-29 15:01:22.173974,-0.0368781909346579
2023-01-29 15:01:22.178974,-0.01917735550908018
2023-01-29 15:01:22.183974,-0.008798837661743126
2023-01-29 15:01:22.188974,-0.003151973557404555
2023-01-29 15:01:22.193974,-2.4040540665737353e-05
2023-01-29 15:01:22.198974,0.001973214139798775
2023-01-29 15:01:22.203974,0.0035580000840127117
2023-01-29 15:01:22.208974,0.005239003444986821
2023-01-29 15:01:22.213974,0.007428526878356876
2023-01-29 15:01:22.218974,0.01020822291499646
2023-01-29 15:01:22.223974,0.013342499732971134
2023-01-29 15:01:22.228974,0.01662087206014532
2023-01-29 15:01:22.233974,0.020001729950308657
2023-01-29 15:01:22.238974,0.02345621141590345
2023-01-29 15:01:22.243974,0.026973485946655145
2023-01-29 15:01:22.248974,0.030784851536189265
2023-01-29 15:01:22.253974,0.03533959388732908
2023-01-29 15:01:22.258974,0.04099060429768884
2023-01-29 15:01:22.263974,0.047888755798339754
2023-01-29 15:01:22.268974,0.056173050812139844
2023-01-29 15:01:22.273974,0.06599128246307362
2023-01-29 15:01:22.278974,0.07726783994924943
2023-01-29 15:01:22.283974,0.08967121690511692
2023-01-29 15:01:22.288974,0.10285646241554035
2023-01-29 15:01:22.293974,0.11652450263500205
2023-01-29 15:01:22.298974,0.1302138476387736
2023-01-29 15:01:22.303974,0.1432816237211227
2023-01-29 15:01:22.308974,0.15517186088429452
2023-01-29 15:01:22.313974,0.16551911830902083
2023-01-29 15:01:22.318974,0.17396339897869803
2023-01-29 15:01:22.323974,0.1800876855850218
2023-01-29 15:01:22.328974,0.1835857049045361
2023-01-29 15:01:22.333974,0.18427073955535872
2023-01-29 15:01:22.338974,0.181861512710072
2023-01-29 15:01:22.343974,0.1759767532348632
2023-01-29 15:01:22.348974,0.1664261337892027
2023-01-29 15:01:22.353974,0.15335461497306824
2023-01-29 15:01:22.358974,0.1371024402278106
2023-01-29 15:01:22.363974,0.11815925687551493
2023-01-29 15:01:22.368974,0.0973085823667324
2023-01-29 15:01:22.373974,0.07558345794677734
2023-01-29 15:01:22.378974,0.05396610646308807
2023-01-29 15:01:22.383974,0.03324806690216065
2023-01-29 15:01:22.388974,0.014149926389792606
2023-01-29 15:01:22.393974,-0.00269254064187398
2023-01-29 15:01:22.398974,-0.016958158127768796
2023-01-29 15:01:22.403974,-0.028680365532636594
2023-01-29 15:01:22.408974,-0.03800852546834541
2023-01-29 15:01:22.413974,-0.04510005563497541
2023-01-29 15:01:22.418974,-0.05024962746887466
2023-01-29 15:01:22.423974,-0.05387485027313234
2023-01-29 15:01:22.428974,-0.05628395729572478
2023-01-29 15:01:22.433974,-0.05762517452239994
2023-01-29 15:01:22.438974,-0.05808791292626197
2023-01-29 15:01:22.443974,-0.057937704026698934
2023-01-29 15:01:22.448974,-0.05730559289298984
2023-01-29 15:01:22.453974,-0.056158702820539384
2023-01-29 15:01:22.458974,-0.054540688099371966
2023-01-29 15:01:22.463974,-0.05264878273010252
2023-01-29 15:01:22.468974,-0.05064064546068933
2023-01-29 15:01:22.473974,-0.0485859327018259
2023-01-29 15:01:22.478974,-0.046652296859112194
2023-01-29 15:01:22.483974,-0.04510005563497536
2023-01-29 15:01:22.488974,-0.0440085680845708
2023-01-29 15:01:22.493974,-0.043200850486755295
2023-01-29 15:01:22.498974,-0.04248737039594505
2023-01-29 15:01:22.503974,-0.04178246110677716
2023-01-29 15:01:22.508974,-0.040963452392243103
2023-01-29 15:01:22.513974,-0.03988325595855712
2023-01-29 15:01:22.518974,-0.03860647167558049
2023-01-29 15:01:22.523974,-0.03740708157420154
2023-01-29 15:01:22.528974,-0.036466534077663926
2023-01-29 15:01:22.533974,-0.03579636663198468
2023-01-29 15:01:22.538974,-0.03548259517464363
2023-01-29 15:01:22.543974,-0.035700201988220236
