7.04
-5.37
-16.44
-22.38
-20.28
-8.84
11.24
37.17
64.86
90.38
111.76
130.05
148.82
172.35
203.18
240.57
280.47
317.19
345.46
362.23
367.19
362.47
351.95
340.42
332.54
331.48
337.58
347.54
355.22
353.62
337.5
305.28
259.3
204.78
147.75
93.31
44.61
2.71
-33.17
-65.01
-95.2
-125.66
-156.88
-187.45
-214.58
-235.36
-248.36
-254.44
-256.4
-257.51
-259.93
-263.8
-267.54
-268.96
-266.46
-259.52
-248.5
-233.98
-216.25
-195.5
-172.13
-147.33
-122.98
-101.17
-83.39
-69.86
-59.43
-50.05
-39.77
-27.55
-13.8
-0.12
11.44
19.43
23.61
24.94
25.02
25.17
26
27.37
28.97
30.68
32.66
34.95
37.01
37.65
35.52
29.96
21.55
12.06
3.85
-1.04
-1.31
3.49
13.29
27.62
45.66
65.84
85.78
102.57
113.58
117.14
112.7
100.57
81.31
55.52
23.98
-11.74
-49.04
-84.69
-115.75
-140.7
-159.95
-175.3
-188.81
-201.76
-214.24
-225.55
-234.76
-240.9
-242.77
-238.68
-226.61
-205.1
-174.32
-136.47
-95.24
-54.47
-16.38
19.25
54.84
93.49
137.21
185.3
233.94
276.91
307.5
320.86
315.82
295.36
265.55
233.05
202.93
177.43
156.16
137.53
120.23
103.85
88.57
74.55
61.42
48.48
35.33
22.23
9.91
-0.94
-10.22
-18.35
-25.97
-33.65
-41.86
-51.08
-61.98
-75.09
-90.09
-105.37
-118.13
-125.33
-124.95
-116.74
-102.24
-83.93
-64.13
-44.39
-25.48
-7.86
7.85
20.75
29.99
35.18
36.42
34.4
30.26
25.5
21.87
21.09
24.32
31.46
40.69
48.67
51.46
46.04
31.67
10.43
-13.34
-34.62
-49.57
-56.85
-57.83
-55.56
-52.99
-51.54
-50.39
-46.99
-38.49
-23.2
-1.71
23.13
46.55
63.33
69.34
62.68
44.07
16.4
-16.14
-48.95
-78.02
-101.04
-118.31
-132.71
-148.46
-168.63
-192.74
-215.74
-229.34
-225.47
-199.61
-153.04
-92.18
-25.78
38.55
96.73
148.7
196.98
244.5
292.91
341.62
387.97
427.99
457.9
475.09
478.61
468.77
446.19
411.31
364.76
308.43
246.6
186.06
134.71
98.98
81.27
78.7
83.78
87.01
80.18
59.15
24.64
-18.58
-64.44
-108.29
-148.61
-187.08
-227.08
-271.37
-320.13
-370.22
-415.9
-450.48
-468.36
-466.54
-445.07
-406.55
-354.82
-293.72
-226.59
-156.46
-86.93
-22.52
31.45
70.01
89.75
89.72
71.4
37.86
-7.24
-60.2
-117.11
-173.38
-223.57
-262.03
-284.36
-288.83
-276.98
-252.91
-221.45
-186.24
-148.58
-107.85
-62.92
-13.8
37.22
85.81
126.92
156.71
173.89
179.97
178.17
171.62
161.72
147.83
128.2
101.93
70.31
37.01
6.58
-17.92
-36.61
-52.51
-69.54
-89.79
-111.88
-131.28
-142.36
-141.1
-126.77
-102.14
-72.03
-41.37
-13.76
8.94
26.39
39.46
49.89
60.34
73.84
92.7
117.03
143.82
167.3
180.86
179.87
163.8
136.73
105.65
77.61
57.12
44.87
38.26
33.08
25.5
13.52
-2.14
-18.23
-29.5
-29.83
-13.72
21.97
76.54
145.13
219.66
290.8
350.13
391.58
412.06
411.12
390.48
353.54
305.14
251
196.92
147.71
105.83
70.84
39.72
8.08
-28.26
-71.99
-123.36
-179.75
-235.61
-283.47
-315.63
-326.81
-316.09
-287.66
-249.3
-209.54
-174.52
-146.44
-124.06
-104.75
-86.9
-71.12
-59.79
-55.24
-57.92
-65.49
-72.95
-74.11
-63.47
-38.21
0.04
45
87.07
116.26
125.61
113.6
84.52
46.57
8.72
-22.27
-43.18
-54.06
-56.59
-52.46
-42.7
-27.96
-9.5
10.03
26.71
36.34
35.87
24.84
5.95
-15.55
-33.69
-44.06
-45.6
-40.79
-34.23
-30.2
-30.7
-34.9
-40.53
-45.73
-50.46
-56.46
-65.65
-78.55
-93.6
-108
-119.33
-126.62
-130.14
-130.2
-126.27
-117.29
-103.22
-86.44
-71.78
-64.43
-66.99
-77.67
-90.92
-100.27
-101.69
-95.31
-84.56
-73.44
-63.94
-55.26
-44.96
-31
-13.27
6.62
26.34
44.26
60
74.02
86.8
98.18
107.28
112.93
114.14
110.49
102.33
90.88
78.06
66.24
57.54
53.14
52.81
55.02
57.74
59.34
59.45
59.05
59.76
62.9
68.43
74.75
79.22
79.3
73.69
62.98
49.45
36.28
26.29
20.91
19.64
20.32
20.16
16.96
10.17
0.95
-8.52
-16.24
-21.43
-24.67
-27.33
-30.46
-34.17
-37.87
-40.87
-42.54
-42.02
-37.57
-26.67
-7.32
20.18
52
81.4
101.49
108.6
104.31
94.91
88.45
91.05
104.47
125.94
149.85
170.01
181.41
180.93
167.45
142.07
107.99
70.04
33.65
3.21
-19.02
-33.15
-40.65
-42.51
-38
-24.95
-1.53
31.31
68.34
100.67
118.63
115.91
92.53
54.88
12.57
-25.95
-56.25
-77.89
-91.6
-96.46
-89.35
-67.63
-32.89
6.96
39.31
51.8
37.79
-1.24
-57.32
-119.94
-179.98
-231.66
-272.44
-302.01
-321.62
-333.4
-339.55
-340.97
-336.28
-322.05
-294.71
-253.2
-200.36
-142.23
-85.41
-34.07
11.42
53.71
96.32
141.83
191.36
245.02
302.33
361.47
418.55
467.57
501.46
514.33
503.91
472.46
425.85
371.26
314.59
259.15
205.88
154.86
106.61
62.44
23.76
-8.97
-36.55
-60.51
-81.94
-100.78
-115.9
-125.97
-130.49
-130.3
-127.21
-123.1
-119.19
-115.84
-112.94
-110.43
-108.56
-107.66
-107.67
-107.68
-106.09
-100.97
-90.61
-74.27
-52.62
-27.54
-1.5
23.37
45.86
65.56
82.17
94.69
101.09
98.8
85.89
61.88
27.81
-14.38
-62.36
-113.18
-162.39
-203.61
-229.53
-234.33
-216.58
-180.95
-137.33
-97.77
-72.28
-65.61
-76.37
-98.44
-123.91
-146.1
-161.35
-169.24
-171.46
-170.16
-166.52
-160.36
-150.9
-138
-123.26
-109.63
-99.95
-95.18
-93.68
-92
-86.92
-77.5
-66.01
-57.13
-55.87
-65.32
-85.16
-111.83
-139.93
-164.11
-180.67
-188.03
-186.28
-176.2
-158.41
-133.08
-100.45
-61.56
-18.65
25.11
66.64
104.06
137.29
167.88
198.26
230.95
267.86
309.75
355.81
403.27
447.45
482.39
502.21
502.83
483.16
445.43
394.38
335.79
274.85
215.43
159.93
109.64
65.13
26.06
-9.33
-44.64
-84.64
-133.27
-191.1
-253.53
-310.91
-351.43
-365.33
-348.7
-305.21
-244.76
-180.14
-123.15
-81.92
-59.79
-55.48
-63.98
-77.49
-87.05
-84.66
-65.81
-31.19
13.12
57.6
92.56
111.08
110.99
94.8
68.25
38.31
11.26
-8.22
-17.71
-16.98
-7.58
7.75
25.99
44.69
62.43
78.83
94.21
108.89
122.85
135.7
146.98
156.61
165.01
172.96
180.93
188.84
195.44
198.47
195.36
184.11
164.18
137.39
107.75
80.53
61.42
53.78
57.63
69.37
82.69
90.43
86.59
68.24
35.98
-4.36
-44.88
-77.58
-96.9
-101.83
-96.31
-87.66
-84.03
-92.8
-116.57
-155.78
-208.03
-268.27
-328.86
-380.25
-412.81
-419.93
-401.73
-362.38
-311.8
-260.37
-214.79
-175.75
-138.75
-97.44
-40.93
19.94
79.36
126.91
152.79
151.36
123.18
75.02
18.2
-34.44
-72.23
-85.26
-69.29
-24.94
42.46
123.55
206.56
279.41
332.18
358.25
357.91
335.05
296.74
251.05
204.99
163.12
127.06
96.03
67.4
39.52
10.55
-20.62
-54.63
-91.67
-131.31
-171.98
-210.59
-243.06
-264.74
-273.05
-268.5
-255.06
-238.74
-225.36
-218.41
-218.47
-224.11
-233.25
-244.48
-256.78
-268.49
-276.48
-276.52
-264.77
-239.68
-202.93
-159
-113.36
-70.56
-33.17
-1.8
24.23
45.88
64.23
80.46
95.94
112.19
131
154.33
184.22
221.92
266.62
314.23
357.61
388.17
398.8
386.63
353.9
306.48
251
192.3
132.88
74.3
19.15
-27.93
-61.56
-78.3
-79.02
-69.06
-55.78
-45.02
-38.31
-32.87
-23.79
-7.58
15.4
40.92
62.97
77.02
82.39
82.58
83.59
91.01
107.39
130.94
156.69
178.69
192.65
197.64
195.89
191.23
186.86
183.7
180.31
174.13
163.14
147.17
127.98
108.13
89.43
71.87
53.33
30.29
-0.51
-40.48
-87.93
-138.16
-184.54
-220.64
-242.3
-248.8
-243.04
-230.67
-218.99
-215.26
-224.72
-248.56
-282.56
-317.18
-340.04
-340.26
-313.33
-263.89
-204.66
-151.38
-116.34
-103.6
-108.48
-121.09
-131.46
-133.52
-125.96
-110.36
-88.75
-62.1
-30.94
3.12
36.26
62.86
77.72
78.54
67.27
49.45
31.84
19.89
15.57
16.85
18.89
16.25
5.23
-14.78
-41.07
-68.84
-92.84
-108.98
-115.17
-111.45
-99.38
-81.31
-59.62
-36.22
-12.04
13.23
41.08
73.19
110.03
149.2
184.62
207.31
207.98
180.78
126.68
54.52
-20.96
-83.67
-121.38
-129.38
-111
-75.22
-32.62
8.28
42.84
69.96
90.6
105.85
116.06
120.91
120.21
114.54
105.42
94.86
84.71
76.24
69.9
65.59
63.1
62.54
64.56
70.3
81.05
97.78
120.55
148.04
177.61
205.86
229.62
246.85
257.09
261.07
259.9
254.14
243.4
226.61
202.87
172.03
134.97
93.32
49
4.29
-37.65
-72.58
-95.76
-103.83
-97.32
-82.06
-68.39
-67.57
-86.69
-124.83
-172.56
-215.18
-238.65
-234.93
-204.5
-155.09
-97.83
-42.89
3.15
37.63
60.56
72.99
76.04
70.75
58.47
40.78
19.14
-5.56
-33.1
-63.4
-95.9
-129.03
-160.19
-186.18
-203.88
-211.06
-207.24
-194.49
-177.66
-163.62
-159.3
-168.82
-191.4
-220.88
-247.66
-262.24
-258.55
-235.62
-196.83
-147.59
-93.09
-37.5
15.62
62.44
98.75
121.22
129.01
124.69
113.4
100.57
89.39
79.64
68.44
52.57
30.96
5.86
-17.68
-33.53
-36.5
-23.89
3.52
41.13
81.29
115.19
135.73
140.06
130.65
114.05
97.77
86.96
82.59
82.11
81.78
79.1
73.9
67.54
61.38
55.55
48.98
40.35
29.24
16.46
3.53
-8.05
-17.48
-24.82
-30.5
-34.69
-36.75
-35.3
-28.73
-16.1
2.24
24.27
46.65
65.42
76.84
78.09
67.9
46.79
17.2
-16.85
-50.56
-79.4
-100.15
-111.48
-113.88
-109.06
-99.16
-86.21
-72.02
-58.23
-46.54
-38.58
-35.49
-37.31
-42.46
-47.61
-48.52
-41.68
-26.16
-4.57
17.75
35.29
45.29
49.38
52.59
60.28
74.69
93.37
110.38
119.5
117.43
104.92
85.61
63.48
41
19
-2.16
-21.14
-35.37
-42.09
-40.05
-30.43
-16.65
-2.96
7.23
12.38
12.78
9.78
4.83
-1.1
-7.57
-14.28
-20.77
-26.33
-30.27
-32.2
-32.37
-31.6
-30.99
-31.58
-34.02
-38.38
-43.96
-49.31
-52.44
-51.28
-44.43
-31.72
-14.55
4.52
22.7
37.86
49.14
56.87
62.08
66.04
69.98
75.01
81.64
88.83
93.4
90.5
75.71
47.76
10.66
-26.73
-53.52
-60.73
-44.42
-6.34
47.61
109.62
171.72
226.36
266.68
287.18
285.39
263.08
226.3
183.53
142.33
106.48
74.97
43.26
6.43
-37.38
-85.11
-129.23
-160.2
-170.05
-155.22
-117.91
-65.33
-7.18
47.3
91.61
122.86
141.39
149.55
150.62
148.16
145.78
146.9
154.13
168.22
187.26
206.77
220.6
223.21
211.84
187.66
155.32
120.92
89.49
63.44
42.31
23.81
5.56
-13.78
-34.28
-55.23
-76.12
-97.33
-120.41
-147.5
-180.31
-218.9
-260.98
-302.14
-337.09
-361.19
-371.78
-368.74
-354.15
-331.52
-304.96
-278.47
-255.42
-237.85
-225.96
-217.81
-209.77
-197.55
-177.77
-148.99
-112.04
-69.34
-23.74
22.58
68.82
115.3
162.59
210.53
257.62
301.2
338.33
366.66
384.99
393.07
391.04
378.97
356.98
325.88
287.79
246.2
205.18
168.19
136.92
111
88.41
66.46
42.56
14.68
-18.34
-56.52
-98.38
-140.93
-180.17
-212.07
-233.79
-244.49
-245.5
-239.65
-230.29
-220.29
-211.42
-204.1
-197.59
-190.42
-181.13
-168.9
-153.96
-137.52
-121.19
-106.2
-92.88
-80.67
-68.8
-57.07
-46.17
-37.53
-32.45
-31.25
-32.67
-34.07
-32.08
-23.77
-7.51
16.68
47.18
81.24
115.5
146.19
169.32
181.25
179.65
164.64
139.24
108.87
79.65
56.61
42.41
37.21
39.44
46.57
55.64
63.1
64.89
57.03
36.98
5.03
-35.25
-77.74
-115.72
-144.03
-160.29
-165.07
-161.07
-151.92
-141.22
-131.84
-125.69
-123.51
-124.83
-128.07
-130.9
-130.92
-126.43
-117.03
-103.7
-88.36
-73.03
-59.19
-47.47
-37.81
-29.94
-23.71
-19.08
-15.93
-13.75
-11.57
-8.27
-3.04
4.13
12.49
20.83
28.11
33.96
38.71
43.17
48.27
54.66
62.61
72.01
82.39
93.03
103.13
111.98
119.06
124.18
127.28
128.28
127.05
123.48
117.66
109.91
100.53
89.7
77.41
63.88
49.97
37.37
28.04
23.21
22.33
22.9
21.28
14.4
1.25
-16.49
-35.18
-50.85
-60.86
-64.73
-63.87
-60.38
-55.8
-50.43
-43.56
-34.3
-22.7
-10.08
1.33
9.5
13.83
15.81
18.71
26.33
41.33
64.13
92.79
123.95
154.25
181.37
204.25
222.43
235.16
241.11
238.66
226.91
206.37
179.02
147.53
114.17
80.04
45.28
9.8
-25.94
-60.77
-93.23
-122.16
-146.92
-167.27
-182.83
-192.99
-197.35
-196.29
-191.33
-184.73
-178.48
-173.54
-169.6
-165.81
-161.87
-158.74
-158.52
-163.45
-174.52
-190.43
-207.5
-220.5
-224.31
-215.62
-194.25
-163.32
-128.42
-95.93
-71.1
-56.62
-52.04
-54.34
-59.04
-61.54
-58.19
-47.08
-28.27
-3.63
23.69
50.3
73.52
92.18
106.66
118.33
128.51
137.59
144.73
148.32
146.97
140.48
130.22
118.75
108.94
102.85
100.98
102.15
104.04
104.2
101.11
94.81
86.81
79.46
74.82
73.62
74.61
74.64
69.17
53.35
23.56
-20.99
-76.66
-135.06
-184.34
-212.45
-211.19
-179.67
-125.31
-61.75
-4.4
34.45
49.22
41.84
19.97
-6.54
-28.98
-42.01
-44.19
-37.12
-24.02
-8.61
5.72
16.18
20.69
18.43
10.43
-0.23
-9.19
-12.42
-8.17
2.02
13.83
22.22
23.84
18.65
9.74
1.77
-1.2
2.64
12.54
25.96
39.78
51.41
59.18
62.39
61.07
55.71
47.18
36.63
25.31
14.39
4.68
-3.57
-10.76
-17.77
-25.55
-34.66
-44.84
-54.86
-62.95
-67.54
-68.08
-65.43
-61.64
-59.12
-59.72
-64
-71.18
-79.38
-86.24
-89.42
-86.97
-77.83
-62.24
-41.98
-20.17
-0.3
15.1
25.64
33.41
42.22
55.83
76.12
101.95
129.27
152.46
166.35
167.83
156.73
135.54
108.36
79.61
53
30.92
14.54
4.01
-1.25
-2.35
-0.93
1.03
1.51
-0.95
-6.71
-14.73
-22.8
-28.23
-28.94
-24.28
-15.42
-4.88
4.45
10.46
12.61
11.98
10.48
9.98
11.44
14.67
18.62
21.96
23.7
23.56
21.96
19.74
17.75
16.44
15.76
15.2
14.09
11.99
8.91
5.39
2.22
0.2
-0.12
1.5
4.93
9.75
15.19
20.2
23.71
24.85
23.33
19.49
14.14
8.03
1.4
-6.14
-15.32
-26.35
-38.3
-48.98
-55.66
-56.38
-51.18
-42.52
-34.55
-31.42
-35.48
-46.25
-60.75
-74.89
-85.31
-90.63
-91.69
-90.66
-89.88
-90.95
-94.35
-99.43
-104.67
-107.67
-105.11
-93.2
-68.9
-31.62
15.14
63.79
104.37
127.83
129.26
109.57
74.65
32.6
-9.31
-46.58
-77.2
-100.22
-114.24
-117.29
-107.85
-86.43
-56.23
-22.16
11.52
43.44
75.58
111.54
153.25
198.09
238.46
264.56
269.06
251.15
217.33
178.37
144.1
118.89
100.48
82.82
60.93
34.73
9.11
-9.37
-17.2
-16.55
-14.28
-17.87
-30.99
-51.72
-74.25
-93.36
-107.95
-121.5
-139.14
-163.37
-191.39
-216.13
-230.23
-230.38
-219.07
-202.64
-187.09
-174.39
-161.61
-143
-113.73
-72.83
-23.98
25.96
69.53
101.03
117.79
120.43
112.27
98.22
83.38
71.76
65.4
64.16
66.27
69.35
71.4
71.22
68.58
63.88
58.07
52.5
49.01
49.8
57
71.74
93.03
117.13
138.25
150.31
149.32
135.2
111.9
85.72
62.5
45.26
33.28
23.15
11.24
-3.83
-20.12
-33.2
-38.47
-33.68
-20.19
-2.4
14.28
25.83
31.03
31.28
29.16
26.7
24.53
22.18
19.1
15.46
12.25
10.72
11.56
14.69
19.44
25.05
30.97
36.78
42.15
46.64
49.76
50.91
49.11
42.93
30.88
12.46
-10.81
-35.19
-55.56
-67.42
-68.63
-60.22
-45.54
-28.34
-10.88
7.05
27.62
53.41
85.5
122.23
159.1
189.78
207.81
208.61
190.72
156.35
110.67
60.43
12.27
-28.74
-60.02
-81.71
-96.18
-106.97
-117.39
-129.43
-143.28
-157.7
-170.94
-181.72
-189.91
-196.54
-203.59
-213.39
-227.9
-247.98
-272.61
-298.72
-321.71
-336.74
-340.15
-330.63
-309.16
-278.19
-240.56
-198.67
-154.54
-110.22
-68.12
-30.95
-1.08
20.29
33.56
40.74
44.8
48.65
54.15
61.62
69.85
76.95
81.27
82.25
80.52
77.56
74.87
73.49
73.7
75.17
77.3
79.57
81.66
83.46
84.96
86.06
86.43
85.64
83.32
79.52
74.9
70.76
68.67
70.02
75.33
83.94
94.08
103.35
109.64
111.96
110.89
108.38
107.03
109.09
115.56
125.81
137.47
146.96
150.29
143.9
125.48
94.6
52.88
3.79
-48.15
-98.24
-142.61
-178.8
-205.8
-223.75
-233.28
-235.13
-229.8
-217.69
-199.35
-175.73
-148.33
-119.23
-90.69
-64.76
-42.84
-25.42
-12.12
-1.92
6.32
13.47
19.84
25.25
29.33
31.88
33.12
33.6
33.95
34.63
35.95
38.17
41.68
46.91
54.01
62.48
71.04
77.92
81.53
81.01
76.42
68.62
58.71
47.64
35.98
24.01
11.97
0.3
-10.35
-19.33
-26.27
-31.28
-34.97
-38.12
-41.32
-44.51
-46.99
-47.59
-45.15
-39.02
-29.29
-16.77
-2.65
11.75
25.17
36.42
44.4
48.25
47.7
43.31
36.63
29.91
25.53
25.18
29.16
36.18
43.71
48.92
49.84
46.17
39.26
31.53
25.3
21.88
21.36
22.82
25.08
27.33
29.3
31.09
32.74
33.96
34.1
32.5
28.81
23.24
16.5
9.58
3.42
-1.32
-4.18
-4.9
-3.2
1.09
7.85
16.53
26.11
35.49
43.92
51.62
59.87
70.71
85.98
106.31
130.38
154.92
175.51
187.78
188.68
177.15
154.13
121.81
82.71
39.26
-6.21
-51.02
-91.98
-125.63
-149.16
-161.13
-161.8
-152.55
-135.1
-110.78
-80.45
-45.06
-6.44
32.22
66.58
92.08
105.1
104.01
89.39
63.73
30.58
-6.5
-44.88
-83.27
-121.57
-160.02
-198.33
-234.99
-267.36
-292.32
-307.39
-311.67
-306.42
-294.88
-281.16
-268.71
-259.09
-251.4
-243.03
-230.96
-213.2
-189.51
-161.24
-130.16
-97.44
-63.29
-27.4
9.97
47.65
83.71
116.37
144.71
169.67
193.67
219.22
247.51
277.13
305.09
328.29
344.97
354.57
357.9
355.89
348.32
333.71
309.44
274.11
228.77
176.97
122.58
69.45
20.72
-21.8
-56.52
-84.63
-108
-129.1
-151.18
-179.06
-216.08
-261.89
-311.41
-355.28
-384.38
-392.15
-377.03
-335.46
-272.96
-201.24
-132.86
-79.16
-37.82
-3.78
27.1
57.43
88.89
122.63
160.66
204.27
251.79
297.75
332.54
346.77
335.26
298.56
241.11
170.3
94.79
23.45
-34.85
-73.42
-88.34
-80.03
-54.1
-20.85
8.52
25.56
26.66
12.99
-12.16
-44.53
-79.86
-113.99
-143.35
-165.21
-178.57
-184.57
-185.63
-183.92
-179.5
-169.88
-151.39
-121.73
-82.01
-37.25
4.9
36.75
53.39
54.6
45.17
33.54
29.37
40.76
71.68
120.22
178.41
233.9
273.36
286.55
269.84
227.53
170.54
112.91
67.29
41.12
34.76
42.27
54.12
61.15
57.77
43.72
23.5
4.2
-7.49
-7.59
4.23
25.27
51.14
76.94
98.02
110.43
111.34
99.97
78.09
50.02
21.46
-2.56
-19.58
-30.46
-38.63
-48.19
-61.67
-78.84
-96.93
-112.04
-120.85
-121.81
-115.44
-103.64
-88.85
-73.22
-58.35
-45.38
-35.14
-28.25
-24.89
-24.56
-26.13
-28.24
-29.87
-30.78
-31.66
-33.54
-37.15
-42.14
-46.82
-48.7
-45.46
-36.1
-21.47
-4.05
13.15
27.83
39.2
48.01
55.74
63.66
72.09
80.41
87.36
91.67
92.26
88.25
79.04
64.6
46.03
25.7
6.74
-8.19
-18.22
-24.89
-31.48
-41.32
-56.15
-75.18
-95.69
-114.4
-128.99
-138.74
-144.34
-147.08
-148.15
-148.34
-148.04
-147.33
-146.03
-143.7
-139.87
-134.27
-127.12
-118.98
-110.42
-101.62
-92.22
-81.56
-69.24
-55.51
-41.27
-27.64
-15.36
-4.4
5.85
15.97
25.96
35.03
42
45.95
46.81
45.45
43.27
41.56
40.97
41.3
41.82
41.78
40.73
38.71
36.2
33.88
32.36
32.03
32.84
34.19
35.24
35.18
33.8
31.69
30.17
30.81
34.79
42.38
52.87
64.76
76.32
86.01
92.56
94.94
92.24
83.81
69.73
51.15
30.42
10.67
-5.09
-14.88
-18.29
-16.38
-10.97
-4.03
2.96
8.85
12.66
13.29
9.72
1.51
-10.75
-25.26
-39.34
-50.29
-56.25
-56.88
-53.46
-48.39
-44.45
-44
-48.31
-57.38
-70.08
-84.65
-99.28
-112.69
-124.34
-134.35
-143.06
-150.57
-156.48
-159.97
-160.22
-157.01
-150.99
-143.55
-136.28
-130.31
-126.04
-123.29
-121.92
-122.21
-124.85
-130.17
-137.31
-143.74
-145.81
-140.07
-124.94
-101.57
-73.55
-45.5
-21.24
-2.45
11.6
23.33
35.93
52.58
75.85
107.13
145.79
188.53
229.29
260.61
275.96
272.33
251.54
219.73
184.95
154.15
131.07
115.72
105.66
97.78
89.8
80.78
70.75
60.17
49.46
39.01
29.35
21.16
15.34
12.61
13.29
17.16
23.43
30.93
38.29
44.17
47.4
47.29
43.78
37.59
30.13
22.98
17.35
13.63
11.37
9.65
7.66
4.9
1.32
-2.8
-6.6
-8.29
-4.99
6.87
29.87
63.57
103.03
139.46
162.99
166.69
149.54
116.84
77.74
41.35
13.47
-4.53
-14.41
-18.7
-18.97
-15.61
-8.95
-0.55
6.5
8.8
4.46
-5.6
-17.69
-26.91
-29.38
-23.97
-12.82
-0.25
9.43
13.89
13.74
12
12.31
17.14
26.72
39.33
52.47
64.28
74.47
84.17
95.14
108.81
125.62
144.9
164.94
183.36
197.43
204.47
202.83
192.6
175.94
156.52
138.1
123.05
111.65
102.46
93.72
84.61
75.59
67.64
61.06
54.34
44.43
27.91
2.44
-31.99
-72.62
-114.41
-151.19
-177.2
-188.41
-183.5
-164.2
-134.84
-101.16
-68.84
-42.2
-23.48
-13.05
-10.22
-14.33
-25.19
-43.02
-67.72
-98.1
-131.57
-164.44
-193
-214.63
-228.76
-236.76
-240.97
-243.29
-244.43
-243.74
-239.87
-231.94
-220.31
-206.72
-193.63
-183.07
-175.72
-170.7
-166.18
-160.61
-153.74
-146.8
-141.72
-139.81
-140.85
-143.05
-143.98
-141.99
-137.04
-130.59
-124.41
-119.15
-113.61
-105.02
-90.33
-67.73
-37.27
-0.41
41.11
86.02
132.84
178.55
217.83
244.34
253.75
246.96
231.01
216.26
211.19
217.66
229.9
237.86
233.28
214.46
186.94
159.63
139.37
127.23
118.93
108.88
94.54
78.27
65.56
61.06
65.06
72.7
76.42
69.86
51.2
23.81
-5.55
-29.84
-44.46
-48.39
-43.63
-33.83
-22.99
-14.45
-10.33
-11.24
-15.99
-21.84
-25.34
-23.79
-16.54
-5.45
5.77
13.12
14.12
8.84
-0.34
-9.91
-16.92
-20.12
-20.2
-19.21
-19.5
-22.74
-29.42
-38.72
-48.89
-57.79
-63.51
-65
-62.27
-56.36
-48.66
-40.3
-31.83
-23.12
-13.98
-4.64
4.21
11.64
16.81
18.71
15.95
6.83
-9.56
-31.71
-54.57
-70.06
-69.8
-48.91
-8.82
42.57
93.85
134.72
159.75
169.39
168.02
160.42
149.1
133.9
113.77
89.24
63.87
43.56
34.13
38.42
54.12
74.06
88.38
88.09
68.36
30.43
-18.83
-69.48
-111.94
-140.3
-154.04
-157.56
-157.9
-161.23
-169.87
-181.21
-188.83
-185.19
-164.75
-126.08
-72.53
-11.26
48.61
97.95
129.26
137.8
122.45
86.73
39.09
-8.32
-43.07
-56.73
-48.11
-23.33
7.64
35.71
56.38
70.26
80.39
88.81
94.87
96.08
90.96
81.33
71.98
67.96
71.16
78.71
84.67
83.61
73.96
59.3
46.66
43.32
53.72
77.77
111.15
147.59
180.92
206.71
222.76
228.96
226.82
219.09
208.87
198.35
188.54
179.2
169.27
157.78
144.24
128.64
111.29
91.77
68.15
38.54
2.7
-37.37
-78.05
-116.23
-151
-184.06
-220.03
-265.55
-324.73
-395.91
-470.37
-534.03
-572.23
-574.75
-538.77
-471.7
-390.48
-314.68
-260.41
-235.57
-238.94
-263.23
-299.06
-337.39
-358.52
-348.18
-300.99
-224.05
-132.75
-41.85
39.16
99.87
142.31
167.75
174.1
159.36
123.29
68.79
4.46
-59.71
-113.25
-146.33
-154.07
-138.55
-106.64
-67.35
-28
7.84
39.83
69.52
99.06
128.49
156.21
181.49
205.56
231.15
260.05
290.22
315.45
328.09
321.62
294.16
249.72
196.33
142.56
94.36
53.6
19.25
-10.23
-35.61
-56.44
-71.79
-81.36
-85.87
-86.59
-84.51
-79.81
-71.96
-60.47
-45.68
-29.02
-12.61
1.35
11.44
17.25
19.28
18.34
15.22
10.44
4.58
-1.39
-6.04
-7.87
-5.9
-0.24
7.9
16.52
23.52
27.5
28.11
26.13
23.08
20.74
20.48
22.94
27.78
33.96
40.1
45.05
48.21
49.65
49.83
49.22
48.04
46.17
43.4
39.75
35.59
31.59
28.46
26.68
26.36
27.14
28.42
29.44
29.5
28.07
24.98
20.36
14.62
8.33
2.05
-3.62
-8.01
-10.33
-9.75
-5.77
1.32
10.25
18.88
24.96
27
24.86
19.7
13.33
7.33
2.44
-1.44
-4.76
-7.82
-10.52
-12.55
-13.79
-14.52
-15.28
-16.56
-18.48
-20.81
-23.18
-25.36
-27.23
-28.65
-29.22
-28.25
-25.13
-19.68
-12.49
-4.69
2.47
8.25
12.57
15.89
18.65
20.81
21.85
21.01
17.9
12.81
6.69
0.79
-3.85
-6.83
-8.31
-8.99
-9.64
-10.96
-13.3
-16.62
-20.51
-24.2
-26.73
-27.22
-25.15
-20.52
-13.88
-6.11
1.88
9.38
15.97
21.45
25.66
28.43
29.62
29.32
27.8
25.47
22.7
19.66
16.4
13.05
9.94
7.67
6.79
7.38
8.93
10.4
10.65
8.85
4.69
-1.6
-9.36
-17.53
-24.78
-29.57
-30.55
-26.91
-18.83
-7.52
5
16.52
25.26
30.25
31.49
29.67
25.95
21.63
17.85
15.38
14.5
14.95
16.19
17.65
18.92
19.81
20.26
20.17
19.28
17.24
13.76
8.94
3.44
-1.63
-4.89
-5.23
-2.16
3.98
12.23
21.26
29.87
37.13
42.39
45.04
44.43
39.9
31.21
18.9
4.27
-10.88
-24.77
-36.22
-44.67
-50
-52.2
-51.27
-47.4
-41.33
-34.5
-28.78
-25.88
-26.69
-30.93
-37.22
-43.66
-48.4
-50.14
-48.36
-43.33
-35.9
-27.25
-18.64
-11.19
-5.59
-1.96
0.02
0.92
1.26
1.3
1.04
0.43
-0.4
-0.98
-0.62
1.34
5.19
10.6
16.68
22.15
25.75
26.54
24.16
18.81
11.18
2.31
-6.52
-13.89
-18.5
-19.4
-16.42
-10.31
-2.72
4.26
8.88
10.26
8.7
5.36
1.57
-1.81
-4.75
-7.9
-12.12
-17.89
-25.14
-33.24
-41.36
-48.71
-54.9
-59.86
-63.85
-67.27
-70.45
-73.43
-75.8
-76.73
-75.25
-70.6
-62.69
-52.02
-39.54
-26.16
-12.3
2.32
18.66
38.24
63.03
95.07
135.64
183.91
235.8
284.09
320
336.13
329.41
302.35
261.91
216.63
173.24
134.83
101.08
70.11
40.47
12.01
-14.66
-39.23
-62.19
-84.41
-106.07
-125.84
-141.22
-149.61
-149.76
-142.55
-130.61
-117.2
-104.68
-93.82
-84.05
-74.42
-64.59
-55.17
-47.07
-40.67
-35.24
-29.44
-22.16
-13.62
-5.6
-0.57
-0.32
-4.81
-11.88
-18.33
-21.37
-20.05
-15.78
-11.49
-10.22
-13.75
-21.92
-32.74
-43.23
-50.58
-53
-50.18
-43.07
-33.39
-23.03
-13.6
-6.22
-1.26
1.67
3.66
6.22
10.71
17.46
24.93
29.56
26.45
11.23
-17.57
-56.96
-99.45
-134.91
-153.87
-150.64
-125.33
-83.49
-33.93
14.36
54.8
84.3
102.68
111.18
111.09
103.16
88.05
67.26
43.75
21.66
5.11
-3.48
-4.45
-0.75
3.54
5.09
2.75
-2.43
-8.3
-13.03
-16.16
-18.54
-21.42
-25.4
-29.94
-33.78
-35.83
-35.66
-33.66
-30.4
-25.92
-19.53
-10.19
2.83
19.47
39.17
60.84
82.8
102.35
115.61
118.61
109.14
88.65
62.47
37.92
21.22
14.86
17.04
23.33
29.5
33.54
35.98
38.35
41.47
44.53
45.64
43.35
37.51
29.28
20.38
12.05
4.63
-2.36
-9.64
-17.61
-26.03
-34.09
-40.77
-45.38
-47.94
-49.03
-49.43
-49.6
-49.44
-48.42
-45.86
-41.3
-34.57
-25.86
-15.63
-4.51
6.7
17.16
26.14
33.14
37.86
40.04
39.28
35.04
26.86
14.85
-0.01
-15.91
-30.69
-42.55
-50.65
-55.12
-56.81
-56.63
-55.18
-52.65
-49.07
-44.57
-39.66
-35
-31.07
-27.82
-24.75
-21.18
-16.84
-12.1
-7.89
-5.36
-5.32
-7.87
-12.26
-16.89
-19.62
-18.24
-11.15
2.04
20.13
40.49
59.73
74.52
82.43
82.35
74.51
60.17
41.43
20.85
1.13
-15.38
-27.15
-33.83
-36.25
-35.9
-34.36
-32.71
-31.45
-30.49
-29.46
-27.82
-25.04
-20.67
-14.57
-7.1
0.85
7.95
12.95
15.12
14.61
12.4
9.8
7.92
7.1
6.92
6.46
4.81
1.6
-2.95
-8.07
-12.79
-16.17
-17.57
-16.62
-13.33
-8.09
-1.72
4.55
9.34
11.49
10.58
7.13
2.65
-0.83
-1.42
1.99
9.34
19.51
30.67
40.75
47.84
50.33
47.19
38.1
23.74
5.85
-13
-30.12
-43.37
-51.75
-55.37
-55.12
-51.94
-46.47
-38.96
-29.59
-18.8
-7.46
3.3
12.45
19.26
23.56
25.51
25.46
23.71
20.52
16.12
10.88
5.33
0.19
-3.86
-6.3
-7.07
-6.55
-5.55
-4.99
-5.59
-7.56
-10.58
-13.9
-16.64
-18.07
-17.74
-15.57
-11.68
-6.38
-0.09
6.59
12.97
18.41
22.51
25.19
26.62
27.02
26.42
24.62
21.3
16.38
10.15
3.36
-3.01
-8.02
-11.07
-12.07
-11.4
-9.83
-8.29
-7.65
-8.45
-10.71
-13.85
-16.91
-18.74
-18.35
-15.16
-9.09
-0.65
9.19
19.05
27.44
33.12
35.39
34.28
30.48
24.98
18.7
12.29
6.08
0.34
-4.55
-8.02
-9.58
-9.16
-7.41
-5.55
-5.13
-7.31
-12.47
-19.95
-28.31
-35.73
-40.51
-41.53
-38.37
-31.44
-21.92
-11.69
-2.99
2.12
2.45
-1.74
-8.74
-15.94
-20.84
-22.15
-20.18
-16.55
-13.2
-11.2
-10.1
-8.09
-2.99
6.34
19.12
32.67
43.25
47.65
44.29
33.85
18.7
2.03
-13.31
-25.2
-32.49
-34.68
-31.79
-24.48
-14.13
-2.76
7.4
14.54
17.98
18.26
16.82
15.32
14.86
15.6
16.88
17.69
17.24
15.3
12.19
8.62
5.38
3.09
2.11
2.51
4.05
6.16
8.1
9.05
8.43
6.12
2.45
-1.8
-5.85
-9.05
-11.02
-11.64
-10.81
-8.45
-4.43
1.23
8.19
15.78
23.01
28.89
32.68
34.01
33.06
30.33
26.61
22.8
19.82
18.55
19.58
22.92
27.6
31.39
31.18
24.02
8.63
-13.45
-37.85
-58.61
-70.35
-70.01
-57.69
-36.01
-8.75
20.45
48.7
73.69
93.24
105.14
107.44
99.16
80.84
54.78
24.74
-4.71
-29.07
-44.98
-51.08
-48.3
-39.42
-27.88
-16.47
-6.53
1.95
9.51
16.27
21.58
24.4
24.27
21.97
19.54
19.49
23.59
32
43.04
53.98
62.04
65.48
64.19
59.46
53.34
47.81
44.1
42.62
42.99
44.22
44.69
42.16
34.16
18.79
-4.19
-32.67
-62.47
-88.57
-106.93
-115.81
-116.01
-109.88
-99.81
-87.1
-71.86
-53.78
-33.13
-11.21
10.08
29.1
45.12
58.41
69.55
78.58
84.59
86.04
81.71
71.7
57.81
43.1
30.62
22.33
18.42
17.5
17.34
15.76
11.23
2.95
-9.31
-25.4
-44.85
-66.72
-89.37
-110.39
-126.97
-136.6
-137.95
-131.46
-119.27
-104.55
-90.31
-78.33
-68.69
-60.09
-50.88
-40.01
-27.62
-14.93
-3.52
5.45
11.68
15.77
18.78
21.74
25.34
29.75
34.78
40.08
45.23
49.79
53.15
54.48
52.86
47.64
38.75
27.06
14.39
3.04
-4.91
-8.27
-7.13
-2.76
3
8.47
12.64
15.31
16.76
17.3
16.98
15.47
12.33
7.27
0.34
-8.02
-17.2
-26.62
-35.86
-44.66
-52.82
-60.02
-65.8
-69.58
-70.81
-69.09
-64.39
-57.11
-48.14
-38.84
-30.82
-25.49
-23.64
-25.22
-29.31
-34.5
-39.32
-42.61
-43.61
-41.87
-37.13
-29.32
-18.8
-6.53
5.96
16.92
24.79
28.76
28.91
26.1
21.67
17
13.2
10.91
10.26
11.03
12.88
15.46
18.51
21.84
25.25
28.44
31.08
32.85
33.54
33.08
31.54
29.06
25.91
22.55
19.63
17.96
18.29
21
25.82
31.84
37.7
42.04
43.85
42.74
38.87
32.82
25.26
16.78
7.89
-0.96
-9.27
-16.5
-22.16
-26.07
-28.44
-29.82
-30.94
-32.26
-33.85
-35.39
-36.59
-37.61
-39.19
-42.39
-47.83
-54.93
-61.8
-65.77
-64.54
-57.18
-44.59
-29.02
-13.16
0.89
12.06
20.17
25.44
28.06
28.17
26.08
22.45
18.25
14.36
11.14
8.29
4.96
0.32
-5.93
-13.32
-20.79
-27.06
-31.24
-33.04
-32.82
-31.12
-28.13
-23.41
-16.04
-5.17
9.28
26.19
43.33
58.01
68.21
73.15
73.48
70.8
66.63
61.69
55.8
48.58
40.16
31.73
25.08
21.8
22.41
26.05
30.82
34.42
34.86
30.75
21.59
7.8
-9.02
-25.96
-39.17
-44.6
-39.52
-23.71
0.06
26.67
50.4
66.86
74.31
73.74
68.27
61.52
56.16
52.96
50.6
46.37
37.21
20.96
-2.7
-31.91
-62.97
-91.41
-113.27
-126.31
-130.39
-127.1
-118.82
-107.8
-95.73
-83.88
-73.38
-65.31
-60.4
-58.54
-58.54
-58.37
-55.88
-49.62
-39.36
-26.02
-11.19
3.54
17.02
28.65
38.23
45.82
51.64
56.03
59.3
61.71
63.5
65.13
67.42
71.53
78.64
89.33
102.99
117.59
129.92
136.39
133.91
120.42
95
57.79
10.05
-45.48
-104.03
-158.81
-201.98
-226.44
-228.04
-206.93
-167.66
-117.84
-65.9
-19.08
17.89
42.98
56.42
60.04
56.7
49.81
42.7
38.04
37.23
40.2
45.56
51.11
54.5
53.98
48.8
39.44
27.6
15.65
5.89
-0.19
-2.3
-1.36
1.01
2.94
2.68
-1.13
-9.27
-21.65
-37.08
-53.35
-67.93
-78.8
-85.25
-88.03
-88.7
-88.65
-88.41
-87.6
-85.5
-81.71
-76.47
-70.34
-63.82
-57.12
-50.4
-44.14
-39.04
-35.49
-32.72
-28.63
-20.36
-5.76
15.34
40.72
66.59
89.23
106.25
117.01
121.91
121.46
116
106.18
93.72
81.7
73.62
71.61
74.77
78.83
77.57
65.5
40.54
5.23
-34.02
-69.37
-94.39
-106.07
-105.17
-95.14
-80.31
-64.26
-49.23
-36.21
-25.53
-17.49
-12.33
-10.12
-10.35
-11.89
-13.36
-13.63
-12.31
-9.83
-6.99
-4.35
-1.68
2.07
8.2
17.58
30.13
44.92
60.65
76.25
91.06
104.59
116.05
124.25
128.05
126.87
121.2
112.35
101.8
90.51
78.62
65.68
51.18
35.08
17.92
0.74
-15.1
-28.17
-37.14
-41.16
-40.23
-35.46
-28.8
-22.48
-18.1
-16.13
-15.88
-16.03
-15.42
-13.54
-10.75
-7.94
-6.19
-6.23
-8.23
-11.86
-16.42
-21.2
-25.7
-29.81
-33.68
-37.45
-41.11
-44.31
-46.61
-47.7
-47.66
-46.96
-46.24
-45.9
-45.87
-45.61
-44.48
-42.12
-38.8
-35.33
-32.67
-31.41
-31.33
-31.42
-30.3
-26.86
-20.83
-12.86
-4.39
2.96
8.05
10.5
10.7
9.56
8.16
7.34
7.71
9.52
12.8
17.39
22.86
28.56
33.54
36.78
37.43
35.13
30.12
23.2
15.49
8.09
1.89
-2.52
-4.84
-5.06
-3.39
-0.26
3.71
7.8
11.19
13.22
13.57
12.36
10.16
7.73
5.69
4.19
2.9
1.18
-1.43
-4.8
-8.18
-10.51
-11.02
-9.7
-7.35
-5.2
-4.38
-5.45
-8.32
-12.42
-16.99
-21.15
-24.01
-24.67
-22.38
-16.82
-8.4
1.69
11.68
19.88
25.11
27.09
26.34
23.88
20.77
17.89
15.77
14.68
14.75
16.01
18.33
21.38
24.61
27.38
29.2
29.88
29.62
28.74
27.42
25.52
22.76
19.05
14.87
11.18
9.14
9.4
11.68
14.71
16.73
16.12
12.03
4.59
-5.25
-16.1
-26.6
-35.72
-42.81
-47.56
-49.91
-50.02
-48.18
-44.93
-40.99
-37.11
-33.9
-31.62
-30.13
-28.99
-27.76
-26.09
-23.78
-20.61
-16.23
-10.21
-2.31
7.24
17.59
27.47
35.49
40.55
42.07
39.96
34.44
25.98
15.27
3.31
-8.55
-18.8
-26.11
-29.73
-29.74
-26.97
-22.74
-18.45
-15.26
-13.89
-14.61
-17.22
-21.1
-25.3
-28.77
-30.57
-30.17
-27.55
-23.13
-17.44
-11
-4.14
2.76
9.07
13.81
15.73
13.9
8.15
-0.59
-10.55
-19.8
-26.91
-31.45
-33.7
-34.16
-32.89
-29.45
-23.14
-13.54
-0.75
14.76
32.33
51.19
70.14
87.01
98.57
101.19
92.23
71.52
41.99
9.09
-21.09
-43.85
-57.32
-62.59
-62.59
-60.39
-57.95
-55.73
-53.25
-50.1
-46.83
-44.97
-46.31
-51.95
-61.39
-72.64
-82.96
-90.29
-94.23
-96.4
-99.55
-106.12
-116.59
-128.69
-137.99
-139.56
-130.05
-109.36
-80.74
-49.7
-22
-1.95
8.76
11.11
8.16
4.46
5.34
15.87
39.5
76.13
120.59
162.73
190.3
193.74
170.78
128.38
80.59
42.93
26.05
31.92
54.26
82.67
107.86
125.26
135.25
140.85
144.57
146.41
144.21
135.49
119.41
97.91
75.01
55.07
40.92
32.93
29.04
26.34
22.83
18.48
15.04
14.78
18.74
25.78
33.1
37.86
39.02
38.06
38.22
42.44
51.37
62.45
70.71
71
60.51
40.3
14.93
-9.43
-27.6
-37.42
-40.31
-40.24
-41.67
-47.64
-58.63
-72.84
-87.17
-98.71
-105.76
-108.19
-106.99
-103.69
-99.62
-95.73
-92.89
-92.08
-94.43
-100.58
-109.42
-117.22
-117.87
-104.95
-75.32
-32.11
15.44
55.48
79.09
84.37
76.74
65.31
57.42
55.02
54.87
52.12
44.42
33.83
25.26
22.88
27.37
35.67
43.27
47.18
47.48
46.5
46.74
49.07
52.06
52.94
49.07
39.5
25.79
11.63
1.82
1.11
12.76
37.08
70.59
106.21
134.87
148.08
140.6
112.08
66.97
12.88
-41.79
-90.02
-127.22
-151.27
-161.94
-160.44
-149.37
-132.62
-114.78
-100.12
-91.19
-87.94
-87.92
-87.4
-83.21
-74.2
-61.58
-48.15
-36.72
-28.74
-23.74
-19.99
-15.71
-10
-3.03
4.56
12.6
21.79
33.37
48.3
66.46
86.57
106.87
126.04
143.81
160.59
176.68
191.47
203.5
211.16
213.77
212.03
207.43
201.07
192.71
180.86
163.78
140.91
113.49
84.23
56.03
30.58
7.81
-13.93
-37.06
-64.09
-96.92
-136.25
-180.64
-226.01
-265.93
-293.3
-302.93
-293.68
-268.95
-235.17
-199.09
-165.33
-135.67
-109.91
-87.57
-69.01
-55.27
-47.05
-43.73
-43.46
-44.21
-45.04
-46.74
-51.25
-60.57
-75.16
-93.28
-111.39
-125.37
-132.24
-131.47
-125.2
-117.22
-111.22
-108.94
-109.14
-107.88
-100.02
-81.21
-49.94
-8.39
37.88
81.43
115.29
134.95
139.29
130.26
111.39
86.28
57.69
27.69
-1.66
-27.78
-47.82
-59.62
-62.83
-59.12
-51.45
-42.65
-34.1
-25.45
-15.31
-2.49
13.04
29.96
46.13
59.53
69
74.5
76.91
77.52
77.47
77.42
77.41
77.13
76.24
74.66
72.66
70.62
68.76
66.95
64.83
62.26
59.64
58.01
58.51
61.71
67.09
73.04
77.5
78.88
76.71
71.63
64.85
57.26
49.03
39.62
28.33
14.9
-0.16
-15.75
-30.61
-43.76
-54.7
-63.23
-69.23
-72.55
-73.05
-70.8
-66.21
-60.08
-53.33
-46.76
-40.81
-35.49
-30.47
-25.29
-19.57
-13.19
-6.35
0.5
6.68
11.46
14.22
14.6
12.65
8.81
3.9
-1.13
-5.32
-8.02
-8.86
-7.81
-5.06
-0.94
4.1
9.46
14.48
18.48
20.87
21.42
20.24
17.77
14.55
11.02
7.36
3.54
-0.5
-4.57
-8.14
-10.43
-10.79
-9.07
-5.79
-2.08
0.75
1.6
0.01
-3.82
-9.08
-14.58
-19.08
-21.44
-20.94
-17.41
-11.19
-3.04
6.03
14.91
22.6
28.14
30.76
29.79
24.83
15.98
4
-9.63
-22.95
-34.11
-42.06
-46.77
-49.25
-50.98
-53.01
-55.45
-57.61
-58.83
-59.47
-61.3
-66.3
-75.65
-88.23
-100.24
-106.34
-101.51
-83.02
-50.7
-6.71
45.98
103.14
159.12
206.61
237.67
246.2
230.64
196.07
152.83
113.5
86.79
74.3
71.19
70.39
67.87
65.29
69.48
87.59
123.11
171.55
221.53
259.48
275.51
267.43
240.52
204.73
162
115.08
66.26
17.52
-29.46
-73.49
-111.92
-145.29
-173.49
-195.93
-211.05
-218.41
-217.58
-209.01
-193.88
-173.94
-151.63
-128.96
-107.26
-85.79
-62.85
-36.53
-6.21
26.38
56.75
78.39
85.65
76.37
54.43
28.42
8.4
1.17
7.29
21.2
34.83
42.46
43.61
42.73
45.21
53.03
62.47
65.78
55.23
27
-17.15
-71.35
-128.28
-181.51
-226.28
-258.96
-276.39
-276.19
-257.55
-221.81
-172.25
-113.22
-49.51
13.49
69.5
111.54
133.62
133.26
113.25
81.57
48.66
23.55
10.66
9.22
14.94
22.92
30.03
35.53
40.21
44.89
49.58
53.51
55.89
56.49
55.61
53.73
50.74
45.77
37.69
25.95
11.36
-3.89
-16.89
-25.09
-27.36
-24.44
-18.59
-12.83
-9.97
-11.94
-19.47
-32.01
-47.85
-64.37
-78.52
-87.41
-88.94
-82.33
-68.26
-48.58
-25.84
-2.65
18.85
37.15
51.29
60.36
63.29
58.85
46.35
26.34
1.04
-26.18
-52.16
-75.21
-95.51
-114.19
-131.63
-146.15
-154.23
-152.03
-137.66
-112.38
-80.42
-47.2
-17.34
6.6
24.18
36.33
44.41
49.56
52.57
53.98
54.23
53.69
52.64
51.32
49.85
48.18
45.93
42.44
37.07
29.6
20.62
11.4
3.43
-2.26
-5.59
-7.34
-8.54
-9.77
-10.91
-11.3
-10.47
-8.72
-7.17
-7.24
-9.71
-14.11
-18.61
-20.52
-17.22
-7.03
10.24
33.08
58.6
83.02
102.43
113.61
114.73
106.01
89.87
70.6
53.35
42.58
40.41
45.6
53.8
59.22
56.96
45.03
24.9
0.52
-23.6
-44
-58.61
-66.17
-65.42
-55.24
-35.36
-7.32
25.5
59.2
91.1
120.96
150.53
181.81
214.93
247.14
273.37
288.22
287.95
271.64
240.89
198.7
148.15
91.92
32.76
-25.77
-78.93
-121.59
-149.86
-162.8
-163.27
-157.32
-152.23
-153.96
-165.24
-185.02
-209.29
-232.96
-251.39
-261.51
-261.93
-252.47
-233.69
-206.7
-173.4
-136.69
-100.5
-69.06
-45.89
-32.63
-28.41
-30.27
-34.17
-36.22
-33.7
-25.52
-12.23
4.31
21.48
36.58
47.45
53.04
53.6
50.49
45.57
40.65
36.88
34.67
33.8
33.67
33.68
33.48
33.12
32.99
33.76
36.02
39.94
45.13
50.68
55.42
58.35
58.9
57.01
53
47.38
40.66
33.29
25.76
18.61
12.39
7.4
3.54
0.2
-3.42
-7.99
-13.64
-19.97
-26.23
-31.75
-36.18
-39.45
-41.48
-41.81
-39.58
-33.88
-24.37
-11.78
2.21
15.3
25.49
31.58
33.43
31.68
27.37
21.58
15.27
9.24
4.15
0.47
-1.57
-2.12
-1.58
-0.41
0.97
2.23
3.09
3.25
2.43
0.53
-2.23
-5.19
-7.43
-7.98
-6.26
-2.34
3.02
8.64
13.33
16.29
17.33
16.75
15.02
12.46
9.07
4.7
-0.79
-7.22
-14.22
-21.37
-28.45
-35.56
-43.04
-51.31
-60.72
-71.5
-83.76
-97.36
-111.77
-125.82
-137.8
-145.76
-148.24
-144.63
-135.45
-122.09
-106.35
-89.92
-74.03
-59.17
-45.1
-31.07
-16.28
-0.38
16.17
32.22
46.72
59.59
72.26
87.46
107.76
134.08
164.72
195.49
221.01
236.4
238.47
226.24
200.88
165.35
124.01
81.93
43.98
13.73
-7.44
-20.33
-27.05
-29.8
-29.85
-27.32
-21.86
-13.56
-3.43
6.78
15.36
21.38
24.99
27.06
28.63
30.3
31.99
33.22
33.51
32.93
32.32
33.11
36.75
43.96
54.26
65.95
76.59
83.75
85.84
82.59
75.04
65.17
55.14
46.57
39.89
34.23
27.63
17.9
3.66
-15.07
-36.71
-58.78
-78.81
-95.27
-107.71
-116.56
-122.67
-127.25
-131.95
-138.87
-150.08
-166.46
-186.66
-206.8
-221.84
-227.77
-223.78
-212.66
-199.07
-186.84
-176.52
-164.97
-147.15
-119.09
-80.38
-34.47
12.87
56.22
92.23
120.15
141.07
156.39
166.81
172.2
172.25
167.3
158.95
149.85
143.03
140.71
143.26
148.91
154.43
156.29
151.93
140.48
122.56
99.66
73.39
45.41
17.64
-7.43
-27.07
-38.94
-41.83
-36.05
-23.49
-7.17
9.42
23.08
31.46
33.58
30.07
22.96
14.92
8.32
4.38
2.92
2.68
2
-0.47
-5.46
-12.99
-22.28
-31.57
-38.38
-40.19
-35.93
-27.18
-18.39
-15.36
-22.54
-40.4
-64.59
-87.56
-101.88
-103.46
-93.22
-76.34
-59.95
-50.48
-51.87
-65.07
-88.31
-117.63
-147.55
-171.8
-184.6
-182.04
-163.02
-129.38
-85.09
-34.8
17.16
67.31
113.21
153.31
186.62
212.61
230.75
240.2
239.75
228.11
204.34
168.44
121.85
67.48
9.54
-47.03
-97.47
-138.08
-167.03
-184.55
-192.4
-192.66
-186.75
-174.99
-157.2
-133.93
-107.3
-80.84
-58.17
-41.16
-28.84
-17.7
-3.35
17.42
45.26
78.22
112.7
145
172.28
192.68
204.85
207.45
199.14
178.95
147.03
104.78
54.49
-1.38
-60.44
-120.02
-176.25
-223.56
-255.26
-265.43
-251.27
-214.71
-162.27
-103.07
-45.91
3.09
41.19
68.31
85.64
94.55
96.52
93.8
89.85
88.73
93.83
106.36
124.63
144.57
161.15
170.14
169.1
157.45
135.58
103.95
62.79
12.52
-45.16
-106.24
-164.2
-210.83
-238.22
-241.1
-218.72
-175.36
-119.51
-61.35
-9.61
30.99
60.83
84.42
107.58
134.78
167.15
202.07
234.14
257.14
265.84
257.91
234.43
198.81
155.78
110.23
66.1
25.65
-10.57
-43.89
-76.3
-109.92
-147.1
-189.12
-234.75
-279.47
-316.11
-336.75
-336.18
-313.35
-271.71
-218.84
-163.05
-109.99
-61.06
-14.09
36.44
90.47
140.54
179.82
201.71
201.92
180.66
142.36
93.19
38.21
-20.26
-80.31
-137.62
-185.03
-213.45
-215.56
-189.88
-142.64
-85.76
-32.47
7.95
32.36
41.85
39.7
29.37
14.08
-2.55
-16.01
-21.61
-15.74
2.75
31.55
65.85
99.85
128.43
148.03
157.13
156.4
148.73
138.93
132.43
133.86
145.48
166.16
191.48
214.97
230
231.84
218.84
192.51
156.61
115.68
73.58
32.6
-6.89
-46.06
-86.74
-129.85
-174.01
-214.79
-245.46
-259.22
-252.15
-225.27
-184.6
-139.07
-97.26
-64.6
-42.43
-29.21
-22.49
-20.5
-22.39
-27.45
-34.21
-40.27
-43.18
-41.59
-36.02
-28.57
-22.03
-18.65
-19.21
-22.88
-27.78
-31.91
-33.96
-33.76
-32.07
-29.99
-28.19
-26.41
-23.64
-18.7
-11.09
-1.35
8.88
17.65
23.38
25.43
24.11
20.27
14.8
8.4
1.62
-5
-10.84
-15.4
-18.45
-20.12
-20.71
-20.5
-19.55
-17.84
-15.54
-13.18
-11.72
-12.33
-15.94
-22.84
-32.37
-42.82
-51.8
-56.8
-56.03
-49.18
-37.8
-24.96
-14.29
-8.62
-8.7
-12.64
-16.53
-15.98
-8.17
6.62
24.85
41.15
50.87
52.26
47.39
41.21
39.24
45.28
60.26
82.42
108.21
133.19
152.69
162.25
158.71
141.58
113.95
81.99
52.72
31.16
18.31
11.41
6.14
-0.51
-8.6
-15.69
-18.94
-17.22
-11.88
-5.79
-1.5
0.17
0.25
0.58
2.36
5.33
8.02
8.75
6.92
3.55
1.03
1.9
7.52
17.17
28.23
37.31
41.87
41.33
37.29
32.64
30.33
32.28
38.99
49.79
63.39
78.33
93.05
105.89
115.23
119.79
119.1
113.6
104.46
92.94
79.82
65.02
47.86
27.54
3.79
-22.83
-50.94
-78.8
-104.75
-127.54
-146.27
-160.41
-169.62
-173.86
-173.56
-169.67
-163.59
-156.91
-150.95
-146.33
-142.76
-139.02
-133.39
-124.41
-111.63
-96.11
-80.18
-66.66
-57.74
-54.16
-54.98
-58.24
-61.74
-63.75
-63.09
-58.95
-50.73
-38.14
-21.72
-3.05
15.29
30.43
40.15
43.58
41.46
35.77
28.9
22.81
18.45
15.76
14.06
12.64
11.2
10
9.64
10.66
13.41
18.11
25.07
34.72
47.25
62.06
77.39
90.39
97.91
97.58
88.8
73.04
53.61
34.7
20.33
13.32
14.6
23.09
36.01
49.71
60.59
66.17
65.55
59.43
49.66
38.51
28.02
19.7
14.43
12.66
14.51
19.75
27.8
37.71
48.36
58.74
68.18
76.23
82.41
86.16
86.85
84.11
78.22
70.25
62.03
55.72
53.18
55.48
62.56
73.32
85.84
97.91
107.38
112.7
113.16
109.02
101.48
92.46
84.3
79.07
77.85
79.96
82.64
81.52
72.18
52.17
22.47
-12.54
-46.6
-74.24
-93.12
-104.83
-113.85
-125.29
-142.83
-167.85
-199.74
-236.87
-277.05
-317.28
-353.15
-379.04
-389.32
-380.39
-352.23
-308.49
-254.81
-196.62
-137.78
-80.62
-27.24
19.42
55.47
77.49
84.34
78.21
64.11
48.1
35.21
28.1
26.91
30.16
35.83
42.23
48.36
53.97
59.38
65.3
72.43
80.99
90.44
99.43
106.17
109.04
107.13
100.49
89.97
76.75
61.87
46.12
29.99
14.02
-1.03
-14.2
-24.59
-31.74
-35.92
-38.19
-40.03
-42.83
-47.33
-53.42
-60.21
-66.51
-71.31
-74.21
-75.43
-75.66
-75.6
-75.62
-75.63
-75.37
-74.73
-73.97
-73.52
-73.54
-73.32
-71.28
-65.47
-54.49
-38.28
-18.2
3.5
24.57
43.35
58.73
69.67
74.62
71.6
58.89
36.26
5.7
-28.34
-59.95
-83.14
-93.35
-88.21
-67.76
-34.02
9.46
58.01
106.27
148.76
180.85
199.62
204.54
197.38
181.31
159.83
135.77
110.94
86.34
62.74
40.95
21.79
5.9
-6.73
-16.74
-25.17
-33.08
-41.09
-49.14
-56.33
-61.26
-62.48
-59.02
-50.83
-38.79
-24.41
-9.29
5.33
18.67
30.41
40.45
48.73
55.17
59.66
61.93
61.55
57.95
50.69
39.93
26.74
13.07
1.17
-7.31
-11.96
-13.74
-14.25
-14.79
-15.69
-16.27
-15.54
-13.25
-10.45
-9.46
-12.83
-22.13
-37.01
-55.14
-73.04
-87.42
-96.23
-99.16
-97.19
-91.78
-84.03
-74.41
-62.95
-49.96
-36.41
-24.04
-14.81
-10.1
-10.08
-13.61
-18.72
-23.35
-26.08
-26.5
-24.9
-21.83
-17.54
-11.33
-1.56
13.96
37.59
70.67
112.5
159.48
204.99
240.7
258.91
255.48
231.93
195.19
155.09
120.35
95.04
77.58
62.27
42.62
14.36
-23.3
-67.88
-114.65
-157.65
-190.36
-206.81
-203.42
-181.03
-145.59
-106.48
-72.94
-50.54
-39.38
-35.46
-34.02
-32.15
-29.54
-26.97
-24.04
-18.17
-5.58
16.45
47.4
82.99
116.46
141.14
153.09
152.3
142.43
128.79
115.7
104.58
93.26
77.14
51.27
12.63
-38.39
-97.57
-157.69
-210.06
-246.53
-261.31
-252.27
-221.5
-174.8
-120.33
-66.61
-20.88
12.11
30.52
35.07
28.57
15.07
-0.93
-15.27
-24.76
-27.63
-23.71
-14.37
-2.37
8.62
14.87
13.74
4.67
-10.31
-27.06
-40.4
-45.85
-41.1
-26.69
-5.71
17.47
38.73
55.48
66.99
74.03
77.93
79.7
79.67
77.42
71.97
61.96
45.93
23.08
-5.76
-37.44
-66.63
-87.04
-93.56
-84.14
-60.65
-28.32
6.07
36.16
57.28
66.79
63.83
49.03
24.47
-5.88
-36.49
-60.91
-73.54
-71.43
-55.51
-30.41
-3.19
18.98
31.06
31.42
21.93
6.83
-9.06
-22.1
-30.77
-35.75
-38.94
-42.24
-46.54
-51.3
-54.95
-55.78
-52.77
-46.12
-37.08
-27.45
-18.88
-12.49
-8.68
-7.11
-6.96
-6.88
-5.24
-0.36
9.2
24.09
43.79
66.41
89.07
108.52
122.04
128.17
126.92
119.52
107.8
93.59
78.36
63.2
48.87
35.9
24.62
15.08
7.08
0.33
-5.4
-10.14
-13.81
-16.38
-18.02
-19.17
-20.39
-22.14
-24.53
-27.14
-28.96
-28.53
-24.34
-15.45
-1.93
14.85
32.54
48.52
60.66
67.93
70.37
68.68
63.76
56.37
47.15
36.86
26.48
17.12
9.73
4.74
1.9
0.41
-0.75
-2.44
-5.12
-8.9
-13.71
-19.49
-26.23
-33.77
-41.51
-48.14
-51.85
-50.83
-43.95
-31.54
-15.36
1.76
16.91
27.95
34.05
35.63
33.89
30.15
25.34
19.86
13.7
6.86
-0.33
-7.05
-12.21
-14.81
-14.42
-11.43
-6.94
-2.37
0.94
2.09
0.67
-3.37
-9.72
-17.59
-25.55
-31.58
-33.5
-29.73
-19.91
-5.23
11.92
28.7
42.66
52.4
57.63
58.95
57.31
53.63
48.6
42.77
36.7
31.05
26.53
23.63
22.36
22.21
22.33
21.97
20.79
19.01
17.17
15.7
14.53
12.97
10
4.69
-3.26
-13.15
-23.32
-31.42
-35.05
-32.46
-23.28
-8.69
8.83
26.29
41.2
52.17
59.05
62.49
63.25
61.78
58.14
52.34
44.77
36.44
28.72
22.95
19.89
19.43
20.59
21.91
21.8
18.91
12.42
2.13
-11.56
-27.67
-44.9
-61.77
-76.85
-89.1
-98.03
-103.76
-106.79
-107.54
-105.82
-100.61
-90.44
-74.19
-52.11
-26.28
-0.24
22.14
38.08
46.83
49.56
48.6
46.16
43.5
40.76
37.51
33.49
29.05
25.16
22.76
22.18
22.78
23.15
21.78
17.85
11.73
4.74
-1.42
-5.57
-7.54
-8.19
-8.81
-10.59
-14.05
-19.1
-25.26
-31.96
-38.55
-44.22
-47.92
-48.41
-44.69
-36.38
-24.08
-9.25
6.18
20.35
31.94
40.31
45.56
48.25
49.07
48.64
47.53
46.18
44.99
44.34
44.5
45.44
46.74
47.71
47.6
45.74
41.6
34.71
24.63
11.24
-4.93
-22.46
-39.21
-52.94
-62.26
-67.04
-68.3
-67.35
-64.91
-60.76
-54.01
-44.03
-31.17
-16.96
-3.55
7.2
14.63
19.39
23.07
27.38
33.18
40.3
48
55.67
63.25
70.73
77.36
81.18
79.6
71
56.17
38.54
22.57
10.99
2.91
-5.95
-20.73
-43.94
-73.43
-103.21
-126.55
-139.64
-143.3
-142.02
-140.71
-141.75
-143.73
-142.75
-134.94
-118.83
-96.12
-70.44
-45.47
-23.36
-4.4
12.07
26.77
39.92
51.52
61.95
72.11
82.73
93.54
102.67
107.28
104.69
93.9
76.23
54.95
34.08
17.13
6.1
1.25
1.1
2.7
2.25
-3.96
-18.34
-41.11
-70.02
-100.9
-128.87
-149.55
-159.97
-158.82
-146.58
-125.33
-98.45
-69.98
-43.65
-21.87
-5.07
8.21
20.6
34.77
52.5
74.06
97.85
120.66
138.27
146.86
144.51
132.05
112.59
90.02
67.04
44.21
20.27
-6.29
-35.45
-65.06
-91.62
-112
-124.85
-130.77
-131.36
-127.68
-119.6
-106.47
-88.44
-67.46
-46.85
-29.48
-15.58
-1.96
16.52
43.96
80.47
121.23
158.35
184.44
195.54
191.94
176.6
152.75
122.43
86.71
47.04
6.2
-31.68
-62.43
-83.31
-93.82
-95.51
-91.15
-83.8
-76.46
-71.93
-72.64
-80.17
-94.59
-113.92
-134.17
-150.26
-157.57
-153.46
-138.18
-114.37
-85.53
-54.09
-20.52
15.99
55.51
95.69
131.72
158.18
171.99
174.19
169.68
164.77
164.07
168.55
175.49
180.23
178.22
166.71
145.18
115.44
81.3
47.76
19.61
-0.4
-12.74
-20.91
-29.47
-41.3
-56.15
-71.29
-84.13
-94.8
-106.89
-125.55
-154.13
-191.19
-229.95
-260.66
-274.29
-265.91
-235.99
-189.64
-134.46
-78.34
-27.68
13.73
45.08
68.18
86.11
101.67
115.84
127.45
134.18
134.19
127.58
116.36
103.52
91.17
79.2
65.47
47.04
22.01
-9.39
-44.69
-79.92
-110.73
-133.44
-145.51
-145.81
-134.72
-113.95
-86.24
-54.89
-23.21
5.87
30.13
48.28
60.42
68.01
73.66
80.26
89.86
102.75
117.36
130.89
140.45
143.82
139.6
126.83
104.56
72.17
30.62
-16.44
-62.71
-100.96
-125.98
-137.17
-139.32
-140.64
-148.93
-167.49
-193.26
-217.95
-231.62
-226.83
-201.41
-158.66
-105.46
-49.55
2.66
47.06
81.54
105.3
118.34
121.28
115.62
103.88
89.51
76.05
66.19
60.94
59.36
58.83
56.24
49.36
37.94
24
11.09
2.76
1.15
6.16
15.48
25.81
34.11
38.68
39.41
37.35
33.8
29.63
24.92
19.33
12.61
5.07
-2.35
-8.5
-12.51
-14.12
-13.8
-12.38
-10.75
-9.6
-9.39
-10.45
-13.03
-17.29
-23.11
-29.9
-36.52
-41.44
-43.07
-40.25
-32.55
-20.49
-5.55
10.22
24.62
35.89
43.08
46.11
45.69
42.93
38.97
34.72
30.69
27.02
23.61
20.26
16.83
13.3
9.77
6.47
3.69
1.67
0.45
-0.25
-1.03
-2.68
-5.85
-10.65
-16.37
-21.54
-24.31
-23.07
-17.15
-7.12
5.42
18.41
30.02
39.2
45.66
49.58
51.22
50.6
47.53
41.94
34.21
25.34
16.79
10.13
6.48
6.1
8.24
11.3
13.38
12.9
9.11
2.35
-6.17
-14.94
-22.68
-28.73
-32.93
-35.4
-36.19
-35.24
-32.52
-28
-21.47
-12.27
0.63
18.11
40
64.53
88.41
108.06
121.01
127.1
128.47
128.18
128.27
128.3
125.24
114.97
94.6
64.32
27.66
-9.76
-42.72
-68.42
-87.38
-102.46
-116.68
-131.24
-144.67
-153.84
-155.89
-149.97
-137.59
-121.66
-104.73
-87.8
-70.28
-50.98
-29.6
-7.41
12.91
28.43
37.22
39.03
35.33
28.48
20.93
14.5
10.1
7.77
7.02
7.2
7.82
8.69
9.79
11.02
12.06
12.32
11.23
8.52
4.49
-0.14
-4.51
-8.17
-11.25
-14.38
-18.27
-23.09
-28.14
-31.89
-32.51
-28.65
-20.09
-7.92
5.84
18.95
29.72
37.4
42.12
44.45
44.91
43.71
40.81
36.24
30.38
24.08
18.39
14.2
11.88
11.16
11.27
11.32
10.69
9.25
7.3
5.37
3.88
2.88
2.07
0.93
-0.95
-3.71
-7.03
-10.33
-12.96
-14.51
-14.96
-14.67
-14.17
-14.06
-14.73
-16.37
-18.9
-21.97
-24.97
-27.05
-27.21
-24.67
-19.09
-10.93
-1.3
8.3
16.51
22.46
25.96
27.37
27.28
26.22
24.48
22.14
19.18
15.73
12.07
8.58
5.79
4.13
3.92
5.25
7.88
11.26
14.63
17.17
18.22
17.45
15.03
11.54
7.8
4.58
2.29
0.93
0.09
-0.76
-2.02
-3.8
-5.9
-7.93
-9.52
-10.57
-11.29
-12.14
-13.57
-15.88
-19.02
-22.62
-25.98
-28.28
-28.72
-26.76
-22.25
-15.56
-7.58
0.48
7.44
12.52
15.6
17.07
17.63
17.79
17.65
16.88
14.99
11.84
7.73
3.51
0.22
-1.22
-0.33
2.91
8
13.85
18.9
21.35
19.73
13.44
3.21
-9.11
-21.2
-31.2
-38.31
-42.9
-45.92
-48.15
-49.77
-50.44
-49.82
-47.97
-45.49
-43.23
-41.68
-40.76
-39.88
-38.27
-35.3
-30.51
-23.43
-13.39
0.47
18.66
40.78
65.01
88.27
106.95
117.94
119.51
111.69
95.99
74.86
51.11
27.41
6.1
-11.12
-23.35
-30.67
-34.02
-34.77
-34.21
-33.1
-31.5
-29.21
-26.36
-23.88
-23.56
-27.52
-37.19
-52.26
-70.16
-86.31
-95.46
-93.51
-79.22
-54.83
-25.25
3.82
28
45.54
57.45
66.51
75.94
88.39
105.44
127.48
153.52
181.08
206.15
223.74
229.22
219.77
195.38
158.7
113.9
64.72
13.1
-40.88
-97.38
-154.78
-208.44
-251.44
-277.13
-282.14
-268.03
-240.5
-206.66
-171.79
-137.53
-102.35
-63.42
-18.69
32.21
88.11
146.88
205.33
258.97
301.95
328.2
333.53
317.47
283.64
238.62
189.48
141.64
97.88
58.74
23.64
-8.29
-38.05
-67.21
-97.95
-132.47
-171.69
-214.06
-255.45
-290.19
-312.94
-320.65
-313.48
-294.35
-267.53
-237.03
-205.56
-174.65
-145.45
-119.62
-99.39
-86.93
-83.13
-86.78
-94.61
-102.3
-106.02
-103.88
-96.66
-87.41
-80.15
-78.15
-82.62
-92.4
-104.65
-116.23
-124.88
-129.62
-130.37
-127.14
-119.46
-106.44
-87.46
-62.78
-33.6
-1.61
31.82
65.84
99.63
131.66
159.17
178.65
187.32
184.59
172.8
156.74
142
132.89
131.4
137.06
147.72
160.82
174.31
186.7
196.68
202.9
204.31
201.15
194.97
188.2
182.91
179.42
175.9
169.31
157.03
138.21
114.19
87.38
59.81
31.95
2.61
-29.76
-65.41
-102.17
-135.63
-160.6
-173.13
-171.92
-158.65
-137.69
-114.47
-93.81
-79
-71.56
-71.51
-77.89
-88.71
-101.05
-111.25
-115.54
-111.3
-98.13
-78.03
-54.79
-32.69
-15.08
-3.57
2.13
3.75
3.54
3.38
4.43
6.94
10.55
14.51
18.07
20.62
21.83
21.63
20.18
17.9
15.44
13.7
13.62
15.91
20.69
27.33
34.62
41.18
46.03
48.95
50.38
51.17
52.04
53.29
54.71
55.83
56.2
55.74
54.64
53.28
51.93
50.58
49.07
47.17
44.76
41.8
38.31
34.23
29.44
23.85
17.62
11.15
5.06
-0.08
-4
-6.89
-9.19
-11.39
-13.66
-15.76
-17.13
-17.08
-15.11
-10.99
-4.88
2.79
11.37
20.21
28.74
36.5
43
47.63
49.53
47.8
41.82
31.71
18.5
4.01
-9.64
-20.61
-27.77
-30.87
-30.39
-27.24
-22.55
-17.36
-12.56
-8.63
-5.57
-2.93
-0.01
3.82
8.81
14.68
20.58
25.27
27.34
25.47
18.53
5.75
-13.19
-37.97
-67.48
-99.76
-132.21
-161.96
-186.45
-203.72
-212.61
-212.7
-204.17
-187.81
-165.07
-138.14
-109.78
-82.87
-59.84
-42.17
-30.2
-23.29
-20.22
-19.54
-19.9
-20.19
-19.63
-17.75
-14.2
-8.68
-0.73
10.12
24.11
40.91
59.44
77.99
94.65
107.84
116.75
121.46
122.72
121.59
119.09
115.98
112.78
109.8
107.32
105.58
104.8
105.09
106.4
108.4
110.59
112.36
113.24
113.08
112.31
111.98
113.72
119.26
129.84
145.4
164.03
182.08
194.89
198.08
189.09
167.97
137.56
102.51
67.77
37.08
11.92
-8.5
-26.55
-44.85
-64.96
-86.46
-106.72
-121.86
-128.17
-123.56
-108.15
-84.01
-54.25
-22.46
7.38
30.99
44.14
43.99
30.67
7.9
-18.09
-41.21
-58.35
-70.8
-83.17
-100.34
-124.22
-152.35
-178.99
-198.06
-205.92
-202.76
-191.71
-177
-161.89
-147.73
-134.23
-120.46
-105.95
-91.18
-77.41
-65.88
-57.12
-50.55
-44.69
-38.04
-29.97
-21.17
-13.5
-9.12
-9.21
-13.2
-18.8
-22.94
-23.15
-18.69
-10.78
-1.9
5.41
9.61
10.62
9.41
7.38
5.51
4.13
2.95
1.46
-0.56
-2.92
-4.98
-6.1
-5.96
-4.81
-3.42
-2.74
-3.41
-5.46
-8.28
-10.86
-12.2
-11.74
-9.62
-6.68
-4.28
-3.92
-6.8
-13.46
-23.54
-35.85
-48.59
-59.66
-67.03
-69.07
-64.92
-54.92
-40.71
-25.06
-11.11
-1.36
3.23
3.6
2.15
1.65
4.04
9.71
17.54
25.62
32.24
36.66
39.29
41.23
43.58
46.87
50.95
55.45
60.18
65.34
71.31
78.04
84.54
88.94
89.12
83.78
73.24
59.6
46.05
35.59
29.94
28.93
30.96
33.88
36.21
37.88
40.13
44.96
54.07
68.05
86.15
106.39
125.91
141.22
148.6
144.91
128.79
101.9
69.23
37.82
14.11
1.08
-2.95
-3.34
-6.17
-15.04
-29.41
-45.23
-57.54
-63.07
-61.66
-55.7
-48.32
-41.61
-35.81
-29.87
-22.66
-14.13
-5.77
0.03
1.16
-3.11
-11.56
-21.52
-29.94
-34.8
-35.86
-34.31
-32.03
-30.42
-29.8
-29.58
-28.86
-27.09
-24.44
-21.6
-19.28
-17.81
-16.91
-15.9
-14.02
-10.73
-5.94
0.03
6.56
12.92
18.44
22.57
24.98
25.48
24.02
20.65
15.47
8.64
0.39
-9
-19.12
-29.44
-39.26
-47.83
-54.36
-58.21
-58.99
-56.59
-51.28
-43.73
-35.09
-26.86
-20.63
-17.75
-18.96
-24.12
-32.2
-41.49
-50
-55.88
-57.87
-55.47
-49.08
-39.83
-29.2
-18.65
-9.21
-1.24
5.48
11.38
16.75
21.43
24.9
26.46
25.7
22.59
17.84
12.76
8.9
7.7
10.02
15.81
24.12
33.5
42.58
50.77
58.49
66.98
77.83
92.21
110.22
130.67
151.22
168.94
181.1
185.89
182.79
172.43
156.11
135.05
110.19
82.25
52.25
22.01
-6.04
-29.34
-46.14
-56.14
-60.46
-61.1
-60.09
-58.81
-57.79
-56.83
-55.34
-52.65
-48.3
-42.25
-34.91
-27.11
-19.86
-13.98
-9.81
-7.12
-5.19
-3.1
-0.05
4.42
10.24
16.6
22
24.56
22.59
15.22
2.88
-12.73
-29.2
-44.14
-55.83
-63.42
-66.88
-66.7
-63.72
-58.97
-53.69
-49.08
-46.03
-44.91
-45.37
-46.53
-47.3
-46.83
-44.86
-41.91
-39.04
-37.22
-36.73
-36.66
-35.22
-30.57
-22.05
-10.89
-0.25
5.92
4.36
-6.03
-23.62
-44.45
-63.38
-75.59
-77.98
-69.94
-53.39
-32.21
-10.93
6.54
17.99
23.26
24.01
22.76
21.84
22.6
24.94
27.54
28.49
26.13
19.56
8.89
-5.05
-21.03
-37.57
-52.9
-64.69
-70.15
-66.74
-53.19
-30.58
-2.58
25.43
48.12
62.1
66.92
64.92
59.81
55.1
52.78
53.04
54.78
56.59
57.55
57.51
56.86
55.96
54.74
52.68
49.11
43.65
36.58
28.76
21.27
14.97
10.19
6.72
4.09
1.9
0.07
-1.25
-1.85
-1.65
-0.85
0.21
1.15
1.74
1.88
1.74
1.57
1.68
2.34
3.64
5.44
7.44
9.22
10.43
10.9
10.61
9.66
8.22
6.44
4.55
2.79
1.41
0.57
0.23
0.15
0.03
-0.38
-1.14
-2.19
-3.45
-5.02
-7.24
-10.58
-15.44
-21.93
-29.65
-37.77
-45.18
-50.76
-53.67
-53.59
-50.78
-46.01
-40.41
-35.22
-31.57
-30.17
-31.08
-33.67
-36.7
-38.82
-38.99
-36.9
-33.04
-28.44
-24.22
-21.13
-19.3
-18.42
-17.93
-17.28
-16.13
-14.3
-11.78
-8.68
-5.21
-1.73
1.42
3.97
5.81
7.02
7.84
8.55
9.54
11.26
14.13
18.41
24.01
30.36
36.51
41.48
44.67
46.13
46.47
46.48
46.59
46.54
45.5
42.52
37.06
29.35
20.36
11.38
3.49
-2.73
-7.26
-10.43
-12.56
-13.79
-14.01
-12.91
-10.28
-6.07
-0.6
5.47
11.22
15.74
18.33
18.74
17.29
14.73
11.98
9.67
7.83
5.79
2.33
-3.78
-13.21
-25.51
-39.08
-51.45
-60.03
-63
-60.03
-52.47
-42.96
-34.58
-29.69
-29.02
-31.37
-34.08
-34.12
-29.42
-19.76
-7.04
5.45
14.17
16.64
12.56
3.96
-5.29
-10.9
-9.78
-1.52
11.18
23.19
28.93
24.54
9.46
-13.38
-38.77
-61.2
-76.62
-83.23
-81.35
-72.68
-59.59
-44.69
-30.55
-19.41
-12.68
-10.4
-11.13
-12.44
-11.85
-7.89
-0.63
8.48
17.21
23.42
25.71
23.77
18.34
10.98
3.76
-1.19
-2.21
1.41
9.27
19.97
31.57
42.22
50.63
56.27
59.28
60.12
59.32
57.28
54.23
50.26
45.48
40.01
34.07
27.93
21.95
16.61
12.42
9.79
8.86
9.36
10.53
11.37
10.84
8.31
3.68
-2.5
-9.24
-15.34
-19.68
-21.48
-20.51
-17.18
-12.45
-7.67
-4.25
-3.28
-5.34
-10.39
-17.91
-27.07
-36.94
-46.72
-55.76
-63.44
-68.95
-71.16
-68.6
-59.99
-44.92
-24.46
-1.31
20.86
38.56
49.65
53.95
53.03
49.25
44.71
40.52
36.91
33.9
32.01
32.58
37.37
47.78
63.89
84.01
105
123.05
134.89
138.62
133.87
121.56
103.11
79.95
53.3
24.3
-5.7
-35.04
-61.93
-84.78
-102.51
-114.74
-121.69
-123.96
-122.38
-117.92
-111.85
-105.7
-101.13
-99.44
-101.16
-105.65
-111.15
-115.17
-115.32
-109.93
-98.49
-81.76
-61.33
-39.14
-16.91
4.04
22.9
39.19
52.61
62.96
70.2
74.54
76.48
76.77
76.16
75.21
74.18
73.03
71.67
70.08
68.34
66.46
64.22
61.16
56.64
50.21
41.78
31.73
20.71
9.55
-0.93
-9.8
-16.09
-18.88
-17.58
-12.27
-3.88
5.89
15.12
22.21
26.31
27.38
26.02
23.04
19.18
15
10.88
7.13
3.98
1.52
-0.34
-2.01
-4.11
-7.3
-12.03
-18.3
-25.62
-33.15
-39.92
-45.24
-48.88
-50.98
-51.88
-51.76
-50.46
-47.54
-42.46
-34.96
-25.18
-13.74
-1.6
10.17
20.54
28.7
34.16
36.78
36.82
34.87
31.81
28.5
25.7
23.85
23.11
23.4
24.43
25.8
26.95
27.27
26.23
23.63
19.8
15.56
11.92
9.64
8.83
8.84
8.52
6.78
3.1
-2.11
-7.59
-11.65
-12.72
-9.88
-3.17
6.34
16.92
26.56
33.45
36.36
34.93
29.58
21.43
11.84
2.07
-7.11
-15.52
-23.36
-30.91
-38.1
-44.41
-49.01
-51.16
-50.65
-47.99
-44.28
-40.78
-38.4
-37.4
-37.43
-37.77
-37.74
-37.03
-35.92
-35.13
-35.56
-37.88
-42.03
-46.82
-49.89
-48.13
-38.59
-19.6
8.33
42.19
77.18
107.99
130.26
141.71
142.43
134.39
120.46
103.26
84.57
65.22
45.51
25.84
7.16
-9.07
-21.24
-28.34
-30.4
-28.71
-25.21
-21.89
-20.03
-19.84
-20.68
-21.66
-22.22
-22.57
-23.65
-26.56
-31.8
-38.72
-45.36
-49.1
-47.72
-40.28
-27.53
-11.48
5.52
21.66
35.86
47.39
55.39
58.57
55.8
46.81
32.85
16.48
0.66
-12.52
-22.5
-29.75
-34.65
-36.5
-33.44
-23.61
-6.65
15.23
37.57
55.32
64.94
65.73
59.96
51.52
44.15
40.01
39.32
40.99
43.64
46.41
48.99
51.25
52.57
51.63
46.74
36.76
22.11
5.02
-11.03
-22.73
-28.27
-28.09
-24.56
-20.7
-18.83
-19.73
-22.73
-26.52
-30.05
-33.03
-35.78
-38.8
-42.27
-45.87
-49.12
-51.67
-53.5
-54.83
-55.77
-56.04
-54.76
-50.8
-43.22
-31.96
-18.13
-4
7.72
14.84
16.57
13.82
8.8
3.92
0.76
-0.54
-0.99
-1.94
-4.37
-8.6
-14.57
-21.99
-30.27
-38.12
-43.53
-44.71
-41.6
-37
-36.05
-44.12
-63.72
-92.45
-123.61
-149.22
-163.6
-165.42
-157.17
-142.95
-126.14
-108.37
-90.13
-72.01
-55.14
-40.8
-29.43
-19.91
-9.79
3.76
23.07
49.7
84.56
128.1
179.44
235.15
288.32
329.76
351.19
349.25
327.91
297.73
271.81
260.09
265.06
281.2
298.11
305.51
297.59
274.65
241.77
205.87
172.62
144.83
122.35
103.17
84.84
65.85
46.29
27.6
11.6
-0.78
-10.23
-18.8
-29.02
-42.84
-61.07
-83.28
-108.08
-133.15
-155.17
-169.89
-172.86
-160.71
-132.61
-91.23
-42.71
4.61
42.19
63.39
64.97
47.52
14.93
-27.05
-72.52
-116.79
-157.31
-193.97
-228.58
-264.01
-302.94
-346.45
-393.02
-438.21
-475.55
-498.29
-501.6
-484.22
-448.93
-401.48
-348.74
-296.63
-248.9
-206.79
-169.63
-135.66
-102.66
-68.55
-31.77
8.07
49.74
90.28
125.7
152.16
167.48
171.82
167.5
157.79
145.65
132.91
120.23
107.71
95.5
84.09
74.16
66.16
60.22
56.23
54.04
53.55
54.57
56.66
59.05
60.88
61.46
60.52
58.14
54.57
50.02
44.63
38.51
31.97
25.54
19.92
15.72
13.34
12.82
13.86
15.99
18.56
20.86
22.25
22.23
20.64
17.67
13.79
9.56
5.41
1.53
-2.08
-5.42
-8.32
-10.36
-10.91
-9.38
-5.46
0.68
8.35
16.4
23.49
28.35
30.05
28.21
23.08
15.63
7.31
-0.13
-5.01
-6.11
-3.05
3.59
12.4
21.52
29.16
34.14
36.15
35.63
33.37
30.11
26.22
21.74
16.59
10.89
5.13
0.12
-3.29
-4.42
-3.04
0.66
6.15
12.76
19.83
26.75
32.97
37.98
41.36
42.91
42.7
41.1
38.67
35.9
33.07
30.12
26.82
23.01
18.85
14.89
11.81
10.14
9.87
10.3
10.29
8.64
4.63
-1.62
-9.24
-16.92
-23.42
-27.99
-30.59
-31.66
-31.84
-31.63
-31.16
-30.4
-29.26
-27.83
-26.47
-25.63
-25.57
-26.21
-27.28
-28.34
-29.09
-29.34
-28.73
-26.44
-21.37
-13.1
-2.9
6.13
10.22
7.25
-1.06
-8.7
-7.45
9.32
42.9
87.97
134.4
171.64
192.88
197.32
189.35
175.86
163.17
155.29
153.67
157.76
165.71
174.48
180.02
177.69
163.26
134.66
93.2
43.63
-7.19
-52.55
-87.92
-111.97
-126.33
-134.32
-139.42
-144.17
-149.64
-155.59
-160.8
-163.62
-162.39
-156.06
-144.71
-129.79
-113.97
-100.21
-90.58
-85.36
-83.04
-80.81
-75.84
-66.3
-51.86
-33.7
-14.18
3.69
16.89
23.26
22.44
16.34
8.71
3.79
4.45
10.83
20.35
29.13
33.99
33.9
30.05
24.59
19.19
14.07
8.3
0.89
-8.08
-17.15
-24.01
-26.71
-24.5
-18.27
-10.03
-2.06
4.04
7.81
9.82
11.1
12.38
13.75
14.64
14.31
12.34
9.07
5.43
2.54
1.26
1.75
3.53
5.64
7.17
7.64
7.16
6.29
5.66
5.65
6.08
6.39
5.87
4.08
1.14
-2.39
-5.73
-8.36
-10.21
-11.78
-13.83
-16.93
-21.18
-26.02
-30.41
-33.22
-33.57
-31.13
-26.24
-19.67
-12.46
-5.6
0.21
4.6
7.55
9.2
9.75
9.28
7.82
5.37
2.06
-1.82
-5.8
-9.42
-12.37
-14.58
-16.25
-17.69
-19.05
-20.19
-20.7
-20.08
-18.19
-15.54
-13.32
-13.19
-16.57
-24.03
-34.82
-47.04
-58.34
-66.91
-72.2
-74.96
-76.54
-78.07
-79.88
-81.44
-81.73
-79.65
-73.82
-62.6
-44.18
-17.37
17.16
56.11
93.88
124.29
142.67
147.78
142.15
130.93
119.58
111.73
108.08
106.99
106.22
104.92
104.62
108.69
120.34
140.37
165.98
191.57
210.95
219.95
218.02
207.73
192.82
176.07
158.25
138.4
115.35
89.01
60.89
33.66
10.19
-7.51
-18.81
-24.39
-26
-25.76
-25.68
-27.14
-30.66
-35.94
-42.2
-48.7
-55.05
-61.26
-67.52
-73.8
-80.02
-86.44
-94.3
-106.03
-124.49
-151.48
-186.47
-226.38
-266.51
-302.12
-329.65
-347
-352.96
-346.66
-327.47
-295.7
-253.23
-203.78
-152.08
-102.64
-58.47
-20.42
12.7
43.27
73.86
106.22
140.34
174.18
204.05
225.72
235.92
233.76
221.19
202.56
183.31
168.2
159.87
158.14
160.42
162.89
162.12
156.34
145.75
131.96
116.87
101.73
86.91
72.36
58.23
45.21
34.33
26.32
21.06
17.56
14.33
9.98
3.72
-4.33
-13.35
-22.12
-29.44
-34.42
-36.67
-36.28
-33.72
-29.58
-24.39
-18.48
-12.04
-5.17
2.01
9.28
16.36
23.02
29.12
34.55
39.23
43
45.65
47.09
47.35
46.71
45.53
44.08
42.35
40.08
36.76
31.9
25.16
16.41
5.58
-7.3
-22.15
-38.73
-56.5
-74.61
-92
-107.63
-120.71
-130.88
-138.14
-142.73
-144.95
-145
-142.92
-138.58
-131.8
-122.5
-110.83
-97.31
-82.88
-68.76
-56.13
-45.82
-37.97
-31.93
-26.56
-20.7
-13.81
-6.27
0.79
6.07
8.8
9.08
7.95
6.98
7.6
10.46
15.01
19.07
18.77
9.16
-14.07
-52.39
-102.53
-156.22
-202.34
-230.43
-234.1
-212.37
-168.98
-110.43
-44.24
21.69
79.01
119.36
136.04
125.97
91.36
39.35
-20.2
-77.52
-124.77
-156.45
-169.21
-162.13
-137.63
-101.81
-63.53
-31.65
-11.76
-4.29
-5.28
-9.41
-13.01
-15.76
-19.87
-27.7
-39.86
-54.69
-69.37
-81.59
-90.37
-95.82
-98.45
-98.77
-97.73
-97.11
-99.03
-104.81
-113.62
-121.89
-124.47
-116.75
-96.73
-65.78
-27.52
14.2
56.85
99.43
141.43
181.31
215.93
241.42
254.71
255.09
244.56
226.86
205.82
183.91
161.59
137.78
111.08
81.14
49.37
18.98
-5.91
-21.52
-25.67
-18.55
-2.76
17.46
37.52
53.84
64.63
69.87
70.45
67.17
60.1
48.7
32.73
13.11
-7.64
-26.04
-38.84
-44.24
-42.61
-36.18
-27.99
-20.62
-15.38
-12.17
-10.03
-7.97
-5.66
-3.49
-2.31
-2.76
-4.85
-7.79
-10.25
-10.89
-8.81
-3.79
3.86
13.59
24.93
37.54
51.08
64.93
78.06
89.18
97.16
101.47
102.47
101.17
98.61
95.22
90.55
83.69
74.21
62.9
51.81
43.4
39.19
38.78
39.88
39.36
34.66
25.02
11.65
-2.83
-15.45
-23.78
-26.33
-22.6
-12.97
1.31
18.19
34.99
49.01
58.13
61.39
59.02
52.26
42.72
32
21.37
11.71
3.43
-3.46
-9.42
-15.23
-21.78
-29.64
-38.65
-47.76
-55.25
-59.31
-58.83
-53.86
-45.72
-36.57
-28.63
-23.4
-21.22
-21.34
-22.38
-23.06
-22.76
-21.73
-20.84
-21.06
-22.89
-26.02
-29.37
-31.46
-30.97
-27.22
-20.41
-11.51
-1.9
7.05
14.3
19.33
22.02
22.57
21.35
18.82
15.53
12.06
8.9
6.41
4.66
3.54
2.87
2.43
2.08
1.72
1.24
0.5
-0.6
-2.15
-4.22
-6.88
-10.13
-13.86
-17.68
-20.94
-22.77
-22.29
-18.98
-12.9
-4.75
4.26
12.76
19.51
23.75
25.25
24.25
21.35
17.28
12.79
8.46
4.69
1.7
-0.46
-1.88
-2.71
-3.12
-3.29
-3.33
-3.35
-3.44
-3.71
-4.32
-5.44
-7.13
-9.34
-11.75
-13.77
-14.69
-13.79
-10.7
-5.52
1.03
7.76
13.31
16.6
17.12
15.03
11.03
6.04
0.79
-4.31
-9.24
-14.17
-19.17
-24.09
-28.46
-31.72
-33.38
-33.29
-31.7
-29.19
-26.45
-24.04
-22.23
-20.93
-19.77
-18.21
-15.72
-11.88
-6.54
0.14
7.62
15.07
21.56
26.37
29.16
29.96
29.11
26.97
23.9
20.14
15.96
11.68
7.63
4.09
1.17
-1.14
-2.87
-4.01
-4.43
-4.07
-2.99
-1.47
0.03
1.07
1.33
0.71
-0.64
-2.45
-4.38
-6.02
-7.01
-7.05
-5.87
-3.34
0.57
5.59
11.19
16.56
20.8
23.21
23.53
22.02
19.25
15.8
11.98
7.94
3.88
0.3
-2.01
-2.25
-0.1
4.12
9.52
15.08
20.08
24.3
27.86
30.9
33.3
34.64
34.49
32.65
29.38
25.41
21.66
18.85
17.25
16.57
16.18
15.37
13.71
11.09
7.57
3.02
-2.91
-10.82
-21.17
-33.92
-48.28
-62.93
-76.48
-87.8
-96.01
-100.28
-99.62
-93.18
-80.76
-63.43
-43.67
-24.79
-9.93
-0.9
2.34
1.46
-1.24
-3.83
-5.29
-5.49
-4.63
-2.79
0.16
4.38
9.71
15.6
21.35
26.31
30.31
33.45
35.87
37.24
36.71
33.25
26.35
16.6
5.95
-2.73
-6.64
-4.19
4.22
16.16
27.99
36.07
37.67
31.39
17
-4.77
-32.33
-63.03
-93.19
-118.55
-135.23
-140.94
-135.66
-121.47
-101.6
-79.24
-56.63
-34.93
-14.5
4.65
22.61
39.53
55.51
70.64
84.64
97.07
107.3
114.93
120.04
123.16
124.96
125.54
124.02
118.52
106.76
87.19
59.92
27.26
-6.86
-37.98
-62.52
-78.63
-86.29
-86.82
-82.23
-74.65
-66.2
-58.78
-53.84
-52.01
-52.92
-55.32
-57.58
-58.15
-56.08
-50.97
-43.06
-33.09
-22.3
-12.31
-4.68
-0.38
0.66
-0.39
-1.75
-1.8
0.24
4.17
9.15
14.24
18.95
23.25
27.45
31.79
36.26
40.55
44.26
47.18
49.51
51.84
55.08
59.97
66.85
75.41
84.82
94.06
102.23
108.78
113.39
115.79
115.58
112.34
105.85
96.4
84.87
72.54
60.6
49.88
40.63
32.62
25.39
18.37
11.02
2.69
-7.2
-18.89
-31.99
-45.26
-56.89
-65.17
-69.16
-69.12
-66.31
-62.4
-58.57
-55.14
-51.53
-46.76
-40.1
-31.52
-21.69
-11.79
-2.97
3.97
8.7
11.39
12.52
12.65
12.21
11.44
10.27
8.4
5.39
0.67
-6.12
-15.1
-25.99
-38.03
-50.21
-61.38
-70.62
-77.46
-82.02
-84.87
-86.66
-87.59
-86.98
-83.37
-75.08
-61.11
-41.97
-19.9
1.69
19.5
31.64
38.48
42.46
47.15
55.97
71
92.43
118.38
145.27
168.42
183.04
185.29
173.57
149.03
115.26
77.23
39.56
5.29
-24.51
-50.22
-72.8
-92.99
-111.15
-127.32
-141.31
-152.55
-159.72
-160.91
-154.18
-138.61
-114.97
-85.81
-54.68
-24.92
1.22
22.89
40.22
53.65
63.4
69.3
70.89
67.73
59.51
46.17
28.06
5.98
-18.67
-43.97
-67.74
-87.89
-102.98
-112.52
-117.12
-118.08
-116.95
-114.87
-112.26
-108.75
-103.34
-94.81
-82.26
-65.63
-46.03
-25.36
-5.61
12.11
27.9
42.92
58.26
73.93
88.27
98.46
101.71
96.61
83.76
65.45
44.63
23.9
5.02
-11.03
-23.67
-32.39
-36.71
-36.46
-31.97
-24.2
-14.71
-5.26
2.65
8.28
11.77
14.12
16.67
20.53
26.1
33.02
40.4
47.28
52.99
57.24
60.1
61.64
61.8
60.37
57.18
52.32
46.24
39.67
33.31
27.65
22.75
18.39
14.23
10.06
5.96
2.15
-1.08
-3.63
-5.66
-7.57
-9.81
-12.72
-16.42
-20.67
-24.83
-27.93
-28.83
-26.62
-20.95
-12.36
-2.25
7.5
15.12
19.62
21.07
20.39
18.88
17.56
16.76
16.12
14.85
12.17
7.74
1.77
-5.01
-11.67
-17.45
-22.08
-25.86
-29.39
-33.15
-37.16
-40.81
-43.09
-43.08
-40.49
-35.79
-30.01
-24.29
-19.38
-15.43
-12.13
-9.08
-6.09
-3.38
-1.38
-0.46
-0.64
-1.46
-2.08
-1.62
0.49
4.25
9.09
14.03
18.02
20.27
20.48
18.82
15.85
12.32
8.95
6.29
4.7
4.26
4.86
6.25
8.04
9.84
11.28
12.03
11.88
10.72
8.65
5.97
3.15
0.7
-0.99
-1.81
-1.95
-1.86
-1.97
-2.57
-3.71
-5.21
-6.83
-8.34
-9.66
-10.83
-12
-13.37
-15.05
-17.03
-19.08
-20.84
-21.88
-21.99
-21.28
-20.24
-19.58
-19.89
-21.52
-24.37
-28.04
-31.94
-35.4
-37.77
-38.49
-37.13
-33.52
-27.91
-20.95
-13.64
-7.09
-2.25
0.36
0.75
-0.65
-3.11
-5.98
-8.75
-11.24
-13.42
-15.28
-16.79
-17.88
-18.63
-19.28
-20.24
-21.74
-23.7
-25.57
-26.63
-26.35
-24.68
-22.06
-19.14
-16.39
-13.85
-11.29
-8.44
-5.27
-2.13
0.6
2.77
4.76
7.41
11.77
18.67
28.37
40.36
53.38
65.8
76.08
83.31
87.55
89.76
91.31
93.29
95.99
98.7
100.21
99.45
96.04
90.49
83.83
77.12
70.9
65.12
59.33
53.06
46.01
38.01
28.8
17.95
4.96
-10.27
-27.07
-43.83
-58.29
-68.37
-72.98
-72.55
-69
-64.87
-62.28
-62.07
-63.59
-65.18
-65.02
-61.98
-55.95
-47.69
-38.35
-28.93
-20.12
-12.34
-5.95
-1.27
1.45
2.29
1.64
0.13
-1.61
-3.21
-4.57
-5.69
-6.49
-6.81
-6.43
-5.26
-3.45
-1.25
1.21
3.99
7.34
11.33
15.65
19.59
22.36
23.41
22.73
20.81
18.34
15.88
13.6
11.23
8.21
3.94
-1.89
-9.02
-16.64
-23.5
-28.4
-30.61
-30.1
-27.45
-23.54
-19.07
-14.39
-9.61
-4.92
-0.72
2.37
3.84
3.51
1.72
-0.79
-3.04
-4.18
-3.69
-1.61
1.42
4.27
5.67
4.6
0.67
-5.81
-13.92
-22.58
-30.87
-38.28
-44.72
-50.36
-55.47
-60.37
-65.36
-70.63
-76.03
-80.83
-83.67
-82.88
-77.05
-65.69
-49.64
-30.93
-12.17
4.31
17.13
26.06
31.8
35.31
37.34
38.2
37.9
36.5
34.35
32.11
30.49
29.99
30.66
32.17
33.94
35.44
36.33
36.49
35.96
34.81
33
30.42
26.92
22.43
17.13
11.39
5.69
0.44
-4.07
-7.65
-10.06
-10.82
-9.29
-4.93
2.29
11.58
21.38
29.8
35.21
36.76
34.53
29.33
22.35
14.79
7.61
1.55
-3.01
-5.97
-7.57
-8.32
-8.81
-9.53
-10.53
-11.49
-11.87
-11.32
-9.99
-8.56
-8.06
-9.37
-12.73
-17.63
-22.84
-26.82
-28.3
-26.65
-22.13
-15.69
-8.49
-1.4
5.39
12.44
20.71
31.03
43.63
57.79
71.61
82.22
86.26
80.92
65.34
41.63
15.01
-7.55
-19.66
-18.05
-3.85
17.96
40.61
58.02
66.38
64.39
52.51
32.19
5.6
-24.06
-52.33
-74.05
-84.67
-81.77
-65.93
-40.45
-10.24
19.64
45.05
63.29
73.12
74.44
68.07
55.34
37.63
15.91
-9.48
-38.62
-71.37
-106.63
-141.92
-173.57
-197.63
-210.9
-211.9
-201.18
-181.03
-154.74
-125.72
-96.7
-69.39
-44.61
-22.6
-3.5
12.55
25.59
36.09
45.22
54.48
65.08
77.18
89.64
100.44
107.58
110.15
108.73
105.13
101.24
97.99
94.88
90.45
83.34
73.36
61.73
50.65
42.28
37.89
37.64
40.91
46.93
55.12
65.02
75.91
86.52
95.13
100.03
100.12
95.4
86.99
76.73
66.68
58.4
52.42
48.1
43.84
37.61
27.6
12.79
-6.85
-30.34
-55.95
-81.42
-104.33
-122.35
-133.67
-137.23
-132.94
-121.67
-104.98
-85.02
-64.2
-45
-29.64
-19.72
-15.84
-17.46
-23.04
-30.48
-37.78
-43.58
-47.39
-49.42
-50.28
-50.5
-50.23
-49.14
-46.59
-42.02
-35.33
-27.11
-18.57
-11.16
-6
-3.54
-3.53
-5.39
-8.76
-13.73
-20.65
-29.58
-39.7
-49.24
-56
-58.27
-55.55
-48.7
-39.39
-29.27
-19.46
-10.44
-2.54
3.73
7.59
8.45
6.4
2.52
-1.29
-2.86
-0.5
6.59
18.12
32.89
49.1
64.74
77.86
86.92
90.98
89.89
84.32
75.58
65.37
55.32
46.75
40.38
36.25
33.9
32.48
31.03
28.72
24.98
19.66
13.04
5.69
-1.64
-8.38
-14.31
-19.64
-24.84
-30.26
-35.81
-40.8
-44.04
-44.28
-40.75
-33.49
-23.42
-12.06
-1.06
8.19
14.85
18.67
19.89
19.17
17.31
15.18
13.38
12.19
11.54
11.14
10.71
10.07
9.18
7.98
6.32
4.03
1.16
-1.95
-4.58
-5.95
-5.54
-3.37
0.06
3.98
7.78
11.28
14.74
18.65
23.34
28.73
34.22
38.87
41.78
42.42
40.84
37.52
33.14
28.13
22.55
16.17
8.89
1.16
-5.98
-11.3
-13.95
-13.94
-12.11
-9.67
-7.76
-7.12
-8.22
-11.63
-18.14
-28.44
-42.57
-59.38
-76.62
-91.65
-102.37
-107.86
-108.44
-105.02
-98.45
-89.14
-77.21
-62.89
-46.87
-30.32
-14.6
-0.81
10.46
19.15
25.5
29.82
32.36
33.32
32.96
31.63
29.84
28.22
27.47
28.25
30.96
35.62
41.73
48.39
54.62
59.71
63.48
66.26
68.54
70.68
72.61
73.89
73.89
72.12
68.34
62.65
55.41
47.16
38.61
30.64
24.11
19.68
17.54
17.29
18.13
19.26
20.18
20.87
21.64
22.7
23.94
24.77
24.38
22.18
18.22
13.31
8.81
6.03
5.63
7.26
9.52
10.53
8.6
2.87
-6.48
-18.48
-31.78
-45.08
-57.2
-67.14
-74.25
-78.55
-81.03
-83.44
-87.41
-93.31
-99.47
-102.5
-98.63
-85.58
-63.86
-36.64
-8.39
16.99
37.44
52.8
63.8
70.77
72.88
68.56
56.38
36.21
9.67
-20.33
-50.59
-78.55
-102.81
-122.87
-138.73
-150.52
-158.43
-163.02
-165.33
-166.7
-168.29
-170.23
-170.89
-167.24
-156.05
-135.93
-108.72
-79.26
-53.2
-34.04
-20.87
-8.41
10.46
41.04
84.07
135.23
187.27
233.24
268.75
292.23
303.37
301.43
284.83
252.65
206.63
152.18
97.25
49.61
13.95
-9.53
-24.32
-35.13
-45.36
-55.8
-65.02
-71.04
-72.69
-70.31
-65.32
-59.46
-54.24
-50.85
-50.32
-53.49
-60.76
-71.64
-84.47
-96.39
-103.73
-102.73
-90.43
-65.59
-29.17
15.68
64.35
111.92
154.35
189.04
214.7
230.64
235.95
229.28
209.22
175.33
129.09
74.31
16.6
-37.89
-84.06
-119.02
-142.32
-155.33
-160.08
-158.12
-150.05
-135.66
-114.63
-87.27
-54.84
-19.35
17.03
52.59
86.38
118.16
147.9
175.52
200.59
222.3
239.64
251.54
257.03
255.47
246.69
231.05
209.38
182.63
151.6
116.69
78
35.77
-9.21
-55.35
-100.45
-142.19
-178.73
-208.94
-232.38
-248.92
-258.36
-260.47
-255.19
-243.02
-225.21
-203.62
-180.21
-156.68
-134.14
-113.15
-93.93
-76.54
-60.87
-46.65
-33.46
-20.92
-8.94
2.13
11.6
18.72
23.08
24.87
24.72
23.46
21.76
19.91
17.91
15.6
12.96
10.2
7.67
5.68
4.4
3.86
4.03
4.91
6.48
8.57
10.79
12.59
13.48
13.3
12.32
11.16
10.53
10.98
12.76
15.89
20.25
25.61
31.67
37.9
43.61
48.05
50.73
51.59
51.02
49.61
47.87
45.93
43.62
40.6
36.71
32.16
27.45
23.19
19.81
17.44
15.89
14.85
13.97
12.91
11.33
8.91
5.4
0.84
-4.35
-9.35
-13.21
-15.08
-14.53
-11.72
-7.34
-2.41
2.09
5.43
7.34
7.91
7.41
6.14
4.27
1.88
-0.93
-4.02
-7.2
-10.22
-12.93
-15.23
-17.08
-18.48
-19.45
-20.12
-20.66
-21.33
-22.31
-23.7
-25.48
-27.5
-29.55
-31.27
-32.18
-31.74
-29.49
-25.28
-19.49
-12.92
-6.57
-1.29
2.51
4.88
6.22
7.02
7.61
8.1
8.42
8.43
8.06
7.39
6.58
5.81
5.19
4.71
4.23
3.6
2.67
1.33
-0.47
-2.72
-5.35
-8.19
-10.91
-12.98
-13.85
-13.05
-10.47
-6.36
-1.37
3.7
8.09
11.26
13.03
13.53
13.12
12.16
10.94
9.53
7.89
5.95
3.79
1.6
-0.34
-1.85
-2.94
-3.73
-4.42
-5.12
-5.93
-6.92
-8.21
-9.97
-12.22
-14.77
-17.16
-18.72
-18.86
-17.22
-13.87
-9.22
-3.94
1.22
5.6
8.75
10.48
10.87
10.25
9.01
7.52
5.99
4.48
2.92
1.24
-0.57
-2.42
-4.16
-5.62
-6.72
-7.51
-8.1
-8.63
-9.23
-10
-11.03
-12.44
-14.26
-16.41
-18.59
-20.26
-20.83
-19.8
-17.01
-12.71
-7.57
-2.42
1.96
5.1
6.89
7.54
7.32
6.5
5.17
3.29
0.86
-1.98
-4.87
-7.43
-9.36
-10.67
-11.59
-12.43
-13.4
-14.5
-15.64
-16.69
-17.71
-18.94
-20.64
-23
-25.98
-29.32
-32.6
-35.37
-37.21
-37.79
-36.95
-34.74
-31.4
-27.24
-22.56
-17.53
-12.27
-6.89
-1.54
3.6
8.47
13.31
18.59
24.92
32.78
42.31
53.28
65.18
77.38
89.14
99.66
108.1
113.69
115.95
114.83
110.74
104.29
95.93
85.77
73.59
59.08
42.22
23.6
4.37
-13.96
-29.92
-42.48
-51.26
-56.51
-58.88
-59.1
-57.75
-55.28
-52.08
-48.67
-45.7
-43.83
-43.46
-44.56
-46.51
-48.34
-48.92
-47.27
-42.96
-36.14
-27.61
-18.63
-10.52
-4.24
-0.19
1.88
2.58
2.56
2.21
1.72
1.17
0.67
0.46
0.65
1.21
1.89
2.37
2.46
2.22
1.85
1.5
1.15
0.65
-0.19
-1.36
-2.64
-3.71
-4.37
-4.66
-4.81
-5.07
-5.59
-6.34
-7.25
-8.34
-9.82
-11.92
-14.72
-17.88
-20.7
-22.33
-22.1
-19.81
-15.82
-10.85
-5.8
-1.42
1.85
3.96
5.16
5.82
6.36
7.01
7.85
8.74
9.48
9.84
9.73
9.2
8.42
7.63
6.99
6.54
6.19
5.74
4.99
3.81
2.28
0.6
-0.93
-2.13
-3.03
-3.88
-5.01
-6.69
-8.88
-11.29
-13.39
-14.65
-14.76
-13.59
-11.29
-8.15
-4.53
-0.81
2.65
5.5
7.56
8.72
9.01
8.53
7.41
5.72
3.52
0.91
-1.89
-4.55
-6.74
-8.24
-9.06
-9.48
-9.92
-10.75
-12.12
-13.92
-15.84
-17.6
-19.06
-20.36
-21.78
-23.61
-25.99
-28.77
-31.55
-33.84
-35.11
-35.04
-33.56
-30.9
-27.55
-23.99
-20.5
-16.97
-13.04
-8.35
-2.87
3.01
8.74
14.05
19.25
25.27
33.23
43.84
56.88
71.1
84.42
94.44
98.99
96.53
86.59
69.98
48.88
26.47
6.09
-9.7
-19.95
-25.42
-28.13
-30.32
-33.58
-38.34
-44.02
-49.47
-53.53
-55.39
-54.65
-51.2
-45.23
-37.21
-27.95
-18.58
-10.31
-4.16
-0.66
0.3
-0.67
-2.66
-4.81
-6.42
-7.2
-7.19
-6.67
-6.04
-5.66
-5.76
-6.36
-7.41
-8.76
-10.27
-11.86
-13.45
-15.01
-16.47
-17.82
-19
-19.95
-20.55
-20.59
-19.86
-18.21
-15.58
-12.01
-7.61
-2.49
3.21
9.26
15.31
20.84
25.21
27.83
28.38
26.94
24.06
20.63
17.56
15.48
14.34
13.46
11.78
8.43
3.28
-2.9
-8.71
-12.79
-14.62
-14.84
-15.13
-17.39
-22.83
-31.24
-40.94
-49.52
-55.02
-56.96
-56.67
-56.63
-59.2
-65.27
-73.71
-81.99
-87.5
-88.84
-86.25
-80.81
-73.5
-64.61
-54.13
-42.63
-31.3
-21
-10.74
3.16
25.71
60.02
104.02
149.66
185.76
203.64
202.18
189.38
179.12
184.52
211.67
256.79
308.2
351.65
376.14
377.24
357.13
321.83
277.66
228.83
177.02
122.41
65.3
7.38
-48.17
-97.35
-136.72
-164.72
-182.06
-191.19
-195.14
-196.29
-195.51
-192.42
-186.22
-176.86
-165.52
-154.34
-145.38
-139.52
-136
-132.73
-127.45
-118.84
-107.21
-94.2
-81.96
-72.12
-65.06
-59.95
-55.32
-49.89
-43.32
-36.38
-30.64
-27.8
-29
-34.45
-43.36
-54.24
-65.25
-74.55
-80.5
-81.79
-77.52
-67.38
-51.91
-32.76
-12.55
5.57
18.85
25.91
27.19
24.72
21.1
18.36
17.18
16.81
15.77
12.81
7.53
0.47
-7.25
-14.4
-19.96
-23.11
-23.3
-20.46
-15.47
-10.28
-7.48
-8.97
-14.51
-21.04
-23.34
-16.02
4.1
36.45
76.86
119.08
157.08
186.66
205.81
214.14
211.97
199.93
179.22
152.08
121.89
92.56
67.42
48.28
35
25.96
19.06
12.64
6.05
-0.57
-6.74
-12.26
-17.44
-22.89
-29.25
-36.81
-45.36
-54.33
-62.85
-70
-74.91
-76.85
-75.4
-70.56
-62.91
-53.41
-43.28
-33.68
-25.45
-19.06
-14.61
-11.98
-10.9
-10.98
-11.77
-12.72
-13.33
-13.2
-12.23
-10.56
-8.52
-6.44
-4.49
-2.67
-0.88
0.98
2.89
4.77
6.48
7.87
8.77
9
8.39
6.86
4.57
2.02
-0.09
-1
-0.17
2.57
6.94
12.35
18.04
23.3
27.59
30.56
32.03
31.96
30.44
27.77
24.39
20.89
17.78
15.32
13.45
11.87
10.26
8.45
6.54
4.73
3.21
1.93
0.61
-1.1
-3.49
-6.61
-10.26
-14.05
-17.48
-20.04
-21.27
-20.8
-18.52
-14.61
-9.59
-4.25
0.51
3.84
5.13
4.05
0.7
-4.42
-10.41
-16.19
-20.77
-23.55
-24.54
-24.17
-23
-21.37
-19.24
-16.44
-12.96
-9.24
-6.07
-4.36
-4.75
-7.49
-12.46
-19.32
-27.57
-36.35
-44.4
-50.06
-51.7
-48.29
-39.86
-27.61
-13.54
0.23
11.97
20.69
26.16
28.63
28.65
26.84
23.83
20.22
16.57
13.36
10.96
9.56
9.14
9.55
10.54
11.9
13.44
15.07
16.58
17.69
18.02
17.25
15.31
12.53
9.6
7.36
6.62
7.79
10.91
15.6
21.22
27.12
32.77
37.88
42.41
46.43
50.01
52.99
55.03
55.59
54.28
50.99
45.95
39.62
32.38
24.43
15.63
5.7
-5.6
-18.2
-31.51
-44.47
-55.69
-63.73
-67.51
-66.63
-61.52
-53.39
-43.82
-34.33
-25.87
-18.7
-12.52
-6.81
-1.2
4.33
9.53
14.12
17.99
21.31
24.35
27.18
29.56
30.79
30.21
27.41
22.68
16.91
11.27
6.69
3.42
1
-1.39
-4.47
-8.42
-12.79
-16.76
-19.62
-21.12
-21.53
-21.48
-21.65
-22.47
-24.06
-26.21
-28.54
-30.5
-31.52
-31.01
-28.54
-24.03
-17.91
-11
-4.34
1.2
5.2
7.76
9.36
10.6
11.89
13.37
14.91
16.29
17.3
17.84
17.97
17.77
17.41
17.07
16.95
17.21
17.88
18.86
19.86
20.51
20.47
19.61
18.01
16.02
14.15
12.9
12.62
13.36
14.81
16.34
17.26
17.03
15.44
12.65
9.05
5.09
1.09
-2.72
-6.11
-8.74
-10.14
-9.81
-7.41
-2.93
3.19
10.13
16.89
22.49
26.23
27.72
26.92
24.01
19.25
12.97
5.63
-2.1
-9.43
-15.7
-20.62
-24.49
-28.03
-31.95
-36.48
-41.08
-44.66
-46.05
-44.64
-40.67
-35.22
-29.83
-25.98
-24.65
-26.03
-29.36
-32.96
-34.6
-32.01
-23.77
-9.99
7.51
25.68
41.23
51.77
56.33
55.4
50.3
42.56
33.61
24.75
17.29
12.51
11.43
14.4
20.99
30.27
41.09
52.51
63.81
74.37
83.41
89.93
92.93
91.68
85.97
76.02
62.25
45.01
24.64
1.81
-22.05
-44.72
-63.66
-76.82
-83.61
-85.13
-83.72
-81.85
-81.01
-81.09
-80.79
-78.54
-73.54
-66.26
-58.08
-50.45
-44.13
-38.95
-34.08
-28.73
-22.67
-16.3
-10.36
-5.42
-1.53
1.75
5.04
8.77
13.04
17.61
22.16
26.4
30.24
33.69
36.84
39.75
42.48
45.08
47.53
49.76
51.58
52.74
52.96
52.02
49.81
46.36
41.74
36
29.1
21.01
11.83
1.89
-8.21
-17.8
-26.35
-33.72
-40.21
-46.29
-52.35
-58.37
-63.82
-67.92
-69.88
-69.27
-66.19
-61.25
-55.39
-49.63
-44.94
-42.08
-41.5
-43.23
-46.76
-51.03
-54.67
-56.4
-55.53
-52.23
-47.44
-42.45
-38.41
-35.87
-34.81
-34.73
-35.02
-35.05
-34.33
-32.48
-29.21
-24.42
-18.27
-11.21
-3.86
3.06
8.93
13.4
16.45
18.41
19.91
21.61
24.04
27.37
31.39
35.64
39.59
42.89
45.43
47.34
48.87
50.23
51.56
52.82
53.87
54.57
54.87
54.9
55.05
55.72
57.23
59.58
62.41
65.11
66.97
67.37
65.81
62
55.76
47.04
35.99
22.99
8.69
-6.08
-20.41
-33.51
-44.68
-53.31
-58.78
-60.6
-58.61
-53.31
-45.84
-37.8
-30.67
-25.33
-21.84
-19.59
-17.78
-15.91
-13.99
-12.39
-11.52
-11.46
-11.87
-12.02
-11.04
-8.22
-3.33
3.25
10.42
16.64
20.31
20.28
16.32
9.27
0.87
-6.71
-11.39
-11.81
-7.65
0.21
9.96
19.54
27.42
33.35
38.46
44.68
53.53
64.92
76.7
85.11
86.46
78.84
63.28
43.67
25.57
14.36
13.47
23.15
40.2
58.85
72.47
75.68
66.2
45.5
18.02
-10.63
-35.75
-54.87
-67.77
-75.59
