2023-01-28 10:41:30.035687,-0.007308324333280291
2023-01-28 10:41:30.040687,-0.017262241898254472
2023-01-28 10:41:30.045687,-0.0066832704469561195
2023-01-28 10:41:30.050687,-0.0008022538041089812
2023-01-28 10:41:30.055687,-0.006346702575683556
2023-01-28 10:41:30.060687,-0.009981502043481243
2023-01-28 10:41:30.065687,-0.005745689384639187
2023-01-28 10:41:30.070687,-0.0023987911563052742
2023-01-28 10:41:30.075687,-0.004832148551940889
2023-01-28 10:41:30.080687,-0.006538660509605449
2023-01-28 10:41:30.085687,-0.00324547290802001
2023-01-28 10:41:30.090687,0.00020035185152218797
2023-01-28 10:41:30.095687,0.00026444596005604734
2023-01-28 10:41:30.100687,0.0005506817368329469
2023-01-28 10:41:30.105687,0.003125270362943368
2023-01-28 10:41:30.110687,0.003422648368464299
2023-01-28 10:41:30.115687,-0.0020434460602700047
2023-01-28 10:41:30.120687,-0.010492491633261504
2023-01-28 10:41:30.125687,-0.018967986106872493
2023-01-28 10:41:30.130687,-0.028818464425054827
2023-01-28 10:41:30.135687,-0.04065255448222155
2023-01-28 10:41:30.140687,-0.05091252112486798
2023-01-28 10:41:30.145687,-0.0570722445845603
2023-01-28 10:41:30.150687,-0.061266643397653656
2023-01-28 10:41:30.155687,-0.06563067436218258
2023-01-28 10:41:30.160687,-0.06843495016545822
2023-01-28 10:41:30.165687,-0.06748180091381069
2023-01-28 10:41:30.170687,-0.06300101628417436
2023-01-28 10:41:30.175687,-0.05452394485473633
2023-01-28 10:41:30.180687,-0.03909843510248113
2023-01-28 10:41:30.185687,-0.015914838761091243
2023-01-28 10:41:30.190687,0.009979511856719147
2023-01-28 10:41:30.195687,0.030603608116507502
2023-01-28 10:41:30.200687,0.03886768266948348
2023-01-28 10:41:30.205687,0.02843995951116083
2023-01-28 10:41:30.210687,-0.00547527017569206
2023-01-28 10:41:30.215687,-0.06130337715148916
2023-01-28 10:41:30.220687,-0.12867132507744797
2023-01-28 10:41:30.225687,-0.19297342002391804
2023-01-28 10:41:30.230687,-0.2413567014101534
2023-01-28 10:41:30.235687,-0.26473444700241067
2023-01-28 10:41:30.240687,-0.25881757736062955
2023-01-28 10:41:30.245687,-0.2267984598875044
2023-01-28 10:41:30.250687,-0.17926315173848054
2023-01-28 10:41:30.255687,-0.12871305644512168
2023-01-28 10:41:30.260687,-0.08422030933650693
2023-01-28 10:41:30.265687,-0.050869785249233156
2023-01-28 10:41:30.270687,-0.030772373612571437
2023-01-28 10:41:30.275687,-0.022285580635070832
2023-01-28 10:41:30.280687,-0.020332902598159237
2023-01-28 10:41:30.285687,-0.019977688789367613
2023-01-28 10:41:30.290687,-0.01916926245522164
2023-01-28 10:41:30.295687,-0.017525553703308126
2023-01-28 10:41:30.300687,-0.014544342098198005
2023-01-28 10:41:30.305687,-0.010385513305663977
2023-01-28 10:41:30.310687,-0.006560121797629236
2023-01-28 10:41:30.315687,-0.004134973045438528
2023-01-28 10:41:30.320687,-0.00237154819263723
2023-01-28 10:41:30.325687,-0.00019232432532581355
2023-01-28 10:41:30.330687,0.0023852977640942373
2023-01-28 10:41:30.335687,0.005312959663569833
2023-01-28 10:41:30.340687,0.009548993467949865
2023-01-28 10:41:30.345687,0.015842717140912982
2023-01-28 10:41:30.350687,0.0236786431610642
2023-01-28 10:41:30.355687,0.03245472908020008
2023-01-28 10:41:30.360687,0.0425640470166836
2023-01-28 10:41:30.365687,0.05437970161437978
2023-01-28 10:41:30.370687,0.06730155970870239
2023-01-28 10:41:30.375687,0.08070409297943106
2023-01-28 10:41:30.380687,0.09473632153427257
2023-01-28 10:41:30.385687,0.10928829759359349
2023-01-28 10:41:30.390687,0.12312303985445248
2023-01-28 10:41:30.395687,0.13481935858726501
2023-01-28 10:41:30.400687,0.14371229107396788
2023-01-28 10:41:30.405687,0.14931580424308769
2023-01-28 10:41:30.410687,0.15082154308794574
2023-01-28 10:41:30.415687,0.14789740741252883
2023-01-28 10:41:30.420687,0.14121876375309922
2023-01-28 10:41:30.425687,0.13167004287242876
2023-01-28 10:41:30.430687,0.11970385870384202
2023-01-28 10:41:30.435687,0.10577838122844686
2023-01-28 10:41:30.440687,0.09059518676420131
2023-01-28 10:41:30.445687,0.07457375526428217
2023-01-28 10:41:30.450687,0.05778632478913603
2023-01-28 10:41:30.455687,0.040556393563747385
2023-01-28 10:41:30.460687,0.02349474142681476
2023-01-28 10:41:30.465687,0.007140040397643986
2023-01-28 10:41:30.470687,-0.007633748509130631
2023-01-28 10:41:30.475687,-0.019328594207763606
2023-01-28 10:41:30.480687,-0.02715947396283311
2023-01-28 10:41:30.485687,-0.0323104858398437
2023-01-28 10:41:30.490687,-0.03649503061269291
2023-01-28 10:41:30.495687,-0.039618812501430456
2023-01-28 10:41:30.500687,-0.04038029166192511
2023-01-28 10:41:30.505687,-0.03877739235758779
2023-01-28 10:41:30.510687,-0.03616176677372733
2023-01-28 10:41:30.515687,-0.033007662743329974
2023-01-28 10:41:30.520687,-0.028691448088273223
2023-01-28 10:41:30.525687,-0.023583769798278732
2023-01-28 10:41:30.530687,-0.01924678670522205
2023-01-28 10:41:30.535687,-0.016155242919921767
2023-01-28 10:41:30.540687,-0.013196026598559034
2023-01-28 10:41:30.545687,-0.009904703125357602
2023-01-28 10:41:30.550687,-0.007211461710538422
2023-01-28 10:41:30.555687,-0.00533699989318836
2023-01-28 10:41:30.560687,-0.0029506797000603104
2023-01-28 10:41:30.565687,0.0006490945816040039
2023-01-28 10:41:30.570687,0.004247302774420244
2023-01-28 10:41:30.575687,0.006539027206599741
2023-01-28 10:41:30.580687,0.007655105076711076
2023-01-28 10:41:30.585687,0.007981459610164146
2023-01-28 10:41:30.590687,0.0071041046506610805
2023-01-28 10:41:30.595687,0.005048513412475548
2023-01-28 10:41:30.600687,0.0031602438239593197
2023-01-28 10:41:30.605687,0.0025723378639668413
2023-01-28 10:41:30.610687,0.002862861485235187
2023-01-28 10:41:30.615687,0.003077189205214348
2023-01-28 10:41:30.620687,0.0028381586877991084
2023-01-28 10:41:30.625687,0.0015385946026071147
2023-01-28 10:41:30.630687,-0.002242350730746779
2023-01-28 10:41:30.635687,-0.009303689002990638
2023-01-28 10:41:30.640687,-0.01866604830946501
2023-01-28 10:41:30.645687,-0.02870440483093258
2023-01-28 10:41:30.650687,-0.03850157494311155
2023-01-28 10:41:30.655687,-0.04738390445709213
2023-01-28 10:41:30.660687,-0.05435486851400174
2023-01-28 10:41:30.665687,-0.05906760692596431
2023-01-28 10:41:30.670687,-0.062415662832856204
2023-01-28 10:41:30.675687,-0.06507774442434305
2023-01-28 10:41:30.680687,-0.06608569769075029
2023-01-28 10:41:30.685687,-0.06349106878042221
2023-01-28 10:41:30.690687,-0.05564663044627277
2023-01-28 10:41:30.695687,-0.041421853005885995
2023-01-28 10:41:30.700687,-0.0207283528150447
2023-01-28 10:41:30.705687,0.0035820405464619186
2023-01-28 10:41:30.710687,0.02477347246188138
2023-01-28 10:41:30.715687,0.03430585190653802
2023-01-28 10:41:30.720687,0.025200176731271336
2023-01-28 10:41:30.725687,-0.00574568938463918
2023-01-28 10:41:30.730687,-0.05659201992387315
2023-01-28 10:41:30.735687,-0.11926512420177444
2023-01-28 10:41:30.740687,-0.18080403371278908
2023-01-28 10:41:30.745687,-0.22776007652282707
2023-01-28 10:41:30.750687,-0.2509076835190763
2023-01-28 10:41:30.755687,-0.24725696444511397
2023-01-28 10:41:30.760687,-0.21984775370945833
2023-01-28 10:41:30.765687,-0.17677009105682365
2023-01-28 10:41:30.770687,-0.12882256105064568
2023-01-28 10:41:30.775687,-0.08560836315155014
2023-01-28 10:41:30.780687,-0.052589566711455836
2023-01-28 10:41:30.785687,-0.03110845945775505
2023-01-28 10:41:30.790687,-0.019883245029502564
2023-01-28 10:41:30.795687,-0.01591483876109121
2023-01-28 10:41:30.800687,-0.015364277208670889
2023-01-28 10:41:30.805687,-0.015241703018546143
2023-01-28 10:41:30.810687,-0.014417268300258645
2023-01-28 10:41:30.815687,-0.012741486541926823
2023-01-28 10:41:30.820687,-0.009915577036276664
2023-01-28 10:41:30.825687,-0.005793770309537597
2023-01-28 10:41:30.830687,-0.000966861633842195
2023-01-28 10:41:30.835687,0.003822445869445753
2023-01-28 10:41:30.840687,0.00836997560094853
2023-01-28 10:41:30.845687,0.012573203071951795
2023-01-28 10:41:30.850687,0.016034033059122432
2023-01-28 10:41:30.855687,0.018847784027457164
2023-01-28 10:41:30.860687,0.022211848594487212
2023-01-28 10:41:30.865687,0.027526419609785004
2023-01-28 10:41:30.870687,0.03532003017210365
2023-01-28 10:41:30.875687,0.0455087423324584
2023-01-28 10:41:30.880687,0.057973345788237325
2023-01-28 10:41:30.885687,0.07219374179840081
2023-01-28 10:41:30.890687,0.08697060674950324
2023-01-28 10:41:30.895687,0.10128279775381077
2023-01-28 10:41:30.900687,0.11495639643039059
2023-01-28 10:41:30.905687,0.12789568305015558
2023-01-28 10:41:30.910687,0.13921030422107453
2023-01-28 10:41:30.915687,0.1477050781249999
2023-01-28 10:41:30.920687,0.15267094076413262
2023-01-28 10:41:30.925687,0.15364310145378104
2023-01-28 10:41:30.930687,0.15009696627010222
2023-01-28 10:41:30.935687,0.14217576384544361
2023-01-28 10:41:30.940687,0.13122955729304622
2023-01-28 10:41:30.945687,0.11892855167388906
2023-01-28 10:41:30.950687,0.10620277101687334
2023-01-28 10:41:30.955687,0.09344558417797078
2023-01-28 10:41:30.960687,0.0809980468901662
2023-01-28 10:41:30.965687,0.06868382543325419
2023-01-28 10:41:30.970687,0.05545854934487253
2023-01-28 10:41:30.975687,0.04036406800150871
2023-01-28 10:41:30.980687,0.023575462778887644
2023-01-28 10:41:30.985687,0.006106297485530305
2023-01-28 10:41:30.990687,-0.010888916646812255
2023-01-28 10:41:30.995687,-0.02596378326416009
2023-01-28 10:41:31.000687,-0.03731335920018203
2023-01-28 10:41:31.005687,-0.04382590577006336
2023-01-28 10:41:31.010687,-0.04596430454245945
2023-01-28 10:41:31.015687,-0.045100055634975364
2023-01-28 10:41:31.020687,-0.042425926198799827
2023-01-28 10:41:31.025687,-0.03892163559794423
2023-01-28 10:41:31.030687,-0.03555172599515293
2023-01-28 10:41:31.035687,-0.0325989723205566
2023-01-28 10:41:31.040687,-0.029243897004448554
2023-01-28 10:41:31.045687,-0.02454539202153682
2023-01-28 10:41:31.050687,-0.018500534125070075
2023-01-28 10:41:31.055687,-0.011683702468871985
2023-01-28 10:41:31.060687,-0.0045193472151713885
2023-01-28 10:41:31.065687,0.002404054161161067
2023-01-28 10:41:31.070687,0.007984054856653327
2023-01-28 10:41:31.075687,0.011467337608337411
2023-01-28 10:41:31.080687,0.013272679331239172
2023-01-28 10:41:31.085687,0.014304121956229186
2023-01-28 10:41:31.090687,0.01496668544249161
2023-01-28 10:41:31.095687,0.015482108108699284
2023-01-28 10:41:31.100687,0.016442429228998596
2023-01-28 10:41:31.105687,0.01812656782567501
2023-01-28 10:41:31.110687,0.019783106034943224
2023-01-28 10:41:31.115687,0.02043445967137813
2023-01-28 10:41:31.120687,0.019876980326833618
2023-01-28 10:41:31.125687,0.018102526664733776
2023-01-28 10:41:31.130687,0.014423355902156633
2023-01-28 10:41:31.135687,0.008197824470698781
2023-01-28 10:41:31.140687,-0.00011730707895509814
2023-01-28 10:41:31.145687,-0.00961621664464468
2023-01-28 10:41:31.150687,-0.02000604841335634
2023-01-28 10:41:31.155687,-0.030916135758161493
2023-01-28 10:41:31.160687,-0.04086883306119855
2023-01-28 10:41:31.165687,-0.04839360713958746
2023-01-28 10:41:31.170687,-0.05371367692854458
2023-01-28 10:41:31.175687,-0.05781750008463848
2023-01-28 10:41:31.180687,-0.060227400507661344
2023-01-28 10:41:31.185687,-0.05940417572855942
2023-01-28 10:41:31.190687,-0.055160013234266406
2023-01-28 10:41:31.195687,-0.048585932701825964
2023-01-28 10:41:31.200687,-0.0392075449499166
2023-01-28 10:41:31.205687,-0.024449229240417415
2023-01-28 10:41:31.210687,-0.0034683821995056406
2023-01-28 10:41:31.215687,0.019376676529645847
2023-01-28 10:41:31.220687,0.03581761041332899
2023-01-28 10:41:31.225687,0.03774365037679673
2023-01-28 10:41:31.230687,0.019899582367549146
2023-01-28 10:41:31.235687,-0.01901606842875473
2023-01-28 10:41:31.240687,-0.07500801931973082
2023-01-28 10:41:31.245687,-0.13806483149528492
2023-01-28 10:41:31.250687,-0.19445631274639777
2023-01-28 10:41:31.255687,-0.23155848681926708
2023-01-28 10:41:31.260687,-0.24206388446772867
2023-01-28 10:41:31.265687,-0.22564451396465293
2023-01-28 10:41:31.270687,-0.18839770809482698
2023-01-28 10:41:31.275687,-0.140661209821701
2023-01-28 10:41:31.280687,-0.09351142287074052
2023-01-28 10:41:31.285687,-0.055197082459926584
2023-01-28 10:41:31.290687,-0.029309348578058992
2023-01-28 10:41:31.295687,-0.01519362162798642
2023-01-28 10:41:31.300687,-0.009577205879835
2023-01-28 10:41:31.305687,-0.008342067711055194
2023-01-28 10:41:31.310687,-0.00800836887127114
2023-01-28 10:41:31.315687,-0.006611148826777916
2023-01-28 10:41:31.320687,-0.0037013989700539675
2023-01-28 10:41:31.325687,0.00026444596005599405
2023-01-28 10:41:31.330687,0.004542714412316731
2023-01-28 10:41:31.335687,0.008462270721793098
2023-01-28 10:41:31.340687,0.01162991649809254
2023-01-28 10:41:31.345687,0.014015635475516333
2023-01-28 10:41:31.350687,0.015866054917574507
2023-01-28 10:41:31.355687,0.01754959486424918
2023-01-28 10:41:31.360687,0.019476364219077558
2023-01-28 10:41:31.365687,0.022069215774536067
2023-01-28 10:41:31.370687,0.02572987022469083
2023-01-28 10:41:31.375687,0.030844014137983263
2023-01-28 10:41:31.380687,0.03781323231702343
2023-01-28 10:41:31.385687,0.04699925705790512
2023-01-28 10:41:31.390687,0.05858104143365956
2023-01-28 10:41:31.395687,0.07245819270610795
2023-01-28 10:41:31.400687,0.08822478566315455
2023-01-28 10:41:31.405687,0.10512928664684287
2023-01-28 10:41:31.410687,0.12205897675122553
2023-01-28 10:41:31.415687,0.1376561373472212
2023-01-28 10:41:31.420687,0.15050781258046822
2023-01-28 10:41:31.425687,0.15929262340068806
2023-01-28 10:41:31.430687,0.1629503980799175
2023-01-28 10:41:31.435687,0.16095142066478715
2023-01-28 10:41:31.440687,0.15348438434802833
2023-01-28 10:41:31.445687,0.14135837554931635
2023-01-28 10:41:31.450687,0.12573544217156074
2023-01-28 10:41:31.455687,0.10791798681020733
2023-01-28 10:41:31.460687,0.08916599628618345
2023-01-28 10:41:31.465687,0.07046282291412345
2023-01-28 10:41:31.470687,0.05239290818571699
2023-01-28 10:41:31.475687,0.03526747226715075
2023-01-28 10:41:31.480687,0.019284005263062242
2023-01-28 10:41:31.485687,0.004495581146329622
2023-01-28 10:41:31.490687,-0.009239534081967335
2023-01-28 10:41:31.495687,-0.022093256935477184
2023-01-28 10:41:31.500687,-0.034044371278252786
2023-01-28 10:41:31.505687,-0.044859647750854395
2023-01-28 10:41:31.510687,-0.054196188230958606
2023-01-28 10:41:31.515687,-0.061639945954084306
2023-01-28 10:41:31.520687,-0.0667864536455662
2023-01-28 10:41:31.525687,-0.06947716325521452
2023-01-28 10:41:31.530687,-0.06994526576968806
2023-01-28 10:41:31.535687,-0.06863574683666214
2023-01-28 10:41:31.540687,-0.06592319994960687
2023-01-28 10:41:31.545687,-0.06204863637685773
2023-01-28 10:41:31.550687,-0.05718352292905787
2023-01-28 10:41:31.555687,-0.05139867588877669
2023-01-28 10:41:31.560687,-0.04465513661940251
2023-01-28 10:41:31.565687,-0.03699839115142818
2023-01-28 10:41:31.570687,-0.02876105111570915
2023-01-28 10:41:31.575687,-0.02050658129155626
2023-01-28 10:41:31.580687,-0.012839605105961714
2023-01-28 10:41:31.585687,-0.006322662346064973
2023-01-28 10:41:31.590687,-0.001403804913357585
2023-01-28 10:41:31.595687,0.0018030405044555165
2023-01-28 10:41:31.600687,0.0036781400028792887
2023-01-28 10:41:31.605687,0.004928310867398864
2023-01-28 10:41:31.610687,0.006230965951929941
2023-01-28 10:41:31.615687,0.007981459610164126
2023-01-28 10:41:31.620687,0.010139764732720465
2023-01-28 10:41:31.625687,0.012092391960322819
2023-01-28 10:41:31.630687,0.01272412173684674
2023-01-28 10:41:31.635687,0.010866324417293034
2023-01-28 10:41:31.640687,0.005849383760507237
2023-01-28 10:41:31.645687,-0.0022357702255249023
2023-01-28 10:41:31.650687,-0.012586401819368822
2023-01-28 10:41:31.655687,-0.023872256278991595
2023-01-28 10:41:31.660687,-0.03457920227299011
2023-01-28 10:41:31.665687,-0.04353741928935051
2023-01-28 10:41:31.670687,-0.0503257556461986
2023-01-28 10:41:31.675687,-0.055197082459926584
2023-01-28 10:41:31.680687,-0.058580041937920116
2023-01-28 10:41:31.685687,-0.06048600003123282
2023-01-28 10:41:31.690687,-0.06005665331323226
2023-01-28 10:41:31.695687,-0.05546152591705321
2023-01-28 10:41:31.700687,-0.04447048289523557
2023-01-28 10:41:31.705687,-0.0257955007255077
2023-01-28 10:41:31.710687,-0.000683050911074756
2023-01-28 10:41:31.715687,0.026132067665457705
2023-01-28 10:41:31.720687,0.04681386397989714
2023-01-28 10:41:31.725687,0.0523843392729759
2023-01-28 10:41:31.730687,0.03588756068688038
2023-01-28 10:41:31.735687,-0.004351337905973094
2023-01-28 10:41:31.740687,-0.06294297219115493
2023-01-28 10:41:31.745687,-0.12825629115104664
2023-01-28 10:41:31.750687,-0.1857564679465952
2023-01-28 10:41:31.755687,-0.22259137034416182
2023-01-28 10:41:31.760687,-0.2316341352432765
2023-01-28 10:41:31.765687,-0.21340787410736076
2023-01-28 10:41:31.770687,-0.17520267934656272
2023-01-28 10:41:31.775687,-0.12794375419616685
2023-01-28 10:41:31.780687,-0.08230987916446902
2023-01-28 10:41:31.785687,-0.04570106789469703
2023-01-28 10:41:31.790687,-0.021017414337982567
2023-01-28 10:41:31.795687,-0.007284283638000446
2023-01-28 10:41:31.800687,-0.0013509234314398998
2023-01-28 10:41:31.805687,0.0003846486506517029
2023-01-28 10:41:31.810687,0.0008500261096487236
2023-01-28 10:41:31.815687,0.001803040504455519
2023-01-28 10:41:31.820687,0.0038438394248947435
2023-01-28 10:41:31.825687,0.006851553916931133
2023-01-28 10:41:31.830687,0.010500542323090684
2023-01-28 10:41:31.835687,0.014400283806025834
2023-01-28 10:41:31.840687,0.01800513742113557
2023-01-28 10:41:31.845687,0.020891230553388467
2023-01-28 10:41:31.850687,0.023278069135926272
2023-01-28 10:41:31.855687,0.025891661643981868
2023-01-28 10:41:31.860687,0.029115114314334105
2023-01-28 10:41:31.865687,0.032719176262617077
2023-01-28 10:41:31.870687,0.03676481189020166
2023-01-28 10:41:31.875687,0.04228731244802464
2023-01-28 10:41:31.880687,0.05050408603778082
2023-01-28 10:41:31.885687,0.06163994595408422
2023-01-28 10:41:31.890687,0.07514149605777379
2023-01-28 10:41:31.895687,0.09077708423137654
2023-01-28 10:41:31.900687,0.10869946912807457
2023-01-28 10:41:31.905687,0.12837648391723624
2023-01-28 10:41:31.910687,0.14817507489382822
2023-01-28 10:41:31.915687,0.1661922633647917
2023-01-28 10:41:31.920687,0.1809744309023049
2023-01-28 10:41:31.925687,0.1913867443799971
2023-01-28 10:41:31.930687,0.19656630309252743
2023-01-28 10:41:31.935687,0.1964592933654784
2023-01-28 10:41:31.940687,0.19197376411345593
2023-01-28 10:41:31.945687,0.18422266840934737
2023-01-28 10:41:31.950687,0.17385627019662486
2023-01-28 10:41:31.955687,0.1612399071455001
2023-01-28 10:41:31.960687,0.14679232254411081
2023-01-28 10:41:31.965687,0.13085266947746277
2023-01-28 10:41:31.970687,0.11362559839992521
2023-01-28 10:41:31.975687,0.09560923278331747
2023-01-28 10:41:31.980687,0.07778795745909883
2023-01-28 10:41:31.985687,0.06111105531454081
2023-01-28 10:41:31.990687,0.04601446763110843
2023-01-28 10:41:31.995687,0.0326230153441429
2023-01-28 10:41:32.000687,0.021060230777688062
2023-01-28 10:41:32.005687,0.01129905413836245
2023-01-28 10:41:32.010687,0.003050662457501332
2023-01-28 10:41:32.015687,-0.0038705270271747736
2023-01-28 10:41:32.020687,-0.009292336621784263
2023-01-28 10:41:32.025687,-0.013005932793021209
2023-01-28 10:41:32.030687,-0.015052156740189037
2023-01-28 10:41:32.035687,-0.015458067879080701
2023-01-28 10:41:32.040687,-0.01400396703235792
2023-01-28 10:41:32.045687,-0.010553797706961543
2023-01-28 10:41:32.050687,-0.005398601039872369
2023-01-28 10:41:32.055687,0.0009375810623168258
2023-01-28 10:41:32.060687,0.007948838371630216
2023-01-28 10:41:32.065687,0.014977256767451692
2023-01-28 10:41:32.070687,0.021134687092817028
2023-01-28 10:41:32.075687,0.025771459564566578
2023-01-28 10:41:32.080687,0.028890643686602265
2023-01-28 10:41:32.085687,0.03091613575816151
2023-01-28 10:41:32.090687,0.03230145003084559
2023-01-28 10:41:32.095687,0.033560596406459794
2023-01-28 10:41:32.100687,0.035338310953297467
2023-01-28 10:41:32.105687,0.0380802154541015
2023-01-28 10:41:32.110687,0.04177219754897481
2023-01-28 10:41:32.115687,0.04618187993764864
2023-01-28 10:41:32.120687,0.05106725103443252
2023-01-28 10:41:32.125687,0.05587021633982649
2023-01-28 10:41:32.130687,0.0594593590724199
2023-01-28 10:41:32.135687,0.06051003932952881
2023-01-28 10:41:32.140687,0.05806407111152295
2023-01-28 10:41:32.145687,0.05168716236948958
2023-01-28 10:41:32.150687,0.04153314239130339
2023-01-28 10:41:32.155687,0.02863228321075429
2023-01-28 10:41:32.160687,0.014845826035885294
2023-01-28 10:41:32.165687,0.002091526985168381
2023-01-28 10:41:32.170687,-0.008437113931671054
2023-01-28 10:41:32.175687,-0.016323527321219385
2023-01-28 10:41:32.180687,-0.02161706712376224
2023-01-28 10:41:32.185687,-0.0246655941009521
2023-01-28 10:41:32.190687,-0.02573815675315966
2023-01-28 10:41:32.195687,-0.0242328643798828
2023-01-28 10:41:32.200687,-0.018362114397535097
2023-01-28 10:41:32.205687,-0.006082256790250502
2023-01-28 10:41:32.210687,0.013345141856879213
2023-01-28 10:41:32.215687,0.03817638009786602
2023-01-28 10:41:32.220687,0.06360895170714348
2023-01-28 10:41:32.225687,0.08197824656963339
2023-01-28 10:41:32.230687,0.08455110929893304
2023-01-28 10:41:32.235687,0.06498157978057863
2023-01-28 10:41:32.240687,0.022630297248051746
2023-01-28 10:41:32.245687,-0.036301217973232165
2023-01-28 10:41:32.250687,-0.10017437930074663
2023-01-28 10:41:32.255687,-0.15506148338317866
2023-01-28 10:41:32.260687,-0.18891492592284156
2023-01-28 10:41:32.265687,-0.195569798350334
2023-01-28 10:41:32.270687,-0.17653435240586832
2023-01-28 10:41:32.275687,-0.13948321342468253
2023-01-28 10:41:32.280687,-0.09477340725115083
2023-01-28 10:41:32.285687,-0.052119892090559006
2023-01-28 10:41:32.290687,-0.018285343185941223
2023-01-28 10:41:32.295687,0.004134973045438523
2023-01-28 10:41:32.300687,0.016359914619370607
2023-01-28 10:41:32.305687,0.021540325134992495
2023-01-28 10:41:32.310687,0.022812980775167947
2023-01-28 10:41:32.315687,0.02257406711578358
2023-01-28 10:41:32.320687,0.022482470409638116
2023-01-28 10:41:32.325687,0.02327124401926996
2023-01-28 10:41:32.330687,0.024734476772713794
2023-01-28 10:41:32.335687,0.026444595307111688
2023-01-28 10:41:32.340687,0.028417073358897534
2023-01-28 10:41:32.345687,0.030868053436279186
2023-01-28 10:41:32.350687,0.03375665928932192
2023-01-28 10:41:32.355687,0.037022434175014364
2023-01-28 10:41:32.360687,0.0409115199579222
2023-01-28 10:41:32.365687,0.04558086395263666
2023-01-28 10:41:32.370687,0.05072650297470966
2023-01-28 10:41:32.375687,0.05613466352224337
2023-01-28 10:41:32.380687,0.06232586945823565
2023-01-28 10:41:32.385687,0.07019837945699692
2023-01-28 10:41:32.390687,0.08036599951660225
2023-01-28 10:41:32.395687,0.09325325489044174
2023-01-28 10:41:32.400687,0.10927482506705628
2023-01-28 10:41:32.405687,0.1281601190567015
2023-01-28 10:41:32.410687,0.14837202529761137
2023-01-28 10:41:32.415687,0.16780297458171833
2023-01-28 10:41:32.420687,0.1847699718444938
2023-01-28 10:41:32.425687,0.19790172576904297
2023-01-28 10:41:32.430687,0.20574738980222818
2023-01-28 10:41:32.435687,0.20744583010673515
2023-01-28 10:41:32.440687,0.20345900670222195
2023-01-28 10:41:32.445687,0.19487261772155756
2023-01-28 10:41:32.450687,0.1823878221872838
2023-01-28 10:41:32.455687,0.1667692363262176
2023-01-28 10:41:32.460687,0.1496124068167115
2023-01-28 10:41:32.465687,0.1324633806943892
2023-01-28 10:41:32.470687,0.11556229867102794
2023-01-28 10:41:32.475687,0.09859025478363033
2023-01-28 10:41:32.480687,0.08213631533682944
2023-01-28 10:41:32.485687,0.06702502816915513
2023-01-28 10:41:32.490687,0.052733092753282675
2023-01-28 10:41:32.495687,0.0383446626365184
2023-01-28 10:41:32.500687,0.024877432773743956
2023-01-28 10:41:32.505687,0.01447240542620419
2023-01-28 10:41:32.510687,0.006951706761787411
2023-01-28 10:41:32.515687,-0.0005288919201119976
2023-01-28 10:41:32.520687,-0.009481194991628446
2023-01-28 10:41:32.525687,-0.017838081344962044
2023-01-28 10:41:32.530687,-0.02303907934699198
2023-01-28 10:41:32.535687,-0.025458931922912435
2023-01-28 10:41:32.540687,-0.02692907947725855
2023-01-28 10:41:32.545687,-0.027334094047546286
2023-01-28 10:41:32.550687,-0.024965441982626894
2023-01-28 10:41:32.555687,-0.01956900022923939
2023-01-28 10:41:32.560687,-0.012862121277089978
2023-01-28 10:41:32.565687,-0.006154378410428658
2023-01-28 10:41:32.570687,0.0006675344964385464
2023-01-28 10:41:32.575687,0.0076448917388916345
2023-01-28 10:41:32.580687,0.013918216200938536
2023-01-28 10:41:32.585687,0.018847784027457178
2023-01-28 10:41:32.590687,0.02268787953824605
2023-01-28 10:41:32.595687,0.02567529678344716
2023-01-28 10:41:32.600687,0.027503885056954003
2023-01-28 10:41:32.605687,0.028199553489685
2023-01-28 10:41:32.610687,0.028649889516003918
2023-01-28 10:41:32.615687,0.029762189835309857
2023-01-28 10:41:32.620687,0.031736988115821416
2023-01-28 10:41:32.625687,0.03449817746877667
2023-01-28 10:41:32.630687,0.03812230944998266
2023-01-28 10:41:32.635687,0.04238347336649891
2023-01-28 10:41:32.640687,0.0464047602527557
2023-01-28 10:41:32.645687,0.04916290566325178
2023-01-28 10:41:32.650687,0.04993266243382576
2023-01-28 10:41:32.655687,0.04800895974040026
2023-01-28 10:41:32.660687,0.04258512336224868
2023-01-28 10:41:32.665687,0.03341635316610328
2023-01-28 10:41:32.670687,0.021369830472190605
2023-01-28 10:41:32.675687,0.008053581230342274
2023-01-28 10:41:32.680687,-0.004875532034773935
2023-01-28 10:41:32.685687,-0.016010999679565447
2023-01-28 10:41:32.690687,-0.02442062225900804
2023-01-28 10:41:32.695687,-0.030050676316022745
2023-01-28 10:41:32.700687,-0.0336459403990956
2023-01-28 10:41:32.705687,-0.03582040593028062
2023-01-28 10:41:32.710687,-0.03612980492532639
2023-01-28 10:41:32.715687,-0.03303170204162591
2023-01-28 10:41:32.720687,-0.02456254304078726
2023-01-28 10:41:32.725687,-0.00927964877337213
2023-01-28 10:41:32.730687,0.012500409561544728
2023-01-28 10:41:32.735687,0.03743112087249752
2023-01-28 10:41:32.740687,0.0589147778248407
2023-01-28 10:41:32.745687,0.06868382543325417
2023-01-28 10:41:32.750687,0.05960470052397003
2023-01-28 10:41:32.755687,0.028488039970397887
2023-01-28 10:41:32.760687,-0.02199479516711855
2023-01-28 10:41:32.765687,-0.08303602784872048
2023-01-28 10:41:32.770687,-0.14172702389561045
2023-01-28 10:41:32.775687,-0.18506407737731928
2023-01-28 10:41:32.780687,-0.2041708145392331
2023-01-28 10:41:32.785687,-0.19681990146636957
2023-01-28 10:41:32.790687,-0.16751084495876634
2023-01-28 10:41:32.795687,-0.125443547964096
2023-01-28 10:41:32.800687,-0.08118856220366381
2023-01-28 10:41:32.805687,-0.04327297210693346
2023-01-28 10:41:32.810687,-0.0161165293774794
2023-01-28 10:41:32.815687,4.263256414560601e-17
2023-01-28 10:41:32.820687,0.00754049519321678
2023-01-28 10:41:32.825687,0.010000864975154285
2023-01-28 10:41:32.830687,0.010526643751617853
2023-01-28 10:41:32.835687,0.011082689277827644
2023-01-28 10:41:32.840687,0.012332216022242609
2023-01-28 10:41:32.845687,0.01413583755493166
2023-01-28 10:41:32.850687,0.016172355778383704
2023-01-28 10:41:32.855687,0.01824676990509029
2023-01-28 10:41:32.860687,0.02032714071724075
2023-01-28 10:41:32.865687,0.02252598665654652
2023-01-28 10:41:32.870687,0.025031302921434604
2023-01-28 10:41:32.875687,0.027959149330854343
2023-01-28 10:41:32.880687,0.031296311677886914
2023-01-28 10:41:32.885687,0.03505110740661616
2023-01-28 10:41:32.890687,0.03944405501193633
2023-01-28 10:41:32.895687,0.04493176937103259
2023-01-28 10:41:32.900687,0.05209342931570612
2023-01-28 10:41:32.905687,0.06149570271372786
2023-01-28 10:41:32.910687,0.07353522913321793
2023-01-28 10:41:32.915687,0.08825282752513877
2023-01-28 10:41:32.920687,0.10522410588386334
2023-01-28 10:41:32.925687,0.12359242141246787
2023-01-28 10:41:32.930687,0.14216583905357325
2023-01-28 10:41:32.935687,0.15950898826122276
2023-01-28 10:41:32.940687,0.17408326477285424
2023-01-28 10:41:32.945687,0.1844871044158935
2023-01-28 10:41:32.950687,0.1897342579798549
2023-01-28 10:41:32.955687,0.1894634962081908
2023-01-28 10:41:32.960687,0.18400926652483762
2023-01-28 10:41:32.965687,0.17429392039775832
2023-01-28 10:41:32.970687,0.16155173734190106
2023-01-28 10:41:32.975687,0.14698386192321763
2023-01-28 10:41:32.980687,0.13148493700634367
2023-01-28 10:41:32.985687,0.11553883552551251
2023-01-28 10:41:32.990687,0.09930978824239586
2023-01-28 10:41:32.995687,0.08286774158477778
2023-01-28 10:41:33.000687,0.06639513654235299
2023-01-28 10:41:33.005687,0.050244729965925196
2023-01-28 10:41:33.010687,0.03487263844662917
2023-01-28 10:41:33.015687,0.020746987313032112
2023-01-28 10:41:33.020687,0.008247132156789244
2023-01-28 10:41:33.025687,-0.0024521350860594896
2023-01-28 10:41:33.030687,-0.011401390254594725
2023-01-28 10:41:33.035687,-0.01872758194804185
2023-01-28 10:41:33.040687,-0.024475917463299177
2023-01-28 10:41:33.045687,-0.028632283210754218
2023-01-28 10:41:33.050687,-0.031237842299634166
2023-01-28 10:41:33.055687,-0.03240665048360813
2023-01-28 10:41:33.060687,-0.0322941354323116
2023-01-28 10:41:33.065687,-0.031132500618696175
2023-01-28 10:41:33.070687,-0.02920138021197432
2023-01-28 10:41:33.075687,-0.026612877845764073
2023-01-28 10:41:33.080687,-0.023168191671518117
2023-01-28 10:41:33.085687,-0.018559297546744243
2023-01-28 10:41:33.090687,-0.012692325616652143
2023-01-28 10:41:33.095687,-0.0057697296142577605
2023-01-28 10:41:33.100687,0.0017657805187893747
2023-01-28 10:41:33.105687,0.009183486923575372
2023-01-28 10:41:33.110687,0.015534212961863114
2023-01-28 10:41:33.115687,0.020097892731428122
2023-01-28 10:41:33.120687,0.022818280639618497
2023-01-28 10:41:33.125687,0.024208825081586824
2023-01-28 10:41:33.130687,0.02497441454233089
2023-01-28 10:41:33.135687,0.02586762234568595
2023-01-28 10:41:33.140687,0.027604280510300942
2023-01-28 10:41:33.145687,0.030459364876150974
2023-01-28 10:41:33.150687,0.03395623759441296
2023-01-28 10:41:33.155687,0.03721475601196277
2023-01-28 10:41:33.160687,0.039492241373040436
2023-01-28 10:41:33.165687,0.040147703140973975
2023-01-28 10:41:33.170687,0.03839166938525255
2023-01-28 10:41:33.175687,0.0336086750030517
2023-01-28 10:41:33.180687,0.02585773496169925
2023-01-28 10:41:33.185687,0.01569847390055652
2023-01-28 10:41:33.190687,0.0037836921904635308
2023-01-28 10:41:33.195687,-0.008895000442862464
2023-01-28 10:41:33.200687,-0.020751841556712468
2023-01-28 10:41:33.205687,-0.030435323715209902
2023-01-28 10:41:33.210687,-0.03783686820830833
2023-01-28 10:41:33.215687,-0.04360954090952868
2023-01-28 10:41:33.220687,-0.047900450295140805
2023-01-28 10:41:33.225687,-0.05026876926422106
2023-01-28 10:41:33.230687,-0.05027957433892664
2023-01-28 10:41:33.235687,-0.046806931495666504
2023-01-28 10:41:33.240687,-0.03713056418510097
2023-01-28 10:41:33.245687,-0.018871825188398323
2023-01-28 10:41:33.250687,0.006330800382417855
2023-01-28 10:41:33.255687,0.03240665048360817
2023-01-28 10:41:33.260687,0.05259868676259389
2023-01-28 10:41:33.265687,0.06200055405497547
2023-01-28 10:41:33.270687,0.055988742069783576
2023-01-28 10:41:33.275687,0.029353499412536562
2023-01-28 10:41:33.280687,-0.019465108899841158
2023-01-28 10:41:33.285687,-0.08334855735301969
2023-01-28 10:41:33.290687,-0.14783389887688872
2023-01-28 10:41:33.295687,-0.19804596900939933
2023-01-28 10:41:33.300687,-0.22423180002575038
2023-01-28 10:41:33.305687,-0.22295197844505302
2023-01-28 10:41:33.310687,-0.19685259054863058
2023-01-28 10:41:33.315687,-0.1544123888015746
2023-01-28 10:41:33.320687,-0.10738269344101109
2023-01-28 10:41:33.325687,-0.06587108224630348
2023-01-28 10:41:33.330687,-0.035057292296771986
2023-01-28 10:41:33.335687,-0.015698473900556488
2023-01-28 10:41:33.340687,-0.005989845203633877
2023-01-28 10:41:33.345687,-0.002524256706237755
2023-01-28 10:41:33.350687,-0.0013335728577714102
2023-01-28 10:41:33.355687,0.00024040541029523863
2023-01-28 10:41:33.360687,0.0026654740265176524
2023-01-28 10:41:33.365687,0.005385081283748088
2023-01-28 10:41:33.370687,0.008148285521464085
2023-01-28 10:41:33.375687,0.01093844603747112
2023-01-28 10:41:33.380687,0.013637256991904283
2023-01-28 10:41:33.385687,0.0165158510208129
2023-01-28 10:41:33.390687,0.020424663499734833
2023-01-28 10:41:33.395687,0.02584358118474479
2023-01-28 10:41:33.400687,0.03220011083627439
2023-01-28 10:41:33.405687,0.03858506679534908
2023-01-28 10:41:33.410687,0.04466888102930041
2023-01-28 10:41:33.415687,0.05060533806681628
2023-01-28 10:41:33.420687,0.05673936726636075
2023-01-28 10:41:33.425687,0.06394784152507783
2023-01-28 10:41:33.430687,0.07365901121319236
2023-01-28 10:41:33.435687,0.08683443069458
2023-01-28 10:41:33.440687,0.10313571974171037
2023-01-28 10:41:33.445687,0.1213326081633567
2023-01-28 10:41:33.450687,0.13999836206837563
2023-01-28 10:41:33.455687,0.15746554732322685
2023-01-28 10:41:33.460687,0.17178906084989132
2023-01-28 10:41:33.465687,0.181482046842575
2023-01-28 10:41:33.470687,0.1861024594027925
2023-01-28 10:41:33.475687,0.18583337962627405
2023-01-28 10:41:33.480687,0.18094760119079925
2023-01-28 10:41:33.485687,0.17205815017223342
2023-01-28 10:41:33.490687,0.16035989110705032
2023-01-28 10:41:33.495687,0.1470319479703902
2023-01-28 10:41:33.500687,0.13263335224763056
2023-01-28 10:41:33.505687,0.11738996207714077
2023-01-28 10:41:33.510687,0.10164258769691027
2023-01-28 10:41:33.515687,0.08560836315155021
2023-01-28 10:41:33.520687,0.06913454079871267
2023-01-28 10:41:33.525687,0.05219201371073724
2023-01-28 10:41:33.530687,0.035338229739549414
2023-01-28 10:41:33.535687,0.019328594207763672
2023-01-28 10:41:33.540687,0.004604824963517927
2023-01-28 10:41:33.545687,-0.00848631095141171
2023-01-28 10:41:33.550687,-0.019369820673450267
2023-01-28 10:41:33.555687,-0.027574500069022026
2023-01-28 10:41:33.560687,-0.03307609847442246
2023-01-28 10:41:33.565687,-0.035940609872341
2023-01-28 10:41:33.570687,-0.03597960972299864
2023-01-28 10:41:33.575687,-0.033175945281982346
2023-01-28 10:41:33.580687,-0.028157920538236916
2023-01-28 10:41:33.585687,-0.021876892074942512
2023-01-28 10:41:33.590687,-0.015092561466013512
2023-01-28 10:41:33.595687,-0.008462270721793095
2023-01-28 10:41:33.600687,-0.002707758299646264
2023-01-28 10:41:33.605687,0.0017790000420063094
2023-01-28 10:41:33.610687,0.005230726616054676
2023-01-28 10:41:33.615687,0.008029541000723846
2023-01-28 10:41:33.620687,0.010197957450603323
2023-01-28 10:41:33.625687,0.01165966223925344
2023-01-28 10:41:33.630687,0.012639336504189538
2023-01-28 10:41:33.635687,0.0134146213531494
2023-01-28 10:41:33.640687,0.013981229362551355
2023-01-28 10:41:33.645687,0.01432816218584774
2023-01-28 10:41:33.650687,0.014727383191874811
2023-01-28 10:41:33.655687,0.015385946258902506
2023-01-28 10:41:33.660687,0.016133575068446756
2023-01-28 10:41:33.665687,0.01682837866246698
2023-01-28 10:41:33.670687,0.01775640849688347
2023-01-28 10:41:33.675687,0.019256472587585356
2023-01-28 10:41:33.680687,0.021254627162879812
2023-01-28 10:41:33.685687,0.023511648178100454
2023-01-28 10:41:33.690687,0.025966280567586323
2023-01-28 10:41:33.695687,0.02841591835021966
2023-01-28 10:41:33.700687,0.030157988462217337
2023-01-28 10:41:33.705687,0.03033916279673568
2023-01-28 10:41:33.710687,0.028397428580741832
2023-01-28 10:41:33.715687,0.023896297439932795
2023-01-28 10:41:33.720687,0.016409488181541917
2023-01-28 10:41:33.725687,0.0061062974855302906
2023-01-28 10:41:33.730687,-0.005806894342489973
2023-01-28 10:41:33.735687,-0.017669796943664513
2023-01-28 10:41:33.740687,-0.028237515665971803
2023-01-28 10:41:33.745687,-0.03683010861277581
2023-01-28 10:41:33.750687,-0.043171469526371
2023-01-28 10:41:33.755687,-0.0475281476974487
2023-01-28 10:41:33.760687,-0.05048925555226509
2023-01-28 10:41:33.765687,-0.05187948793172832
2023-01-28 10:41:33.770687,-0.04996731288356015
2023-01-28 10:41:33.775687,-0.0421671085059642
2023-01-28 10:41:33.780687,-0.026581074431216524
2023-01-28 10:41:33.785687,-0.0031973919831215954
2023-01-28 10:41:33.790687,0.025198149436385098
2023-01-28 10:41:33.795687,0.05231221765279758
2023-01-28 10:41:33.800687,0.0691061630408946
2023-01-28 10:41:33.805687,0.06683270633220668
2023-01-28 10:41:33.810687,0.04076625036966245
2023-01-28 10:41:33.815687,-0.007596810813993182
2023-01-28 10:41:33.820687,-0.07034756525226317
2023-01-28 10:41:33.825687,-0.1346270292997359
2023-01-28 10:41:33.830687,-0.18604742920397907
2023-01-28 10:41:33.835687,-0.21357616782188407
2023-01-28 10:41:33.840687,-0.213274305892316
2023-01-28 10:41:33.845687,-0.18864612281322474
2023-01-28 10:41:33.850687,-0.1483157365050164
2023-01-28 10:41:33.855687,-0.10301371663808823
2023-01-28 10:41:33.860687,-0.06249203713224344
2023-01-28 10:41:33.865687,-0.03264705464243879
2023-01-28 10:41:33.870687,-0.01442994245424865
2023-01-28 10:41:33.875687,-0.005433162208646555
2023-01-28 10:41:33.880687,-0.0023096345565105595
2023-01-28 10:41:33.885687,-0.0018992027034983323
2023-01-28 10:41:33.890687,-0.0015717794595302005
2023-01-28 10:41:33.895687,-2.4040540665671034e-05
2023-01-28 10:41:33.900687,0.002354387254780191
2023-01-28 10:41:33.905687,0.004663865081965933
2023-01-28 10:41:33.910687,0.00678724791425319
2023-01-28 10:41:33.915687,0.009039243683218894
2023-01-28 10:41:33.920687,0.011343454149922327
2023-01-28 10:41:33.925687,0.013751189224421907
2023-01-28 10:41:33.930687,0.017145304173177316
2023-01-28 10:41:33.935687,0.022285580635070794
2023-01-28 10:41:33.940687,0.028629479437475656
2023-01-28 10:41:33.945687,0.03521939367055898
2023-01-28 10:41:33.950687,0.04220361302320541
2023-01-28 10:41:33.955687,0.050244729965925175
2023-01-28 10:41:33.960687,0.05910461322192473
2023-01-28 10:41:33.965687,0.06849150359630579
2023-01-28 10:41:33.970687,0.07979285819463268
2023-01-28 10:41:33.975687,0.0947918519377707
2023-01-28 10:41:33.980687,0.11253361679364213
2023-01-28 10:41:33.985687,0.12960255146026606
2023-01-28 10:41:33.990687,0.14404765382898577
2023-01-28 10:41:33.995687,0.15693664550781244
2023-01-28 10:41:34.000687,0.16906163620828865
2023-01-28 10:41:34.005687,0.17816445231437672
2023-01-28 10:41:34.010687,0.18112137462977596
2023-01-28 10:41:34.015687,0.1775634288787841
2023-01-28 10:41:34.020687,0.16963026704702594
2023-01-28 10:41:34.025687,0.15907625854015345
2023-01-28 10:41:34.030687,0.14638631286408493
2023-01-28 10:41:34.035687,0.13219892978668205
2023-01-28 10:41:34.040687,0.11771648167244185
2023-01-28 10:41:34.045687,0.10349452495574946
2023-01-28 10:41:34.050687,0.08907251630691049
2023-01-28 10:41:34.055687,0.07404486835002888
2023-01-28 10:41:34.060687,0.05859960878710005
2023-01-28 10:41:34.065687,0.04291236400604235
2023-01-28 10:41:34.070687,0.026937242092618906
2023-01-28 10:41:34.075687,0.011082689277827677
2023-01-28 10:41:34.080687,-0.0035642766977561184
2023-01-28 10:41:34.085687,-0.015938878059387204
2023-01-28 10:41:34.090687,-0.025485354337407548
2023-01-28 10:41:34.095687,-0.03192583844065656
2023-01-28 10:41:34.100687,-0.03513926274719261
2023-01-28 10:41:34.105687,-0.035459797829389544
2023-01-28 10:41:34.110687,-0.03364654821404647
2023-01-28 10:41:34.115687,-0.03033916279673569
2023-01-28 10:41:34.120687,-0.025800914596568924
2023-01-28 10:41:34.125687,-0.020242135971784463
2023-01-28 10:41:34.130687,-0.014069196205849692
2023-01-28 10:41:34.135687,-0.007741054054349561
2023-01-28 10:41:34.140687,-0.0016697914991274795
2023-01-28 10:41:34.145687,0.0036782026290893342
2023-01-28 10:41:34.150687,0.00787155781738031
2023-01-28 10:41:34.155687,0.01081824302673329
2023-01-28 10:41:34.160687,0.01280733624136368
2023-01-28 10:41:34.165687,0.014207959175109806
2023-01-28 10:41:34.170687,0.015268374634187608
2023-01-28 10:41:34.175687,0.016155242919921833
2023-01-28 10:41:34.180687,0.01694002766611149
2023-01-28 10:41:34.185687,0.01750151440501207
2023-01-28 10:41:34.190687,0.017628157626475155
2023-01-28 10:41:34.195687,0.017285149544477414
2023-01-28 10:41:34.200687,0.01670011151121878
2023-01-28 10:41:34.205687,0.016227364540100018
2023-01-28 10:41:34.210687,0.016258946067398836
2023-01-28 10:41:34.215687,0.017213027924299205
2023-01-28 10:41:34.220687,0.019401727451109685
2023-01-28 10:41:34.225687,0.02281447313725941
2023-01-28 10:41:34.230687,0.027036668657702535
2023-01-28 10:41:34.235687,0.03130078315734864
2023-01-28 10:41:34.240687,0.034531108500207325
2023-01-28 10:41:34.245687,0.03545979782938953
2023-01-28 10:41:34.250687,0.03296641819529887
2023-01-28 10:41:34.255687,0.026516716927289904
2023-01-28 10:41:34.260687,0.016431948262447812
2023-01-28 10:41:34.265687,0.0038945674896240044
2023-01-28 10:41:34.270687,-0.009303207818226696
2023-01-28 10:41:34.275687,-0.02129991911351677
2023-01-28 10:41:34.280687,-0.030850657717040826
2023-01-28 10:41:34.285687,-0.03774365037679669
2023-01-28 10:41:34.290687,-0.04265872986794792
2023-01-28 10:41:34.295687,-0.046590566635131794
2023-01-28 10:41:34.300687,-0.05011667169227486
2023-01-28 10:41:34.305687,-0.05272090435028066
2023-01-28 10:41:34.310687,-0.05248369756387344
2023-01-28 10:41:34.315687,-0.04654248803853978
2023-01-28 10:41:34.320687,-0.0323731320244157
2023-01-28 10:41:34.325687,-0.009399851784109993
2023-01-28 10:41:34.330687,0.019732416497690038
2023-01-28 10:41:34.335687,0.04877825826406463
2023-01-28 10:41:34.340687,0.06888421809229515
2023-01-28 10:41:34.345687,0.0711119174957274
2023-01-28 10:41:34.350687,0.04980255535188104
2023-01-28 10:41:34.355687,0.0053369998931884
2023-01-28 10:41:34.360687,-0.05503642022863098
2023-01-28 10:41:34.365687,-0.1188083514571189
2023-01-28 10:41:34.370687,-0.1718439424628422
2023-01-28 10:41:34.375687,-0.2028300464153288
2023-01-28 10:41:34.380687,-0.20675389119840784
2023-01-28 10:41:34.385687,-0.18592953681945792
2023-01-28 10:41:34.390687,-0.14836526109519715
2023-01-28 10:41:34.395687,-0.1045282706618309
2023-01-28 10:41:34.400687,-0.06392646010959763
2023-01-28 10:41:34.405687,-0.03264705464243878
2023-01-28 10:41:34.410687,-0.012564857341301073
2023-01-28 10:41:34.415687,-0.0022357702255249023
2023-01-28 10:41:34.420687,0.0013760784517072911
2023-01-28 10:41:34.425687,0.0014183919411152222
2023-01-28 10:41:34.430687,0.0003485385506587638
2023-01-28 10:41:34.435687,-0.000360608100891118
2023-01-28 10:41:34.440687,-0.000135819194077456
2023-01-28 10:41:34.445687,0.00110586488153776
2023-01-28 10:41:34.450687,0.0033498272196825474
2023-01-28 10:41:34.455687,0.00651498651131979
2023-01-28 10:41:34.460687,0.010312027627365784
2023-01-28 10:41:34.465687,0.014328162185847662
2023-01-28 10:41:34.470687,0.018264000396811066
2023-01-28 10:41:34.475687,0.0219970941543579
2023-01-28 10:41:34.480687,0.025554558155648346
2023-01-28 10:41:34.485687,0.029257338494062413
2023-01-28 10:41:34.490687,0.03384010777822407
2023-01-28 10:41:34.495687,0.04019578546285612
2023-01-28 10:41:34.500687,0.04895539502411114
2023-01-28 10:41:34.505687,0.06036579608917231
2023-01-28 10:41:34.510687,0.07438650927470082
2023-01-28 10:41:34.515687,0.09063284099102012
2023-01-28 10:41:34.520687,0.10826993436119452
2023-01-28 10:41:34.525687,0.12618879973888386
2023-01-28 10:41:34.530687,0.14327756121997784
2023-01-28 10:41:34.535687,0.15840312838554374
2023-01-28 10:41:34.540687,0.17030790943912935
2023-01-28 10:41:34.545687,0.17785191535949696
2023-01-28 10:41:34.550687,0.1803970462936323
2023-01-28 10:41:34.555687,0.1778519153594969
2023-01-28 10:41:34.560687,0.1705091918578164
2023-01-28 10:41:34.565687,0.15907625854015345
2023-01-28 10:41:34.570687,0.144698532367446
2023-01-28 10:41:34.575687,0.12859284877777089
2023-01-28 10:41:34.580687,0.1116278051176081
2023-01-28 10:41:34.585687,0.0943831652402876
2023-01-28 10:41:34.590687,0.07739377149040796
2023-01-28 10:41:34.595687,0.06101489067077631
2023-01-28 10:41:34.600687,0.04520578791222431
2023-01-28 10:41:34.605687,0.02981027029454706
2023-01-28 10:41:34.610687,0.014974933192240086
2023-01-28 10:41:34.615687,0.001033743261359594
2023-01-28 10:41:34.620687,-0.011779325962337509
2023-01-28 10:41:34.625687,-0.023078918457031163
2023-01-28 10:41:34.630687,-0.031997310671749636
2023-01-28 10:41:34.635687,-0.037647485733032185
2023-01-28 10:41:34.640687,-0.039861596089924727
2023-01-28 10:41:34.645687,-0.03904183954000463
2023-01-28 10:41:34.650687,-0.03550567234476855
2023-01-28 10:41:34.655687,-0.02966602705419052
2023-01-28 10:41:34.660687,-0.022759882399668432
2023-01-28 10:41:34.665687,-0.016491811722516993
2023-01-28 10:41:34.670687,-0.011632051196587815
2023-01-28 10:41:34.675687,-0.007596810813993173
2023-01-28 10:41:34.680687,-0.003712213041188633
2023-01-28 10:41:34.685687,-0.0002644459600559988
2023-01-28 10:41:34.690687,0.002094239094492889
2023-01-28 10:41:34.695687,0.0033656756859271864
2023-01-28 10:41:34.700687,0.00403656245987014
2023-01-28 10:41:34.705687,0.004279216285794897
2023-01-28 10:41:34.710687,0.003940532277105973
2023-01-28 10:41:34.715687,0.0031493108253926464
2023-01-28 10:41:34.720687,0.002394457839576361
2023-01-28 10:41:34.725687,0.002019405364990258
2023-01-28 10:41:34.730687,0.0019921323898713984
2023-01-28 10:41:34.735687,0.002115567680448251
2023-01-28 10:41:34.740687,0.0021504698275339016
2023-01-28 10:41:34.745687,0.0018030405044555404
2023-01-28 10:41:34.750687,0.0009486533922508033
2023-01-28 10:41:34.755687,-4.808108133134503e-05
2023-01-28 10:41:34.760687,-0.00040459220109364933
2023-01-28 10:41:34.765687,0.0006490945816040098
2023-01-28 10:41:34.770687,0.0035152327152726953
2023-01-28 10:41:34.775687,0.008053581230342303
2023-01-28 10:41:34.780687,0.01344421967117402
2023-01-28 10:41:34.785687,0.01822273060679429
2023-01-28 10:41:34.790687,0.020694220581896405
2023-01-28 10:41:34.795687,0.019520919770002337
2023-01-28 10:41:34.800687,0.014120673952839183
2023-01-28 10:41:34.805687,0.004832148551940889
2023-01-28 10:41:34.810687,-0.00707925855739371
2023-01-28 10:41:34.815687,-0.019713243469595937
2023-01-28 10:41:34.820687,-0.031175116333072503
2023-01-28 10:41:34.825687,-0.0402198247611522
2023-01-28 10:41:34.830687,-0.04652869182827237
2023-01-28 10:41:34.835687,-0.05060533806681629
2023-01-28 10:41:34.840687,-0.053389897521340886
2023-01-28 10:41:34.845687,-0.055581729859113596
2023-01-28 10:41:34.850687,-0.05686648159406057
2023-01-28 10:41:34.855687,-0.05558172985911362
2023-01-28 10:41:34.860687,-0.049197240509281766
2023-01-28 10:41:34.865687,-0.03548383712768547
2023-01-28 10:41:34.870687,-0.014003900971082306
2023-01-28 10:41:34.875687,0.012525121681392127
2023-01-28 10:41:34.880687,0.03773212501457284
2023-01-28 10:41:34.885687,0.05274494737386696
2023-01-28 10:41:34.890687,0.049004711126526594
2023-01-28 10:41:34.895687,0.02168456837534897
2023-01-28 10:41:34.900687,-0.027736548089112748
2023-01-28 10:41:34.905687,-0.0908732414245605
2023-01-28 10:41:34.910687,-0.15435525559239016
2023-01-28 10:41:34.915687,-0.20391187071800224
2023-01-28 10:41:34.920687,-0.2290566195607759
2023-01-28 10:41:34.925687,-0.2262695729732513
2023-01-28 10:41:34.930687,-0.19942141657927098
2023-01-28 10:41:34.935687,-0.15765786170959467
2023-01-28 10:41:34.940687,-0.11188038722324299
2023-01-28 10:41:34.945687,-0.07120808213949198
2023-01-28 10:41:34.950687,-0.040738615546266774
2023-01-28 10:41:34.955687,-0.021323960274457928
2023-01-28 10:41:34.960687,-0.01092507014639037
2023-01-28 10:41:34.965687,-0.00637074327096343
2023-01-28 10:41:34.970687,-0.00468119592843125
2023-01-28 10:41:34.975687,-0.003798405406996636
2023-01-28 10:41:34.980687,-0.0027532433407961698
2023-01-28 10:41:34.985687,-0.0013222297420725367
2023-01-28 10:41:34.990687,0.0004677222487229547
2023-01-28 10:41:34.995687,0.0025482974015175585
2023-01-28 10:41:35.000687,0.004783800324879759
2023-01-28 10:41:35.005687,0.00706791877746583
2023-01-28 10:41:35.010687,0.009522871515024097
2023-01-28 10:41:35.015687,0.012477040290832476
2023-01-28 10:41:35.020687,0.01624560900432706
2023-01-28 10:41:35.025687,0.021035473793744968
2023-01-28 10:41:35.030687,0.02698498669522246
2023-01-28 10:41:35.035687,0.03411352634429929
2023-01-28 10:41:35.040687,0.04228006884458568
2023-01-28 10:41:35.045687,0.05139867588877674
2023-01-28 10:41:35.050687,0.06169973494860177
2023-01-28 10:41:35.055687,0.07361213862895956
2023-01-28 10:41:35.060687,0.08736084206039257
2023-01-28 10:41:35.065687,0.10272523015737522
2023-01-28 10:41:35.070687,0.11902049551437763
2023-01-28 10:41:35.075687,0.13508379459381092
2023-01-28 10:41:35.080687,0.14937974986760327
2023-01-28 10:41:35.085687,0.16044656932353965
2023-01-28 10:41:35.090687,0.16738163525684274
2023-01-28 10:41:35.095687,0.16989450156688685
2023-01-28 10:41:35.100687,0.16806432039680075
2023-01-28 10:41:35.105687,0.16224960982799522
2023-01-28 10:41:35.110687,0.15309628337934073
2023-01-28 10:41:35.115687,0.14133433997631067
2023-01-28 10:41:35.120687,0.12754473530820176
2023-01-28 10:41:35.125687,0.11224528402090068
2023-01-28 10:41:35.130687,0.09605520956226606
2023-01-28 10:41:35.135687,0.07952611148357386
2023-01-28 10:41:35.140687,0.0628973812583492
2023-01-28 10:41:35.145687,0.046254001557826864
2023-01-28 10:41:35.150687,0.029853954955021227
2023-01-28 10:41:35.155687,0.014111797325313029
2023-01-28 10:41:35.160687,-0.0005878384720131062
2023-01-28 10:41:35.165687,-0.013799270614981558
2023-01-28 10:41:35.170687,-0.02487933837383495
2023-01-28 10:41:35.175687,-0.03324806690216057
2023-01-28 10:41:35.180687,-0.038723928862930516
2023-01-28 10:41:35.185687,-0.04139780998229982
2023-01-28 10:41:35.190687,-0.041356827051560165
2023-01-28 10:41:35.195687,-0.03882547467946997
2023-01-28 10:41:35.200687,-0.03440560346918142
2023-01-28 10:41:35.205687,-0.028824608772992987
2023-01-28 10:41:35.210687,-0.0225422239369072
2023-01-28 10:41:35.215687,-0.015866756439208943
2023-01-28 10:41:35.220687,-0.00924844742767119
2023-01-28 10:41:35.225687,-0.0031012296676634792
2023-01-28 10:41:35.230687,0.002476654051925948
2023-01-28 10:41:35.235687,0.007428526878356943
2023-01-28 10:41:35.240687,0.011385438952413644
2023-01-28 10:41:35.245687,0.013991594314575114
2023-01-28 10:41:35.250687,0.01538457763353846
2023-01-28 10:41:35.255687,0.015938878059387186
2023-01-28 10:41:35.260687,0.01577380918806882
2023-01-28 10:41:35.265687,0.0149772567674517
2023-01-28 10:41:35.270687,0.014020954143669507
2023-01-28 10:41:35.275687,0.013366540893912305
2023-01-28 10:41:35.280687,0.012904995229099474
2023-01-28 10:41:35.285687,0.012404918670654201
2023-01-28 10:41:35.290687,0.012241346616124749
2023-01-28 10:41:35.295687,0.012957851402461541
2023-01-28 10:41:35.300687,0.014365146103511963
2023-01-28 10:41:35.305687,0.01586675643920896
2023-01-28 10:41:35.310687,0.017328396401362987
2023-01-28 10:41:35.315687,0.018535256385803212
2023-01-28 10:41:35.320687,0.018031493633831292
2023-01-28 10:41:35.325687,0.01396755408495657
2023-01-28 10:41:35.330687,0.006389170671455399
2023-01-28 10:41:35.335687,-0.0026204190216957955
2023-01-28 10:41:35.340687,-0.011500445001638089
2023-01-28 10:41:35.345687,-0.020554661750793436
2023-01-28 10:41:35.350687,-0.03004920236040554
2023-01-28 10:41:35.355687,-0.03841678425669669
2023-01-28 10:41:35.360687,-0.04371392189481459
2023-01-28 10:41:35.365687,-0.04606167599558829
2023-01-28 10:41:35.370687,-0.047257365086563696
2023-01-28 10:41:35.375687,-0.04827340692281721
2023-01-28 10:41:35.380687,-0.048168561820757766
2023-01-28 10:41:35.385687,-0.04507601261138907
2023-01-28 10:41:35.390687,-0.037132437874377235
2023-01-28 10:41:35.395687,-0.022814473137259372
2023-01-28 10:41:35.400687,-0.0021171508075787577
2023-01-28 10:41:35.405687,0.021612446755170798
2023-01-28 10:41:35.410687,0.04141019874165382
2023-01-28 10:41:35.415687,0.04887441918253893
2023-01-28 10:41:35.420687,0.03725333885932676
2023-01-28 10:41:35.425687,0.003966689109802246
2023-01-28 10:41:35.430687,-0.047740419344532596
2023-01-28 10:41:35.435687,-0.10861515998840326
2023-01-28 10:41:35.440687,-0.1657081438018809
2023-01-28 10:41:35.445687,-0.2066524922847747
2023-01-28 10:41:35.450687,-0.22361044367451657
2023-01-28 10:41:35.455687,-0.2151147574186325
2023-01-28 10:41:35.460687,-0.18575435143372376
2023-01-28 10:41:35.465687,-0.14424324035644528
2023-01-28 10:41:35.470687,-0.1003371178173866
2023-01-28 10:41:35.475687,-0.061712067574262605
2023-01-28 10:41:35.480687,-0.032350457763397386
2023-01-28 10:41:35.485687,-0.012861689552664706
2023-01-28 10:41:35.490687,-0.0017364180199864307
2023-01-28 10:41:35.495687,0.0034377973061054425
2023-01-28 10:41:35.500687,0.004983719733574162
2023-01-28 10:41:35.505687,0.004495581146329594
2023-01-28 10:41:35.510687,0.002899132846509919
2023-01-28 10:41:35.515687,0.0010097026824950792
2023-01-28 10:41:35.520687,-0.00017851942817432586
2023-01-28 10:41:35.525687,0.00024040541029534285
2023-01-28 10:41:35.530687,0.0027329845847321363
2023-01-28 10:41:35.535687,0.007236202713102074
2023-01-28 10:41:35.540687,0.013178547892817817
2023-01-28 10:41:35.545687,0.019569000229239422
2023-01-28 10:41:35.550687,0.025371033585302474
2023-01-28 10:41:35.555687,0.03005067631602276
2023-01-28 10:41:35.560687,0.033834888363320825
2023-01-28 10:41:35.565687,0.037551324814557925
2023-01-28 10:41:35.570687,0.042358184200887126
2023-01-28 10:41:35.575687,0.049499474465846925
2023-01-28 10:41:35.580687,0.05994211780108752
2023-01-28 10:41:35.585687,0.07397274672985067
2023-01-28 10:41:35.590687,0.09105467032868142
2023-01-28 10:41:35.595687,0.10996143519878379
2023-01-28 10:41:35.600687,0.1289498625066688
2023-01-28 10:41:35.605687,0.1459741592407226
2023-01-28 10:41:35.610687,0.15911744175762238
2023-01-28 10:41:35.615687,0.16710579395294178
2023-01-28 10:41:35.620687,0.16955397637370254
2023-01-28 10:41:35.625687,0.16688942909240706
2023-01-28 10:41:35.630687,0.16015450792608837
2023-01-28 10:41:35.635687,0.15071015059947954
2023-01-28 10:41:35.640687,0.13977703075514755
2023-01-28 10:41:35.645687,0.12803992629051197
2023-01-28 10:41:35.650687,0.11562726125505052
2023-01-28 10:41:35.655687,0.10238866508007034
2023-01-28 10:41:35.660687,0.08815380414355214
2023-01-28 10:41:35.665687,0.07289092242717735
2023-01-28 10:41:35.670687,0.056845068893138034
2023-01-28 10:41:35.675687,0.040556393563747406
2023-01-28 10:41:35.680687,0.024651092575463694
2023-01-28 10:41:35.685687,0.009616216644644689
2023-01-28 10:41:35.690687,-0.004184093882491476
2023-01-28 10:41:35.695687,-0.016371607780456494
2023-01-28 10:41:35.700687,-0.026561719042638956
2023-01-28 10:41:35.705687,-0.03447413444519041
2023-01-28 10:41:35.710687,-0.03995839755400932
2023-01-28 10:41:35.715687,-0.04298448562622068
2023-01-28 10:41:35.720687,-0.043721565800086
2023-01-28 10:41:35.725687,-0.04257579892873753
2023-01-28 10:41:35.730687,-0.04003332034963108
2023-01-28 10:41:35.735687,-0.036469500511884585
2023-01-28 10:41:35.740687,-0.032149748674892516
2023-01-28 10:41:35.745687,-0.027334094047546283
2023-01-28 10:41:35.750687,-0.0222903894858767
2023-01-28 10:41:35.755687,-0.017261108383536304
2023-01-28 10:41:35.760687,-0.012491736763858933
2023-01-28 10:41:35.765687,-0.008221864700317293
2023-01-28 10:41:35.770687,-0.004557339270118962
2023-01-28 10:41:35.775687,-0.0013943513622506909
2023-01-28 10:41:35.780687,0.001473196126204288
2023-01-28 10:41:35.785687,0.00423113536089653
2023-01-28 10:41:35.790687,0.007060174336016852
2023-01-28 10:41:35.795687,0.010145108215510807
2023-01-28 10:41:35.800687,0.013551515463399178
2023-01-28 10:41:35.805687,0.017140906304120997
2023-01-28 10:41:35.810687,0.02066907417130545
2023-01-28 10:41:35.815687,0.023896297439932823
2023-01-28 10:41:35.820687,0.026542830914054117
2023-01-28 10:41:35.825687,0.028223594650626117
2023-01-28 10:41:35.830687,0.028499328634378766
2023-01-28 10:41:35.835687,0.0269254054874181
2023-01-28 10:41:35.840687,0.023032583159735522
2023-01-28 10:41:35.845687,0.01644372940063468
2023-01-28 10:41:35.850687,0.007212813906453358
2023-01-28 10:41:35.855687,-0.0039186081849038315
2023-01-28 10:41:35.860687,-0.015639977582146438
2023-01-28 10:41:35.865687,-0.02646863460540764
2023-01-28 10:41:35.870687,-0.0351907815478782
2023-01-28 10:41:35.875687,-0.04125356674194324
2023-01-28 10:41:35.880687,-0.044960367640441555
2023-01-28 10:41:35.885687,-0.04719158262014377
2023-01-28 10:41:35.890687,-0.048663852196297604
2023-01-28 10:41:35.895687,-0.0492109879851341
2023-01-28 10:41:35.900687,-0.047561390339839624
2023-01-28 10:41:35.905687,-0.04171033948659889
2023-01-28 10:41:35.910687,-0.029824121571883105
2023-01-28 10:41:35.915687,-0.011563500389456718
2023-01-28 10:41:35.920687,0.01066682559118299
2023-01-28 10:41:35.925687,0.03139694780111306
2023-01-28 10:41:35.930687,0.04321082326235251
2023-01-28 10:41:35.935687,0.03901779651641839
2023-01-28 10:41:35.940687,0.01470328720598871
2023-01-28 10:41:35.945687,-0.028728445991873644
2023-01-28 10:41:35.950687,-0.08447716262012209
2023-01-28 10:41:35.955687,-0.1414064615964889
2023-01-28 10:41:35.960687,-0.18731056933831025
2023-01-28 10:41:35.965687,-0.21263858675956715
2023-01-28 10:41:35.970687,-0.2132311791440937
2023-01-28 10:41:35.975687,-0.19124250113964075
2023-01-28 10:41:35.980687,-0.15400964965883318
2023-01-28 10:41:35.985687,-0.11123558133840558
2023-01-28 10:41:35.990687,-0.07167667326998484
2023-01-28 10:41:35.995687,-0.04084488004446018
2023-01-28 10:41:36.000687,-0.02042181719213545
2023-01-28 10:41:36.005687,-0.008991162292659186
2023-01-28 10:41:36.010687,-0.0034475333309131454
2023-01-28 10:41:36.015687,-0.0006490945816040465
2023-01-28 10:41:36.020687,0.0013119171800320259
2023-01-28 10:41:36.025687,0.002932945964857879
2023-01-28 10:41:36.030687,0.004095040221951261
2023-01-28 10:41:36.035687,0.0048081083223223305
2023-01-28 10:41:36.040687,0.005284094461692641
2023-01-28 10:41:36.045687,0.005769729614257803
2023-01-28 10:41:36.050687,0.006629101387673055
2023-01-28 10:41:36.055687,0.008390149101614848
2023-01-28 10:41:36.060687,0.011410580983398517
2023-01-28 10:41:36.065687,0.015554229728877506
2023-01-28 10:41:36.070687,0.020374648620487656
2023-01-28 10:41:36.075687,0.025555094704031906
2023-01-28 10:41:36.080687,0.031069582464089848
2023-01-28 10:41:36.085687,0.037094555795192635
2023-01-28 10:41:36.090687,0.04400373594002277
2023-01-28 10:41:36.095687,0.05238433927297588
2023-01-28 10:41:36.100687,0.06282226415522675
2023-01-28 10:41:36.105687,0.07558345794677723
2023-01-28 10:41:36.110687,0.09048192446330783
2023-01-28 10:41:36.115687,0.10688424110412588
2023-01-28 10:41:36.120687,0.12368061612289903
2023-01-28 10:41:36.125687,0.139363020658493
2023-01-28 10:41:36.130687,0.15238186241720325
2023-01-28 10:41:36.135687,0.16155242919921858
2023-01-28 10:41:36.140687,0.16619317279148663
2023-01-28 10:41:36.145687,0.16607205569744102
2023-01-28 10:41:36.150687,0.16139114525106804
2023-01-28 10:41:36.155687,0.15275359153747547
2023-01-28 10:41:36.160687,0.14097829645064702
2023-01-28 10:41:36.165687,0.12691001594066598
2023-01-28 10:41:36.170687,0.11140129239725705
2023-01-28 10:41:36.175687,0.09532074630260459
2023-01-28 10:41:36.180687,0.0794037832369745
2023-01-28 10:41:36.185687,0.06409208476543417
2023-01-28 10:41:36.190687,0.04956408960058418
2023-01-28 10:41:36.195687,0.035844445228576556
2023-01-28 10:41:36.200687,0.022821576333599415
2023-01-28 10:41:36.205687,0.010289351455867245
2023-01-28 10:41:36.210687,-0.0018485534989791314
2023-01-28 10:41:36.215687,-0.01339058112353076
2023-01-28 10:41:36.220687,-0.023886229717491565
2023-01-28 10:41:36.225687,-0.032815337181091295
2023-01-28 10:41:36.230687,-0.03969247120233388
2023-01-28 10:41:36.235687,-0.044138431549072175
2023-01-28 10:41:36.240687,-0.0460166769681484
2023-01-28 10:41:36.245687,-0.0455087423324583
2023-01-28 10:41:36.250687,-0.04300124798973273
2023-01-28 10:41:36.255687,-0.03892163559794417
2023-01-28 10:41:36.260687,-0.0336874881213926
2023-01-28 10:41:36.265687,-0.02769470214843753
2023-01-28 10:41:36.270687,-0.021248265831630798
2023-01-28 10:41:36.275687,-0.014544527046382375
2023-01-28 10:41:36.280687,-0.0077824925023139615
2023-01-28 10:41:36.285687,-0.001250108121894165
2023-01-28 10:41:36.290687,0.004731107798213358
2023-01-28 10:41:36.295687,0.009880661964416483
2023-01-28 10:41:36.300687,0.013967043961018725
2023-01-28 10:41:36.305687,0.01687645912170414
2023-01-28 10:41:36.310687,0.01877058344998527
2023-01-28 10:41:36.315687,0.02009789273142815
2023-01-28 10:41:36.320687,0.0213469136346134
2023-01-28 10:41:36.325687,0.022790431976318325
2023-01-28 10:41:36.330687,0.024439597946122004
2023-01-28 10:41:36.335687,0.026083987206220634
2023-01-28 10:41:36.340687,0.027266097318627548
2023-01-28 10:41:36.345687,0.027310054749250415
2023-01-28 10:41:36.350687,0.025519584912786233
2023-01-28 10:41:36.355687,0.021396081894636088
2023-01-28 10:41:36.360687,0.01474292276278944
2023-01-28 10:41:36.365687,0.005769729614257785
2023-01-28 10:41:36.370687,-0.004752413652582906
2023-01-28 10:41:36.375687,-0.015530189499258924
2023-01-28 10:41:36.380687,-0.025156221827868665
2023-01-28 10:41:36.385687,-0.03264705464243879
2023-01-28 10:41:36.390687,-0.03773908249296427
2023-01-28 10:41:36.395687,-0.04082083702087402
2023-01-28 10:41:36.400687,-0.04254384044131764
2023-01-28 10:41:36.405687,-0.043176811188459265
2023-01-28 10:41:36.410687,-0.04199352616992291
2023-01-28 10:41:36.415687,-0.03723879903554909
2023-01-28 10:41:36.420687,-0.026965253638712453
2023-01-28 10:41:36.425687,-0.010409554466605063
2023-01-28 10:41:36.430687,0.010750980737547919
2023-01-28 10:41:36.435687,0.031829677522182444
2023-01-28 10:41:36.440687,0.04569703753350223
2023-01-28 10:41:36.445687,0.04471540451049795
2023-01-28 10:41:36.450687,0.023603447900645665
2023-01-28 10:41:36.455687,-0.01798232458531848
2023-01-28 10:41:36.460687,-0.07440803221841392
2023-01-28 10:41:36.465687,-0.1350837945938109
2023-01-28 10:41:36.470687,-0.18726037079646615
2023-01-28 10:41:36.475687,-0.21977862715721114
2023-01-28 10:41:36.480687,-0.22649554680034623
2023-01-28 10:41:36.485687,-0.20797471702098827
2023-01-28 10:41:36.490687,-0.1707414274975786
2023-01-28 10:41:36.495687,-0.12465020269155493
2023-01-28 10:41:36.500687,-0.0796518118451521
2023-01-28 10:41:36.505687,-0.04310468956828103
2023-01-28 10:41:36.510687,-0.018334786726274907
2023-01-28 10:41:36.515687,-0.004760026931762601
2023-01-28 10:41:36.520687,0.0006826684739636922
2023-01-28 10:41:36.525687,0.0017068784218281306
2023-01-28 10:41:36.530687,0.0013643951843423175
2023-01-28 10:41:36.535687,0.001514554023742607
2023-01-28 10:41:36.540687,0.0028151183848140796
2023-01-28 10:41:36.545687,0.005024473182856975
2023-01-28 10:41:36.550687,0.007524995292944567
2023-01-28 10:41:36.555687,0.009808540344238177
2023-01-28 10:41:36.560687,0.01163619763919138
2023-01-28 10:41:36.565687,0.01295785140246149
2023-01-28 10:41:36.570687,0.013908513473862285
2023-01-28 10:41:36.575687,0.014905135147273455
2023-01-28 10:41:36.580687,0.016582986555024746
2023-01-28 10:41:36.585687,0.019544959068298264
2023-01-28 10:41:36.590687,0.024210325034770788
2023-01-28 10:41:36.595687,0.030868053436279193
2023-01-28 10:41:36.600687,0.03971089719287449
2023-01-28 10:41:36.605687,0.05074958130717264
2023-01-28 10:41:36.610687,0.06380216721119586
2023-01-28 10:41:36.615687,0.07861256599426253
2023-01-28 10:41:36.620687,0.09483670716000484
2023-01-28 10:41:36.625687,0.11181255429983125
2023-01-28 10:41:36.630687,0.12845229666514107
2023-01-28 10:41:36.635687,0.14347395300865165
2023-01-28 10:41:36.640687,0.15569193158420408
2023-01-28 10:41:36.645687,0.16410073637962336
2023-01-28 10:41:36.650687,0.16795586064328727
2023-01-28 10:41:36.655687,0.16703367233276353
2023-01-28 10:41:36.660687,0.16174044544870966
2023-01-28 10:41:36.665687,0.152801677584648
2023-01-28 10:41:36.670687,0.140941610906345
2023-01-28 10:41:36.675687,0.12698213756084425
2023-01-28 10:41:36.680687,0.11196719075528905
2023-01-28 10:41:36.685687,0.09678721427917482
2023-01-28 10:41:36.690687,0.08175951943944937
2023-01-28 10:41:36.695687,0.06690482795238487
2023-01-28 10:41:36.700687,0.05247660386486581
2023-01-28 10:41:36.705687,0.03875335305929175
2023-01-28 10:41:36.710687,0.02548571104671534
2023-01-28 10:41:36.715687,0.012308756820857473
2023-01-28 10:41:36.720687,-0.00018679405108253631
2023-01-28 10:41:36.725687,-0.010625919327139759
2023-01-28 10:41:36.730687,-0.01850456182899225
2023-01-28 10:41:36.735687,-0.024930041283368974
2023-01-28 10:41:36.740687,-0.031070656058078867
2023-01-28 10:41:36.745687,-0.036469500511884634
2023-01-28 10:41:36.750687,-0.03970575903609081
2023-01-28 10:41:36.755687,-0.04029194638133039
2023-01-28 10:41:36.760687,-0.03897120976777476
2023-01-28 10:41:36.765687,-0.036373339593410374
2023-01-28 10:41:36.770687,-0.03244904408683393
2023-01-28 10:41:36.775687,-0.027334094047546328
2023-01-28 10:41:36.780687,-0.021780854015724316
2023-01-28 10:41:36.785687,-0.016347568482160495
2023-01-28 10:41:36.790687,-0.01087318355425685
2023-01-28 10:41:36.795687,-0.005144675727933612
2023-01-28 10:41:36.800687,0.0004996074266115139
2023-01-28 10:41:36.805687,0.005601446144282801
2023-01-28 10:41:36.810687,0.010087740291380147
2023-01-28 10:41:36.815687,0.013967554084956594
2023-01-28 10:41:36.820687,0.017018130424739628
2023-01-28 10:41:36.825687,0.01920839212834835
2023-01-28 10:41:36.830687,0.02105331752757749
2023-01-28 10:41:36.835687,0.0231270007789134
2023-01-28 10:41:36.840687,0.025490775433494067
2023-01-28 10:41:36.845687,0.02786298654973501
2023-01-28 10:41:36.850687,0.029932261196184213
2023-01-28 10:41:36.855687,0.03110845945775505
2023-01-28 10:41:36.860687,0.030343776421564786
2023-01-28 10:41:36.865687,0.02673308178782458
2023-01-28 10:41:36.870687,0.02020986316551358
2023-01-28 10:41:36.875687,0.01144329737871881
2023-01-28 10:41:36.880687,0.0013617323245235012
2023-01-28 10:41:36.885687,-0.008943080902099587
2023-01-28 10:41:36.890687,-0.01827948268762163
2023-01-28 10:41:36.895687,-0.025915702804923006
2023-01-28 10:41:36.900687,-0.032012273862291774
2023-01-28 10:41:36.905687,-0.037142634391784515
2023-01-28 10:41:36.910687,-0.041402395272593935
2023-01-28 10:41:36.915687,-0.04404227063059802
2023-01-28 10:41:36.920687,-0.04356324592570062
2023-01-28 10:41:36.925687,-0.03788789361715315
2023-01-28 10:41:36.930687,-0.025062473630930865
2023-01-28 10:41:36.935687,-0.004880229942500478
2023-01-28 10:41:36.940687,0.01955576771610339
2023-01-28 10:41:36.945687,0.041734378784894964
2023-01-28 10:41:36.950687,0.053272437985169764
2023-01-28 10:41:36.955687,0.04637420177459711
2023-01-28 10:41:36.960687,0.01674168195507477
2023-01-28 10:41:36.965687,-0.03377696126699438
2023-01-28 10:41:36.970687,-0.09642091585937981
2023-01-28 10:41:36.975687,-0.15777806937694533
2023-01-28 10:41:36.980687,-0.20412030071990833
2023-01-28 10:41:36.985687,-0.22564451396465285
2023-01-28 10:41:36.990687,-0.21918561625939928
2023-01-28 10:41:36.995687,-0.18886248767375938
2023-01-28 10:41:37.000687,-0.1442965735420473
2023-01-28 10:41:37.005687,-0.09683530032634727
2023-01-28 10:41:37.010687,-0.055668885305059305
2023-01-28 10:41:37.015687,-0.025771459564566526
2023-01-28 10:41:37.020687,-0.007875812610411112
2023-01-28 10:41:37.025687,0.0004567702708300505
2023-01-28 10:41:37.030687,0.0032078177667607044
2023-01-28 10:41:37.035687,0.004014770500361901
2023-01-28 10:41:37.040687,0.004925268557354982
2023-01-28 10:41:37.045687,0.006490945816040013
2023-01-28 10:41:37.050687,0.00857663673579726
2023-01-28 10:41:37.055687,0.010842284187674479
2023-01-28 10:41:37.060687,0.01290016645337961
2023-01-28 10:41:37.065687,0.014640688896179057
2023-01-28 10:41:37.070687,0.01644190024059821
2023-01-28 10:41:37.075687,0.018775662407278956
2023-01-28 10:41:37.080687,0.021698920315567825
2023-01-28 10:41:37.085687,0.024978121742606125
2023-01-28 10:41:37.090687,0.028540115060228438
2023-01-28 10:41:37.095687,0.032526850700378404
2023-01-28 10:41:37.100687,0.037143136515961565
2023-01-28 10:41:37.105687,0.042840242385864175
2023-01-28 10:41:37.110687,0.05049579481664621
2023-01-28 10:41:37.115687,0.060990851372480295
2023-01-28 10:41:37.120687,0.07458514095624585
2023-01-28 10:41:37.125687,0.09084920585155479
2023-01-28 10:41:37.130687,0.10894995058033408
2023-01-28 10:41:37.135687,0.12767931818962083
2023-01-28 10:41:37.140687,0.14544938530361629
2023-01-28 10:41:37.145687,0.1607350558042525
2023-01-28 10:41:37.150687,0.1725368328304331
2023-01-28 10:41:37.155687,0.18023192882537825
2023-01-28 10:41:37.160687,0.18322535817881339
2023-01-28 10:41:37.165687,0.1811214387416838
2023-01-28 10:41:37.170687,0.17410207324648747
2023-01-28 10:41:37.175687,0.16282658278942092
2023-01-28 10:41:37.180687,0.14812153366696115
2023-01-28 10:41:37.185687,0.1310449838638304
2023-01-28 10:41:37.190687,0.1129680666033577
2023-01-28 10:41:37.195687,0.09510438144206997
2023-01-28 10:41:37.200687,0.07799444949182532
2023-01-28 10:41:37.205687,0.06171206757426262
2023-01-28 10:41:37.210687,0.046391470802347914
2023-01-28 10:41:37.215687,0.03226240724325185
2023-01-28 10:41:37.220687,0.01943987719793787
2023-01-28 10:41:37.225687,0.008101662620902006
2023-01-28 10:41:37.230687,-0.0013142206527279588
2023-01-28 10:41:37.235687,-0.008510351181030159
2023-01-28 10:41:37.240687,-0.013800673919628723
2023-01-28 10:41:37.245687,-0.017838081344962075
2023-01-28 10:41:37.250687,-0.021043081809293235
2023-01-28 10:41:37.255687,-0.023607810959219853
2023-01-28 10:41:37.260687,-0.02576104024349213
2023-01-28 10:41:37.265687,-0.027550458908081017
2023-01-28 10:41:37.270687,-0.02855431804276307
2023-01-28 10:41:37.275687,-0.028271675109863195
2023-01-28 10:41:37.280687,-0.026656498044829106
2023-01-28 10:41:37.285687,-0.023896297439932757
2023-01-28 10:41:37.290687,-0.01994434877555916
2023-01-28 10:41:37.295687,-0.014784932136535634
2023-01-28 10:41:37.300687,-0.008944270875837013
2023-01-28 10:41:37.305687,-0.0031973919831216227
2023-01-28 10:41:37.310687,0.0020601193293795176
2023-01-28 10:41:37.315687,0.006659229751676283
2023-01-28 10:41:37.320687,0.01019631691163238
2023-01-28 10:41:37.325687,0.012453000061213937
2023-01-28 10:41:37.330687,0.01410303917487647
2023-01-28 10:41:37.335687,0.016179284080862895
2023-01-28 10:41:37.340687,0.018828633392562338
2023-01-28 10:41:37.345687,0.02139608189463613
2023-01-28 10:41:37.350687,0.023823466788852006
2023-01-28 10:41:37.355687,0.027021568268537494
2023-01-28 10:41:37.360687,0.03139160821254832
2023-01-28 10:41:37.365687,0.03567616268992417
2023-01-28 10:41:37.370687,0.03788351263607107
2023-01-28 10:41:37.375687,0.03692626953125
2023-01-28 10:41:37.380687,0.03280482231104197
2023-01-28 10:41:37.385687,0.025627216324210108
2023-01-28 10:41:37.390687,0.015397681333220165
2023-01-28 10:41:37.395687,0.002981027122586919
2023-01-28 10:41:37.400687,-0.009424015341573595
2023-01-28 10:41:37.405687,-0.01947283744812015
2023-01-28 10:41:37.410687,-0.02640377734342072
2023-01-28 10:41:37.415687,-0.031276743859052616
2023-01-28 10:41:37.420687,-0.03540309292025303
2023-01-28 10:41:37.425687,-0.03877739235758776
2023-01-28 10:41:37.430687,-0.04008345392714301
2023-01-28 10:41:37.435687,-0.0376715287566184
2023-01-28 10:41:37.440687,-0.030010301871434268
2023-01-28 10:41:37.445687,-0.015746554359793587
2023-01-28 10:41:37.450687,0.005230635230722574
2023-01-28 10:41:37.455687,0.029858350753784093
2023-01-28 10:41:37.460687,0.05126455677434375
2023-01-28 10:41:37.465687,0.0607023648917675
2023-01-28 10:41:37.470687,0.05077388317733403
2023-01-28 10:41:37.475687,0.018150608986616124
2023-01-28 10:41:37.480687,-0.034640305014145015
2023-01-28 10:41:37.485687,-0.09863834083080286
2023-01-28 10:41:37.490687,-0.16026162707069871
2023-01-28 10:41:37.495687,-0.20571491122245772
2023-01-28 10:41:37.500687,-0.2257319438080874
2023-01-28 10:41:37.505687,-0.2180477082729338
2023-01-28 10:41:37.510687,-0.18719930502029467
2023-01-28 10:41:37.515687,-0.14260849356651292
2023-01-28 10:41:37.520687,-0.09541122518159564
2023-01-28 10:41:37.525687,-0.054692231118678915
2023-01-28 10:41:37.530687,-0.02499820124087744
2023-01-28 10:41:37.535687,-0.006490945816039949
2023-01-28 10:41:37.540687,0.003247697892596297
2023-01-28 10:41:37.545687,0.007572770118713331
2023-01-28 10:41:37.550687,0.009636686406180272
2023-01-28 10:41:37.555687,0.011371175758540597
2023-01-28 10:41:37.560687,0.013146252956110374
2023-01-28 10:41:37.565687,0.014616648666560587
2023-01-28 10:41:37.570687,0.015730659021082154
2023-01-28 10:41:37.575687,0.01673221588134762
2023-01-28 10:41:37.580687,0.01771525910023451
2023-01-28 10:41:37.585687,0.018775662407278994
2023-01-28 10:41:37.590687,0.020333112004035016
2023-01-28 10:41:37.595687,0.02279043197631824
2023-01-28 10:41:37.600687,0.026110643252987675
2023-01-28 10:41:37.605687,0.030170878395438094
2023-01-28 10:41:37.610687,0.03524412300204979
2023-01-28 10:41:37.615687,0.041686296463012563
2023-01-28 10:41:37.620687,0.049480866091043726
2023-01-28 10:41:37.625687,0.058586798608302966
2023-01-28 10:41:37.630687,0.06941237849717662
2023-01-28 10:41:37.635687,0.0824109762907028
2023-01-28 10:41:37.640687,0.09744695232459974
2023-01-28 10:41:37.645687,0.11395215988159169
2023-01-28 10:41:37.650687,0.13128050063174673
2023-01-28 10:41:37.655687,0.14835417270660395
2023-01-28 10:41:37.660687,0.1633495768862097
2023-01-28 10:41:37.665687,0.1744141280651091
2023-01-28 10:41:37.670687,0.18058062918562576
2023-01-28 10:41:37.675687,0.1816743612289427
2023-01-28 10:41:37.680687,0.17782988892242105
2023-01-28 10:41:37.685687,0.16967813670635215
2023-01-28 10:41:37.690687,0.15854519505093825
2023-01-28 10:41:37.695687,0.14570972323417652
2023-01-28 10:41:37.700687,0.13162516903415933
2023-01-28 10:41:37.705687,0.11630813777446738
2023-01-28 10:41:37.710687,0.10008096495283211
2023-01-28 10:41:37.715687,0.08339663594961158
2023-01-28 10:41:37.720687,0.06641049295386403
2023-01-28 10:41:37.725687,0.04940330982208255
2023-01-28 10:41:37.730687,0.03325167281153778
2023-01-28 10:41:37.735687,0.018823742866516054
2023-01-28 10:41:37.740687,0.0062432264613420845
2023-01-28 10:41:37.745687,-0.0046879053115844276
2023-01-28 10:41:37.750687,-0.01379479986250873
2023-01-28 10:41:37.755687,-0.02089123055338847
2023-01-28 10:41:37.760687,-0.026347952532974422
2023-01-28 10:41:37.765687,-0.030579566955566392
2023-01-28 10:41:37.770687,-0.033374516700786436
2023-01-28 10:41:37.775687,-0.034402012825012186
2023-01-28 10:41:37.780687,-0.03392543557971542
2023-01-28 10:41:37.785687,-0.03233452886343003
2023-01-28 10:41:37.790687,-0.029495706821750046
2023-01-28 10:41:37.795687,-0.02533872984349721
2023-01-28 10:41:37.800687,-0.020601616319001082
2023-01-28 10:41:37.805687,-0.0162033252418041
2023-01-28 10:41:37.810687,-0.012319284996165384
2023-01-28 10:41:37.815687,-0.00877479743212459
2023-01-28 10:41:37.820687,-0.00575704543578933
2023-01-28 10:41:37.825687,-0.0033175945281981923
2023-01-28 10:41:37.830687,-0.0007795754982503335
2023-01-28 10:41:37.835687,0.0024280946236102966
2023-01-28 10:41:37.840687,0.005845696852601818
2023-01-28 10:41:37.845687,0.008726716041564941
2023-01-28 10:41:37.850687,0.011122158499091985
2023-01-28 10:41:37.855687,0.013390581123530775
2023-01-28 10:41:37.860687,0.01535196969899878
2023-01-28 10:41:37.865687,0.016924541443586294
2023-01-28 10:41:37.870687,0.018904071937193807
2023-01-28 10:41:37.875687,0.022021135315298992
2023-01-28 10:41:37.880687,0.02582181263881479
2023-01-28 10:41:37.885687,0.029449662193655815
2023-01-28 10:41:37.890687,0.032739365253517345
2023-01-28 10:41:37.895687,0.0354117155075073
2023-01-28 10:41:37.900687,0.03604210088177474
2023-01-28 10:41:37.905687,0.03317594528198241
2023-01-28 10:41:37.910687,0.026838274339084506
2023-01-28 10:41:37.915687,0.017838081344962134
2023-01-28 10:41:37.920687,0.006550189060611322
2023-01-28 10:41:37.925687,-0.0062505407258867975
2023-01-28 10:41:37.930687,-0.01840745129607988
2023-01-28 10:41:37.935687,-0.027959149330854367
2023-01-28 10:41:37.940687,-0.03498690393828511
2023-01-28 10:41:37.945687,-0.040436189621686894
2023-01-28 10:41:37.950687,-0.04406252749109628
2023-01-28 10:41:37.955687,-0.04505197331309307
2023-01-28 10:41:37.960687,-0.043314407986089765
2023-01-28 10:41:37.965687,-0.03810425847768778
2023-01-28 10:41:37.970687,-0.02668393247889071
2023-01-28 10:41:37.975687,-0.007043878547847214
2023-01-28 10:41:37.980687,0.018462797935718023
2023-01-28 10:41:37.985687,0.04387398809194555
2023-01-28 10:41:37.990687,0.06253878014782217
2023-01-28 10:41:37.995687,0.06726543605327599
2023-01-28 10:41:38.000687,0.05042760130181723
2023-01-28 10:41:38.005687,0.008967122063040733
2023-01-28 10:41:38.010687,-0.05049609677910307
2023-01-28 10:41:38.015687,-0.11462529748678192
2023-01-28 10:41:38.020687,-0.17079701128905142
2023-01-28 10:41:38.025687,-0.20908057689666726
2023-01-28 10:41:38.030687,-0.22063028372918755
2023-01-28 10:41:38.035687,-0.20215690135955802
2023-01-28 10:41:38.040687,-0.16294673595115247
2023-01-28 10:41:38.045687,-0.12027482688426967
2023-01-28 10:41:38.050687,-0.08462660663570011
2023-01-28 10:41:38.055687,-0.05428354069590559
2023-01-28 10:41:38.060687,-0.02624204971906797
2023-01-28 10:41:38.065687,-0.005240838043391668
2023-01-28 10:41:38.070687,0.0031301991187764598
2023-01-28 10:41:38.075687,0.0025002162437884968
2023-01-28 10:41:38.080687,0.0018223425350900892
2023-01-28 10:41:38.085687,0.004279216285794895
2023-01-28 10:41:38.090687,0.006482489523076092
2023-01-28 10:41:38.095687,0.006851553916931119
2023-01-28 10:41:38.100687,0.008122469810424741
2023-01-28 10:41:38.105687,0.01163562200963489
2023-01-28 10:41:38.110687,0.015029578394252383
2023-01-28 10:41:38.115687,0.016756257042288687
2023-01-28 10:41:38.120687,0.018364112112474993
2023-01-28 10:41:38.125687,0.02103547379374503
2023-01-28 10:41:38.130687,0.023681822431948944
2023-01-28 10:41:38.135687,0.025891661643981913
2023-01-28 10:41:38.140687,0.029572060705206817
2023-01-28 10:41:38.145687,0.0362050533294676
2023-01-28 10:41:38.150687,0.045067513712233644
2023-01-28 10:41:38.155687,0.05538940429687493
2023-01-28 10:41:38.160687,0.06787583883967228
2023-01-28 10:41:38.165687,0.08284370601177204
2023-01-28 10:41:38.170687,0.098936600749591
2023-01-28 10:41:38.175687,0.11486570537090297
2023-01-28 10:41:38.180687,0.13059622416275182
2023-01-28 10:41:38.185687,0.1457577943801878
2023-01-28 10:41:38.190687,0.15859740304724926
2023-01-28 10:41:38.195687,0.16758660972118367
2023-01-28 10:41:38.200687,0.172636546665482
2023-01-28 10:41:38.205687,0.17388522624969482
2023-01-28 10:41:38.210687,0.1707780140260836
2023-01-28 10:41:38.215687,0.16328334808349595
2023-01-28 10:41:38.220687,0.15270439052781395
2023-01-28 10:41:38.225687,0.14037272334098808
2023-01-28 10:41:38.230687,0.12662027339070997
2023-01-28 10:41:38.235687,0.11169235408306122
2023-01-28 10:41:38.240687,0.09644103921498111
2023-01-28 10:41:38.245687,0.08132915198802945
2023-01-28 10:41:38.250687,0.06584071382935004
2023-01-28 10:41:38.255687,0.04966775700449941
2023-01-28 10:41:38.260687,0.033579929665886486
2023-01-28 10:41:38.265687,0.018511217087507248
2023-01-28 10:41:38.270687,0.0047180967889541275
2023-01-28 10:41:38.275687,-0.007596810813993178
2023-01-28 10:41:38.280687,-0.017806960523454457
2023-01-28 10:41:38.285687,-0.025651257485151187
2023-01-28 10:41:38.290687,-0.031636992885172965
2023-01-28 10:41:38.295687,-0.03603677079081527
2023-01-28 10:41:38.300687,-0.038242175849993565
2023-01-28 10:41:38.305687,-0.0376474857330322
2023-01-28 10:41:38.310687,-0.03446196826113579
2023-01-28 10:41:38.315687,-0.029233297333121157
2023-01-28 10:41:38.320687,-0.02239085842632449
2023-01-28 10:41:38.325687,-0.014760891906917014
2023-01-28 10:41:38.330687,-0.0077327226429211105
2023-01-28 10:41:38.335687,-0.002283851383253887
2023-01-28 10:41:38.340687,0.0016423175774601339
2023-01-28 10:41:38.345687,0.004447500221431179
2023-01-28 10:41:38.350687,0.00624032734804283
2023-01-28 10:41:38.355687,0.007236202713102112
2023-01-28 10:41:38.360687,0.008031531401376394
2023-01-28 10:41:38.365687,0.008943080902099632
2023-01-28 10:41:38.370687,0.009611578916697719
2023-01-28 10:41:38.375687,0.009664297103881789
2023-01-28 10:41:38.380687,0.009255294927058304
2023-01-28 10:41:38.385687,0.008654594421386668
2023-01-28 10:41:38.390687,0.007924940990646145
2023-01-28 10:41:38.395687,0.007380445953458467
2023-01-28 10:41:38.400687,0.007775201004472124
2023-01-28 10:41:38.405687,0.00959217548370356
2023-01-28 10:41:38.410687,0.012561933232571102
2023-01-28 10:41:38.415687,0.016155242919921785
2023-01-28 10:41:38.420687,0.020048384158213035
2023-01-28 10:41:38.425687,0.023824175819754656
2023-01-28 10:41:38.430687,0.026749479774223553
2023-01-28 10:41:38.435687,0.028199553489685013
2023-01-28 10:41:38.440687,0.027879276631953206
2023-01-28 10:41:38.445687,0.02538681030273427
2023-01-28 10:41:38.450687,0.02008428818959598
2023-01-28 10:41:38.455687,0.01177986524999136
2023-01-28 10:41:38.460687,0.0012050979936369685
2023-01-28 10:41:38.465687,-0.01040955446660513
2023-01-28 10:41:38.470687,-0.02189210957262393
2023-01-28 10:41:38.475687,-0.03219028562307356
2023-01-28 10:41:38.480687,-0.04047181633278772
2023-01-28 10:41:38.485687,-0.04651844501495356
2023-01-28 10:41:38.490687,-0.05062376005648353
2023-01-28 10:41:38.495687,-0.05272090435028071
2023-01-28 10:41:38.500687,-0.051745114589480654
2023-01-28 10:41:38.505687,-0.045941472053527686
2023-01-28 10:41:38.510687,-0.03364818650438397
2023-01-28 10:41:38.515687,-0.014159878715872697
2023-01-28 10:41:38.520687,0.011078677716646107
2023-01-28 10:41:38.525687,0.03733495995402327
2023-01-28 10:41:38.530687,0.05683104225354067
2023-01-28 10:41:38.535687,0.06091872975230213
2023-01-28 10:41:38.540687,0.043170869833482034
2023-01-28 10:41:38.545687,0.002091526985168419
2023-01-28 10:41:38.550687,-0.05730669257317897
2023-01-28 10:41:38.555687,-0.12385686486959449
2023-01-28 10:41:38.560687,-0.18316184472599656
2023-01-28 10:41:38.565687,-0.2222307622432707
2023-01-28 10:41:38.570687,-0.23359138988395506
2023-01-28 10:41:38.575687,-0.21715819835662833
2023-01-28 10:41:38.580687,-0.17959425081035293
2023-01-28 10:41:38.585687,-0.13164600729942313
2023-01-28 10:41:38.590687,-0.08433994729521621
2023-01-28 10:41:38.595687,-0.04562894627451886
2023-01-28 10:41:38.600687,-0.018970775763017398
2023-01-28 10:41:38.605687,-0.003894567489623983
2023-01-28 10:41:38.610687,0.002490481304261275
2023-01-28 10:41:38.615687,0.0038464865647256327
2023-01-28 10:41:38.620687,0.0032289410728420192
2023-01-28 10:41:38.625687,0.0025002162437885145
2023-01-28 10:41:38.630687,0.002626771331273602
2023-01-28 10:41:38.635687,0.0040868921205400284
2023-01-28 10:41:38.640687,0.0068766932280426825
2023-01-28 10:41:38.645687,0.010601878166198673
2023-01-28 10:41:38.650687,0.014891612386829251
2023-01-28 10:41:38.655687,0.019448798149824094
2023-01-28 10:41:38.660687,0.023687970573801
2023-01-28 10:41:38.665687,0.027021568268537435
2023-01-28 10:41:38.670687,0.029733468521746846
2023-01-28 10:41:38.675687,0.03281533718109128
2023-01-28 10:41:38.680687,0.03675835752288572
2023-01-28 10:41:38.685687,0.04159013554453845
2023-01-28 10:41:38.690687,0.04834410889825041
2023-01-28 10:41:38.695687,0.05873104184865949
2023-01-28 10:41:38.700687,0.07236169931488624
2023-01-28 10:41:38.705687,0.08625745773315416
2023-01-28 10:41:38.710687,0.09897205535403979
2023-01-28 10:41:38.715687,0.11330306529998768
2023-01-28 10:41:38.720687,0.13192998405876005
2023-01-28 10:41:38.725687,0.1514794528484344
2023-01-28 10:41:38.730687,0.16473860386525788
2023-01-28 10:41:38.735687,0.16902904212474823
2023-01-28 10:41:38.740687,0.16864937949979678
2023-01-28 10:41:38.745687,0.16777893900871269
2023-01-28 10:41:38.750687,0.1646981265431695
2023-01-28 10:41:38.755687,0.15573462843894942
2023-01-28 10:41:38.760687,0.14209290950198983
2023-01-28 10:41:38.765687,0.12890538573265065
2023-01-28 10:41:38.770687,0.11849290708124244
2023-01-28 10:41:38.775687,0.10813435167074194
2023-01-28 10:41:38.780687,0.09469940229259312
2023-01-28 10:41:38.785687,0.07851640880107866
2023-01-28 10:41:38.790687,0.06174386319345164
2023-01-28 10:41:38.795687,0.04529237747192377
2023-01-28 10:41:38.800687,0.028943448013340346
2023-01-28 10:41:38.805687,0.013174216262996141
2023-01-28 10:41:38.810687,-0.0007336959669100503
2023-01-28 10:41:38.815687,-0.011948148719966398
2023-01-28 10:41:38.820687,-0.020386244763503418
2023-01-28 10:41:38.825687,-0.025987824425101176
2023-01-28 10:41:38.830687,-0.028490567117630507
2023-01-28 10:41:38.835687,-0.027911067008972043
2023-01-28 10:41:38.840687,-0.024751113738380216
2023-01-28 10:41:38.845687,-0.019713243469595854
2023-01-28 10:41:38.850687,-0.01350931690833615
2023-01-28 10:41:38.855687,-0.006899635307490775
2023-01-28 10:41:38.860687,-0.0006234037630162609
2023-01-28 10:41:38.865687,0.004808108322322304
2023-01-28 10:41:38.870687,0.009190756435136394
2023-01-28 10:41:38.875687,0.01252512168139206
2023-01-28 10:41:38.880687,0.014876023362830025
2023-01-28 10:41:38.885687,0.016275446861982294
2023-01-28 10:41:38.890687,0.016708031664963513
2023-01-28 10:41:38.895687,0.016203325241804074
2023-01-28 10:41:38.900687,0.01493791695281988
2023-01-28 10:41:38.905687,0.013222297653555813
2023-01-28 10:41:38.910687,0.011405486199353328
2023-01-28 10:41:38.915687,0.009784500114619734
2023-01-28 10:41:38.920687,0.008506378882381541
2023-01-28 10:41:38.925687,0.007500648498535106
2023-01-28 10:41:38.930687,0.006599285270256208
2023-01-28 10:41:38.935687,0.005817811004817415
2023-01-28 10:41:38.940687,0.005494019518871233
2023-01-28 10:41:38.945687,0.006130337715148914
2023-01-28 10:41:38.950687,0.008148069439513704
2023-01-28 10:41:38.955687,0.011731783859431648
2023-01-28 10:41:38.960687,0.01668575054363355
2023-01-28 10:41:38.965687,0.022309621796011887
2023-01-28 10:41:38.970687,0.027511275572736752
2023-01-28 10:41:38.975687,0.0311565399169921
2023-01-28 10:41:38.980687,0.03232781698388135
2023-01-28 10:41:38.985687,0.030363202095031717
2023-01-28 10:41:38.990687,0.02493144255684217
2023-01-28 10:41:38.995687,0.01625140570104118
2023-01-28 10:41:39.000687,0.005186037588055872
2023-01-28 10:41:39.005687,-0.006947716232389197
2023-01-28 10:41:39.010687,-0.018664663650607746
2023-01-28 10:41:39.015687,-0.02858420275151717
2023-01-28 10:41:39.020687,-0.035806110347863455
2023-01-28 10:41:39.025687,-0.04026790708303449
2023-01-28 10:41:39.030687,-0.042658095142506285
2023-01-28 10:41:39.035687,-0.04377782344818097
2023-01-28 10:41:39.040687,-0.04378864232206741
2023-01-28 10:41:39.045687,-0.04178246110677706
2023-01-28 10:41:39.050687,-0.03581188110585987
2023-01-28 10:41:39.055687,-0.0235356893390417
2023-01-28 10:41:39.060687,-0.0036234622299619822
2023-01-28 10:41:39.065687,0.022525986656546506
2023-01-28 10:41:39.070687,0.0498056065013378
2023-01-28 10:41:39.075687,0.0699820145964622
2023-01-28 10:41:39.080687,0.07386509163967171
2023-01-28 10:41:39.085687,0.0544999055564403
2023-01-28 10:41:39.090687,0.010395106264887663
2023-01-28 10:41:39.095687,-0.05264878273010246
2023-01-28 10:41:39.100687,-0.12238728427236224
2023-01-28 10:41:39.105687,-0.18366973102092726
2023-01-28 10:41:39.110687,-0.22320824232596517
2023-01-28 10:41:39.115687,-0.23365001380443556
2023-01-28 10:41:39.120687,-0.21552510420813345
2023-01-28 10:41:39.125687,-0.17643353343009927
2023-01-28 10:41:39.130687,-0.1278278379580684
2023-01-28 10:41:39.135687,-0.0808723792433738
2023-01-28 10:41:39.140687,-0.043268146377373945
2023-01-28 10:41:39.145687,-0.018078487366437967
2023-01-28 10:41:39.150687,-0.004336320228813728
2023-01-28 10:41:39.155687,0.001346270320937009
2023-01-28 10:41:39.160687,0.0029160917908853225
2023-01-28 10:41:39.165687,0.0034618377685546307
2023-01-28 10:41:39.170687,0.004702320605853202
2023-01-28 10:41:39.175687,0.007212162017822218
2023-01-28 10:41:39.180687,0.010815753061807347
2023-01-28 10:41:39.185687,0.014881094917654849
2023-01-28 10:41:39.190687,0.01864099964564819
2023-01-28 10:41:39.195687,0.021540325134992468
2023-01-28 10:41:39.200687,0.02339337580209993
2023-01-28 10:41:39.205687,0.024353068321943158
2023-01-28 10:41:39.210687,0.024905780184932894
2023-01-28 10:41:39.215687,0.025867622345685893
2023-01-28 10:41:39.220687,0.028167433310641588
2023-01-28 10:41:39.225687,0.0325028114020824
2023-01-28 10:41:39.230687,0.03920392644718961
2023-01-28 10:41:39.235687,0.04834552854299538
2023-01-28 10:41:39.240687,0.059835504098439955
2023-01-28 10:41:39.245687,0.0733957737684249
2023-01-28 10:41:39.250687,0.0885851263978603
2023-01-28 10:41:39.255687,0.10484080016612993
2023-01-28 10:41:39.260687,0.12138008311201444
2023-01-28 10:41:39.265687,0.13707916438579545
2023-01-28 10:41:39.270687,0.15061565456684328
2023-01-28 10:41:39.275687,0.16083121299743647
2023-01-28 10:41:39.280687,0.16699071683848193
2023-01-28 10:41:39.285687,0.1688367128372191
2023-01-28 10:41:39.290687,0.16658444081018262
2023-01-28 10:41:39.295687,0.16085526347160328
2023-01-28 10:41:39.300687,0.15243424798062
2023-01-28 10:41:39.305687,0.14198343455791465
2023-01-28 10:41:39.310687,0.12996603415000924
2023-01-28 10:41:39.315687,0.11674086749553682
2023-01-28 10:41:39.320687,0.10259572127953834
2023-01-28 10:41:39.325687,0.08772393316030506
2023-01-28 10:41:39.330687,0.07230395376701619
2023-01-28 10:41:39.335687,0.05661547183990467
2023-01-28 10:41:39.340687,0.041013599569616546
2023-01-28 10:41:39.345687,0.025843581184744783
2023-01-28 10:41:39.350687,0.011491369398529057
2023-01-28 10:41:39.355687,-0.0015145540237425763
2023-01-28 10:41:39.360687,-0.012564366650715824
2023-01-28 10:41:39.365687,-0.021131634712219228
2023-01-28 10:41:39.370687,-0.026840429565625684
2023-01-28 10:41:39.375687,-0.02947370335459694
2023-01-28 10:41:39.380687,-0.029072282968593918
2023-01-28 10:41:39.385687,-0.026035904884338313
2023-01-28 10:41:39.390687,-0.02105214692816237
2023-01-28 10:41:39.395687,-0.014929175376891967
2023-01-28 10:41:39.400687,-0.008497096647061733
2023-01-28 10:41:39.405687,-0.0025242567062376932
2023-01-28 10:41:39.410687,0.002442726472256415
2023-01-28 10:41:39.415687,0.006178419105708549
2023-01-28 10:41:39.420687,0.008693897794442875
2023-01-28 10:41:39.425687,0.010121067985892199
2023-01-28 10:41:39.430687,0.01070627372514811
2023-01-28 10:41:39.435687,0.01077016256749614
2023-01-28 10:41:39.440687,0.010539210235544709
2023-01-28 10:41:39.445687,0.01007298659533259
2023-01-28 10:41:39.450687,0.009422989512347288
2023-01-28 10:41:39.455687,0.008750757202506001
2023-01-28 10:41:39.460687,0.00819315942171643
2023-01-28 10:41:39.465687,0.007741054054349611
2023-01-28 10:41:39.470687,0.0074028138358272055
2023-01-28 10:41:39.475687,0.007404486648738261
2023-01-28 10:41:39.480687,0.008074713051336318
2023-01-28 10:41:39.485687,0.00956813525408495
2023-01-28 10:41:39.490687,0.011789276416800854
2023-01-28 10:41:39.495687,0.014472405426204185
2023-01-28 10:41:39.500687,0.01714900082301002
2023-01-28 10:41:39.505687,0.019064148887991884
2023-01-28 10:41:39.510687,0.01930893044115625
2023-01-28 10:41:39.515687,0.01714090630412106
2023-01-28 10:41:39.520687,0.012231701095682751
2023-01-28 10:41:39.525687,0.004760026931762657
2023-01-28 10:41:39.530687,-0.004577565960307597
2023-01-28 10:41:39.535687,-0.014688770286738788
2023-01-28 10:41:39.540687,-0.024411176144010543
2023-01-28 10:41:39.545687,-0.0328874588012695
2023-01-28 10:41:39.550687,-0.03976096276240622
2023-01-28 10:41:39.555687,-0.04514813423156725
2023-01-28 10:41:39.560687,-0.04943035774006776
2023-01-28 10:41:39.565687,-0.052841108292341114
2023-01-28 10:41:39.570687,-0.054935886353397786
2023-01-28 10:41:39.575687,-0.05428354069590559
2023-01-28 10:41:39.580687,-0.04871384651104445
2023-01-28 10:41:39.585687,-0.036181014031171646
2023-01-28 10:41:39.590687,-0.016057695566664157
2023-01-28 10:41:39.595687,0.009544095024466591
2023-01-28 10:41:39.600687,0.03512027049247133
2023-01-28 10:41:39.605687,0.052504539489746024
2023-01-28 10:41:39.610687,0.053111817525180675
2023-01-28 10:41:39.615687,0.031012296676635742
2023-01-28 10:41:39.620687,-0.014301320080620732
2023-01-28 10:41:39.625687,-0.07661720365285865
2023-01-28 10:41:39.630687,-0.14402328852695107
2023-01-28 10:41:39.635687,-0.20222902297973633
2023-01-28 10:41:39.640687,-0.23897733803593785
2023-01-28 10:41:39.645687,-0.24771372973918906
2023-01-28 10:41:39.650687,-0.22916475812531575
2023-01-28 10:41:39.655687,-0.19047319889068598
2023-01-28 10:41:39.660687,-0.1423507075160605
2023-01-28 10:41:39.665687,-0.09536882489919662
2023-01-28 10:41:39.670687,-0.05693876012272757
2023-01-28 10:41:39.675687,-0.030122797936201037
2023-01-28 10:41:39.680687,-0.014234208390777514
2023-01-28 10:41:39.685687,-0.006346702575683499
2023-01-28 10:41:39.690687,-0.002939261236662882
2023-01-28 10:41:39.695687,-0.0012260675430296809
2023-01-28 10:41:39.700687,0.00024338282190986622
2023-01-28 10:41:39.705687,0.0018511216621845297
2023-01-28 10:41:39.710687,0.0035376357059233496
2023-01-28 10:41:39.715687,0.005168716423213392
2023-01-28 10:41:39.720687,0.006653871044680045
2023-01-28 10:41:39.725687,0.0081257028505206
2023-01-28 10:41:39.730687,0.010046761466196803
2023-01-28 10:41:39.735687,0.012957851402461485
2023-01-28 10:41:39.740687,0.01712572617115457
2023-01-28 10:41:39.745687,0.02252598665654646
2023-01-28 10:41:39.750687,0.029014311132121075
2023-01-28 10:41:39.755687,0.03632525727152822
2023-01-28 10:41:39.760687,0.04409057679683558
2023-01-28 10:41:39.765687,0.05219201371073717
2023-01-28 10:41:39.770687,0.061079116813259324
2023-01-28 10:41:39.775687,0.07152061164379107
2023-01-28 10:41:39.780687,0.08405739708358258
2023-01-28 10:41:39.785687,0.09875854104757298
2023-01-28 10:41:39.790687,0.11519964177292191
2023-01-28 10:41:39.795687,0.13229510188102714
2023-01-28 10:41:39.800687,0.1482651252736939
2023-01-28 10:41:39.805687,0.16116778552532188
2023-01-28 10:41:39.810687,0.16958886770791162
2023-01-28 10:41:39.815687,0.1728274524211882
2023-01-28 10:41:39.820687,0.170774600740654
2023-01-28 10:41:39.825687,0.16400456428527824
2023-01-28 10:41:39.830687,0.1538067207149772
2023-01-28 10:41:39.835687,0.14167091250419606
2023-01-28 10:41:39.840687,0.1286523099411927
2023-01-28 10:41:39.845687,0.11529843509197224
2023-01-28 10:41:39.850687,0.10186241491070828
2023-01-28 10:41:39.855687,0.08822878450155248
2023-01-28 10:41:39.860687,0.07389463635901054
2023-01-28 10:41:39.865687,0.05851467698812476
2023-01-28 10:41:39.870687,0.042436106507960036
2023-01-28 10:41:39.875687,0.026468634605407694
2023-01-28 10:41:39.880687,0.011374320837042665
2023-01-28 10:41:39.885687,-0.002115567680448244
2023-01-28 10:41:39.890687,-0.013149854663937853
2023-01-28 10:41:39.895687,-0.021155675873160248
2023-01-28 10:41:39.900687,-0.02622893046217295
2023-01-28 10:41:39.905687,-0.02875248715281474
2023-01-28 10:41:39.910687,-0.028889769067479695
2023-01-28 10:41:39.915687,-0.026853283867239904
2023-01-28 10:41:39.920687,-0.023315236056977804
2023-01-28 10:41:39.925687,-0.019016068428754807
2023-01-28 10:41:39.930687,-0.01423986957332
2023-01-28 10:41:39.935687,-0.009159445762634196
2023-01-28 10:41:39.940687,-0.004337211528555637
2023-01-28 10:41:39.945687,-0.0003125270304734992
2023-01-28 10:41:39.950687,0.002956612115936025
2023-01-28 10:41:39.955687,0.005649527069181175
2023-01-28 10:41:39.960687,0.007467961413292115
2023-01-28 10:41:39.965687,0.008101662620901971
2023-01-28 10:41:39.970687,0.007891378343076648
2023-01-28 10:41:39.975687,0.007332365028560104
2023-01-28 10:41:39.980687,0.00635858225367222
2023-01-28 10:41:39.985687,0.004880229942500523
2023-01-28 10:41:39.990687,0.0035631304534188167
2023-01-28 10:41:39.995687,0.0032214324455708074
2023-01-28 10:41:40.000687,0.003871637024130801
2023-01-28 10:41:40.005687,0.005216797348111868
2023-01-28 10:41:40.010687,0.007478918437260669
2023-01-28 10:41:40.015687,0.010722081176936626
2023-01-28 10:41:40.020687,0.013909339051982897
2023-01-28 10:41:40.025687,0.0157705955207347
2023-01-28 10:41:40.030687,0.016091737413484526
2023-01-28 10:41:40.035687,0.015025338158011423
2023-01-28 10:41:40.040687,0.011864512144751463
2023-01-28 10:41:40.045687,0.005962054245173915
2023-01-28 10:41:40.050687,-0.0017749434699298506
2023-01-28 10:41:40.055687,-0.009904703125357623
2023-01-28 10:41:40.060687,-0.018305974395666776
2023-01-28 10:41:40.065687,-0.027237933129072085
2023-01-28 10:41:40.070687,-0.035329056578658605
2023-01-28 10:41:40.075687,-0.04082083702087392
2023-01-28 10:41:40.080687,-0.044392546286026284
2023-01-28 10:41:40.085687,-0.048225324600934885
2023-01-28 10:41:40.090687,-0.052347301982281026
2023-01-28 10:41:40.095687,-0.05435566231608389
2023-01-28 10:41:40.100687,-0.052488587850156504
2023-01-28 10:41:40.105687,-0.04603763669729225
2023-01-28 10:41:40.110687,-0.03305803768220548
2023-01-28 10:41:40.115687,-0.01192410849034781
2023-01-28 10:41:40.120687,0.013542880504666092
2023-01-28 10:41:40.125687,0.03425776958465569
2023-01-28 10:41:40.130687,0.04302422707586199
2023-01-28 10:41:40.135687,0.038152337074279674
2023-01-28 10:41:40.140687,0.018429201806361664
2023-01-28 10:41:40.145687,-0.020338296890258664
2023-01-28 10:41:40.150687,-0.07875520478875056
2023-01-28 10:41:40.155687,-0.1461905241012572
2023-01-28 10:41:40.160687,-0.20470581571260063
2023-01-28 10:41:40.165687,-0.24050156772136677
2023-01-28 10:41:40.170687,-0.24910946198802336
2023-01-28 10:41:40.175687,-0.23208737373352042
2023-01-28 10:41:40.180687,-0.1943964825737121
2023-01-28 10:41:40.185687,-0.1453731507062911
2023-01-28 10:41:40.190687,-0.0969850322203812
2023-01-28 10:41:40.195687,-0.05793770402669901
2023-01-28 10:41:40.200687,-0.03058646745232416
2023-01-28 10:41:40.205687,-0.013630986213684025
2023-01-28 10:41:40.210687,-0.0051117506414641595
2023-01-28 10:41:40.215687,-0.00218768930062645
2023-01-28 10:41:40.220687,-0.0011327348289162083
2023-01-28 10:41:40.225687,0.0003365675802342215
2023-01-28 10:41:40.230687,0.0019651997976678783
2023-01-28 10:41:40.235687,0.003029108047485285
2023-01-28 10:41:40.240687,0.003959433406745309
2023-01-28 10:41:40.245687,0.005192756652832022
2023-01-28 10:41:40.250687,0.006179585399426675
2023-01-28 10:41:40.255687,0.00665922975167635
2023-01-28 10:41:40.260687,0.007609083820527057
2023-01-28 10:41:40.265687,0.009976824745535774
2023-01-28 10:41:40.270687,0.013625738446245643
2023-01-28 10:41:40.275687,0.01831889152526846
2023-01-28 10:41:40.280687,0.024557930253408217
2023-01-28 10:41:40.285687,0.0326230153441429
2023-01-28 10:41:40.290687,0.04188589439963688
2023-01-28 10:41:40.295687,0.051927566528320195
2023-01-28 10:41:40.300687,0.06339546895902257
2023-01-28 10:41:40.305687,0.07697781175374976
2023-01-28 10:41:40.310687,0.09234256512267819
2023-01-28 10:41:40.315687,0.10866324603557573
2023-01-28 10:41:40.320687,0.1252258829551745
2023-01-28 10:41:40.325687,0.14082948863506306
2023-01-28 10:41:40.330687,0.15351557702049565
2023-01-28 10:41:40.335687,0.16174475848674763
2023-01-28 10:41:40.340687,0.16529610995537983
2023-01-28 10:41:40.345687,0.16455750167369834
2023-01-28 10:41:40.350687,0.1597282846587599
2023-01-28 10:41:40.355687,0.15126308798789959
2023-01-28 10:41:40.360687,0.14026605297582526
2023-01-28 10:41:40.365687,0.12772738933563227
2023-01-28 10:41:40.370687,0.1139253322693544
2023-01-28 10:41:40.375687,0.09904702752828583
2023-01-28 10:41:40.380687,0.08370002601597322
2023-01-28 10:41:40.385687,0.06827513873577105
2023-01-28 10:41:40.390687,0.05248071792998346
2023-01-28 10:41:40.395687,0.03610889241099345
2023-01-28 10:41:40.400687,0.01974593644688337
2023-01-28 10:41:40.405687,0.004279216285794926
2023-01-28 10:41:40.410687,-0.009716878955028365
2023-01-28 10:41:40.415687,-0.021684568375348993
2023-01-28 10:41:40.420687,-0.03085343566155587
2023-01-28 10:41:40.425687,-0.03690223023295397
2023-01-28 10:41:40.430687,-0.04038733559407563
2023-01-28 10:41:40.435687,-0.042046904563903816
2023-01-28 10:41:40.440687,-0.042103921767151484
2023-01-28 10:41:40.445687,-0.04058043286204328
2023-01-28 10:41:40.450687,-0.03772847733788374
2023-01-28 10:41:40.455687,-0.0337288789451122
2023-01-28 10:41:40.460687,-0.028508668572097832
2023-01-28 10:41:40.465687,-0.022333662956953
2023-01-28 10:41:40.470687,-0.016135815929794427
2023-01-28 10:41:40.475687,-0.010818243026733308
2023-01-28 10:41:40.480687,-0.0066050500263101905
2023-01-28 10:41:40.485687,-0.0033656756859271864
2023-01-28 10:41:40.490687,-0.0010765584491871085
2023-01-28 10:41:40.495687,0.0004086892004123778
2023-01-28 10:41:40.500687,0.0015539378180087528
2023-01-28 10:41:40.505687,0.0026684999465941953
2023-01-28 10:41:40.510687,0.003614312121824184
2023-01-28 10:41:40.515687,0.004327297210693359
2023-01-28 10:41:40.520687,0.005231053028150257
2023-01-28 10:41:40.525687,0.006779432296752911
2023-01-28 10:41:40.530687,0.008938465598633304
2023-01-28 10:41:40.535687,0.011395215988159084
2023-01-28 10:41:40.540687,0.013854455463901653
2023-01-28 10:41:40.545687,0.01579463481903071
2023-01-28 10:41:40.550687,0.016327829197013477
2023-01-28 10:41:40.555687,0.01468877028673883
2023-01-28 10:41:40.560687,0.010622304101298139
2023-01-28 10:41:40.565687,0.004110932350158571
2023-01-28 10:41:40.570687,-0.004841839993970354
2023-01-28 10:41:40.575687,-0.015818675979971806
2023-01-28 10:41:40.580687,-0.027706730863218156
2023-01-28 10:41:40.585687,-0.03913800045847883
2023-01-28 10:41:40.590687,-0.04903438099159612
2023-01-28 10:41:40.595687,-0.05666355416178698
2023-01-28 10:41:40.600687,-0.06163846352586015
2023-01-28 10:41:40.605687,-0.06414016336202621
2023-01-28 10:41:40.610687,-0.06469582912967735
2023-01-28 10:41:40.615687,-0.06325066089630126
2023-01-28 10:41:40.620687,-0.05854235106540085
2023-01-28 10:41:40.625687,-0.04863401502370832
2023-01-28 10:41:40.630687,-0.032169562099403824
2023-01-28 10:41:40.635687,-0.009616216644644706
2023-01-28 10:41:40.640687,0.01567961347295859
2023-01-28 10:41:40.645687,0.037070512771606376
2023-01-28 10:41:40.650687,0.04586133963057366
2023-01-28 10:41:40.655687,0.034402012825012214
2023-01-28 10:41:40.660687,-0.00048137431608636424
2023-01-28 10:41:40.665687,-0.05548556894063937
2023-01-28 10:41:40.670687,-0.12096719396516412
2023-01-28 10:41:40.675687,-0.18321296572685233
2023-01-28 10:41:40.680687,-0.22847976194444147
2023-01-28 10:41:40.685687,-0.2474733293056488
2023-01-28 10:41:40.690687,-0.23817174175107197
2023-01-28 10:41:40.695687,-0.20576298236846916
2023-01-28 10:41:40.700687,-0.16018562916634035
2023-01-28 10:41:40.705687,-0.11258184909820551
2023-01-28 10:41:40.710687,-0.07189985356483707
2023-01-28 10:41:40.715687,-0.042792163789272315
2023-01-28 10:41:40.720687,-0.025525357902803657
2023-01-28 10:41:40.725687,-0.017477473244071045
2023-01-28 10:41:40.730687,-0.01502331298693475
2023-01-28 10:41:40.735687,-0.014977256767451706
2023-01-28 10:41:40.740687,-0.015358035299454342
2023-01-28 10:41:40.745687,-0.015361905097961434
2023-01-28 10:41:40.750687,-0.014745045455763129
2023-01-28 10:41:40.755687,-0.013342499732971087
2023-01-28 10:41:40.760687,-0.011104009644978997
2023-01-28 10:41:40.765687,-0.008149743080139084
2023-01-28 10:41:40.770687,-0.004553310495736544
2023-01-28 10:41:40.775687,-0.0003846486506516934
2023-01-28 10:41:40.780687,0.003944659100958105
2023-01-28 10:41:40.785687,0.007981459610164048
2023-01-28 10:41:40.790687,0.012144758736079914
2023-01-28 10:41:40.795687,0.017597675323486307
2023-01-28 10:41:40.800687,0.024724819184873178
2023-01-28 10:41:40.805687,0.03257493302226057
2023-01-28 10:41:40.810687,0.04058016629390957
2023-01-28 10:41:40.815687,0.04995624348521225
2023-01-28 10:41:40.820687,0.062218748387092564
2023-01-28 10:41:40.825687,0.07690569013357158
2023-01-28 10:41:40.830687,0.0921043726917427
2023-01-28 10:41:40.835687,0.10683616250753387
2023-01-28 10:41:40.840687,0.12138697816378029
2023-01-28 10:41:40.845687,0.1353242099285124
2023-01-28 10:41:40.850687,0.146766499379314
2023-01-28 10:41:40.855687,0.15402774512767783
2023-01-28 10:41:40.860687,0.15678046761432451
2023-01-28 10:41:40.865687,0.15525381267070765
2023-01-28 10:41:40.870687,0.14954319407045713
2023-01-28 10:41:40.875687,0.14030060172080988
2023-01-28 10:41:40.880687,0.12902331774007927
2023-01-28 10:41:40.885687,0.11688511073589317
2023-01-28 10:41:40.890687,0.10394372872361118
2023-01-28 10:41:40.895687,0.08995970338582984
2023-01-28 10:41:40.900687,0.07522141014230257
2023-01-28 10:41:40.905687,0.060077309608459355
2023-01-28 10:41:40.910687,0.044455501596897685
2023-01-28 10:41:40.915687,0.028464000672101863
2023-01-28 10:41:40.920687,0.012847744745124868
2023-01-28 10:41:40.925687,-0.0016828378429635791
2023-01-28 10:41:40.930687,-0.015003560991156812
2023-01-28 10:41:40.935687,-0.026997527107596318
2023-01-28 10:41:40.940687,-0.03703590086521531
2023-01-28 10:41:40.945687,-0.044547121971845606
2023-01-28 10:41:40.950687,-0.04958042681496293
2023-01-28 10:41:40.955687,-0.05236029624938959
2023-01-28 10:41:40.960687,-0.05283097501859387
2023-01-28 10:41:40.965687,-0.05111018940806381
2023-01-28 10:41:40.970687,-0.04786734671694195
2023-01-28 10:41:40.975687,-0.04375378414988512
2023-01-28 10:41:40.980687,-0.03888778191838915
2023-01-28 10:41:40.985687,-0.0332961492240428
2023-01-28 10:41:40.990687,-0.027371001381559436
2023-01-28 10:41:40.995687,-0.021468203514814287
2023-01-28 10:41:41.000687,-0.015547130433312123
2023-01-28 10:41:41.005687,-0.00966429710388181
2023-01-28 10:41:41.010687,-0.004381577653161585
2023-01-28 10:41:41.015687,-0.00024040541029526707
2023-01-28 10:41:41.020687,0.002783334993750832
2023-01-28 10:41:41.025687,0.004952351562678757
2023-01-28 10:41:41.030687,0.00637308553300258
2023-01-28 10:41:41.035687,0.007332365028560076
2023-01-28 10:41:41.040687,0.008550906427016608
2023-01-28 10:41:41.045687,0.01060187816619874
2023-01-28 10:41:41.050687,0.013375555529698184
2023-01-28 10:41:41.055687,0.016419690102338697
2023-01-28 10:41:41.060687,0.019344938801453024
2023-01-28 10:41:41.065687,0.021492242813110345
2023-01-28 10:41:41.070687,0.021666741515255387
2023-01-28 10:41:41.075687,0.018751621246337863
2023-01-28 10:41:41.080687,0.012409131107543103
2023-01-28 10:41:41.085687,0.002981027122586885
2023-01-28 10:41:41.090687,-0.00881032533622755
2023-01-28 10:41:41.095687,-0.021684568375348996
2023-01-28 10:41:41.100687,-0.033850310922254295
2023-01-28 10:41:41.105687,-0.04387398809194561
2023-01-28 10:41:41.110687,-0.05142213978607199
2023-01-28 10:41:41.115687,-0.05692800134420387
2023-01-28 10:41:41.120687,-0.06082466358156105
2023-01-28 10:41:41.125687,-0.06322662532329547
2023-01-28 10:41:41.130687,-0.06369024744161883
2023-01-28 10:41:41.135687,-0.060702364891767516
2023-01-28 10:41:41.140687,-0.05184063837514305
2023-01-28 10:41:41.145687,-0.035315554589033085
2023-01-28 10:41:41.150687,-0.011848899913896616
2023-01-28 10:41:41.155687,0.01452048681676379
2023-01-28 10:41:41.160687,0.03681693947430125
2023-01-28 10:41:41.165687,0.046422284096479416
2023-01-28 10:41:41.170687,0.03565238168347774
2023-01-28 10:41:41.175687,0.0012741487007588337
2023-01-28 10:41:41.180687,-0.053070894401239944
2023-01-28 10:41:41.185687,-0.11731784045696247
2023-01-28 10:41:41.190687,-0.1779002790227109
2023-01-28 10:41:41.195687,-0.22162973880767814
2023-01-28 10:41:41.200687,-0.23955220839885494
2023-01-28 10:41:41.205687,-0.2297794818878173
2023-01-28 10:41:41.210687,-0.1977399098146043
2023-01-28 10:41:41.215687,-0.15342673659324638
2023-01-28 10:41:41.220687,-0.10747176676495473
2023-01-28 10:41:41.225687,-0.06820301711559289
2023-01-28 10:41:41.230687,-0.04016933765055023
2023-01-28 10:41:41.235687,-0.023800134658813372
2023-01-28 10:41:41.240687,-0.01637726710565433
2023-01-28 10:41:41.245687,-0.014111797325312968
2023-01-28 10:41:41.250687,-0.013914658007891224
2023-01-28 10:41:41.255687,-0.013823310844600124
2023-01-28 10:41:41.260687,-0.012744105480573987
2023-01-28 10:41:41.265687,-0.010433594696223736
2023-01-28 10:41:41.270687,-0.0073948794171159495
2023-01-28 10:41:41.275687,-0.004231135360896521
2023-01-28 10:41:41.280687,-0.0011307783863719768
2023-01-28 10:41:41.285687,0.0018992027034982943
2023-01-28 10:41:41.290687,0.004714883961451164
2023-01-28 10:41:41.295687,0.007308324333280254
2023-01-28 10:41:41.300687,0.010082564498713774
2023-01-28 10:41:41.305687,0.01351078413426867
2023-01-28 10:41:41.310687,0.017801879680568646
2023-01-28 10:41:41.315687,0.023199122399091623
2023-01-28 10:41:41.320687,0.030278532544641374
2023-01-28 10:41:41.325687,0.039594769477844155
2023-01-28 10:41:41.330687,0.051275914974775426
2023-01-28 10:41:41.335687,0.06519794464111313
2023-01-28 10:41:41.340687,0.08115720386015486
2023-01-28 10:41:41.345687,0.09849409759044636
2023-01-28 10:41:41.350687,0.11586979790661026
2023-01-28 10:41:41.355687,0.13181428611278526
2023-01-28 10:41:41.360687,0.14530007890601593
2023-01-28 10:41:41.365687,0.15559038519859303
2023-01-28 10:41:41.370687,0.16197523613349452
2023-01-28 10:41:41.375687,0.16407668590545638
2023-01-28 10:41:41.380687,0.16210713173694344
2023-01-28 10:41:41.385687,0.15645584464073176
2023-01-28 10:41:41.390687,0.1473117519889207
2023-01-28 10:41:41.395687,0.1350116729736327
2023-01-28 10:41:41.400687,0.12038765128243062
2023-01-28 10:41:41.405687,0.10435998439788807
2023-01-28 10:41:41.410687,0.08747887796310662
2023-01-28 10:41:41.415687,0.07019837945699683
2023-01-28 10:41:41.420687,0.05320675080258304
2023-01-28 10:41:41.425687,0.037046473473310325
2023-01-28 10:41:41.430687,0.02174754330579703
2023-01-28 10:41:41.435687,0.007284283638000398
2023-01-28 10:41:41.440687,-0.005918790030999299
2023-01-28 10:41:41.445687,-0.017357271164655626
2023-01-28 10:41:41.450687,-0.026959279968796275
2023-01-28 10:41:41.455687,-0.03476262092590329
2023-01-28 10:41:41.460687,-0.040474771901050234
2023-01-28 10:41:41.465687,-0.04392206668853752
2023-01-28 10:41:41.470687,-0.04558749530283711
2023-01-28 10:41:41.475687,-0.0460616759955883
2023-01-28 10:41:41.480687,-0.04524800913310523
2023-01-28 10:41:41.485687,-0.042816203087568214
2023-01-28 10:41:41.490687,-0.03922168796982145
2023-01-28 10:41:41.495687,-0.03545979782938947
2023-01-28 10:41:41.500687,-0.031820662737999085
2023-01-28 10:41:41.505687,-0.027646621689200408
2023-01-28 10:41:41.510687,-0.022450251461985885
2023-01-28 10:41:41.515687,-0.01661201380193229
2023-01-28 10:41:41.520687,-0.010776684493395658
2023-01-28 10:41:41.525687,-0.0051687164232133535
2023-01-28 10:41:41.530687,0.00017129077754277232
2023-01-28 10:41:41.535687,0.004928310867398939
2023-01-28 10:41:41.540687,0.00868497342410338
2023-01-28 10:41:41.545687,0.011347135528922081
2023-01-28 10:41:41.550687,0.013173996751937683
2023-01-28 10:41:41.555687,0.014568567276000892
2023-01-28 10:41:41.560687,0.01599631345426278
2023-01-28 10:41:41.565687,0.0179102029651403
2023-01-28 10:41:41.570687,0.020531201499314353
2023-01-28 10:41:41.575687,0.023703973740339203
2023-01-28 10:41:41.580687,0.026956240585518612
2023-01-28 10:41:41.585687,0.02956986427307124
2023-01-28 10:41:41.590687,0.03061379433016565
2023-01-28 10:41:41.595687,0.029137134552001908
2023-01-28 10:41:41.600687,0.024501204414633774
2023-01-28 10:41:41.605687,0.0165879726409912
2023-01-28 10:41:41.610687,0.0058405028806909716
2023-01-28 10:41:41.615687,-0.006731351371854553
2023-01-28 10:41:41.620687,-0.019679933186167262
2023-01-28 10:41:41.625687,-0.0315411910414695
2023-01-28 10:41:41.630687,-0.041304939063165534
2023-01-28 10:41:41.635687,-0.04853785037994376
2023-01-28 10:41:41.640687,-0.05316199520133328
2023-01-28 10:41:41.645687,-0.05512496083974825
2023-01-28 10:41:41.650687,-0.053998951549790515
2023-01-28 10:41:41.655687,-0.04860997200012197
2023-01-28 10:41:41.660687,-0.03721503471487876
2023-01-28 10:41:41.665687,-0.018607378005981372
2023-01-28 10:41:41.670687,0.006316315612086133
2023-01-28 10:41:41.675687,0.03348847478628154
2023-01-28 10:41:41.680687,0.05575277057904276
2023-01-28 10:41:41.685687,0.06433248519897453
2023-01-28 10:41:41.690687,0.05164398328483863
2023-01-28 10:41:41.695687,0.014688770286738873
2023-01-28 10:41:41.700687,-0.04263447639645261
2023-01-28 10:41:41.705687,-0.10976910591125484
2023-01-28 10:41:41.710687,-0.1723659923130756
2023-01-28 10:41:41.715687,-0.2166052758693695
2023-01-28 10:41:41.720687,-0.2334590350623424
2023-01-28 10:41:41.725687,-0.2214133739471434
2023-01-28 10:41:41.730687,-0.18646360540581092
2023-01-28 10:41:41.735687,-0.13933897018432603
2023-01-28 10:41:41.740687,-0.09145262177082777
2023-01-28 10:41:41.745687,-0.051518879830837194
2023-01-28 10:41:41.750687,-0.023848799848127385
2023-01-28 10:41:41.755687,-0.008342067711055126
2023-01-28 10:41:41.760687,-0.0018458518005101325
2023-01-28 10:41:41.765687,-0.00024040541029527655
2023-01-28 10:41:41.770687,-0.0001988148383599082
2023-01-28 10:41:41.775687,0.00014424324035643583
2023-01-28 10:41:41.780687,0.0014219966922355998
2023-01-28 10:41:41.785687,0.0035099189262837076
2023-01-28 10:41:41.790687,0.005975442427265193
2023-01-28 10:41:41.795687,0.008510351181030159
2023-01-28 10:41:41.800687,0.01113998145132291
2023-01-28 10:41:41.805687,0.014039675705134773
2023-01-28 10:41:41.810687,0.01725481559963809
2023-01-28 10:41:41.815687,0.02069890499114983
2023-01-28 10:41:41.820687,0.024326828504346004
2023-01-28 10:41:41.825687,0.02819955348968491
2023-01-28 10:41:41.830687,0.032496480296949785
2023-01-28 10:41:41.835687,0.03762344643473615
2023-01-28 10:41:41.840687,0.044235524102192586
2023-01-28 10:41:41.845687,0.052985351532697546
2023-01-28 10:41:41.850687,0.06422403532223658
2023-01-28 10:41:41.855687,0.07793943583965292
2023-01-28 10:41:41.860687,0.09380451333672056
2023-01-28 10:41:41.865687,0.1111153811216354
2023-01-28 10:41:41.870687,0.12875760002017
2023-01-28 10:41:41.875687,0.14539718627929676
2023-01-28 10:41:41.880687,0.15973233179844337
2023-01-28 10:41:41.885687,0.17059168219566334
2023-01-28 10:41:41.890687,0.17701495963908667
2023-01-28 10:41:41.895687,0.17847697436809523
2023-01-28 10:41:41.900687,0.17504912582542254
2023-01-28 10:41:41.905687,0.16727408766746513
2023-01-28 10:41:41.910687,0.15593313443885984
2023-01-28 10:41:41.915687,0.14195939898490897
2023-01-28 10:41:41.920687,0.12638470970378937
2023-01-28 10:41:41.925687,0.1101297140121458
2023-01-28 10:41:41.930687,0.09379280246701054
2023-01-28 10:41:41.935687,0.07767498493194572
2023-01-28 10:41:41.940687,0.06193979475814704
2023-01-28 10:41:41.945687,0.04668673127889624
2023-01-28 10:41:41.950687,0.031982698296461685
2023-01-28 10:41:41.955687,0.017982324585318486
2023-01-28 10:41:41.960687,0.005026749274540094
2023-01-28 10:41:41.965687,-0.006442864891141641
2023-01-28 10:41:41.970687,-0.016060214790570553
2023-01-28 10:41:41.975687,-0.023607810959219874
2023-01-28 10:41:41.980687,-0.02900742789740687
2023-01-28 10:41:41.985687,-0.032334528863429995
2023-01-28 10:41:41.990687,-0.03382126643748141
2023-01-28 10:41:41.995687,-0.03377696126699441
2023-01-28 10:41:42.000687,-0.0324956893363906
2023-01-28 10:41:42.005687,-0.030243000015616407
2023-01-28 10:41:42.010687,-0.027282583910111492
2023-01-28 10:41:42.015687,-0.023872256278991612
2023-01-28 10:41:42.020687,-0.020243469378893413
2023-01-28 10:41:42.025687,-0.01658797264099117
2023-01-28 10:41:42.030687,-0.013027042609186959
2023-01-28 10:41:42.035687,-0.009568135254084982
2023-01-28 10:41:42.040687,-0.0061033395864988575
2023-01-28 10:41:42.045687,-0.002476175781339407
2023-01-28 10:41:42.050687,0.001399290464497786
2023-01-28 10:41:42.055687,0.005409121513366586
2023-01-28 10:41:42.060687,0.009201635972816992
2023-01-28 10:41:42.065687,0.012332797050475998
2023-01-28 10:41:42.070687,0.014507968202785037
2023-01-28 10:41:42.075687,0.015722513198852518
2023-01-28 10:41:42.080687,0.016265646819362992
2023-01-28 10:41:42.085687,0.01668413542211053
2023-01-28 10:41:42.090687,0.017651166109768097
2023-01-28 10:41:42.095687,0.019641121849417586
2023-01-28 10:41:42.100687,0.02262945148502918
2023-01-28 10:41:42.105687,0.026132067665457715
2023-01-28 10:41:42.110687,0.02943376714529503
2023-01-28 10:41:42.115687,0.031637351959943716
2023-01-28 10:41:42.120687,0.0316826765318353
2023-01-28 10:41:42.125687,0.02872844599187373
2023-01-28 10:41:42.130687,0.02261297702616118
2023-01-28 10:41:42.135687,0.013775229454040475
2023-01-28 10:41:42.140687,0.002883628772539514
2023-01-28 10:41:42.145687,-0.009087324142455975
2023-01-28 10:41:42.150687,-0.020645371381272374
2023-01-28 10:41:42.155687,-0.030387243255972776
2023-01-28 10:41:42.160687,-0.03795041231314447
2023-01-28 10:41:42.165687,-0.04375378414988508
2023-01-28 10:41:42.170687,-0.04773158534446123
2023-01-28 10:41:42.175687,-0.049138866364955916
2023-01-28 10:41:42.180687,-0.04774808763284837
2023-01-28 10:41:42.185687,-0.043994188308715806
2023-01-28 10:41:42.190687,-0.037141542553646927
2023-01-28 10:41:42.195687,-0.024473270401358566
2023-01-28 10:41:42.200687,-0.003946258456533115
2023-01-28 10:41:42.205687,0.022237500175833712
2023-01-28 10:41:42.210687,0.04733238263663319
2023-01-28 10:41:42.215687,0.06291409581899642
2023-01-28 10:41:42.220687,0.06157082217668041
2023-01-28 10:41:42.225687,0.03844082355499259
2023-01-28 10:41:42.230687,-0.0067296590953746524
2023-01-28 10:41:42.235687,-0.06740967929363242
2023-01-28 10:41:42.240687,-0.13101172112053533
2023-01-28 10:41:42.245687,-0.18330912292003623
2023-01-28 10:41:42.250687,-0.21341661079682467
2023-01-28 10:41:42.255687,-0.2165091037750243
2023-01-28 10:41:42.260687,-0.19444313227284554
2023-01-28 10:41:42.265687,-0.15498936176300038
2023-01-28 10:41:42.270687,-0.10914878159566624
2023-01-28 10:41:42.275687,-0.06700098514556879
2023-01-28 10:41:42.280687,-0.03463171115788715
2023-01-28 10:41:42.285687,-0.013823310844600202
2023-01-28 10:41:42.290687,-0.003327906009403963
2023-01-28 10:41:42.295687,-4.80810813314001e-05
2023-01-28 10:41:42.300687,-0.00020369092768998104
2023-01-28 10:41:42.305687,-0.0008173784008249759
2023-01-28 10:41:42.310687,-0.0005360258569871329
2023-01-28 10:41:42.315687,0.000889500021003054
2023-01-28 10:41:42.320687,0.0034096131504642337
2023-01-28 10:41:42.325687,0.0067313513718544726
2023-01-28 10:41:42.330687,0.010231828377622923
2023-01-28 10:41:42.335687,0.013462702743708945
2023-01-28 10:41:42.340687,0.016557709330009458
2023-01-28 10:41:42.345687,0.019833445549011192
2023-01-28 10:41:42.350687,0.02330964337017202
2023-01-28 10:41:42.355687,0.026949446648359198
2023-01-28 10:41:42.360687,0.03103610514659371
2023-01-28 10:41:42.365687,0.035964649170637075
2023-01-28 10:41:42.370687,0.041974887795461754
2023-01-28 10:41:42.375687,0.049427352845668675
2023-01-28 10:41:42.380687,0.059017020424709556
2023-01-28 10:41:42.385687,0.07130424678325648
2023-01-28 10:41:42.390687,0.08619352674583201
2023-01-28 10:41:42.395687,0.10306179523468006
2023-01-28 10:41:42.400687,0.12103319431802959
2023-01-28 10:41:42.405687,0.13881008327007283
2023-01-28 10:41:42.410687,0.15460638279198463
2023-01-28 10:41:42.415687,0.16674518585205061
2023-01-28 10:41:42.420687,0.17427955744148615
2023-01-28 10:41:42.425687,0.17691433429717998
2023-01-28 10:41:42.430687,0.17469746081849946
2023-01-28 10:41:42.435687,0.16811549663543693
2023-01-28 10:41:42.440687,0.15816686703309257
2023-01-28 10:41:42.445687,0.14590203762054435
2023-01-28 10:41:42.450687,0.131991376755502
2023-01-28 10:41:42.455687,0.11693318933248505
2023-01-28 10:41:42.460687,0.10137396256369632
2023-01-28 10:41:42.465687,0.08587281405925742
2023-01-28 10:41:42.470687,0.07054976946663231
2023-01-28 10:41:42.475687,0.05526920408010475
2023-01-28 10:41:42.480687,0.04000036454198677
2023-01-28 10:41:42.485687,0.02478579804301257
2023-01-28 10:41:42.490687,0.009654222382744786
2023-01-28 10:41:42.495687,-0.005072554107755384
2023-01-28 10:41:42.500687,-0.01854710509731488
2023-01-28 10:41:42.505687,-0.029762189835309923
2023-01-28 10:41:42.510687,-0.03803932479341641
2023-01-28 10:41:42.515687,-0.04303256794810293
2023-01-28 10:41:42.520687,-0.044596280217127894
2023-01-28 10:41:42.525687,-0.04300852864980692
2023-01-28 10:41:42.530687,-0.03913333385663341
2023-01-28 10:41:42.535687,-0.03401736542582508
2023-01-28 10:41:42.540687,-0.028389683504771345
2023-01-28 10:41:42.545687,-0.022694271057844096
2023-01-28 10:41:42.550687,-0.017340295111831223
2023-01-28 10:41:42.555687,-0.012621283531188899
2023-01-28 10:41:42.560687,-0.00856683477692125
2023-01-28 10:41:42.565687,-0.005144675727933551
