2023-01-28 10:16:30.069902,0.060942769050598075
2023-01-28 10:16:30.074902,0.04706736758111097
2023-01-28 10:16:30.079902,0.07592003047466274
2023-01-28 10:16:30.084902,0.08947587884309577
2023-01-28 10:16:30.089902,0.0719773769378662
2023-01-28 10:16:30.094902,0.0537226469770647
2023-01-28 10:16:30.099902,0.0498841218650341
2023-01-28 10:16:30.104902,0.042586776168904585
2023-01-28 10:16:30.109902,0.022285580635070815
2023-01-28 10:16:30.114902,0.0053449890869218895
2023-01-28 10:16:30.119902,0.0021876893006264595
2023-01-28 10:16:30.124902,0.00044555115068459846
2023-01-28 10:16:30.129902,-0.009399851784109998
2023-01-28 10:16:30.134902,-0.01797898415828116
2023-01-28 10:16:30.139902,-0.017838081344962137
2023-01-28 10:16:30.144902,-0.01764062266102996
2023-01-28 10:16:30.149902,-0.023703973740339165
2023-01-28 10:16:30.154902,-0.026631361688131377
2023-01-28 10:16:30.159902,-0.0184150543063879
2023-01-28 10:16:30.164902,-0.006529196234907876
2023-01-28 10:16:30.169902,0.0001442432403563411
2023-01-28 10:16:30.174902,0.003918587689742513
2023-01-28 10:16:30.179902,0.005168716423213444
2023-01-28 10:16:30.184902,-0.008735111353650703
2023-01-28 10:16:30.189902,-0.047648351639509263
2023-01-28 10:16:30.194902,-0.10282176511262453
2023-01-28 10:16:30.199902,-0.15900413691997514
2023-01-28 10:16:30.204902,-0.2114175188933904
2023-01-28 10:16:30.209902,-0.2575463056564331
2023-01-28 10:16:30.214902,-0.2827986567299578
2023-01-28 10:16:30.219902,-0.2718985080718994
2023-01-28 10:16:30.224902,-0.23054808783042152
2023-01-28 10:16:30.229902,-0.18085698783397658
2023-01-28 10:16:30.234902,-0.13662706640259856
2023-01-28 10:16:30.239902,-0.09558518975973111
2023-01-28 10:16:30.244902,-0.054945411293657986
2023-01-28 10:16:30.249902,-0.02125183865427968
2023-01-28 10:16:30.254902,-0.0013854964838378645
2023-01-28 10:16:30.259902,0.006683270446956129
2023-01-28 10:16:30.264902,0.009692488984095063
2023-01-28 10:16:30.269902,0.011491378769278507
2023-01-28 10:16:30.274902,0.012937458592362474
2023-01-28 10:16:30.279902,0.014929175376892014
2023-01-28 10:16:30.284902,0.01826966905258809
2023-01-28 10:16:30.289902,0.02267022989690303
2023-01-28 10:16:30.294902,0.02758632787709248
2023-01-28 10:16:30.299902,0.03271917626261714
2023-01-28 10:16:30.304902,0.0374581745589209
2023-01-28 10:16:30.309902,0.041469931602477986
2023-01-28 10:16:30.314902,0.04586783362283578
2023-01-28 10:16:30.319902,0.052528582513332235
2023-01-28 10:16:30.324902,0.06273548488705974
2023-01-28 10:16:30.329902,0.07753074169158929
2023-01-28 10:16:30.334902,0.09814275377371158
2023-01-28 10:16:30.339902,0.12440979480743397
2023-01-28 10:16:30.344902,0.153673053159795
2023-01-28 10:16:30.349902,0.1825398206710815
2023-01-28 10:16:30.354902,0.208737014593446
2023-01-28 10:16:30.359902,0.23033241927623732
2023-01-28 10:16:30.364902,0.24490457760108975
2023-01-28 10:16:30.369902,0.25107941031455977
2023-01-28 10:16:30.374902,0.24959062345703553
2023-01-28 10:16:30.379902,0.2415353059768675
2023-01-28 10:16:30.384902,0.22698622354369974
2023-01-28 10:16:30.389902,0.20648419857025138
2023-01-28 10:16:30.394902,0.1822436908122153
2023-01-28 10:16:30.399902,0.1564798802137374
2023-01-28 10:16:30.404902,0.12995544663389352
2023-01-28 10:16:30.409902,0.10330220311880109
2023-01-28 10:16:30.414902,0.07810293612126294
2023-01-28 10:16:30.419902,0.05536536499857895
2023-01-28 10:16:30.424902,0.03451732867026639
2023-01-28 10:16:30.429902,0.015217661857604913
2023-01-28 10:16:30.434902,-0.0013401352924227012
2023-01-28 10:16:30.439902,-0.01411179732531293
2023-01-28 10:16:30.444902,-0.023630817694924415
2023-01-28 10:16:30.449902,-0.030603608116507492
2023-01-28 10:16:30.454902,-0.03467639101425398
2023-01-28 10:16:30.459902,-0.03577232360839838
2023-01-28 10:16:30.464902,-0.03504264357823337
2023-01-28 10:16:30.469902,-0.03324806690216058
2023-01-28 10:16:30.474902,-0.029711018013404953
2023-01-28 10:16:30.479902,-0.024064581841230254
2023-01-28 10:16:30.484902,-0.017550221581950434
2023-01-28 10:16:30.489902,-0.011419257149100245
2023-01-28 10:16:30.494902,-0.005489264923632234
2023-01-28 10:16:30.499902,0.0006731351604685211
2023-01-28 10:16:30.504902,0.006710864130872345
2023-01-28 10:16:30.509902,0.012741486541926828
2023-01-28 10:16:30.514902,0.02008130257533147
2023-01-28 10:16:30.519902,0.029425621032714767
2023-01-28 10:16:30.524902,0.039595514833227645
2023-01-28 10:16:30.529902,0.04909078404307363
2023-01-28 10:16:30.534902,0.05744518341260065
2023-01-28 10:16:30.539902,0.06404399871826173
2023-01-28 10:16:30.544902,0.06718111108956433
2023-01-28 10:16:30.549902,0.06555855274200427
2023-01-28 10:16:30.554902,0.05949761827578982
2023-01-28 10:16:30.559902,0.04973987862467764
2023-01-28 10:16:30.564902,0.03652151140120892
2023-01-28 10:16:30.569902,0.02089123055338853
2023-01-28 10:16:30.574902,0.0054516787247614875
2023-01-28 10:16:30.579902,-0.00750064849853507
2023-01-28 10:16:30.584902,-0.017533601534725506
2023-01-28 10:16:30.589902,-0.025026202201843213
2023-01-28 10:16:30.594902,-0.029998104145773016
2023-01-28 10:16:30.599902,-0.03286341950297354
2023-01-28 10:16:30.604902,-0.03472150692466884
2023-01-28 10:16:30.609902,-0.03560404106974597
2023-01-28 10:16:30.614902,-0.03365203496634901
2023-01-28 10:16:30.619902,-0.027237933129072092
2023-01-28 10:16:30.624902,-0.017103733323639663
2023-01-28 10:16:30.629902,-0.006034175865352054
2023-01-28 10:16:30.634902,0.001869457101399386
2023-01-28 10:16:30.639902,0.0007452567806467082
2023-01-28 10:16:30.644902,-0.016043915224202815
2023-01-28 10:16:30.649902,-0.05209585279226303
2023-01-28 10:16:30.654902,-0.10491234328544237
2023-01-28 10:16:30.659902,-0.1665769070386885
2023-01-28 10:16:30.664902,-0.22613213138242175
2023-01-28 10:16:30.669902,-0.2714417576789855
2023-01-28 10:16:30.674902,-0.29205368710218843
2023-01-28 10:16:30.679902,-0.28355818986892684
2023-01-28 10:16:30.684902,-0.24964223444112899
2023-01-28 10:16:30.689902,-0.199464365839958
2023-01-28 10:16:30.694902,-0.14354295345192497
2023-01-28 10:16:30.699902,-0.09149830043315878
2023-01-28 10:16:30.704902,-0.05049135323169353
2023-01-28 10:16:30.709902,-0.023127000778913335
2023-01-28 10:16:30.714902,-0.007251906223164136
2023-01-28 10:16:30.719902,0.0010818243026733871
2023-01-28 10:16:30.724902,0.004905065299127263
2023-01-28 10:16:30.729902,0.006514986511319828
2023-01-28 10:16:30.734902,0.008182513624014679
2023-01-28 10:16:30.739902,0.011106729507446232
2023-01-28 10:16:30.744902,0.014779954083520829
2023-01-28 10:16:30.749902,0.01858333870768542
2023-01-28 10:16:30.754902,0.02301631379843394
2023-01-28 10:16:30.759902,0.028512081131338976
2023-01-28 10:16:30.764902,0.03446811134454284
2023-01-28 10:16:30.769902,0.040676593780517536
2023-01-28 10:16:30.774902,0.048527947981070546
2023-01-28 10:16:30.779902,0.05964457988739007
2023-01-28 10:16:30.784902,0.07445038841192761
2023-01-28 10:16:30.789902,0.09303689002990717
2023-01-28 10:16:30.794902,0.11591330802205856
2023-01-28 10:16:30.799902,0.1424642503261565
2023-01-28 10:16:30.804902,0.16987388980256063
2023-01-28 10:16:30.809902,0.1949928253889082
2023-01-28 10:16:30.814902,0.21627969804149752
2023-01-28 10:16:30.819902,0.23288071155548085
2023-01-28 10:16:30.824902,0.24336471312174432
2023-01-28 10:16:30.829902,0.24696847796440116
2023-01-28 10:16:30.834902,0.24475383994266728
2023-01-28 10:16:30.839902,0.23778498172759982
2023-01-28 10:16:30.844902,0.22534262408186811
2023-01-28 10:16:30.849902,0.20672461390495292
2023-01-28 10:16:30.854902,0.1835822041563528
2023-01-28 10:16:30.859902,0.1584031283855437
2023-01-28 10:16:30.864902,0.1318072144945413
2023-01-28 10:16:30.869902,0.10378301143646235
2023-01-28 10:16:30.874902,0.07673293974488946
2023-01-28 10:16:30.879902,0.054259501397609745
2023-01-28 10:16:30.884902,0.03674642954917706
2023-01-28 10:16:30.889902,0.02081910893321027
2023-01-28 10:16:30.894902,0.00399410606494168
2023-01-28 10:16:30.899902,-0.012188553810119629
2023-01-28 10:16:30.904902,-0.02451281828063231
2023-01-28 10:16:30.909902,-0.03168543428182602
2023-01-28 10:16:30.914902,-0.03443469637774443
2023-01-28 10:16:30.919902,-0.033584635704755665
2023-01-28 10:16:30.924902,-0.02969562837072043
2023-01-28 10:16:30.929902,-0.02401649951934812
2023-01-28 10:16:30.934902,-0.018378988855082837
2023-01-28 10:16:30.939902,-0.01399159431457511
2023-01-28 10:16:30.944902,-0.010864645046134706
2023-01-28 10:16:30.949902,-0.008293986320495614
2023-01-28 10:16:30.954902,-0.005460739945454378
2023-01-28 10:16:30.959902,-0.0016828378429635791
2023-01-28 10:16:30.964902,0.003447924657992189
2023-01-28 10:16:30.969902,0.00997682474553585
2023-01-28 10:16:30.974902,0.017666790952191157
2023-01-28 10:16:30.979902,0.026204189285635896
2023-01-28 10:16:30.984902,0.03540383568875636
2023-01-28 10:16:30.989902,0.04524429887533178
2023-01-28 10:16:30.994902,0.05552417872019518
2023-01-28 10:16:30.999902,0.06531815230846398
2023-01-28 10:16:31.004902,0.07287018806818212
2023-01-28 10:16:31.009902,0.07616043090820312
2023-01-28 10:16:31.014902,0.07360850102807404
2023-01-28 10:16:31.019902,0.06452481448650361
2023-01-28 10:16:31.024902,0.04952386299309186
2023-01-28 10:16:31.029902,0.03079593181610103
2023-01-28 10:16:31.034902,0.011568717097752824
2023-01-28 10:16:31.039902,-0.005192756652832003
2023-01-28 10:16:31.044902,-0.01774970834155324
2023-01-28 10:16:31.049902,-0.025651257485151232
2023-01-28 10:16:31.054902,-0.029513216085426303
2023-01-28 10:16:31.059902,-0.030844014137983284
2023-01-28 10:16:31.064902,-0.03135047299160988
2023-01-28 10:16:31.069902,-0.031781595200300196
2023-01-28 10:16:31.074902,-0.03148900617034148
2023-01-28 10:16:31.079902,-0.02918521687388424
2023-01-28 10:16:31.084902,-0.023961445123904464
2023-01-28 10:16:31.089902,-0.015986960381269434
2023-01-28 10:16:31.094902,-0.007386269132337434
2023-01-28 10:16:31.099902,-0.0030531487427650603
2023-01-28 10:16:31.104902,-0.009884627524588827
2023-01-28 10:16:31.109902,-0.03396928310394277
2023-01-28 10:16:31.114902,-0.07743116869925129
2023-01-28 10:16:31.119902,-0.1366704702377319
2023-01-28 10:16:31.124902,-0.2022868675435431
2023-01-28 10:16:31.129902,-0.2607917785644531
2023-01-28 10:16:31.134902,-0.2985385196895077
2023-01-28 10:16:31.139902,-0.30673325061798085
2023-01-28 10:16:31.144902,-0.2845734854751878
2023-01-28 10:16:31.149902,-0.23877064883708954
2023-01-28 10:16:31.154902,-0.18058303543019155
2023-01-28 10:16:31.159902,-0.1221980676054954
2023-01-28 10:16:31.164902,-0.07323562069450562
2023-01-28 10:16:31.169902,-0.038248501718044135
2023-01-28 10:16:31.174902,-0.01666580760766309
2023-01-28 10:16:31.179902,-0.0050725541077554035
2023-01-28 10:16:31.184902,0.00039346411654299606
2023-01-28 10:16:31.189902,0.003029108047485323
2023-01-28 10:16:31.194902,0.005212643901650409
2023-01-28 10:16:31.199902,0.00798145961016417
2023-01-28 10:16:31.204902,0.0112390801431204
2023-01-28 10:16:31.209902,0.014784932136535634
2023-01-28 10:16:31.214902,0.018850401937909274
2023-01-28 10:16:31.219902,0.02358376979827885
2023-01-28 10:16:31.224902,0.02876704365553376
2023-01-28 10:16:31.229902,0.0344500951468944
2023-01-28 10:16:31.234902,0.041317342941927925
2023-01-28 10:16:31.239902,0.050124526023864614
2023-01-28 10:16:31.244902,0.06136808939761272
2023-01-28 10:16:31.249902,0.07577578723430624
2023-01-28 10:16:31.254902,0.09434610147870887
2023-01-28 10:16:31.259902,0.1173178404569625
2023-01-28 10:16:31.264902,0.14349609088795548
2023-01-28 10:16:31.269902,0.17083208262920369
2023-01-28 10:16:31.274902,0.19707073680445833
2023-01-28 10:16:31.279902,0.21965841948986042
2023-01-28 10:16:31.284902,0.23600297133687573
2023-01-28 10:16:31.289902,0.24461250007152538
2023-01-28 10:16:31.294902,0.2456388510003069
2023-01-28 10:16:31.299902,0.24002075195312492
2023-01-28 10:16:31.304902,0.22868241037798664
2023-01-28 10:16:31.309902,0.21278282999992365
2023-01-28 10:16:31.314902,0.19380375314972373
2023-01-28 10:16:31.319902,0.17270724475383747
2023-01-28 10:16:31.324902,0.14956350420490425
2023-01-28 10:16:31.329902,0.12448191642761226
2023-01-28 10:16:31.334902,0.09832006297936349
2023-01-28 10:16:31.339902,0.07212162017822257
2023-01-28 10:16:31.344902,0.04664989455502606
2023-01-28 10:16:31.349902,0.022982757538556994
2023-01-28 10:16:31.354902,0.002755960703909418
2023-01-28 10:16:31.359902,-0.012861689552664615
2023-01-28 10:16:31.364902,-0.023861373627888278
2023-01-28 10:16:31.369902,-0.03065168857574459
2023-01-28 10:16:31.374902,-0.0334437531841837
2023-01-28 10:16:31.379902,-0.03291150182485586
2023-01-28 10:16:31.384902,-0.030549171697252814
2023-01-28 10:16:31.389902,-0.0275745000690221
2023-01-28 10:16:31.394902,-0.024103142308556588
2023-01-28 10:16:31.399902,-0.019953649491071642
2023-01-28 10:16:31.404902,-0.015424580436444575
2023-01-28 10:16:31.409902,-0.01062591932713977
2023-01-28 10:16:31.414902,-0.004975398690578885
2023-01-28 10:16:31.419902,0.0018030405044555332
2023-01-28 10:16:31.424902,0.008989204351221962
2023-01-28 10:16:31.429902,0.015962919220328328
2023-01-28 10:16:31.434902,0.02313707725180849
2023-01-28 10:16:31.439902,0.0309882573783397
2023-01-28 10:16:31.444902,0.03906386657260412
2023-01-28 10:16:31.449902,0.046782892197370515
2023-01-28 10:16:31.454902,0.054153977380038854
2023-01-28 10:16:31.459902,0.060630243271589224
2023-01-28 10:16:31.464902,0.06426434530836063
2023-01-28 10:16:31.469902,0.06322662532329552
2023-01-28 10:16:31.474902,0.057378139049841875
2023-01-28 10:16:31.479902,0.04743198677897449
2023-01-28 10:16:31.484902,0.03383230305067769
2023-01-28 10:16:31.489902,0.017790000885725046
2023-01-28 10:16:31.494902,0.002102345112230182
2023-01-28 10:16:31.499902,-0.010842284187674465
2023-01-28 10:16:31.504902,-0.020996986038540683
2023-01-28 10:16:31.509902,-0.029161175712942963
2023-01-28 10:16:31.514902,-0.034882600266133774
2023-01-28 10:16:31.519902,-0.037647485733032254
2023-01-28 10:16:31.524902,-0.03861007707364407
2023-01-28 10:16:31.529902,-0.038681231439113645
2023-01-28 10:16:31.534902,-0.03619430796136203
2023-01-28 10:16:31.539902,-0.029305418953299477
2023-01-28 10:16:31.544902,-0.019705896750616386
2023-01-28 10:16:31.549902,-0.011130770668387375
2023-01-28 10:16:31.554902,-0.005811152291807289
2023-01-28 10:16:31.559902,-0.00653902720659967
2023-01-28 10:16:31.564902,-0.020788545893063747
2023-01-28 10:16:31.569902,-0.056302946060895864
2023-01-28 10:16:31.574902,-0.11081273695768845
2023-01-28 10:16:31.579902,-0.17126481235027297
2023-01-28 10:16:31.584902,-0.22563527367315517
2023-01-28 10:16:31.589902,-0.27062436938285817
2023-01-28 10:16:31.594902,-0.30467236560491606
2023-01-28 10:16:31.599902,-0.31930646300315846
2023-01-28 10:16:31.604902,-0.30443395276415
2023-01-28 10:16:31.609902,-0.2606715857982635
2023-01-28 10:16:31.614902,-0.20089360108449048
2023-01-28 10:16:31.619902,-0.1399159431457519
2023-01-28 10:16:31.624902,-0.08683209346797624
2023-01-28 10:16:31.629902,-0.04620591923594473
2023-01-28 10:16:31.634902,-0.020298609922941732
2023-01-28 10:16:31.639902,-0.007572770118713312
2023-01-28 10:16:31.644902,-0.0026787991360836447
2023-01-28 10:16:31.649902,-0.000649094581603966
2023-01-28 10:16:31.654902,0.00033526250051032016
2023-01-28 10:16:31.659902,0.0009616216411814282
2023-01-28 10:16:31.664902,0.0028774499597827136
2023-01-28 10:16:31.669902,0.007260243408381924
2023-01-28 10:16:31.674902,0.013331034143974857
2023-01-28 10:16:31.679902,0.019833445549011206
2023-01-28 10:16:31.684902,0.026533218608716776
2023-01-28 10:16:31.689902,0.03317594528198242
2023-01-28 10:16:31.694902,0.03865462063253035
2023-01-28 10:16:31.699902,0.042671959847211796
2023-01-28 10:16:31.704902,0.047091016965665866
2023-01-28 10:16:31.709902,0.054475866258144275
2023-01-28 10:16:31.714902,0.06625667235541637
2023-01-28 10:16:31.719902,0.08306007087230673
2023-01-28 10:16:31.724902,0.10533617220684359
2023-01-28 10:16:31.729902,0.1322470158338545
2023-01-28 10:16:31.734902,0.16080567818759026
2023-01-28 10:16:31.739902,0.18729984760284424
2023-01-28 10:16:31.744902,0.209028023056892
2023-01-28 10:16:31.749902,0.22410592436790455
2023-01-28 10:16:31.754902,0.23084648959858806
2023-01-28 10:16:31.759902,0.22860150039196003
2023-01-28 10:16:31.764902,0.21853385478923124
2023-01-28 10:16:31.769902,0.20254155993461592
2023-01-28 10:16:31.774902,0.18195988638274457
2023-01-28 10:16:31.779902,0.15799443423748008
2023-01-28 10:16:31.784902,0.1324999878200672
2023-01-28 10:16:31.789902,0.107244849205017
2023-01-28 10:16:31.794902,0.08293988652072697
2023-01-28 10:16:31.799902,0.05981286615133283
2023-01-28 10:16:31.804902,0.03851732555245369
2023-01-28 10:16:31.809902,0.01966516301035879
2023-01-28 10:16:31.814902,0.0031427046999697077
2023-01-28 10:16:31.819902,-0.011178851127624507
2023-01-28 10:16:31.824902,-0.02258098135379037
2023-01-28 10:16:31.829902,-0.03019491955637929
2023-01-28 10:16:31.834902,-0.03409350797374322
2023-01-28 10:16:31.839902,-0.03497898578643782
2023-01-28 10:16:31.844902,-0.033378337590157174
2023-01-28 10:16:31.849902,-0.029930472373962392
2023-01-28 10:16:31.854902,-0.025837729835597362
2023-01-28 10:16:31.859902,-0.02204517647624016
2023-01-28 10:16:31.864902,-0.01828710925435829
2023-01-28 10:16:31.869902,-0.013655027374625208
2023-01-28 10:16:31.874902,-0.007688267587045854
2023-01-28 10:16:31.879902,-0.0002884864807127556
2023-01-28 10:16:31.884902,0.008770247994998053
2023-01-28 10:16:31.889902,0.019304554909467586
2023-01-28 10:16:31.894902,0.030100426444863836
2023-01-28 10:16:31.899902,0.03966689109802238
2023-01-28 10:16:31.904902,0.04730924214298218
2023-01-28 10:16:31.909902,0.05284110829234116
2023-01-28 10:16:31.914902,0.05576998096002905
2023-01-28 10:16:31.919902,0.05555769056081763
2023-01-28 10:16:31.924902,0.0522320187239245
2023-01-28 10:16:31.929902,0.045965515077114105
2023-01-28 10:16:31.934902,0.036527633426907326
2023-01-28 10:16:31.939902,0.024016499519348162
2023-01-28 10:16:31.944902,0.009779365326239024
2023-01-28 10:16:31.949902,-0.004183053970336891
2023-01-28 10:16:31.954902,-0.01644081784493798
2023-01-28 10:16:31.959902,-0.026228230446577024
2023-01-28 10:16:31.964902,-0.032999230507049684
2023-01-28 10:16:31.969902,-0.03683010861277581
2023-01-28 10:16:31.974902,-0.038810962485435266
2023-01-28 10:16:31.979902,-0.040027499198913456
2023-01-28 10:16:31.984902,-0.04028430959500544
2023-01-28 10:16:31.989902,-0.03846486657857887
2023-01-28 10:16:31.994902,-0.033844988451836464
2023-01-28 10:16:31.999902,-0.02666096016764645
2023-01-28 10:16:32.004902,-0.018384835867864397
2023-01-28 10:16:32.009902,-0.012717446312308279
2023-01-28 10:16:32.014902,-0.015876116120667475
2023-01-28 10:16:32.019902,-0.03435393422842011
2023-01-28 10:16:32.024902,-0.0714581192521699
2023-01-28 10:16:32.029902,-0.1253233402967453
2023-01-28 10:16:32.034902,-0.1887636629220533
2023-01-28 10:16:32.039902,-0.2500937581062315
2023-01-28 10:16:32.044902,-0.29565407852081443
2023-01-28 10:16:32.049902,-0.3145464360713957
2023-01-28 10:16:32.054902,-0.3029444456906268
2023-01-28 10:16:32.059902,-0.26483058929443337
2023-01-28 10:16:32.064902,-0.20965699371875507
2023-01-28 10:16:32.069902,-0.14938792586326577
2023-01-28 10:16:32.074902,-0.0954107375527858
2023-01-28 10:16:32.079902,-0.05505283921957012
2023-01-28 10:16:32.084902,-0.0296652044922241
2023-01-28 10:16:32.089902,-0.016131203621625873
2023-01-28 10:16:32.094902,-0.009955213748151512
2023-01-28 10:16:32.099902,-0.006947716232389145
2023-01-28 10:16:32.104902,-0.003771323397362816
2023-01-28 10:16:32.109902,0.001033743261359594
2023-01-28 10:16:32.114902,0.0065811223973156335
2023-01-28 10:16:32.119902,0.01129905413836243
2023-01-28 10:16:32.124902,0.01489212955229135
2023-01-28 10:16:32.129902,0.018054446205496726
2023-01-28 10:16:32.134902,0.02121934161787083
2023-01-28 10:16:32.139902,0.02485791966319078
2023-01-28 10:16:32.144902,0.030208744850576227
2023-01-28 10:16:32.149902,0.03822445869445798
2023-01-28 10:16:32.154902,0.048333701306527206
2023-01-28 10:16:32.159902,0.059572458267211824
2023-01-28 10:16:32.164902,0.07228629352578993
2023-01-28 10:16:32.169902,0.0873633250594138
2023-01-28 10:16:32.174902,0.10462134507902483
2023-01-28 10:16:32.179902,0.12349625676870336
2023-01-28 10:16:32.184902,0.144328642780958
2023-01-28 10:16:32.189902,0.16698560118675224
2023-01-28 10:16:32.194902,0.18893903321208388
2023-01-28 10:16:32.199902,0.20672461390495295
2023-01-28 10:16:32.204902,0.21862767769830463
2023-01-28 10:16:32.209902,0.22403380274772633
2023-01-28 10:16:32.214902,0.22143165731176082
2023-01-28 10:16:32.219902,0.20994603633880607
2023-01-28 10:16:32.224902,0.19197981650332602
2023-01-28 10:16:32.229902,0.17102441191673273
2023-01-28 10:16:32.234902,0.14736318036500834
2023-01-28 10:16:32.239902,0.11962573230266574
2023-01-28 10:16:32.244902,0.09028238510152878
2023-01-28 10:16:32.249902,0.0649094581604003
2023-01-28 10:16:32.254902,0.04498664480709513
2023-01-28 10:16:32.259902,0.02615610882639875
2023-01-28 10:16:32.264902,0.005872918826856225
2023-01-28 10:16:32.269902,-0.011539459228515613
2023-01-28 10:16:32.274902,-0.020773605751258986
2023-01-28 10:16:32.279902,-0.02303083799779409
2023-01-28 10:16:32.284902,-0.023716887897813173
2023-01-28 10:16:32.289902,-0.02512236498296255
2023-01-28 10:16:32.294902,-0.025606313258445573
2023-01-28 10:16:32.299902,-0.024521350860595727
2023-01-28 10:16:32.304902,-0.02348080810981535
2023-01-28 10:16:32.309902,-0.022862553596496495
2023-01-28 10:16:32.314902,-0.020779658887709
2023-01-28 10:16:32.319902,-0.016107162460684707
2023-01-28 10:16:32.324902,-0.009767286616667498
2023-01-28 10:16:32.329902,-0.0025002162437884603
2023-01-28 10:16:32.334902,0.006231943807281028
2023-01-28 10:16:32.339902,0.016539892181754116
2023-01-28 10:16:32.344902,0.027395505916924634
2023-01-28 10:16:32.349902,0.038248501718044205
2023-01-28 10:16:32.354902,0.04954540192464704
2023-01-28 10:16:32.359902,0.060942769050598124
2023-01-28 10:16:32.364902,0.07044479846495655
2023-01-28 10:16:32.369902,0.07589598745107647
2023-01-28 10:16:32.374902,0.07618099972703032
2023-01-28 10:16:32.379902,0.07077535241842256
2023-01-28 10:16:32.384902,0.05966529212190259
2023-01-28 10:16:32.389902,0.04437883943319319
2023-01-28 10:16:32.394902,0.027951859799347487
2023-01-28 10:16:32.399902,0.013150176033377562
2023-01-28 10:16:32.404902,0.001274510391107133
2023-01-28 10:16:32.409902,-0.007332365028560128
2023-01-28 10:16:32.414902,-0.012786106289470406
2023-01-28 10:16:32.419902,-0.016010999679565305
2023-01-28 10:16:32.424902,-0.018474898083382194
2023-01-28 10:16:32.429902,-0.02086718939244743
2023-01-28 10:16:32.434902,-0.022468551561518977
2023-01-28 10:16:32.439902,-0.021949013695120784
2023-01-28 10:16:32.444902,-0.01821094003647991
2023-01-28 10:16:32.449902,-0.010698040947318053
2023-01-28 10:16:32.454902,-0.0002670634885506651
2023-01-28 10:16:32.459902,0.009447932243347164
2023-01-28 10:16:32.464902,0.01209295912191533
2023-01-28 10:16:32.469902,0.0007933378219603923
2023-01-28 10:16:32.474902,-0.029057866133058264
2023-01-28 10:16:32.479902,-0.07772307097911825
2023-01-28 10:16:32.484902,-0.1397955893602457
2023-01-28 10:16:32.489902,-0.20427247881889343
2023-01-28 10:16:32.494902,-0.2572978565390282
2023-01-28 10:16:32.499902,-0.2868998050689695
2023-01-28 10:16:32.504902,-0.28693410505395545
2023-01-28 10:16:32.509902,-0.2584358155727386
2023-01-28 10:16:32.514902,-0.20880451943930017
2023-01-28 10:16:32.519902,-0.14950811862945546
2023-01-28 10:16:32.524902,-0.09248561287726623
2023-01-28 10:16:32.529902,-0.04644632339477527
2023-01-28 10:16:32.534902,-0.015097208204747081
2023-01-28 10:16:32.539902,0.0022357702255249023
2023-01-28 10:16:32.544902,0.009031364644595972
2023-01-28 10:16:32.549902,0.010048946365713988
2023-01-28 10:16:32.554902,0.009676623559354747
2023-01-28 10:16:32.559902,0.010457634925842237
2023-01-28 10:16:32.564902,0.012845720448339856
2023-01-28 10:16:32.569902,0.016179284080862905
2023-01-28 10:16:32.574902,0.019625396372136672
2023-01-28 10:16:32.579902,0.02255002781748777
2023-01-28 10:16:32.584902,0.024881695286396333
2023-01-28 10:16:32.589902,0.02750237844884388
2023-01-28 10:16:32.594902,0.03194273840017052
2023-01-28 10:16:32.599902,0.03949860855936999
2023-01-28 10:16:32.604902,0.05079319504643795
2023-01-28 10:16:32.609902,0.06599128246307373
2023-01-28 10:16:32.614902,0.08487469462849337
2023-01-28 10:16:32.619902,0.10661979764699925
2023-01-28 10:16:32.624902,0.1299409191303648
2023-01-28 10:16:32.629902,0.15359501540660842
2023-01-28 10:16:32.634902,0.17649591575437357
2023-01-28 10:16:32.639902,0.1974209249019622
2023-01-28 10:16:32.644902,0.21505367947989373
2023-01-28 10:16:32.649902,0.2283851355314253
2023-01-28 10:16:32.654902,0.23675578289963864
2023-01-28 10:16:32.659902,0.23953995108604423
2023-01-28 10:16:32.664902,0.23619122199575568
2023-01-28 10:16:32.669902,0.22665421664714802
2023-01-28 10:16:32.674902,0.21143944189893651
2023-01-28 10:16:32.679902,0.19133865833282462
2023-01-28 10:16:32.684902,0.1674146956700036
2023-01-28 10:16:32.689902,0.1412141323089599
2023-01-28 10:16:32.694902,0.11454205699855761
2023-01-28 10:16:32.699902,0.08887787908315649
2023-01-28 10:16:32.704902,0.06517096474042981
2023-01-28 10:16:32.709902,0.044066309928894064
2023-01-28 10:16:32.714902,0.025954742334763883
2023-01-28 10:16:32.719902,0.01084228418767455
2023-01-28 10:16:32.724902,-0.0014385639350122355
2023-01-28 10:16:32.729902,-0.010818243026733199
2023-01-28 10:16:32.734902,-0.01703015050106995
2023-01-28 10:16:32.739902,-0.02002577111124995
2023-01-28 10:16:32.744902,-0.020103437199315247
2023-01-28 10:16:32.749902,-0.017717879265546698
2023-01-28 10:16:32.754902,-0.013466388443783499
2023-01-28 10:16:32.759902,-0.008173784241080192
2023-01-28 10:16:32.764902,-0.002608543941770988
2023-01-28 10:16:32.769902,0.002956986427307085
2023-01-28 10:16:32.774902,0.00873031061173901
2023-01-28 10:16:32.779902,0.015049378387629837
2023-01-28 10:16:32.784902,0.022286800203154492
2023-01-28 10:16:32.789902,0.030916135758161496
2023-01-28 10:16:32.794902,0.04122377154139762
2023-01-28 10:16:32.799902,0.05284110829234113
2023-01-28 10:16:32.804902,0.06470298420639413
2023-01-28 10:16:32.809902,0.07536709308624259
2023-01-28 10:16:32.814902,0.08320082465010797
2023-01-28 10:16:32.819902,0.08654594421386703
2023-01-28 10:16:32.824902,0.08426905613713577
2023-01-28 10:16:32.829902,0.07637679576873768
2023-01-28 10:16:32.834902,0.06402147897703905
2023-01-28 10:16:32.839902,0.04899462312459936
2023-01-28 10:16:32.844902,0.03330721919203957
2023-01-28 10:16:32.849902,0.018895864486694315
2023-01-28 10:16:32.854902,0.00715223880170574
2023-01-28 10:16:32.859902,-0.0014664729824288827
2023-01-28 10:16:32.864902,-0.007285185546700262
2023-01-28 10:16:32.869902,-0.01096248626708981
2023-01-28 10:16:32.874902,-0.013262631943276568
2023-01-28 10:16:32.879902,-0.014881094917654917
2023-01-28 10:16:32.884902,-0.01595200177569566
2023-01-28 10:16:32.889902,-0.015674432739615447
2023-01-28 10:16:32.894902,-0.012795862597342023
2023-01-28 10:16:32.899902,-0.006803472992032683
2023-01-28 10:16:32.904902,0.0009796482596172685
2023-01-28 10:16:32.909902,0.006851553916931088
2023-01-28 10:16:32.914902,0.004971514291294649
2023-01-28 10:16:32.919902,-0.011106729507446114
2023-01-28 10:16:32.924902,-0.04557536507288928
2023-01-28 10:16:32.929902,-0.09753247350454326
2023-01-28 10:16:32.934902,-0.15996257582180276
2023-01-28 10:16:32.939902,-0.22114893794059737
2023-01-28 10:16:32.944902,-0.26786954500165966
2023-01-28 10:16:32.949902,-0.28940004110336287
2023-01-28 10:16:32.954902,-0.2810958824304564
2023-01-28 10:16:32.959902,-0.24593472480773906
2023-01-28 10:16:32.964902,-0.19310861180718877
2023-01-28 10:16:32.969902,-0.13455490767955777
2023-01-28 10:16:32.974902,-0.08127294779818965
2023-01-28 10:16:32.979902,-0.04062851518392553
2023-01-28 10:16:32.984902,-0.015070829228871284
2023-01-28 10:16:32.989902,-0.002572337863966766
2023-01-28 10:16:32.994902,0.0013751481546699059
2023-01-28 10:16:32.999902,0.0014183919411152222
2023-01-28 10:16:33.004902,0.0009816060820667
2023-01-28 10:16:33.009902,0.002019405364990196
2023-01-28 10:16:33.014902,0.005192196590965134
2023-01-28 10:16:33.019902,0.010169148445129318
2023-01-28 10:16:33.024902,0.01616700492988369
2023-01-28 10:16:33.029902,0.022501945495605382
2023-01-28 10:16:33.034902,0.028800608813539096
2023-01-28 10:16:33.039902,0.03500302881002421
2023-01-28 10:16:33.044902,0.04143104244098786
2023-01-28 10:16:33.049902,0.048754215240478495
2023-01-28 10:16:33.054902,0.05768676290430822
2023-01-28 10:16:33.059902,0.06877999007701861
2023-01-28 10:16:33.064902,0.08258673608239772
2023-01-28 10:16:33.069902,0.09976824373006817
2023-01-28 10:16:33.074902,0.12072086004146154
2023-01-28 10:16:33.079902,0.14508466422557822
2023-01-28 10:16:33.084902,0.17164565513532584
2023-01-28 10:16:33.089902,0.19847869873046867
2023-01-28 10:16:33.094902,0.2230430466040603
2023-01-28 10:16:33.099902,0.24249693751335136
2023-01-28 10:16:33.104902,0.2544432004433151
2023-01-28 10:16:33.109902,0.2575944066047666
2023-01-28 10:16:33.114902,0.2518469717398356
2023-01-28 10:16:33.119902,0.23804943263530723
2023-01-28 10:16:33.124902,0.21788473909960315
2023-01-28 10:16:33.129902,0.193622514605522
2023-01-28 10:16:33.134902,0.16746315021431707
2023-01-28 10:16:33.139902,0.1409256458282469
2023-01-28 10:16:33.144902,0.11479381394985144
2023-01-28 10:16:33.149902,0.08938273042440414
2023-01-28 10:16:33.154902,0.06472748976260904
2023-01-28 10:16:33.159902,0.040868919342756244
2023-01-28 10:16:33.164902,0.018360747689638142
2023-01-28 10:16:33.169902,-0.0015626351814715916
2023-01-28 10:16:33.174902,-0.01756442301438815
2023-01-28 10:16:33.179902,-0.02894481085240839
2023-01-28 10:16:33.184902,-0.03578899885942419
2023-01-28 10:16:33.189902,-0.03865718841552729
2023-01-28 10:16:33.194902,-0.03831772302425449
2023-01-28 10:16:33.199902,-0.03550788015127174
2023-01-28 10:16:33.204902,-0.030617761458770595
2023-01-28 10:16:33.209902,-0.023703973740339102
2023-01-28 10:16:33.214902,-0.01504294863462769
2023-01-28 10:16:33.219902,-0.005553364753723217
2023-01-28 10:16:33.224902,0.003568547199472997
2023-01-28 10:16:33.229902,0.011611580848693782
2023-01-28 10:16:33.234902,0.018712424781133538
2023-01-28 10:16:33.239902,0.025699337944388303
2023-01-28 10:16:33.244902,0.033697784563614094
2023-01-28 10:16:33.249902,0.04348933696746819
2023-01-28 10:16:33.254902,0.05472707647959708
2023-01-28 10:16:33.259902,0.06567876040935502
2023-01-28 10:16:33.264902,0.07392311277657668
2023-01-28 10:16:33.269902,0.07741054147481913
2023-01-28 10:16:33.274902,0.07506955089096308
2023-01-28 10:16:33.279902,0.06692886352539054
2023-01-28 10:16:33.284902,0.054090142047587976
2023-01-28 10:16:33.289902,0.03846486657857888
2023-01-28 10:16:33.294902,0.022161512687234836
2023-01-28 10:16:33.299902,0.006947716232389193
2023-01-28 10:16:33.304902,-0.005855286987331406
2023-01-28 10:16:33.309902,-0.015385946258902482
2023-01-28 10:16:33.314902,-0.021518587825998376
2023-01-28 10:16:33.319902,-0.025026202201843185
2023-01-28 10:16:33.324902,-0.027155212331153235
2023-01-28 10:16:33.329902,-0.02887268923223012
2023-01-28 10:16:33.334902,-0.030338745240129753
2023-01-28 10:16:33.339902,-0.03074785135686386
2023-01-28 10:16:33.344902,-0.028605931027775918
2023-01-28 10:16:33.349902,-0.02276639267802228
2023-01-28 10:16:33.354902,-0.014064478825314447
2023-01-28 10:16:33.359902,-0.006418824195861837
2023-01-28 10:16:33.364902,-0.0063028876082161815
2023-01-28 10:16:33.369902,-0.020626783370971614
2023-01-28 10:16:33.374902,-0.053896488853997025
2023-01-28 10:16:33.379902,-0.10561009496450405
2023-01-28 10:16:33.384902,-0.16898906027039678
2023-01-28 10:16:33.389902,-0.2321354597806929
2023-01-28 10:16:33.394902,-0.2815935218111524
2023-01-28 10:16:33.399902,-0.3066851794719694
2023-01-28 10:16:33.404902,-0.3026461731287539
2023-01-28 10:16:33.409902,-0.27163407206535317
2023-01-28 10:16:33.414902,-0.2216206266054784
2023-01-28 10:16:33.419902,-0.1635718345642088
2023-01-28 10:16:33.424902,-0.10792610922191355
2023-01-28 10:16:33.429902,-0.06192843243479721
2023-01-28 10:16:33.434902,-0.028763593798482125
2023-01-28 10:16:33.439902,-0.008101662620901928
2023-01-28 10:16:33.444902,0.0027751669379623913
2023-01-28 10:16:33.449902,0.0075968108139931965
2023-01-28 10:16:33.454902,0.009708391308728588
2023-01-28 10:16:33.459902,0.011250972747802705
2023-01-28 10:16:33.464902,0.013231723227001538
2023-01-28 10:16:33.469902,0.015986960381269406
2023-01-28 10:16:33.474902,0.01948889909921843
2023-01-28 10:16:33.479902,0.023583769798278798
2023-01-28 10:16:33.484902,0.0283204988187222
2023-01-28 10:16:33.489902,0.0340654477477073
2023-01-28 10:16:33.494902,0.04124917977873912
2023-01-28 10:16:33.499902,0.05019664764404289
2023-01-28 10:16:33.504902,0.06133431409171356
2023-01-28 10:16:33.509902,0.07534305751323689
2023-01-28 10:16:33.514902,0.0928639411427717
2023-01-28 10:16:33.519902,0.11407236754894258
2023-01-28 10:16:33.524902,0.13850908044644272
2023-01-28 10:16:33.529902,0.16501426696777335
2023-01-28 10:16:33.534902,0.19163995927062047
2023-01-28 10:16:33.539902,0.2159080952405929
2023-01-28 10:16:33.544902,0.23555365944523438
2023-01-28 10:16:33.549902,0.24915616214275355
2023-01-28 10:16:33.554902,0.25615593094646694
2023-01-28 10:16:33.559902,0.2565606534481047
2023-01-28 10:16:33.564902,0.2507858596055353
2023-01-28 10:16:33.569902,0.2394918650388716
2023-01-28 10:16:33.574902,0.22323835825317837
2023-01-28 10:16:33.579902,0.20232519507408125
2023-01-28 10:16:33.584902,0.1771253161944963
2023-01-28 10:16:33.589902,0.14852246642112724
2023-01-28 10:16:33.594902,0.11796959290455493
2023-01-28 10:16:33.599902,0.08729120343923553
2023-01-28 10:16:33.604902,0.05851032924369411
2023-01-28 10:16:33.609902,0.03353655338287351
2023-01-28 10:16:33.614902,0.013562782549611276
2023-01-28 10:16:33.619902,-0.0013943513622507217
2023-01-28 10:16:33.624902,-0.012293477066503593
2023-01-28 10:16:33.629902,-0.020362338051199913
2023-01-28 10:16:33.634902,-0.026469359262252624
2023-01-28 10:16:33.639902,-0.030868053436279116
2023-01-28 10:16:33.644902,-0.03323446770250931
2023-01-28 10:16:33.649902,-0.03288745880126945
2023-01-28 10:16:33.654902,-0.029147587790371906
2023-01-28 10:16:33.659902,-0.02178072929382319
2023-01-28 10:16:33.664902,-0.01142085655274138
2023-01-28 10:16:33.669902,0.00031252703047344473
2023-01-28 10:16:33.674902,0.011387957986426302
2023-01-28 10:16:33.679902,0.020506581291556285
2023-01-28 10:16:33.684902,0.027896621659672674
2023-01-28 10:16:33.689902,0.03495494648814204
2023-01-28 10:16:33.694902,0.043097721087744255
2023-01-28 10:16:33.699902,0.05284110829234108
2023-01-28 10:16:33.704902,0.06349824813485846
2023-01-28 10:16:33.709902,0.07322748750448216
2023-01-28 10:16:33.714902,0.07946074566339517
2023-01-28 10:16:33.719902,0.07993479818105689
2023-01-28 10:16:33.724902,0.07381904283051922
2023-01-28 10:16:33.729902,0.062000554054975454
2023-01-28 10:16:33.734902,0.046447253357158595
2023-01-28 10:16:33.739902,0.029449662193655902
2023-01-28 10:16:33.744902,0.013147908947090448
2023-01-28 10:16:33.749902,-0.0009135405416599553
2023-01-28 10:16:33.754902,-0.012146093531387368
2023-01-28 10:16:33.759902,-0.020722946152091044
2023-01-28 10:16:33.764902,-0.026955572571607092
2023-01-28 10:16:33.769902,-0.030964216217398657
2023-01-28 10:16:33.774902,-0.03279982010262176
2023-01-28 10:16:33.779902,-0.03247877210378639
2023-01-28 10:16:33.784902,-0.029844029344691853
2023-01-28 10:16:33.789902,-0.02480983734130847
2023-01-28 10:16:33.794902,-0.01807882940102318
2023-01-28 10:16:33.799902,-0.011707743629813184
2023-01-28 10:16:33.804902,-0.009186499246838375
2023-01-28 10:16:33.809902,-0.01516958139836781
2023-01-28 10:16:33.814902,-0.03460324690119758
2023-01-28 10:16:33.819902,-0.07077535241842253
2023-01-28 10:16:33.824902,-0.12288942602775697
2023-01-28 10:16:33.829902,-0.18479964137077323
2023-01-28 10:16:33.834902,-0.24590652768647592
2023-01-28 10:16:33.839902,-0.293823480606079
2023-01-28 10:16:33.844902,-0.3179218270275971
2023-01-28 10:16:33.849902,-0.3128155171871184
2023-01-28 10:16:33.854902,-0.2803572743963857
2023-01-28 10:16:33.859902,-0.22881786525249465
2023-01-28 10:16:33.864902,-0.1695823756765165
2023-01-28 10:16:33.869902,-0.11332710832357401
2023-01-28 10:16:33.874902,-0.06736487189703451
2023-01-28 10:16:33.879902,-0.034570299088954856
2023-01-28 10:16:33.884902,-0.013810009776126942
2023-01-28 10:16:33.889902,-0.0017068784218280844
2023-01-28 10:16:33.894902,0.005181407230979838
2023-01-28 10:16:33.899902,0.009135405533015709
2023-01-28 10:16:33.904902,0.011349331624702813
2023-01-28 10:16:33.909902,0.012453000061213913
2023-01-28 10:16:33.914902,0.012871242304677745
2023-01-28 10:16:33.919902,0.013198256492614746
2023-01-28 10:16:33.924902,0.014527522612867556
2023-01-28 10:16:33.929902,0.018198689445853244
2023-01-28 10:16:33.934902,0.025056907973006595
2023-01-28 10:16:33.939902,0.0350991897284984
2023-01-28 10:16:33.944902,0.047828567505494884
2023-01-28 10:16:33.949902,0.06269773095846169
2023-01-28 10:16:33.954902,0.07927522943778582
2023-01-28 10:16:33.959902,0.09743630886077873
2023-01-28 10:16:33.964902,0.11754825447001818
2023-01-28 10:16:33.969902,0.14010827243328083
2023-01-28 10:16:33.974902,0.16492771227434086
2023-01-28 10:16:33.979902,0.19073764979839314
2023-01-28 10:16:33.984902,0.21553046219994598
2023-01-28 10:16:33.989902,0.23701569437980644
2023-01-28 10:16:33.994902,0.25285219724215113
2023-01-28 10:16:33.999902,0.2610321938991545
2023-01-28 10:16:34.004902,0.2604589171636435
2023-01-28 10:16:34.009902,0.25115153193473805
2023-01-28 10:16:34.014902,0.2339856415685471
2023-01-28 10:16:34.019902,0.21054705977439872
2023-01-28 10:16:34.024902,0.18317538601363412
2023-01-28 10:16:34.029902,0.1545806825160979
2023-01-28 10:16:34.034902,0.1269861359691092
2023-01-28 10:16:34.039902,0.10159532725810996
2023-01-28 10:16:34.044902,0.07874047042227968
2023-01-28 10:16:34.049902,0.05820214748382554
2023-01-28 10:16:34.054902,0.039432884563626605
2023-01-28 10:16:34.059902,0.021997094154357882
2023-01-28 10:16:34.064902,0.0060977491799692465
2023-01-28 10:16:34.069902,-0.007500648498535085
2023-01-28 10:16:34.074902,-0.018160118436245307
2023-01-28 10:16:34.079902,-0.0257955007255077
2023-01-28 10:16:34.084902,-0.030654658717838477
2023-01-28 10:16:34.089902,-0.033007662743329905
2023-01-28 10:16:34.094902,-0.033085473554162886
2023-01-28 10:16:34.099902,-0.030964216217398605
2023-01-28 10:16:34.104902,-0.02640766715027532
2023-01-28 10:16:34.109902,-0.01916031166911123
2023-01-28 10:16:34.114902,-0.00955938206209143
2023-01-28 10:16:34.119902,0.0013703107833861997
2023-01-28 10:16:34.124902,0.01253019419828966
2023-01-28 10:16:34.129902,0.02329528331756588
2023-01-28 10:16:34.134902,0.03352926643899001
2023-01-28 10:16:34.139902,0.04339317604899399
2023-01-28 10:16:34.144902,0.0530997873323197
2023-01-28 10:16:34.149902,0.06236116215586655
2023-01-28 10:16:34.154902,0.06983320888692957
2023-01-28 10:16:34.159902,0.07337173074483862
2023-01-28 10:16:34.164902,0.07110248243410221
2023-01-28 10:16:34.169902,0.06233712285757063
2023-01-28 10:16:34.174902,0.047790145604115875
2023-01-28 10:16:34.179902,0.02942562103271474
2023-01-28 10:16:34.184902,0.010084840287232296
2023-01-28 10:16:34.189902,-0.007380445953458429
2023-01-28 10:16:34.194902,-0.021166867297262523
2023-01-28 10:16:34.199902,-0.030892094597220383
2023-01-28 10:16:34.204902,-0.037118122714469196
2023-01-28 10:16:34.209902,-0.040748715400695745
2023-01-28 10:16:34.214902,-0.042641345451933876
2023-01-28 10:16:34.219902,-0.04312872886657707
2023-01-28 10:16:34.224902,-0.04161589009465995
2023-01-28 10:16:34.229902,-0.03697435185313218
2023-01-28 10:16:34.234902,-0.028737878335495612
2023-01-28 10:16:34.239902,-0.01819868944585322
2023-01-28 10:16:34.244902,-0.008843830654888788
2023-01-28 10:16:34.249902,-0.006202459335327155
2023-01-28 10:16:34.254902,-0.016847968196356693
2023-01-28 10:16:34.259902,-0.04610975831747045
2023-01-28 10:16:34.264902,-0.09518012547942274
2023-01-28 10:16:34.269902,-0.15934070944786055
2023-01-28 10:16:34.274902,-0.22836492877049608
2023-01-28 10:16:34.279902,-0.28884708881378157
2023-01-28 10:16:34.284902,-0.3278221845149589
2023-01-28 10:16:34.289902,-0.33685606718063327
2023-01-28 10:16:34.294902,-0.3149519830910716
2023-01-28 10:16:34.299902,-0.26855689287185647
2023-01-28 10:16:34.304902,-0.20873582154140535
2023-01-28 10:16:34.309902,-0.14734447002410872
2023-01-28 10:16:34.314902,-0.09384268924892221
2023-01-28 10:16:34.319902,-0.053369998931884696
2023-01-28 10:16:34.324902,-0.026481005459895898
2023-01-28 10:16:34.329902,-0.010673999786376953
2023-01-28 10:16:34.334902,-0.0026289120743665344
2023-01-28 10:16:34.339902,0.0004808108205907852
2023-01-28 10:16:34.344902,0.0008839041244733323
2023-01-28 10:16:34.349902,0.0002884864807127485
2023-01-28 10:16:34.354902,-0.0002613776577773118
2023-01-28 10:16:34.359902,-0.00016828379011701598
2023-01-28 10:16:34.364902,0.0012655145512135372
2023-01-28 10:16:34.369902,0.004832148551940899
2023-01-28 10:16:34.374902,0.010779069498644437
2023-01-28 10:16:34.379902,0.018559297546744253
2023-01-28 10:16:34.384902,0.027373693215470323
2023-01-28 10:16:34.389902,0.03673394769430166
2023-01-28 10:16:34.394902,0.04658780823367645
2023-01-28 10:16:34.399902,0.05743285268545152
2023-01-28 10:16:34.404902,0.07048235891601382
2023-01-28 10:16:34.409902,0.08724312484264365
2023-01-28 10:16:34.414902,0.10849553553353468
2023-01-28 10:16:34.419902,0.13361732661724088
2023-01-28 10:16:34.424902,0.1607223084378581
2023-01-28 10:16:34.429902,0.18710753321647633
2023-01-28 10:16:34.434902,0.20969885309845399
2023-01-28 10:16:34.439902,0.22576472163200367
2023-01-28 10:16:34.444902,0.23371203096777723
2023-01-28 10:16:34.449902,0.2332413196563719
2023-01-28 10:16:34.454902,0.22486253122612648
2023-01-28 10:16:34.459902,0.20958542823791496
2023-01-28 10:16:34.464902,0.18900312311328493
2023-01-28 10:16:34.469902,0.16513447463512418
2023-01-28 10:16:34.474902,0.13986244604130235
2023-01-28 10:16:34.479902,0.11457721889019004
2023-01-28 10:16:34.484902,0.09021156560976029
2023-01-28 10:16:34.489902,0.06721735000610347
2023-01-28 10:16:34.494902,0.045501956618080375
2023-01-28 10:16:34.499902,0.02483387850224964
2023-01-28 10:16:34.504902,0.0055007542847064364
2023-01-28 10:16:34.509902,-0.011635622009634906
2023-01-28 10:16:34.514902,-0.025728756480868732
2023-01-28 10:16:34.519902,-0.03632525727152825
2023-01-28 10:16:34.524902,-0.043243504222744034
2023-01-28 10:16:34.529902,-0.046494405716657625
2023-01-28 10:16:34.534902,-0.046368658930717156
2023-01-28 10:16:34.539902,-0.04324893280863762
2023-01-28 10:16:34.544902,-0.037292154348566156
2023-01-28 10:16:34.549902,-0.028632283210754225
2023-01-28 10:16:34.554902,-0.017931764806807006
2023-01-28 10:16:34.559902,-0.0063947839662432575
2023-01-28 10:16:34.564902,0.0048413183481980015
2023-01-28 10:16:34.569902,0.01512150000780827
2023-01-28 10:16:34.574902,0.024221184351350445
2023-01-28 10:16:34.579902,0.03228644654154766
2023-01-28 10:16:34.584902,0.039752051034782035
2023-01-28 10:16:34.589902,0.046782892197370536
2023-01-28 10:16:34.594902,0.05259383729106207
2023-01-28 10:16:34.599902,0.055581729859113575
2023-01-28 10:16:34.604902,0.05423095308606
2023-01-28 10:16:34.609902,0.047816634178161566
2023-01-28 10:16:34.614902,0.03656246726802902
2023-01-28 10:16:34.619902,0.02170860767364494
2023-01-28 10:16:34.624902,0.005443783892799869
2023-01-28 10:16:34.629902,-0.0098085403442383
2023-01-28 10:16:34.634902,-0.02240468999703438
2023-01-28 10:16:34.639902,-0.03180563449859615
2023-01-28 10:16:34.644902,-0.03814437797279563
2023-01-28 10:16:34.649902,-0.04185458272695536
2023-01-28 10:16:34.654902,-0.0435367364485837
2023-01-28 10:16:34.659902,-0.043561458587646415
2023-01-28 10:16:34.664902,-0.04163215348291132
2023-01-28 10:16:34.669902,-0.0371426343917846
2023-01-28 10:16:34.674902,-0.030256603222182103
2023-01-28 10:16:34.679902,-0.022742351517081223
2023-01-28 10:16:34.684902,-0.018168891649748067
2023-01-28 10:16:34.689902,-0.021684568375348986
2023-01-28 10:16:34.694902,-0.03902015398155757
2023-01-28 10:16:34.699902,-0.07418911159038534
2023-01-28 10:16:34.704902,-0.12676213007938159
2023-01-28 10:16:34.709902,-0.19059340655803672
2023-01-28 10:16:34.714902,-0.2548236730080643
2023-01-28 10:16:34.719902,-0.306540936231613
2023-01-28 10:16:34.724902,-0.3343470012741726
2023-01-28 10:16:34.729902,-0.33207198977470376
2023-01-28 10:16:34.734902,-0.3010291302138877
2023-01-28 10:16:34.739902,-0.24927636981010418
2023-01-28 10:16:34.744902,-0.18835603756980757
2023-01-28 10:16:34.749902,-0.12957851588726033
2023-01-28 10:16:34.754902,-0.08126682406498861
2023-01-28 10:16:34.759902,-0.04721562191843979
2023-01-28 10:16:34.764902,-0.026664946022426413
2023-01-28 10:16:34.769902,-0.01601099967956537
2023-01-28 10:16:34.774902,-0.011205049802554176
2023-01-28 10:16:34.779902,-0.009207527153193822
2023-01-28 10:16:34.784902,-0.008197923605634717
2023-01-28 10:16:34.789902,-0.007404486648738313
2023-01-28 10:16:34.794902,-0.00682425314226307
2023-01-28 10:16:34.799902,-0.006514986511319738
2023-01-28 10:16:34.804902,-0.005926490126345422
2023-01-28 10:16:34.809902,-0.004110932350158578
2023-01-28 10:16:34.814902,-0.0004417221756634243
2023-01-28 10:16:34.819902,0.005240838043391751
2023-01-28 10:16:34.824902,0.013027070479732344
2023-01-28 10:16:34.829902,0.023030837997794054
2023-01-28 10:16:34.834902,0.035231399933316976
2023-01-28 10:16:34.839902,0.049715839326381565
2023-01-28 10:16:34.844902,0.0669701125307213
2023-01-28 10:16:34.849902,0.08738736808300002
2023-01-28 10:16:34.854902,0.11043754576012027
2023-01-28 10:16:34.859902,0.13462702929973588
2023-01-28 10:16:34.864902,0.1580967483247584
2023-01-28 10:16:34.869902,0.1788616180419921
2023-01-28 10:16:34.874902,0.19478511613064534
2023-01-28 10:16:34.879902,0.20408014953136444
2023-01-28 10:16:34.884902,0.20597820615425821
2023-01-28 10:16:34.889902,0.200594276189804
2023-01-28 10:16:34.894902,0.18834471120798493
2023-01-28 10:16:34.899902,0.17001470923423756
2023-01-28 10:16:34.904902,0.14721803425705532
2023-01-28 10:16:34.909902,0.12214998900890346
2023-01-28 10:16:34.914902,0.096827588886313
2023-01-28 10:16:34.919902,0.07286687940359107
2023-01-28 10:16:34.924902,0.05163092069674606
2023-01-28 10:16:34.929902,0.03384908288717255
2023-01-28 10:16:34.934902,0.019117979917730798
2023-01-28 10:16:34.939902,0.006370743270963385
2023-01-28 10:16:34.944902,-0.005115675881581992
2023-01-28 10:16:34.949902,-0.015482108108699292
2023-01-28 10:16:34.954902,-0.024673890169717574
2023-01-28 10:16:34.959902,-0.03238260746002194
2023-01-28 10:16:34.964902,-0.0377980362678516
2023-01-28 10:16:34.969902,-0.04014770314097399
2023-01-28 10:16:34.974902,-0.039482709454182564
2023-01-28 10:16:34.979902,-0.0364454612135887
2023-01-28 10:16:34.984902,-0.031478059943335475
2023-01-28 10:16:34.989902,-0.02483387850224968
2023-01-28 10:16:34.994902,-0.017048289054624657
2023-01-28 10:16:34.999902,-0.008606513962149601
2023-01-28 10:16:35.004902,0.0006885438132500685
2023-01-28 10:16:35.009902,0.011250972747802773
2023-01-28 10:16:35.014902,0.022720027834247813
2023-01-28 10:16:35.019902,0.03406544774770727
2023-01-28 10:16:35.024902,0.044363940267644425
2023-01-28 10:16:35.029902,0.05264878273010247
2023-01-28 10:16:35.034902,0.057343704782963585
2023-01-28 10:16:35.039902,0.056976079940795704
2023-01-28 10:16:35.044902,0.05146794027346675
2023-01-28 10:16:35.049902,0.04187862202525131
2023-01-28 10:16:35.054902,0.02914411932809159
2023-01-28 10:16:35.059902,0.014232000336050873
2023-01-28 10:16:35.064902,-0.0006789499130462436
2023-01-28 10:16:35.069902,-0.012813608162104974
2023-01-28 10:16:35.074902,-0.02113071182018054
2023-01-28 10:16:35.079902,-0.02692540548741811
2023-01-28 10:16:35.084902,-0.03167477719181297
2023-01-28 10:16:35.089902,-0.035363636910915236
2023-01-28 10:16:35.094902,-0.037369984466939635
2023-01-28 10:16:35.099902,-0.03769556805491442
2023-01-28 10:16:35.104902,-0.03635809615568128
2023-01-28 10:16:35.109902,-0.03252685070037843
2023-01-28 10:16:35.114902,-0.02562459525575504
2023-01-28 10:16:35.119902,-0.017381310462951584
2023-01-28 10:16:35.124902,-0.012433569622463626
2023-01-28 10:16:35.129902,-0.01711686514317974
2023-01-28 10:16:35.134902,-0.0374693382751023
2023-01-28 10:16:35.139902,-0.07673740386962882
2023-01-28 10:16:35.144902,-0.1327547745861886
2023-01-28 10:16:35.149902,-0.19691607356071464
2023-01-28 10:16:35.154902,-0.25615308903458023
2023-01-28 10:16:35.159902,-0.297068953514099
2023-01-28 10:16:35.164902,-0.3101860402010666
2023-01-28 10:16:35.169902,-0.2929099500179289
2023-01-28 10:16:35.174902,-0.2503476822413494
2023-01-28 10:16:35.179902,-0.19333402812480907
2023-01-28 10:16:35.184902,-0.13433967817222764
2023-01-28 10:16:35.189902,-0.08346875756978979
2023-01-28 10:16:35.194902,-0.046316053475292836
2023-01-28 10:16:35.199902,-0.023728013038635195
2023-01-28 10:16:35.204902,-0.012852196372832105
2023-01-28 10:16:35.209902,-0.009111365303397097
2023-01-28 10:16:35.214902,-0.008322468173103222
2023-01-28 10:16:35.219902,-0.007765094749629367
2023-01-28 10:16:35.224902,-0.006008655549660821
2023-01-28 10:16:35.229902,-0.002500216243788555
2023-01-28 10:16:35.234902,0.0025460054413426175
2023-01-28 10:16:35.239902,0.00841418933123351
2023-01-28 10:16:35.244902,0.014425289270802898
2023-01-28 10:16:35.249902,0.020170014351606293
2023-01-28 10:16:35.254902,0.025418014336607057
2023-01-28 10:16:35.259902,0.030339162796735677
2023-01-28 10:16:35.264902,0.03592085347412522
2023-01-28 10:16:35.269902,0.04372974485158916
2023-01-28 10:16:35.274902,0.055040048589595235
2023-01-28 10:16:35.279902,0.07029454410076137
2023-01-28 10:16:35.284902,0.08916269717524401
2023-01-28 10:16:35.289902,0.11058648675680145
2023-01-28 10:16:35.294902,0.13280210361087713
2023-01-28 10:16:35.299902,0.15390753746032704
2023-01-28 10:16:35.304902,0.17264177999582025
2023-01-28 10:16:35.309902,0.1883816719055174
2023-01-28 10:16:35.314902,0.20046939363609081
2023-01-28 10:16:35.319902,0.20795068144798262
2023-01-28 10:16:35.324902,0.20991189735400392
2023-01-28 10:16:35.329902,0.20566682517528517
2023-01-28 10:16:35.334902,0.19476368643432268
2023-01-28 10:16:35.339902,0.17741918563842762
2023-01-28 10:16:35.344902,0.15503763731021067
2023-01-28 10:16:35.349902,0.12986700236797327
2023-01-28 10:16:35.354902,0.10404847037673208
2023-01-28 10:16:35.359902,0.07918953895568842
2023-01-28 10:16:35.364902,0.05650917006460463
2023-01-28 10:16:35.369902,0.03670990467071525
2023-01-28 10:16:35.374902,0.019691611551795826
2023-01-28 10:16:35.379902,0.004928310867398831
2023-01-28 10:16:35.384902,-0.0077910731165420225
2023-01-28 10:16:35.389902,-0.01829485222697255
2023-01-28 10:16:35.394902,-0.026470438595110373
2023-01-28 10:16:35.399902,-0.03223836421966553
2023-01-28 10:16:35.404902,-0.03523828819582811
2023-01-28 10:16:35.409902,-0.03514727205038074
2023-01-28 10:16:35.414902,-0.032291824901902466
2023-01-28 10:16:35.419902,-0.02745429798960679
2023-01-28 10:16:35.424902,-0.021140779134362207
2023-01-28 10:16:35.429902,-0.013486742973327593
2023-01-28 10:16:35.434902,-0.0046986963733320255
2023-01-28 10:16:35.439902,0.004976391792297321
2023-01-28 10:16:35.444902,0.015568145238330838
2023-01-28 10:16:35.449902,0.027045607566833406
2023-01-28 10:16:35.454902,0.03869765036458986
2023-01-28 10:16:35.459902,0.04933118820190414
2023-01-28 10:16:35.464902,0.05794013675947792
2023-01-28 10:16:35.469902,0.06368339061737056
2023-01-28 10:16:35.474902,0.06548272794926485
2023-01-28 10:16:35.479902,0.06240924447774875
2023-01-28 10:16:35.484902,0.05452803264705604
2023-01-28 10:16:35.489902,0.0429364070296287
2023-01-28 10:16:35.494902,0.029153883225336626
2023-01-28 10:16:35.499902,0.014929175376892019
2023-01-28 10:16:35.504902,0.0022101603785677094
2023-01-28 10:16:35.509902,-0.007620851509272998
2023-01-28 10:16:35.514902,-0.01456762100987454
2023-01-28 10:16:35.519902,-0.01956900022923944
2023-01-28 10:16:35.524902,-0.023308117776591464
2023-01-28 10:16:35.529902,-0.025819540023803676
2023-01-28 10:16:35.534902,-0.026809099142685113
2023-01-28 10:16:35.539902,-0.025651257485151166
2023-01-28 10:16:35.544902,-0.021495056197529734
2023-01-28 10:16:35.549902,-0.014472405426204192
2023-01-28 10:16:35.554902,-0.007076864253385696
2023-01-28 10:16:35.559902,-0.003966689109802237
2023-01-28 10:16:35.564902,-0.01045120287389063
2023-01-28 10:16:35.569902,-0.031060378998517862
2023-01-28 10:16:35.574902,-0.06809910339642754
2023-01-28 10:16:35.579902,-0.11960168927907934
2023-01-28 10:16:35.584902,-0.1781510715587605
2023-01-28 10:16:35.589902,-0.23252010345458968
2023-01-28 10:16:35.594902,-0.27132564909603496
2023-01-28 10:16:35.599902,-0.2862507104873656
2023-01-28 10:16:35.604902,-0.27409711092367967
2023-01-28 10:16:35.609902,-0.23802539706230152
2023-01-28 10:16:35.614902,-0.1869384896481249
2023-01-28 10:16:35.619902,-0.13207873702049233
2023-01-28 10:16:35.624902,-0.08287561366599366
2023-01-28 10:16:35.629902,-0.044979851692914845
2023-01-28 10:16:35.634902,-0.02039550441831877
2023-01-28 10:16:35.639902,-0.007861256599426155
2023-01-28 10:16:35.644902,-0.0035690160688004653
2023-01-28 10:16:35.649902,-0.0031733512878416217
2023-01-28 10:16:35.654902,-0.0037187627354488247
2023-01-28 10:16:35.659902,-0.0035580000840126236
2023-01-28 10:16:35.664902,-0.0013976091341673822
2023-01-28 10:16:35.669902,0.0033416352234780125
2023-01-28 10:16:35.674902,0.009745400394837251
2023-01-28 10:16:35.679902,0.01629948616027831
2023-01-28 10:16:35.684902,0.02239793075029236
2023-01-28 10:16:35.689902,0.0281514730304479
2023-01-28 10:16:35.694902,0.03346903612316407
2023-01-28 10:16:35.699902,0.03868123143911364
2023-01-28 10:16:35.704902,0.04550163921533694
2023-01-28 10:16:35.709902,0.05587021633982643
2023-01-28 10:16:35.714902,0.07016951911673071
2023-01-28 10:16:35.719902,0.08779605478048313
2023-01-28 10:16:35.724902,0.10868842456789884
2023-01-28 10:16:35.729902,0.1325355023145674
2023-01-28 10:16:35.734902,0.15711969208260074
2023-01-28 10:16:35.739902,0.17948667705059043
2023-01-28 10:16:35.744902,0.1983437042037062
2023-01-28 10:16:35.749902,0.21321555972099282
2023-01-28 10:16:35.754902,0.22185975012288964
2023-01-28 10:16:35.759902,0.22148549556732156
2023-01-28 10:16:35.764902,0.2127841921203885
2023-01-28 10:16:35.769902,0.1997528523206709
2023-01-28 10:16:35.774902,0.18457836450201423
2023-01-28 10:16:35.779902,0.1654469966888426
2023-01-28 10:16:35.784902,0.14081630609185014
2023-01-28 10:16:35.789902,0.11327902972698206
2023-01-28 10:16:35.794902,0.08712718818470502
2023-01-28 10:16:35.799902,0.06394784152507776
2023-01-28 10:16:35.804902,0.04281668912082442
2023-01-28 10:16:35.809902,0.023487608879804514
2023-01-28 10:16:35.814902,0.00704445357689399
2023-01-28 10:16:35.819902,-0.005986094474792456
2023-01-28 10:16:35.824902,-0.016129784267436692
2023-01-28 10:16:35.829902,-0.023728013038635195
2023-01-28 10:16:35.834902,-0.02874393032550228
2023-01-28 10:16:35.839902,-0.03173351287841789
2023-01-28 10:16:35.844902,-0.03372586969037774
2023-01-28 10:16:35.849902,-0.03502706810832022
2023-01-28 10:16:35.854902,-0.034982838211559376
2023-01-28 10:16:35.859902,-0.03286341950297355
2023-01-28 10:16:35.864902,-0.02829953465491528
2023-01-28 10:16:35.869902,-0.02108355425298212
2023-01-28 10:16:35.874902,-0.011350503670880476
2023-01-28 10:16:35.879902,4.8081081331346805e-05
2023-01-28 10:16:35.884902,0.011886174845027665
2023-01-28 10:16:35.889902,0.02324720285832878
2023-01-28 10:16:35.894902,0.03360416979218573
2023-01-28 10:16:35.899902,0.04255175590515126
2023-01-28 10:16:35.904902,0.04987180661415025
2023-01-28 10:16:35.909902,0.055581729859113596
2023-01-28 10:16:35.914902,0.05949261927551134
2023-01-28 10:16:35.919902,0.060870647430419866
2023-01-28 10:16:35.924902,0.058770899905074676
2023-01-28 10:16:35.929902,0.0525285825133323
2023-01-28 10:16:35.934902,0.041938105190246225
2023-01-28 10:16:35.939902,0.027526419609785018
2023-01-28 10:16:35.944902,0.010986654231400488
2023-01-28 10:16:35.949902,-0.005048513412475444
2023-01-28 10:16:35.954902,-0.018087167000168942
2023-01-28 10:16:35.959902,-0.026709040626883493
2023-01-28 10:16:35.964902,-0.030739002798960597
2023-01-28 10:16:35.969902,-0.031084418296813878
2023-01-28 10:16:35.974902,-0.029357164292349625
2023-01-28 10:16:35.979902,-0.026901364326476926
2023-01-28 10:16:35.984902,-0.023803913697523677
2023-01-28 10:16:35.989902,-0.01918435096740725
2023-01-28 10:16:35.994902,-0.012720821206393897
2023-01-28 10:16:35.999902,-0.005962054245173945
2023-01-28 10:16:36.004902,-0.0026516816150469157
2023-01-28 10:16:36.009902,-0.008293986320495614
2023-01-28 10:16:36.014902,-0.02868508177327766
2023-01-28 10:16:36.019902,-0.06704907119274128
2023-01-28 10:16:36.024902,-0.12118264962000752
2023-01-28 10:16:36.029902,-0.18290042877197255
2023-01-28 10:16:36.034902,-0.24017299916912155
2023-01-28 10:16:36.039902,-0.28048098087310774
2023-01-28 10:16:36.044902,-0.2943787532589929
2023-01-28 10:16:36.049902,-0.2787741124629972
2023-01-28 10:16:36.054902,-0.2383476932479006
2023-01-28 10:16:36.059902,-0.18362164497375477
2023-01-28 10:16:36.064902,-0.12681587214096207
2023-01-28 10:16:36.069902,-0.07817983627319332
2023-01-28 10:16:36.074902,-0.04384337291711987
2023-01-28 10:16:36.079902,-0.024761756882071436
2023-01-28 10:16:36.084902,-0.017202508385543467
2023-01-28 10:16:36.089902,-0.015337864868342729
2023-01-28 10:16:36.094902,-0.014327852403127086
2023-01-28 10:16:36.099902,-0.011587540619075137
2023-01-28 10:16:36.104902,-0.0064208356936742775
2023-01-28 10:16:36.109902,0.0003365675802342641
2023-01-28 10:16:36.114902,0.006730109062288013
2023-01-28 10:16:36.119902,0.011082689277827762
2023-01-28 10:16:36.124902,0.013346173919702806
2023-01-28 10:16:36.129902,0.014760891906917066
2023-01-28 10:16:36.134902,0.016671071782363028
2023-01-28 10:16:36.139902,0.020362338051199937
2023-01-28 10:16:36.144902,0.027395563657564143
2023-01-28 10:16:36.149902,0.03889759629964819
2023-01-28 10:16:36.154902,0.054649365119814775
2023-01-28 10:16:36.159902,0.07366021722555162
2023-01-28 10:16:36.164902,0.09526784481060008
2023-01-28 10:16:36.169902,0.11885643005371094
2023-01-28 10:16:36.174902,0.14304350088824608
2023-01-28 10:16:36.179902,0.16619226336479173
2023-01-28 10:16:36.184902,0.18730768114422694
2023-01-28 10:16:36.189902,0.2054504603147505
2023-01-28 10:16:36.194902,0.21879686936734113
2023-01-28 10:16:36.199902,0.22540411353111237
2023-01-28 10:16:36.204902,0.2245340291998264
2023-01-28 10:16:36.209902,0.216340824961662
2023-01-28 10:16:36.214902,0.20099895461536985
2023-01-28 10:16:36.219902,0.17936646938323964
2023-01-28 10:16:36.224902,0.15387056512459063
2023-01-28 10:16:36.229902,0.12736678123474116
2023-01-28 10:16:36.234902,0.1014613859120496
2023-01-28 10:16:36.239902,0.07688164710998527
2023-01-28 10:16:36.244902,0.054597287481127486
2023-01-28 10:16:36.249902,0.035195350646972524
2023-01-28 10:16:36.254902,0.017926859725963907
2023-01-28 10:16:36.259902,0.0018992027034982848
2023-01-28 10:16:36.264902,-0.012353780594337262
2023-01-28 10:16:36.269902,-0.02377609536051754
2023-01-28 10:16:36.274902,-0.03242032724737068
2023-01-28 10:16:36.279902,-0.03875335305929177
2023-01-28 10:16:36.284902,-0.042308786340963626
2023-01-28 10:16:36.289902,-0.04269599914550784
2023-01-28 10:16:36.294902,-0.04106485203140257
2023-01-28 10:16:36.299902,-0.03884951397776601
2023-01-28 10:16:36.304902,-0.03591336741081527
2023-01-28 10:16:36.309902,-0.03158926963806144
2023-01-28 10:16:36.314902,-0.026455765099369376
2023-01-28 10:16:36.319902,-0.02117971703410142
2023-01-28 10:16:36.324902,-0.014717158425590836
2023-01-28 10:16:36.329902,-0.005745689384639237
2023-01-28 10:16:36.334902,0.005155838760150855
2023-01-28 10:16:36.339902,0.01675625704228867
2023-01-28 10:16:36.344902,0.0292414580492573
2023-01-28 10:16:36.349902,0.04269599914550781
2023-01-28 10:16:36.354902,0.05487124926994462
2023-01-28 10:16:36.359902,0.06303429603576656
2023-01-28 10:16:36.364902,0.06678517815400836
2023-01-28 10:16:36.369902,0.06656825542449948
2023-01-28 10:16:36.374902,0.061128314169530115
2023-01-28 10:16:36.379902,0.04954755306243887
2023-01-28 10:16:36.384902,0.034232930302389
2023-01-28 10:16:36.389902,0.018583338707685353
2023-01-28 10:16:36.394902,0.003284397492969172
2023-01-28 10:16:36.399902,-0.01173178385943173
2023-01-28 10:16:36.404902,-0.023849447347638195
2023-01-28 10:16:36.409902,-0.03060360811650747
2023-01-28 10:16:36.414902,-0.03399780454131587
2023-01-28 10:16:36.419902,-0.037262838333845034
2023-01-28 10:16:36.424902,-0.03926165995403229
2023-01-28 10:16:36.429902,-0.03728687763214103
2023-01-28 10:16:36.434902,-0.03303189155853394
2023-01-28 10:16:36.439902,-0.029425621032714816
2023-01-28 10:16:36.444902,-0.024142362815583424
2023-01-28 10:16:36.449902,-0.01473685167729845
2023-01-28 10:16:36.454902,-0.008800580018365972
2023-01-28 10:16:36.459902,-0.01882374286651606
2023-01-28 10:16:36.464902,-0.0462587931372171
2023-01-28 10:16:36.469902,-0.0813051089644432
2023-01-28 10:16:36.474902,-0.12028776862246748
2023-01-28 10:16:36.479902,-0.17030319571495048
2023-01-28 10:16:36.484902,-0.23032737400585315
2023-01-28 10:16:36.489902,-0.27975976467132546
2023-01-28 10:16:36.494902,-0.2965562266770248
2023-01-28 10:16:36.499902,-0.2796876430511473
2023-01-28 10:16:36.504902,-0.24403891691038115
2023-01-28 10:16:36.509902,-0.19999325275421134
2023-01-28 10:16:36.514902,-0.14983354390821
2023-01-28 10:16:36.519902,-0.0996961221098899
2023-01-28 10:16:36.524902,-0.06095318125550121
2023-01-28 10:16:36.529902,-0.038176380097865975
2023-01-28 10:16:36.534902,-0.02551322149291841
2023-01-28 10:16:36.539902,-0.016852419823408096
2023-01-28 10:16:36.544902,-0.011686974203415626
2023-01-28 10:16:36.549902,-0.009520053863525295
2023-01-28 10:16:36.554902,-0.006542873686488519
2023-01-28 10:16:36.559902,-0.0010097026824950508
2023-01-28 10:16:36.564902,0.004051659259976474
2023-01-28 10:16:36.569902,0.006346702575683584
2023-01-28 10:16:36.574902,0.007768365825264609
2023-01-28 10:16:36.579902,0.010265311226248708
2023-01-28 10:16:36.584902,0.012990193647575723
2023-01-28 10:16:36.589902,0.015890797600150122
2023-01-28 10:16:36.594902,0.0219671328511225
2023-01-28 10:16:36.599902,0.03353655338287359
2023-01-28 10:16:36.604902,0.04963383520615567
2023-01-28 10:16:36.609902,0.06897231191396709
2023-01-28 10:16:36.614902,0.09205329960758454
2023-01-28 10:16:36.619902,0.11837562173604954
2023-01-28 10:16:36.624902,0.1446916845855665
2023-01-28 10:16:36.629902,0.16806742548942552
2023-01-28 10:16:36.634902,0.18810474494726334
2023-01-28 10:16:36.639902,0.2046090364456175
2023-01-28 10:16:36.644902,0.21579638698329612
2023-01-28 10:16:36.649902,0.22047579288482647
2023-01-28 10:16:36.654902,0.2195093711827717
2023-01-28 10:16:36.659902,0.21350404620170585
2023-01-28 10:16:36.664902,0.20136629714591928
2023-01-28 10:16:36.669902,0.18268406391143777
2023-01-28 10:16:36.674902,0.159440787580023
2023-01-28 10:16:36.679902,0.13400197029113756
2023-01-28 10:16:36.684902,0.10740976728521688
2023-01-28 10:16:36.689902,0.08082430064678178
2023-01-28 10:16:36.694902,0.05642468321776412
2023-01-28 10:16:36.699902,0.035387676209211294
2023-01-28 10:16:36.704902,0.016773722516873635
2023-01-28 10:16:36.709902,-0.0003125270304735276
2023-01-28 10:16:36.714902,-0.01514076426052706
2023-01-28 10:16:36.719902,-0.02694944664835927
2023-01-28 10:16:36.724902,-0.036272181775237604
2023-01-28 10:16:36.729902,-0.04353741928935054
2023-01-28 10:16:36.734902,-0.048077234019338444
2023-01-28 10:16:36.739902,-0.04966775700449947
2023-01-28 10:16:36.744902,-0.049447639696061876
2023-01-28 10:16:36.749902,-0.04822532460093496
2023-01-28 10:16:36.754902,-0.045389820717931614
2023-01-28 10:16:36.759902,-0.0404842719435691
2023-01-28 10:16:36.764902,-0.03434867490393238
2023-01-28 10:16:36.769902,-0.02774278447031971
2023-01-28 10:16:36.774902,-0.02032071326709656
2023-01-28 10:16:36.779902,-0.011924108490347824
2023-01-28 10:16:36.784902,-0.003454503225808054
2023-01-28 10:16:36.789902,0.004495581146329677
2023-01-28 10:16:36.794902,0.012551756759063698
2023-01-28 10:16:36.799902,0.02125183865427968
2023-01-28 10:16:36.804902,0.030137989657072588
2023-01-28 10:16:36.809902,0.03887355327606208
2023-01-28 10:16:36.814902,0.047775132822408806
2023-01-28 10:16:36.819902,0.056254863739013575
2023-01-28 10:16:36.824902,0.06197485398889055
2023-01-28 10:16:36.829902,0.06250540912151328
2023-01-28 10:16:36.834902,0.056930311465207606
2023-01-28 10:16:36.839902,0.04548470303416245
2023-01-28 10:16:36.844902,0.029187626539474137
2023-01-28 10:16:36.849902,0.010673999786376887
2023-01-28 10:16:36.854902,-0.006086698324594613
2023-01-28 10:16:36.859902,-0.018198689445853213
2023-01-28 10:16:36.864902,-0.025430348832083463
2023-01-28 10:16:36.869902,-0.02913713455200194
2023-01-28 10:16:36.874902,-0.03079724144249932
2023-01-28 10:16:36.879902,-0.031925838440656565
2023-01-28 10:16:36.884902,-0.03369212347400484
2023-01-28 10:16:36.889902,-0.035435758531093466
2023-01-28 10:16:36.894902,-0.034594091443718604
2023-01-28 10:16:36.899902,-0.02920925617218007
2023-01-28 10:16:36.904902,-0.020212654079537245
2023-01-28 10:16:36.909902,-0.011347135528921947
2023-01-28 10:16:36.914902,-0.008192565820235491
2023-01-28 10:16:36.919902,-0.017381310462951566
2023-01-28 10:16:36.924902,-0.0443879949552099
2023-01-28 10:16:36.929902,-0.0897673815488815
2023-01-28 10:16:36.934902,-0.1472410883428661
2023-01-28 10:16:36.939902,-0.20569086074829093
2023-01-28 10:16:36.944902,-0.25284107856665794
2023-01-28 10:16:36.949902,-0.27829331159591675
2023-01-28 10:16:36.954902,-0.27635812263804077
2023-01-28 10:16:36.959902,-0.2485311031341551
2023-01-28 10:16:36.964902,-0.20308410811188238
2023-01-28 10:16:36.969902,-0.15111884474754322
2023-01-28 10:16:36.974902,-0.10237076410535503
2023-01-28 10:16:36.979902,-0.06337086856365201
2023-01-28 10:16:36.984902,-0.03692592418010247
2023-01-28 10:16:36.989902,-0.021828811615705365
2023-01-28 10:16:36.994902,-0.0140568119768276
2023-01-28 10:16:36.999902,-0.0096162166446447
2023-01-28 10:16:37.004902,-0.006342920269247096
2023-01-28 10:16:37.009902,-0.0032695136032997495
2023-01-28 10:16:37.014902,0.0003160936433546434
2023-01-28 10:16:37.019902,0.004543662071228056
2023-01-28 10:16:37.024902,0.00884585568677924
2023-01-28 10:16:37.029902,0.013005932793021277
2023-01-28 10:16:37.034902,0.017606076451489115
2023-01-28 10:16:37.039902,0.023006796836853045
2023-01-28 10:16:37.044902,0.028867418387992255
2023-01-28 10:16:37.049902,0.03526747226715082
2023-01-28 10:16:37.054902,0.04340927283710308
2023-01-28 10:16:37.059902,0.0546441487967967
2023-01-28 10:16:37.064902,0.06962150570457834
2023-01-28 10:16:37.069902,0.08875767886638639
2023-01-28 10:16:37.074902,0.11237137393600884
2023-01-28 10:16:37.079902,0.1395553350448609
2023-01-28 10:16:37.084902,0.16770961210046362
2023-01-28 10:16:37.089902,0.19383887946605674
2023-01-28 10:16:37.094902,0.21567179492158864
2023-01-28 10:16:37.099902,0.23129403591155995
2023-01-28 10:16:37.104902,0.23895582913538702
2023-01-28 10:16:37.109902,0.23812155425548545
2023-01-28 10:16:37.114902,0.22993802950226616
2023-01-28 10:16:37.119902,0.21600425243377674
2023-01-28 10:16:37.124902,0.1973862623035342
2023-01-28 10:16:37.129902,0.17523150146007518
2023-01-28 10:16:37.134902,0.15122345011875907
2023-01-28 10:16:37.139902,0.12659749388694758
2023-01-28 10:16:37.144902,0.10155504634456493
2023-01-28 10:16:37.149902,0.07642488181591017
2023-01-28 10:16:37.154902,0.05258613153127631
2023-01-28 10:16:37.159902,0.031445026397704974
2023-01-28 10:16:37.164902,0.013290500043558357
2023-01-28 10:16:37.169902,-0.0019953649025410696
2023-01-28 10:16:37.174902,-0.01390916166511971
2023-01-28 10:16:37.179902,-0.022093256935477274
2023-01-28 10:16:37.184902,-0.027603182610859298
2023-01-28 10:16:37.189902,-0.03228644654154772
2023-01-28 10:16:37.194902,-0.03699692531895397
2023-01-28 10:16:37.199902,-0.04110932350158694
2023-01-28 10:16:37.204902,-0.04354305144539078
2023-01-28 10:16:37.209902,-0.04358550161123274
2023-01-28 10:16:37.214902,-0.040968692859641616
2023-01-28 10:16:37.219902,-0.035940609872341135
2023-01-28 10:16:37.224902,-0.029378965129089482
2023-01-28 10:16:37.229902,-0.022429823875427232
2023-01-28 10:16:37.234902,-0.015927879782564207
2023-01-28 10:16:37.239902,-0.010145108215510809
2023-01-28 10:16:37.244902,-0.004706897190855144
2023-01-28 10:16:37.249902,0.0014664729824289502
2023-01-28 10:16:37.254902,0.00968802484925443
2023-01-28 10:16:37.259902,0.02050658129155632
2023-01-28 10:16:37.264902,0.033211703929587874
2023-01-28 10:16:37.269902,0.046302080154418904
2023-01-28 10:16:37.274902,0.0580692872195454
2023-01-28 10:16:37.279902,0.06676058471202842
2023-01-28 10:16:37.284902,0.0708982038056096
2023-01-28 10:16:37.289902,0.06990989297628403
2023-01-28 10:16:37.294902,0.06420222417866263
2023-01-28 10:16:37.299902,0.054499905556440256
2023-01-28 10:16:37.304902,0.04151746924134081
2023-01-28 10:16:37.309902,0.026348432525992328
2023-01-28 10:16:37.314902,0.010585447241916332
2023-01-28 10:16:37.319902,-0.004255175590515052
2023-01-28 10:16:37.324902,-0.0171092836827187
2023-01-28 10:16:37.329902,-0.02716581150889393
2023-01-28 10:16:37.334902,-0.03390808917789312
2023-01-28 10:16:37.339902,-0.03755132481455806
2023-01-28 10:16:37.344902,-0.03884765186028241
2023-01-28 10:16:37.349902,-0.03810425847768773
2023-01-28 10:16:37.354902,-0.03474798364591812
2023-01-28 10:16:37.359902,-0.028079351410269675
2023-01-28 10:16:37.364902,-0.018278993753171074
2023-01-28 10:16:37.369902,-0.007019837852567387
2023-01-28 10:16:37.374902,0.0019559771225773565
2023-01-28 10:16:37.379902,0.002668499946594257
2023-01-28 10:16:37.384902,-0.011527707319953569
2023-01-28 10:16:37.389902,-0.04471540451049794
2023-01-28 10:16:37.394902,-0.09567034380309852
2023-01-28 10:16:37.399902,-0.15727321803569783
2023-01-28 10:16:37.404902,-0.21790657951117548
2023-01-28 10:16:37.409902,-0.2643257379531859
2023-01-28 10:16:37.414902,-0.2857838666620129
2023-01-28 10:16:37.419902,-0.2779807746410368
2023-01-28 10:16:37.424902,-0.2443878920942078
2023-01-28 10:16:37.429902,-0.19422352313995353
2023-01-28 10:16:37.434902,-0.1388765687860808
2023-01-28 10:16:37.439902,-0.08861343562602986
2023-01-28 10:16:37.444902,-0.050044741288703905
2023-01-28 10:16:37.449902,-0.024857919663190807
2023-01-28 10:16:37.454902,-0.010713669431723308
2023-01-28 10:16:37.459902,-0.0037503242492675235
2023-01-28 10:16:37.464902,-0.000602701275569944
2023-01-28 10:16:37.469902,0.0010818243026732735
2023-01-28 10:16:37.474902,0.0027013924501393563
2023-01-28 10:16:37.479902,0.004663865081965888
2023-01-28 10:16:37.484902,0.006807597507485947
2023-01-28 10:16:37.489902,0.009255608543753577
2023-01-28 10:16:37.494902,0.012591750489110619
2023-01-28 10:16:37.499902,0.017188986763358095
2023-01-28 10:16:37.504902,0.02294406035866375
2023-01-28 10:16:37.509902,0.029858350753784065
2023-01-28 10:16:37.514902,0.038383999652909236
2023-01-28 10:16:37.519902,0.0490667447447776
2023-01-28 10:16:37.524902,0.06238355957237311
2023-01-28 10:16:37.529902,0.07904529571533195
2023-01-28 10:16:37.534902,0.09978262822870616
2023-01-28 10:16:37.539902,0.12443383783102024
2023-01-28 10:16:37.544902,0.15154776011449334
2023-01-28 10:16:37.549902,0.17895779013633706
2023-01-28 10:16:37.554902,0.2043019499099387
2023-01-28 10:16:37.559902,0.22504350543022145
2023-01-28 10:16:37.564902,0.23884560812963726
2023-01-28 10:16:37.569902,0.24446825683116896
2023-01-28 10:16:37.574902,0.24205682870613074
2023-01-28 10:16:37.579902,0.23247203230857827
2023-01-28 10:16:37.584902,0.21677335183510324
2023-01-28 10:16:37.589902,0.1963631361722945
2023-01-28 10:16:37.594902,0.1729367813279194
2023-01-28 10:16:37.599902,0.14794549345970145
2023-01-28 10:16:37.604902,0.12247345094502092
2023-01-28 10:16:37.609902,0.09770075976848594
2023-01-28 10:16:37.614902,0.07488564492710982
2023-01-28 10:16:37.619902,0.0546441487967967
2023-01-28 10:16:37.624902,0.03671451376154782
2023-01-28 10:16:37.629902,0.020626783370971537
2023-01-28 10:16:37.634902,0.00620081591679957
2023-01-28 10:16:37.639902,-0.006635189056396371
2023-01-28 10:16:37.644902,-0.017884520050321744
2023-01-28 10:16:37.649902,-0.027141770347952805
2023-01-28 10:16:37.654902,-0.03378861636209761
2023-01-28 10:16:37.659902,-0.03779172897338866
2023-01-28 10:16:37.664902,-0.039848124534265505
2023-01-28 10:16:37.669902,-0.04055639356374735
2023-01-28 10:16:37.674902,-0.039898857706910804
2023-01-28 10:16:37.679902,-0.037647485733032206
2023-01-28 10:16:37.684902,-0.03373243556934034
2023-01-28 10:16:37.689902,-0.028079351410269612
2023-01-28 10:16:37.694902,-0.0207103626523482
2023-01-28 10:16:37.699902,-0.012260675430297813
2023-01-28 10:16:37.704902,-0.003828172127983876
2023-01-28 10:16:37.709902,0.004014770500361958
2023-01-28 10:16:37.714902,0.01168024015942842
2023-01-28 10:16:37.719902,0.0199296083301305
2023-01-28 10:16:37.724902,0.029267393459058808
2023-01-28 10:16:37.729902,0.0399553775787354
2023-01-28 10:16:37.734902,0.051777728780787124
2023-01-28 10:16:37.739902,0.06334682554006572
2023-01-28 10:16:37.744902,0.07218958543784905
2023-01-28 10:16:37.749902,0.07599215209484096
2023-01-28 10:16:37.754902,0.07359969502314585
2023-01-28 10:16:37.759902,0.06498157978057853
2023-01-28 10:16:37.764902,0.05111699491009955
2023-01-28 10:16:37.769902,0.03425776958465576
2023-01-28 10:16:37.774902,0.01748845319599458
2023-01-28 10:16:37.779902,0.0033175945281981993
2023-01-28 10:16:37.784902,-0.007151861763023106
2023-01-28 10:16:37.789902,-0.013775229454040432
2023-01-28 10:16:37.794902,-0.017039511355623156
2023-01-28 10:16:37.799902,-0.01848717592656614
2023-01-28 10:16:37.804902,-0.020260185399863097
2023-01-28 10:16:37.809902,-0.023127000778913373
2023-01-28 10:16:37.814902,-0.025445276929889103
2023-01-28 10:16:37.819902,-0.024930041283368988
2023-01-28 10:16:37.824902,-0.0210314129453872
2023-01-28 10:16:37.829902,-0.014857053756713834
2023-01-28 10:16:37.834902,-0.007616760277696656
2023-01-28 10:16:37.839902,-0.0008895000210030588
2023-01-28 10:16:37.844902,0.001311412890213352
2023-01-28 10:16:37.849902,-0.0076929731294511985
2023-01-28 10:16:37.854902,-0.033894196475010734
2023-01-28 10:16:37.859902,-0.07839620113372797
2023-01-28 10:16:37.864902,-0.13586699461283516
2023-01-28 10:16:37.869902,-0.19605061411857588
2023-01-28 10:16:37.874902,-0.24665373429935802
2023-01-28 10:16:37.879902,-0.2765864133834837
2023-01-28 10:16:37.884902,-0.2792688568402071
2023-01-28 10:16:37.889902,-0.2549499273300169
2023-01-28 10:16:37.894902,-0.21052544729345948
2023-01-28 10:16:37.899902,-0.1566962450742721
2023-01-28 10:16:37.904902,-0.10411862981607563
2023-01-28 10:16:37.909902,-0.06048600003123288
2023-01-28 10:16:37.914902,-0.029336631352232873
2023-01-28 10:16:37.919902,-0.010337432846426907
2023-01-28 10:16:37.924902,-0.000545421334315923
2023-01-28 10:16:37.929902,0.0038705270271747827
2023-01-28 10:16:37.934902,0.006158325447251437
2023-01-28 10:16:37.939902,0.008366107940673743
2023-01-28 10:16:37.944902,0.011491403103206057
2023-01-28 10:16:37.949902,0.01577059552073466
2023-01-28 10:16:37.954902,0.020812121930681785
2023-01-28 10:16:37.959902,0.025867622345685893
2023-01-28 10:16:37.964902,0.03038860068513547
2023-01-28 10:16:37.969902,0.0344500951468944
2023-01-28 10:16:37.974902,0.03869986751793152
2023-01-28 10:16:37.979902,0.04409035295248034
2023-01-28 10:16:37.984902,0.051722493951815614
2023-01-28 10:16:37.989902,0.06267368793487536
2023-01-28 10:16:37.994902,0.07766996860404508
2023-01-28 10:16:37.999902,0.09688337892293926
2023-01-28 10:16:38.004902,0.12002711950770595
2023-01-28 10:16:38.009902,0.1463828533887861
2023-01-28 10:16:38.014902,0.1745199897674144
2023-01-28 10:16:38.019902,0.20215690135955802
2023-01-28 10:16:38.024902,0.22659783908399148
2023-01-28 10:16:38.029902,0.24540583789348586
2023-01-28 10:16:38.034902,0.25677050321367856
2023-01-28 10:16:38.039902,0.2596378326416014
2023-01-28 10:16:38.044902,0.25387745374703874
2023-01-28 10:16:38.049902,0.2403092384338376
2023-01-28 10:16:38.054902,0.2203878047110422
2023-01-28 10:16:38.059902,0.19588232040405257
2023-01-28 10:16:38.064902,0.16884897170147545
2023-01-28 10:16:38.069902,0.14152666926383964
2023-01-28 10:16:38.074902,0.11578721487253427
2023-01-28 10:16:38.079902,0.09255608171224584
2023-01-28 10:16:38.084902,0.07180274039069232
2023-01-28 10:16:38.089902,0.05298535153269756
2023-01-28 10:16:38.094902,0.03549576346002774
2023-01-28 10:16:38.099902,0.019040107727050688
2023-01-28 10:16:38.104902,0.003958012745818953
2023-01-28 10:16:38.109902,-0.008895000442862492
2023-01-28 10:16:38.114902,-0.018826553528222895
2023-01-28 10:16:38.119902,-0.025891661643981857
2023-01-28 10:16:38.124902,-0.030772563506944607
2023-01-28 10:16:38.129902,-0.0342337302863596
2023-01-28 10:16:38.134902,-0.036713478485475244
2023-01-28 10:16:38.139902,-0.03808021545410144
2023-01-28 10:16:38.144902,-0.0374887669272288
2023-01-28 10:16:38.149902,-0.03370483964681613
2023-01-28 10:16:38.154902,-0.026000281408039113
2023-01-28 10:16:38.159902,-0.014881094917654915
2023-01-28 10:16:38.164902,-0.0019678049264905914
2023-01-28 10:16:38.169902,0.010698040947318044
2023-01-28 10:16:38.174902,0.02133460676493043
2023-01-28 10:16:38.179902,0.02901693247258664
2023-01-28 10:16:38.184902,0.03415250281365519
2023-01-28 10:16:38.189902,0.03832062333822256
2023-01-28 10:16:38.194902,0.04327825796726613
2023-01-28 10:16:38.199902,0.04988412186503412
2023-01-28 10:16:38.204902,0.05772510519546781
2023-01-28 10:16:38.209902,0.06534218788146975
2023-01-28 10:16:38.214902,0.07066909263977539
2023-01-28 10:16:38.219902,0.07173697650432578
2023-01-28 10:16:38.224902,0.06757563830992463
2023-01-28 10:16:38.229902,0.05865892022848117
2023-01-28 10:16:38.234902,0.046528411283170576
2023-01-28 10:16:38.239902,0.03312786668539033
2023-01-28 10:16:38.244902,0.020377429308686572
2023-01-28 10:16:38.249902,0.009784500114619732
2023-01-28 10:16:38.254902,0.0019275536650388383
2023-01-28 10:16:38.259902,-0.0037022433243691162
2023-01-28 10:16:38.264902,-0.008206034967618871
2023-01-28 10:16:38.269902,-0.012621283531188887
2023-01-28 10:16:38.274902,-0.01752516333271035
2023-01-28 10:16:38.279902,-0.02267022989690299
2023-01-28 10:16:38.284902,-0.026637941865025085
2023-01-28 10:16:38.289902,-0.027165811508893863
2023-01-28 10:16:38.294902,-0.022414929835265975
2023-01-28 10:16:38.299902,-0.012428959831595358
2023-01-28 10:16:38.304902,1.199630239124853e-05
2023-01-28 10:16:38.309902,0.009327730163931765
2023-01-28 10:16:38.314902,0.008119376772015399
2023-01-28 10:16:38.319902,-0.010385513305663981
2023-01-28 10:16:38.324902,-0.049066165435537594
2023-01-28 10:16:38.329902,-0.10469655692577358
2023-01-28 10:16:38.334902,-0.16814019055502274
2023-01-28 10:16:38.339902,-0.22670230269432057
2023-01-28 10:16:38.344902,-0.2677051542022342
2023-01-28 10:16:38.349902,-0.28238019347190846
2023-01-28 10:16:38.354902,-0.2686816739110291
2023-01-28 10:16:38.359902,-0.23148636519908897
2023-01-28 10:16:38.364902,-0.18016379713827138
2023-01-28 10:16:38.369902,-0.12522718310356135
2023-01-28 10:16:38.374902,-0.07559299527763418
2023-01-28 10:16:38.379902,-0.03680606931447978
2023-01-28 10:16:38.384902,-0.010413784254732179
2023-01-28 10:16:38.389902,0.005168716423213434
2023-01-28 10:16:38.394902,0.012886928469083027
2023-01-28 10:16:38.399902,0.0157225131988525
2023-01-28 10:16:38.404902,0.016224984440935734
2023-01-28 10:16:38.409902,0.016203325241804133
2023-01-28 10:16:38.414902,0.016457198187338113
2023-01-28 10:16:38.419902,0.017164945602416846
2023-01-28 10:16:38.424902,0.0186620310829585
2023-01-28 10:16:38.429902,0.021564364433288425
2023-01-28 10:16:38.434902,0.026304768200378588
2023-01-28 10:16:38.439902,0.03312786668539031
2023-01-28 10:16:38.444902,0.04248402839444161
2023-01-28 10:16:38.449902,0.054812431335449045
2023-01-28 10:16:38.454902,0.06995120778430461
2023-01-28 10:16:38.459902,0.08736332505941398
2023-01-28 10:16:38.464902,0.10687335548843648
2023-01-28 10:16:38.469902,0.1285207271575927
2023-01-28 10:16:38.474902,0.15179823034754453
2023-01-28 10:16:38.479902,0.17576038837432856
2023-01-28 10:16:38.484902,0.19966990868814566
2023-01-28 10:16:38.489902,0.22259137034416177
2023-01-28 10:16:38.494902,0.24248154738944439
2023-01-28 10:16:38.499902,0.2567529678344725
2023-01-28 10:16:38.504902,0.26375212118458013
2023-01-28 10:16:38.509902,0.2628111839294432
2023-01-28 10:16:38.514902,0.25334917716796385
2023-01-28 10:16:38.519902,0.23554921150207497
2023-01-28 10:16:38.524902,0.2117970025587434
2023-01-28 10:16:38.529902,0.185544893145561
2023-01-28 10:16:38.534902,0.158471180696523
2023-01-28 10:16:38.539902,0.13061225414276115
2023-01-28 10:16:38.544902,0.10344713773743636
2023-01-28 10:16:38.549902,0.08015116304159157
2023-01-28 10:16:38.554902,0.061567152458263476
2023-01-28 10:16:38.559902,0.04445096105337134
2023-01-28 10:16:38.564902,0.025797307017245998
2023-01-28 10:16:38.569902,0.007116000168025398
2023-01-28 10:16:38.574902,-0.0077823055918617755
2023-01-28 10:16:38.579902,-0.01774191856384268
2023-01-28 10:16:38.584902,-0.02450176300331275
2023-01-28 10:16:38.589902,-0.029065012931823665
2023-01-28 10:16:38.594902,-0.030677714565803302
2023-01-28 10:16:38.599902,-0.029233297333121157
2023-01-28 10:16:38.604902,-0.026153574904394853
2023-01-28 10:16:38.609902,-0.022501945495605316
2023-01-28 10:16:38.614902,-0.018178574796474275
2023-01-28 10:16:38.619902,-0.013390581123530807
2023-01-28 10:16:38.624902,-0.009183942949509609
2023-01-28 10:16:38.629902,-0.005962054245173845
2023-01-28 10:16:38.634902,-0.002857103512985683
2023-01-28 10:16:38.639902,0.0009616216411813666
2023-01-28 10:16:38.644902,0.005565215483732416
2023-01-28 10:16:38.649902,0.01120289228856563
2023-01-28 10:16:38.654902,0.018725363848606177
2023-01-28 10:16:38.659902,0.02853612229228015
2023-01-28 10:16:38.664902,0.040011763737422795
2023-01-28 10:16:38.669902,0.05224009603261945
2023-01-28 10:16:38.674902,0.06434565669398501
2023-01-28 10:16:38.679902,0.07476608455181113
2023-01-28 10:16:38.684902,0.08122450338248637
2023-01-28 10:16:38.689902,0.08200228214263917
2023-01-28 10:16:38.694902,0.07674030174698114
2023-01-28 10:16:38.699902,0.06596724689006801
2023-01-28 10:16:38.704902,0.05076871913435613
2023-01-28 10:16:38.709902,0.03317594528198237
2023-01-28 10:16:38.714902,0.015930566987041886
2023-01-28 10:16:38.719902,0.0012501081218941957
2023-01-28 10:16:38.724902,-0.00987319830956605
2023-01-28 10:16:38.729902,-0.0172370672225952
2023-01-28 10:16:38.734902,-0.021108803246566714
2023-01-28 10:16:38.739902,-0.02245386503636828
2023-01-28 10:16:38.744902,-0.02253883841943759
2023-01-28 10:16:38.749902,-0.021756689995527177
2023-01-28 10:16:38.754902,-0.019250842330822082
2023-01-28 10:16:38.759902,-0.013943513855337968
2023-01-28 10:16:38.764902,-0.0056982513243682385
2023-01-28 10:16:38.769902,0.00413497304543849
2023-01-28 10:16:38.774902,0.012226040199445894
2023-01-28 10:16:38.779902,0.013054013252258339
2023-01-28 10:16:38.784902,0.00032379347055898697
2023-01-28 10:16:38.789902,-0.030074715614318837
2023-01-28 10:16:38.794902,-0.07762464533127603
2023-01-28 10:16:38.799902,-0.13664643466472617
2023-01-28 10:16:38.804902,-0.19727417300973873
2023-01-28 10:16:38.809902,-0.24756948649883265
2023-01-28 10:16:38.814902,-0.27693026178038993
2023-01-28 10:16:38.819902,-0.2797116935253142
2023-01-28 10:16:38.824902,-0.2568309003961542
2023-01-28 10:16:38.829902,-0.21460990607738484
2023-01-28 10:16:38.834902,-0.16227424471183363
2023-01-28 10:16:38.839902,-0.10940849781036366
2023-01-28 10:16:38.844902,-0.06356911146196859
2023-01-28 10:16:38.849902,-0.0286082439124584
2023-01-28 10:16:38.854902,-0.004770405607826565
2023-01-28 10:16:38.859902,0.009712378494441443
2023-01-28 10:16:38.864902,0.017180494645260655
2023-01-28 10:16:38.869902,0.020025771111249913
2023-01-28 10:16:38.874902,0.02038844186570383
2023-01-28 10:16:38.879902,0.019761323928832997
2023-01-28 10:16:38.884902,0.019087057757978983
2023-01-28 10:16:38.889902,0.019256472587585356
2023-01-28 10:16:38.894902,0.021090893761308505
2023-01-28 10:16:38.899902,0.024809837341308497
2023-01-28 10:16:38.904902,0.030012442484692432
2023-01-28 10:16:38.909902,0.036349296569824135
2023-01-28 10:16:38.914902,0.04393947565396604
2023-01-28 10:16:38.919902,0.05322575569152832
2023-01-28 10:16:38.924902,0.06491208679810163
2023-01-28 10:16:38.929902,0.08003096282482133
2023-01-28 10:16:38.934902,0.0994741091933494
2023-01-28 10:16:38.939902,0.12315969169139863
2023-01-28 10:16:38.944902,0.14982434963281818
2023-01-28 10:16:38.949902,0.17753939330577845
2023-01-28 10:16:38.954902,0.2040856635210008
2023-01-28 10:16:38.959902,0.22701482474803913
2023-01-28 10:16:38.964902,0.24404117618397742
2023-01-28 10:16:38.969902,0.25369983911514266
2023-01-28 10:16:38.974902,0.25548314796830207
2023-01-28 10:16:38.979902,0.24946868419647206
2023-01-28 10:16:38.984902,0.23622711743307112
2023-01-28 10:16:38.989902,0.21703800559043865
2023-01-28 10:16:38.994902,0.19370031278762143
2023-01-28 10:16:38.999902,0.16797125339508048
2023-01-28 10:16:39.004902,0.1413708935095809
2023-01-28 10:16:39.009902,0.1153465136885642
2023-01-28 10:16:39.014902,0.09112063503077816
2023-01-28 10:16:39.019902,0.06928484141826619
2023-01-28 10:16:39.024902,0.04983435365598878
2023-01-28 10:16:39.029902,0.03259897232055664
2023-01-28 10:16:39.034902,0.01740894447438998
2023-01-28 10:16:39.039902,0.004014770500361853
2023-01-28 10:16:39.044902,-0.007717686065280077
2023-01-28 10:16:39.049902,-0.01752555370330804
2023-01-28 10:16:39.054902,-0.024963907337787826
2023-01-28 10:16:39.059902,-0.029858350753784
2023-01-28 10:16:39.064902,-0.03229198630931729
2023-01-28 10:16:39.069902,-0.03228644654154765
2023-01-28 10:16:39.074902,-0.029842477312200313
2023-01-28 10:16:39.079902,-0.02524256706237792
2023-01-28 10:16:39.084902,-0.01907361637228724
2023-01-28 10:16:39.089902,-0.012092391960322715
2023-01-28 10:16:39.094902,-0.00529435690719678
2023-01-28 10:16:39.099902,0.0001923243253258325
2023-01-28 10:16:39.104902,0.003813066589866234
2023-01-28 10:16:39.109902,0.006274580955505338
2023-01-28 10:16:39.114902,0.009356028320177675
2023-01-28 10:16:39.119902,0.015049378387629908
2023-01-28 10:16:39.124902,0.024727726635091252
2023-01-28 10:16:39.129902,0.038440823554992676
2023-01-28 10:16:39.134902,0.05438402553460727
2023-01-28 10:16:39.139902,0.06921271979808802
2023-01-28 10:16:39.144902,0.07943199470131708
2023-01-28 10:16:39.149902,0.08281966298818584
2023-01-28 10:16:39.154902,0.07891425991389922
2023-01-28 10:16:39.159902,0.0688521116971968
2023-01-28 10:16:39.164902,0.05499983068789935
2023-01-28 10:16:39.169902,0.04007558152079581
2023-01-28 10:16:39.174902,0.025914776316900957
2023-01-28 10:16:39.179902,0.0130540132522583
2023-01-28 10:16:39.184902,0.001463777427258705
2023-01-28 10:16:39.189902,-0.00884691905230283
2023-01-28 10:16:39.194902,-0.017980427084926687
2023-01-28 10:16:39.199902,-0.025987824425101207
2023-01-28 10:16:39.204902,-0.03211058255424419
2023-01-28 10:16:39.209902,-0.035003028810024185
2023-01-28 10:16:39.214902,-0.03426302152656481
2023-01-28 10:16:39.219902,-0.030892094597220438
2023-01-28 10:16:39.224902,-0.025567161627787945
2023-01-28 10:16:39.229902,-0.017525553703308053
2023-01-28 10:16:39.234902,-0.0065120017831097
2023-01-28 10:16:39.239902,0.004519621841609402
2023-01-28 10:16:39.244902,0.009660734185032651
2023-01-28 10:16:39.249902,0.002764662262052146
2023-01-28 10:16:39.254902,-0.02051479560668585
2023-01-28 10:16:39.259902,-0.061808228492736816
2023-01-28 10:16:39.264902,-0.11848875787998796
2023-01-28 10:16:39.269902,-0.1822272986173629
2023-01-28 10:16:39.274902,-0.2404736764872103
2023-01-28 10:16:39.279902,-0.28091371059417714
2023-01-28 10:16:39.284902,-0.2956159799520709
2023-01-28 10:16:39.289902,-0.2827408015727995
2023-01-28 10:16:39.294902,-0.2464630509223351
2023-01-28 10:16:39.299902,-0.19566595554351798
2023-01-28 10:16:39.304902,-0.1409642866427936
2023-01-28 10:16:39.309902,-0.09104152768850311
2023-01-28 10:16:39.314902,-0.05074417870738299
2023-01-28 10:16:39.319902,-0.021612446755170784
2023-01-28 10:16:39.324902,-0.003087232773472522
2023-01-28 10:16:39.329902,0.006803472992032776
2023-01-28 10:16:39.334902,0.010732547302040076
2023-01-28 10:16:39.339902,0.011154810898005896
2023-01-28 10:16:39.344902,0.010035285349100314
2023-01-28 10:16:39.349902,0.00918348692357536
2023-01-28 10:16:39.354902,0.01004746759429495
2023-01-28 10:16:39.359902,0.012933811172842903
2023-01-28 10:16:39.364902,0.01697534554148324
2023-01-28 10:16:39.369902,0.02115567587316021
2023-01-28 10:16:39.374902,0.02516209565638754
2023-01-28 10:16:39.379902,0.02944966219365593
2023-01-28 10:16:39.384902,0.03514935160490416
2023-01-28 10:16:39.389902,0.04397014901041975
2023-01-28 10:16:39.394902,0.057460248212315955
2023-01-28 10:16:39.399902,0.07592003047466268
2023-01-28 10:16:39.404902,0.098200939439766
2023-01-28 10:16:39.409902,0.12253463268280024
2023-01-28 10:16:39.414902,0.14721768982807748
2023-01-28 10:16:39.419902,0.17066380381584156
2023-01-28 10:16:39.424902,0.19147767418461903
2023-01-28 10:16:39.429902,0.20869593322277058
2023-01-28 10:16:39.434902,0.2215715657070362
2023-01-28 10:16:39.439902,0.22905826568603507
2023-01-28 10:16:39.444902,0.22994259133891926
2023-01-28 10:16:39.449902,0.22362510859966256
2023-01-28 10:16:39.454902,0.2105185362809703
2023-01-28 10:16:39.459902,0.19177138805389393
2023-01-28 10:16:39.464902,0.16901989001344614
2023-01-28 10:16:39.469902,0.14431536197662348
2023-01-28 10:16:39.474902,0.11965505705976089
2023-01-28 10:16:39.479902,0.09625832736492151
2023-01-28 10:16:39.484902,0.07443337590420196
2023-01-28 10:16:39.489902,0.05406717583537102
2023-01-28 10:16:39.494902,0.03494634503475002
2023-01-28 10:16:39.499902,0.016780298203229904
2023-01-28 10:16:39.504902,-0.0005084209083181766
2023-01-28 10:16:39.509902,-0.016347568482160426
2023-01-28 10:16:39.514902,-0.029655601648171114
2023-01-28 10:16:39.519902,-0.039474569261073976
2023-01-28 10:16:39.524902,-0.045298396056771925
2023-01-28 10:16:39.529902,-0.04699925705790499
2023-01-28 10:16:39.534902,-0.044908546817855145
2023-01-28 10:16:39.539902,-0.03997942060232151
2023-01-28 10:16:39.544902,-0.03347517196608915
2023-01-28 10:16:39.549902,-0.02639651298522935
2023-01-28 10:16:39.554902,-0.019373872871285794
2023-01-28 10:16:39.559902,-0.012933811172842813
2023-01-28 10:16:39.564902,-0.007450168107056635
2023-01-28 10:16:39.569902,-0.002812743186950565
2023-01-28 10:16:39.574902,0.0015849472910072393
2023-01-28 10:16:39.579902,0.006563067436218245
2023-01-28 10:16:39.584902,0.01303504684264467
2023-01-28 10:16:39.589902,0.021876892074942554
2023-01-28 10:16:39.594902,0.03334905174341358
2023-01-28 10:16:39.599902,0.04647036641836157
2023-01-28 10:16:39.604902,0.05912296405285065
2023-01-28 10:16:39.609902,0.06880402565002441
2023-01-28 10:16:39.614902,0.07336237658601995
2023-01-28 10:16:39.619902,0.071568690240383
2023-01-28 10:16:39.624902,0.0636302099320929
2023-01-28 10:16:39.629902,0.05123039335012427
2023-01-28 10:16:39.634902,0.036731674927795804
2023-01-28 10:16:39.639902,0.02214133739471423
2023-01-28 10:16:39.644902,0.008680148651845212
2023-01-28 10:16:39.649902,-0.0031012296676635174
2023-01-28 10:16:39.654902,-0.013136579755581076
2023-01-28 10:16:39.659902,-0.021564364433288522
2023-01-28 10:16:39.664902,-0.02828086981794144
2023-01-28 10:16:39.669902,-0.03281533718109134
2023-01-28 10:16:39.674902,-0.03476737493761602
2023-01-28 10:16:39.679902,-0.034137569367885506
2023-01-28 10:16:39.684902,-0.031040569769232834
2023-01-28 10:16:39.689902,-0.02538681030273433
2023-01-28 10:16:39.694902,-0.017239410666779264
2023-01-28 10:16:39.699902,-0.0075968108139932156
2023-01-28 10:16:39.704902,0.0009760323691171398
2023-01-28 10:16:39.709902,0.004062851425260305
2023-01-28 10:16:39.714902,-0.004134218556751022
2023-01-28 10:16:39.719902,-0.028872689232230072
2023-01-28 10:16:39.724902,-0.07190689992540947
2023-01-28 10:16:39.729902,-0.12936215102672566
2023-01-28 10:16:39.734902,-0.19191910732174255
2023-01-28 10:16:39.739902,-0.24711272120475752
2023-01-28 10:16:39.744902,-0.2828413361790874
2023-01-28 10:16:39.749902,-0.2912271022796629
2023-01-28 10:16:39.754902,-0.27135983410022746
2023-01-28 10:16:39.759902,-0.22925059497356406
2023-01-28 10:16:39.764902,-0.1750681482078772
2023-01-28 10:16:39.769902,-0.11962573230266571
2023-01-28 10:16:39.774902,-0.07166652995393666
2023-01-28 10:16:39.779902,-0.0361329317092895
2023-01-28 10:16:39.784902,-0.013678093266475164
2023-01-28 10:16:39.789902,-0.0019232432823627808
2023-01-28 10:16:39.794902,0.002443784439000287
2023-01-28 10:16:39.799902,0.00254829740151762
2023-01-28 10:16:39.804902,0.0013006756425043662
2023-01-28 10:16:39.809902,0.001033743261359594
2023-01-28 10:16:39.814902,0.0027638329244429514
2023-01-28 10:16:39.819902,0.006418824195861778
2023-01-28 10:16:39.824902,0.011756730392515275
2023-01-28 10:16:39.829902,0.018342932686209585
2023-01-28 10:16:39.834902,0.025025929910959956
2023-01-28 10:16:39.839902,0.030844014137983416
2023-01-28 10:16:39.844902,0.03656910044682405
2023-01-28 10:16:39.849902,0.04411439225077617
2023-01-28 10:16:39.854902,0.0544425345917549
2023-01-28 10:16:39.859902,0.0675298795104026
2023-01-28 10:16:39.864902,0.08415621522561238
2023-01-28 10:16:39.869902,0.10532160848379124
2023-01-28 10:16:39.874902,0.1292709673870523
2023-01-28 10:16:39.879902,0.1516717672348022
2023-01-28 10:16:39.884902,0.17024283494747655
2023-01-28 10:16:39.889902,0.18703541159629813
2023-01-28 10:16:39.894902,0.2042516215503217
2023-01-28 10:16:39.899902,0.21977862715721122
2023-01-28 10:16:39.904902,0.2292804682665466
2023-01-28 10:16:39.909902,0.2312459647655486
2023-01-28 10:16:39.914902,0.22726604928886157
2023-01-28 10:16:39.919902,0.2182881087064743
2023-01-28 10:16:39.924902,0.20360938661159722
2023-01-28 10:16:39.929902,0.18350145220756525
2023-01-28 10:16:39.934902,0.16014421182010594
2023-01-28 10:16:39.939902,0.1354444026947021
2023-01-28 10:16:39.944902,0.10994756566072168
2023-01-28 10:16:39.949902,0.08433421701192853
2023-01-28 10:16:39.954902,0.060083612049781014
2023-01-28 10:16:39.959902,0.03800809383392331
2023-01-28 10:16:39.964902,0.017689235734383375
2023-01-28 10:16:39.969902,-0.0009856622200458721
2023-01-28 10:16:39.974902,-0.017000366346562577
2023-01-28 10:16:39.979902,-0.02940158173441874
2023-01-28 10:16:39.984902,-0.03810483362180884
2023-01-28 10:16:39.989902,-0.04310468956828104
2023-01-28 10:16:39.994902,-0.04412682288138065
2023-01-28 10:16:39.999902,-0.04161417484283439
2023-01-28 10:16:40.004902,-0.03700211024264648
2023-01-28 10:16:40.009902,-0.03146906942129127
2023-01-28 10:16:40.014902,-0.02525327869678249
2023-01-28 10:16:40.019902,-0.018511217087507227
2023-01-28 10:16:40.024902,-0.011861609282361787
2023-01-28 10:16:40.029902,-0.005649527069181152
2023-01-28 10:16:40.034902,0.000466710939244777
2023-01-28 10:16:40.039902,0.006827513687312565
2023-01-28 10:16:40.044902,0.013498932012107284
2023-01-28 10:16:40.049902,0.020987391471862703
2023-01-28 10:16:40.054902,0.030297900177056754
2023-01-28 10:16:40.059902,0.041734378784894895
2023-01-28 10:16:40.064902,0.05418251724540124
2023-01-28 10:16:40.069902,0.06577491760253903
2023-01-28 10:16:40.074902,0.07458794990807026
2023-01-28 10:16:40.079902,0.0786366090178489
2023-01-28 10:16:40.084902,0.07629804852258207
2023-01-28 10:16:40.089902,0.06745775789022439
2023-01-28 10:16:40.094902,0.05383178622914725
2023-01-28 10:16:40.099902,0.0378878936171531
2023-01-28 10:16:40.104902,0.021836121705481475
2023-01-28 10:16:40.109902,0.007500648498535078
2023-01-28 10:16:40.114902,-0.0038967568783015356
2023-01-28 10:16:40.119902,-0.012356838211417122
2023-01-28 10:16:40.124902,-0.018927088876347496
2023-01-28 10:16:40.129902,-0.02449731156229973
2023-01-28 10:16:40.134902,-0.029060696856245866
2023-01-28 10:16:40.139902,-0.032070081681013086
2023-01-28 10:16:40.144902,-0.0327615223628736
2023-01-28 10:16:40.149902,-0.030002593994140632
2023-01-28 10:16:40.154902,-0.022760812180300224
2023-01-28 10:16:40.159902,-0.01146733760833743
2023-01-28 10:16:40.164902,0.001091222601882805
2023-01-28 10:16:40.169902,0.010097026824951068
2023-01-28 10:16:40.174902,0.009541096679476196
2023-01-28 10:16:40.179902,-0.0065871081314980125
2023-01-28 10:16:40.184902,-0.042016351753501054
2023-01-28 10:16:40.189902,-0.09541690349578848
2023-01-28 10:16:40.194902,-0.1593460739058217
2023-01-28 10:16:40.199902,-0.22196631133556355
2023-01-28 10:16:40.204902,-0.27034602613096215
2023-01-28 10:16:40.209902,-0.2939917743206023
2023-01-28 10:16:40.214902,-0.28807149879205535
2023-01-28 10:16:40.219902,-0.2552143931388854
2023-01-28 10:16:40.224902,-0.20436341244750683
2023-01-28 10:16:40.229902,-0.1470800340175628
2023-01-28 10:16:40.234902,-0.09374989602069778
2023-01-28 10:16:40.239902,-0.05137463659048084
2023-01-28 10:16:40.244902,-0.022735547997539535
2023-01-28 10:16:40.249902,-0.006611148826777935
2023-01-28 10:16:40.254902,0.0006908052644819709
2023-01-28 10:16:40.259902,0.003149310825392632
2023-01-28 10:16:40.264902,0.003753357394668934
2023-01-28 10:16:40.269902,0.004471540451049873
2023-01-28 10:16:40.274902,0.006348650811882057
2023-01-28 10:16:40.279902,0.009327730163931866
2023-01-28 10:16:40.284902,0.012598505426571137
2023-01-28 10:16:40.289902,0.015554229728877468
2023-01-28 10:16:40.294902,0.018328137920601305
2023-01-28 10:16:40.299902,0.021612446755170878
2023-01-28 10:16:40.304902,0.026525771958593434
2023-01-28 10:16:40.309902,0.03461837768554683
2023-01-28 10:16:40.314902,0.047270149661771045
2023-01-28 10:16:40.319902,0.06469309329986575
2023-01-28 10:16:40.324902,0.08574147712083828
2023-01-28 10:16:40.329902,0.10871132463216777
2023-01-28 10:16:40.334902,0.13203473618695044
2023-01-28 10:16:40.339902,0.15441238880157473
2023-01-28 10:16:40.344902,0.17496165329536556
2023-01-28 10:16:40.349902,0.19340614974498732
2023-01-28 10:16:40.354902,0.20964380992045553
2023-01-28 10:16:40.359902,0.22292792797088615
2023-01-28 10:16:40.364902,0.23174596057062077
2023-01-28 10:16:40.369902,0.23453950881957988
2023-01-28 10:16:40.374902,0.23033386000387143
2023-01-28 10:16:40.379902,0.21893720328807822
2023-01-28 10:16:40.384902,0.2011610983082179
2023-01-28 10:16:40.389902,0.17893373966217035
2023-01-28 10:16:40.394902,0.15469222408703606
2023-01-28 10:16:40.399902,0.1303718537092208
2023-01-28 10:16:40.404902,0.10698732352277666
2023-01-28 10:16:40.409902,0.084887146949768
2023-01-28 10:16:40.414902,0.06396334288859953
2023-01-28 10:16:40.419902,0.04375378414988513
2023-01-28 10:16:40.424902,0.023897639622738758
2023-01-28 10:16:40.429902,0.004663865081965933
2023-01-28 10:16:40.434902,-0.013113525241281024
2023-01-28 10:16:40.439902,-0.028464000672101874
2023-01-28 10:16:40.444902,-0.040411905025129105
2023-01-28 10:16:40.449902,-0.04800895974040024
2023-01-28 10:16:40.454902,-0.05079175875616384
2023-01-28 10:16:40.459902,-0.049259066581725956
2023-01-28 10:16:40.464902,-0.04467518670547751
2023-01-28 10:16:40.469902,-0.03848890587687487
2023-01-28 10:16:40.474902,-0.03200237991125774
2023-01-28 10:16:40.479902,-0.02613206766545773
2023-01-28 10:16:40.484902,-0.021024213457626496
2023-01-28 10:16:40.489902,-0.01608312129974359
2023-01-28 10:16:40.494902,-0.010686103235141589
2023-01-28 10:16:40.499902,-0.004711946006864283
2023-01-28 10:16:40.504902,0.0017204550571877086
2023-01-28 10:16:40.509902,0.008606513962149643
2023-01-28 10:16:40.514902,0.015977870849100212
2023-01-28 10:16:40.519902,0.02396841906011096
2023-01-28 10:16:40.524902,0.033093263707804924
2023-01-28 10:16:40.529902,0.0437297448515892
2023-01-28 10:16:40.534902,0.05494288745242015
2023-01-28 10:16:40.539902,0.06442864984273912
2023-01-28 10:16:40.544902,0.06988484815281504
2023-01-28 10:16:40.549902,0.06981372833251945
2023-01-28 10:16:40.554902,0.06319060767074179
2023-01-28 10:16:40.559902,0.05005240440368648
2023-01-28 10:16:40.564902,0.03314993471159466
2023-01-28 10:16:40.569902,0.01728514954447737
2023-01-28 10:16:40.574902,0.00541270774804542
2023-01-28 10:16:40.579902,-0.0036782026290893507
2023-01-28 10:16:40.584902,-0.01256066586506166
2023-01-28 10:16:40.589902,-0.021299919113516808
2023-01-28 10:16:40.594902,-0.028126595253841733
2023-01-28 10:16:40.599902,-0.03281533718109136
2023-01-28 10:16:40.604902,-0.036810931171657166
2023-01-28 10:16:40.609902,-0.040003459900617475
2023-01-28 10:16:40.614902,-0.039633446884532325
2023-01-28 10:16:40.619902,-0.03310382366180407
2023-01-28 10:16:40.624902,-0.020631634002400073
2023-01-28 10:16:40.629902,-0.005168716423213406
2023-01-28 10:16:40.634902,0.008387661805004313
2023-01-28 10:16:40.639902,0.013342499732971125
2023-01-28 10:16:40.644902,0.002580833950586282
2023-01-28 10:16:40.649902,-0.02815147303044795
2023-01-28 10:16:40.654902,-0.07771125114460169
2023-01-28 10:16:40.659902,-0.13960342109203333
2023-01-28 10:16:40.664902,-0.20340939327599608
2023-01-28 10:16:40.669902,-0.25665682554244984
2023-01-28 10:16:40.674902,-0.2880071602875859
2023-01-28 10:16:40.679902,-0.29127520322799677
2023-01-28 10:16:40.684902,-0.267450110931783
2023-01-28 10:16:40.689902,-0.22338470816612235
2023-01-28 10:16:40.694902,-0.16900918406686247
2023-01-28 10:16:40.699902,-0.11479358375072468
2023-01-28 10:16:40.704902,-0.06921118666777121
2023-01-28 10:16:40.709902,-0.03646950051188456
2023-01-28 10:16:40.714902,-0.01623169365195111
2023-01-28 10:16:40.719902,-0.005577405449002914
2023-01-28 10:16:40.724902,-0.001045907884257027
2023-01-28 10:16:40.729902,0.0005769729614256865
2023-01-28 10:16:40.734902,0.0017959829250342521
2023-01-28 10:16:40.739902,0.00372628378681829
2023-01-28 10:16:40.744902,0.00624753077871793
2023-01-28 10:16:40.749902,0.009159445762634201
2023-01-28 10:16:40.754902,0.01277271699082909
2023-01-28 10:16:40.759902,0.017357271164655647
2023-01-28 10:16:40.764902,0.022824152925285487
2023-01-28 10:16:40.769902,0.029281377792358246
2023-01-28 10:16:40.774902,0.037297812092838854
2023-01-28 10:16:40.779902,0.04738390445709215
2023-01-28 10:16:40.784902,0.05982042784076829
2023-01-28 10:16:40.789902,0.07517477124929425
2023-01-28 10:16:40.794902,0.09424566964529102
2023-01-28 10:16:40.799902,0.11707743257284164
2023-01-28 10:16:40.804902,0.14242960725091922
2023-01-28 10:16:40.809902,0.1683318614959716
2023-01-28 10:16:40.814902,0.1926382412903615
2023-01-28 10:16:40.819902,0.2130713164806365
2023-01-28 10:16:40.824902,0.2276587500852385
2023-01-28 10:16:40.829902,0.23566941916942585
2023-01-28 10:16:40.834902,0.23773560812883993
2023-01-28 10:16:40.839902,0.23482799530029289
2023-01-28 10:16:40.844902,0.2274718111219118
2023-01-28 10:16:40.849902,0.2159080952405928
2023-01-28 10:16:40.854902,0.20029214556526
2023-01-28 10:16:40.859902,0.18052041530609123
2023-01-28 10:16:40.864902,0.1565256095840487
2023-01-28 10:16:40.869902,0.12909770011901847
2023-01-28 10:16:40.874902,0.09999569888933357
2023-01-28 10:16:40.879902,0.07106383889913548
2023-01-28 10:16:40.884902,0.043626402529288184
2023-01-28 10:16:40.889902,0.018727581948041916
2023-01-28 10:16:40.894902,-0.002707009569341608
2023-01-28 10:16:40.899902,-0.020170014351606272
2023-01-28 10:16:40.904902,-0.03351092208646144
2023-01-28 10:16:40.909902,-0.042407512664794866
2023-01-28 10:16:40.914902,-0.04642370209278071
2023-01-28 10:16:40.919902,-0.045797228813171345
2023-01-28 10:16:40.924902,-0.04173535663004015
2023-01-28 10:16:40.929902,-0.03579636663198468
2023-01-28 10:16:40.934902,-0.029358839067847895
2023-01-28 10:16:40.939902,-0.023607810959219894
2023-01-28 10:16:40.944902,-0.01929840586457377
2023-01-28 10:16:40.949902,-0.016227364540099987
2023-01-28 10:16:40.954902,-0.013391254004012141
2023-01-28 10:16:40.959902,-0.009904703125357675
2023-01-28 10:16:40.964902,-0.005484458746419776
2023-01-28 10:16:40.969902,-9.616216266285467e-05
2023-01-28 10:16:40.974902,0.006315472781503786
2023-01-28 10:16:40.979902,0.013655027374625225
2023-01-28 10:16:40.984902,0.021766120103602606
2023-01-28 10:16:40.989902,0.030819972977042084
2023-01-28 10:16:40.994902,0.04109639398446137
2023-01-28 10:16:40.999902,0.05214393138885485
2023-01-28 10:16:41.004902,0.06245738825893069
2023-01-28 10:16:41.009902,0.07003009319305412
2023-01-28 10:16:41.014902,0.07293751558380639
2023-01-28 10:16:41.019902,0.06964544951915745
2023-01-28 10:16:41.024902,0.05960676721079805
2023-01-28 10:16:41.029902,0.04397014901041975
2023-01-28 10:16:41.034902,0.025393405188957538
2023-01-28 10:16:41.039902,0.006923675537109289
2023-01-28 10:16:41.044902,-0.008954580047451059
2023-01-28 10:16:41.049902,-0.020674865692853813
2023-01-28 10:16:41.054902,-0.027884232103689042
2023-01-28 10:16:41.059902,-0.03161331266164774
2023-01-28 10:16:41.064902,-0.03358794681224587
2023-01-28 10:16:41.069902,-0.03493090718984598
2023-01-28 10:16:41.074902,-0.03548357324377751
2023-01-28 10:16:41.079902,-0.03416160866618141
2023-01-28 10:16:41.084902,-0.029692735872307197
2023-01-28 10:16:41.089902,-0.021492242813110237
2023-01-28 10:16:41.094902,-0.010894373363198553
2023-01-28 10:16:41.099902,-0.002067486522719188
2023-01-28 10:16:41.104902,-0.001372560457203941
2023-01-28 10:16:41.109902,-0.015145540237426713
2023-01-28 10:16:41.114902,-0.047158089110860564
2023-01-28 10:16:41.119902,-0.09669105708599086
2023-01-28 10:16:41.124902,-0.15757692876735824
2023-01-28 10:16:41.129902,-0.21891316771507258
2023-01-28 10:16:41.134902,-0.26795508797120515
2023-01-28 10:16:41.139902,-0.2941360175609588
2023-01-28 10:16:41.144902,-0.29222406841656345
2023-01-28 10:16:41.149902,-0.26355645060539235
2023-01-28 10:16:41.154902,-0.2153976858079474
2023-01-28 10:16:41.159902,-0.15857140719890594
2023-01-28 10:16:41.164902,-0.10390485815891516
2023-01-28 10:16:41.169902,-0.05909164994955059
2023-01-28 10:16:41.174902,-0.027467829754775307
2023-01-28 10:16:41.179902,-0.008558432571589895
2023-01-28 10:16:41.184902,0.0006555498600094912
2023-01-28 10:16:41.189902,0.0042070946656167126
2023-01-28 10:16:41.194902,0.005562333185400935
2023-01-28 10:16:41.199902,0.006755392067134304
2023-01-28 10:16:41.204902,0.008631544379944955
2023-01-28 10:16:41.209902,0.011395215988159103
2023-01-28 10:16:41.214902,0.014760568106584836
2023-01-28 10:16:41.219902,0.018174648284912148
2023-01-28 10:16:41.224902,0.021483663708092345
2023-01-28 10:16:41.229902,0.025314688682556093
2023-01-28 10:16:41.234902,0.030717932871623693
2023-01-28 10:16:41.239902,0.03877739235758782
2023-01-28 10:16:41.244902,0.050556375708847516
2023-01-28 10:16:41.249902,0.06671249866485587
2023-01-28 10:16:41.254902,0.08682795820650667
2023-01-28 10:16:41.259902,0.10960082709789268
2023-01-28 10:16:41.264902,0.13384952569161881
2023-01-28 10:16:41.269902,0.15876373648643485
2023-01-28 10:16:41.274902,0.1831923158027749
2023-01-28 10:16:41.279902,0.20557066798210144
2023-01-28 10:16:41.284902,0.22463679533959088
2023-01-28 10:16:41.289902,0.23925146460533142
2023-01-28 10:16:41.294902,0.24759332360670736
2023-01-28 10:16:41.299902,0.24802625179290771
2023-01-28 10:16:41.304902,0.24105208410492884
2023-01-28 10:16:41.309902,0.2288419008255004
2023-01-28 10:16:41.314902,0.21253949189465848
2023-01-28 10:16:41.319902,0.1920358389616012
2023-01-28 10:16:41.324902,0.1689378092627555
2023-01-28 10:16:41.329902,0.1469357907772063
2023-01-28 10:16:41.334902,0.12736574260653943
2023-01-28 10:16:41.339902,0.1067880839109419
2023-01-28 10:16:41.344902,0.08159979833299891
2023-01-28 10:16:41.349902,0.053442120552062815
2023-01-28 10:16:41.354902,0.027333045467539147
2023-01-28 10:16:41.359902,0.0057937703095375164
2023-01-28 10:16:41.364902,-0.012094957384406939
2023-01-28 10:16:41.369902,-0.026733081787824572
2023-01-28 10:16:41.374902,-0.03670705104245242
2023-01-28 10:16:41.379902,-0.041662257164716644
2023-01-28 10:16:41.384902,-0.043339623464436206
2023-01-28 10:16:41.389902,-0.042936407029628657
2023-01-28 10:16:41.394902,-0.03987531486638537
2023-01-28 10:16:41.399902,-0.034017365425825154
2023-01-28 10:16:41.404902,-0.02695334625576739
2023-01-28 10:16:41.409902,-0.020218094810843353
2023-01-28 10:16:41.414902,-0.014057303599201506
2023-01-28 10:16:41.419902,-0.008702675811946258
2023-01-28 10:16:41.424902,-0.004994778701615398
2023-01-28 10:16:41.429902,-0.0027646622620522217
2023-01-28 10:16:41.434902,-0.00015336285404987394
2023-01-28 10:16:41.439902,0.004495581146329622
2023-01-28 10:16:41.444902,0.01126570751330784
2023-01-28 10:16:41.449902,0.019713243469595985
2023-01-28 10:16:41.454902,0.02975691787491818
2023-01-28 10:16:41.459902,0.040748715400695835
2023-01-28 10:16:41.464902,0.05103926677830382
2023-01-28 10:16:41.469902,0.059332054108381216
2023-01-28 10:16:41.474902,0.06535190538697266
2023-01-28 10:16:41.479902,0.0685395821928977
2023-01-28 10:16:41.484902,0.06735099001179005
2023-01-28 10:16:41.489902,0.060678325593471534
2023-01-28 10:16:41.494902,0.04901587491444954
2023-01-28 10:16:41.499902,0.033728878945112256
2023-01-28 10:16:41.504902,0.016344226115981825
2023-01-28 10:16:41.509902,-0.0009135405416599837
2023-01-28 10:16:41.514902,-0.015301918901419733
2023-01-28 10:16:41.519902,-0.02533872984349718
2023-01-28 10:16:41.524902,-0.031679888119636096
2023-01-28 10:16:41.529902,-0.03570020198822012
2023-01-28 10:16:41.534902,-0.038055417395714525
2023-01-28 10:16:41.539902,-0.03889759629964826
2023-01-28 10:16:41.544902,-0.03813943099627323
2023-01-28 10:16:41.549902,-0.03478666394948947
2023-01-28 10:16:41.554902,-0.027299081503835712
2023-01-28 10:16:41.559902,-0.015842717140912954
2023-01-28 10:16:41.564902,-0.003880689152920271
2023-01-28 10:16:41.569902,0.00271658110432319
2023-01-28 10:16:41.574902,-0.0025198761647066093
2023-01-28 10:16:41.579902,-0.025242567062377947
2023-01-28 10:16:41.584902,-0.0680983908200766
2023-01-28 10:16:41.589902,-0.12777547538280482
2023-01-28 10:16:41.594902,-0.19428530703529373
2023-01-28 10:16:41.599902,-0.2540604472160338
2023-01-28 10:16:41.604902,-0.2944022111562417
2023-01-28 10:16:41.609902,-0.3067092299461364
2023-01-28 10:16:41.614902,-0.2886953581262387
2023-01-28 10:16:41.619902,-0.24559816718101496
2023-01-28 10:16:41.624902,-0.18847617934787497
2023-01-28 10:16:41.629902,-0.1295544803142547
2023-01-28 10:16:41.634902,-0.07810136366689865
2023-01-28 10:16:41.639902,-0.03925820440053934
2023-01-28 10:16:41.644902,-0.014381621682483702
2023-01-28 10:16:41.649902,-0.0013462703209369995
2023-01-28 10:16:41.654902,0.004185108275526924
2023-01-28 10:16:41.659902,0.006226500030606947
2023-01-28 10:16:41.664902,0.007023967285831304
2023-01-28 10:16:41.669902,0.007861256599426212
2023-01-28 10:16:41.674902,0.009920556250402454
2023-01-28 10:16:41.679902,0.013679067604243717
2023-01-28 10:16:41.684902,0.01854343134136612
2023-01-28 10:16:41.689902,0.02392033860087391
2023-01-28 10:16:41.694902,0.02994473874460249
2023-01-28 10:16:41.699902,0.03673394769430168
2023-01-28 10:16:41.704902,0.04400684655679845
2023-01-28 10:16:41.709902,0.05214393138885486
2023-01-28 10:16:41.714902,0.06267904156656749
2023-01-28 10:16:41.719902,0.07700185477733613
2023-01-28 10:16:41.724902,0.0953135263620029
2023-01-28 10:16:41.729902,0.11726975440979004
2023-01-28 10:16:41.734902,0.14252032700003378
2023-01-28 10:16:41.739902,0.16987046599388123
2023-01-28 10:16:41.744902,0.19688031275757048
2023-01-28 10:16:41.749902,0.22107681632041934
2023-01-28 10:16:41.754902,0.24080009612062758
2023-01-28 10:16:41.759902,0.25442105531692494
2023-01-28 10:16:41.764902,0.2599632160546351
2023-01-28 10:16:41.769902,0.2564644813537597
2023-01-28 10:16:41.774902,0.24494250250239888
2023-01-28 10:16:41.779902,0.22735139727592457
2023-01-28 10:16:41.784902,0.2054230377277395
2023-01-28 10:16:41.789902,0.18097719550132746
2023-01-28 10:16:41.794902,0.1560371809628408
2023-01-28 10:16:41.799902,0.13159792125225056
2023-01-28 10:16:41.804902,0.10715716823637955
2023-01-28 10:16:41.809902,0.08231481164693824
2023-01-28 10:16:41.814902,0.05802048918264731
2023-01-28 10:16:41.819902,0.03562808036804184
2023-01-28 10:16:41.824902,0.015821690368917275
2023-01-28 10:16:41.829902,-0.0007692973013035621
2023-01-28 10:16:41.834902,-0.013139030426881873
2023-01-28 10:16:41.839902,-0.02115567587316032
2023-01-28 10:16:41.844902,-0.026245468283332248
2023-01-28 10:16:41.849902,-0.029834311455488205
2023-01-28 10:16:41.854902,-0.032021466337082846
2023-01-28 10:16:41.859902,-0.03257493302226061
2023-01-28 10:16:41.864902,-0.03197476297357323
2023-01-28 10:16:41.869902,-0.03038724325597281
2023-01-28 10:16:41.874902,-0.026845972193381924
2023-01-28 10:16:41.879902,-0.020746987313032168
2023-01-28 10:16:41.884902,-0.013125776183061039
2023-01-28 10:16:41.889902,-0.005288918968289977
2023-01-28 10:16:41.894902,0.0026383722756502456
2023-01-28 10:16:41.899902,0.010577837936580124
2023-01-28 10:16:41.904902,0.01736458653214445
2023-01-28 10:16:41.909902,0.022429823875427208
2023-01-28 10:16:41.914902,0.027373079290752448
2023-01-28 10:16:41.919902,0.034017365425825105
2023-01-28 10:16:41.924902,0.04198271946912254
2023-01-28 10:16:41.929902,0.04995624348521231
2023-01-28 10:16:41.934902,0.05786905108140781
2023-01-28 10:16:41.939902,0.06531815230846394
2023-01-28 10:16:41.944902,0.06917765788077937
2023-01-28 10:16:41.949902,0.06615956872701637
2023-01-28 10:16:41.954902,0.05739028465760708
2023-01-28 10:16:41.959902,0.04709541797637935
2023-01-28 10:16:41.964902,0.03666478976970465
2023-01-28 10:16:41.969902,0.023703973740339213
2023-01-28 10:16:41.974902,0.007893257128870373
2023-01-28 10:16:41.979902,-0.0061062974855303
2023-01-28 10:16:41.984902,-0.014023071739122107
2023-01-28 10:16:41.989902,-0.017453432083129845
2023-01-28 10:16:41.994902,-0.021020705205063887
2023-01-28 10:16:41.999902,-0.02586762234568581
2023-01-28 10:16:42.004902,-0.029116731815031684
2023-01-28 10:16:42.009902,-0.028848648071288927
2023-01-28 10:16:42.014902,-0.026280096910308838
2023-01-28 10:16:42.019902,-0.022742351517081195
2023-01-28 10:16:42.024902,-0.017448108104138316
2023-01-28 10:16:42.029902,-0.009808540344238191
2023-01-28 10:16:42.034902,-0.0026355531419057173
2023-01-28 10:16:42.039902,-0.001875162124633718
2023-01-28 10:16:42.044902,-0.013745702721120802
2023-01-28 10:16:42.049902,-0.042311351746320724
2023-01-28 10:16:42.054902,-0.08806143069579822
2023-01-28 10:16:42.059902,-0.14671942591667173
2023-01-28 10:16:42.064902,-0.20901481677705344
2023-01-28 10:16:42.069902,-0.26271504163742065
2023-01-28 10:16:42.074902,-0.29636690360166035
2023-01-28 10:16:42.079902,-0.30279061198234547
2023-01-28 10:16:42.084902,-0.2810248243906126
2023-01-28 10:16:42.089902,-0.23646275699138644
2023-01-28 10:16:42.094902,-0.17914176646790617
2023-01-28 10:16:42.099902,-0.12051522731780998
2023-01-28 10:16:42.104902,-0.07000666775127584
2023-01-28 10:16:42.109902,-0.032935541123151696
2023-01-28 10:16:42.114902,-0.01031921731640665
2023-01-28 10:16:42.119902,0.00014424324035635058
2023-01-28 10:16:42.124902,0.00269181777325889
2023-01-28 10:16:42.129902,0.0019953649025410223
2023-01-28 10:16:42.134902,0.0018069996079722727
2023-01-28 10:16:42.139902,0.004231135360896511
2023-01-28 10:16:42.144902,0.009774369091291115
2023-01-28 10:16:42.149902,0.017741918563842753
2023-01-28 10:16:42.154902,0.02662885094854508
2023-01-28 10:16:42.159902,0.03469049930572498
2023-01-28 10:16:42.164902,0.04081019073362913
2023-01-28 10:16:42.169902,0.045148134231567355
2023-01-28 10:16:42.174902,0.049032029310728205
2023-01-28 10:16:42.179902,0.05433162301778794
2023-01-28 10:16:42.184902,0.06291503451826097
2023-01-28 10:16:42.189902,0.07625659555196757
2023-01-28 10:16:42.194902,0.09496907526413895
2023-01-28 10:16:42.199902,0.11849582195281984
2023-01-28 10:16:42.204902,0.14534798788615794
2023-01-28 10:16:42.209902,0.17359673976898193
2023-01-28 10:16:42.214902,0.2010338828226404
2023-01-28 10:16:42.219902,0.22513966262340537
2023-01-28 10:16:42.224902,0.2434490408883442
2023-01-28 10:16:42.229902,0.2542287111282348
2023-01-28 10:16:42.234902,0.25681184523586537
2023-01-28 10:16:42.239902,0.2514880895614623
2023-01-28 10:16:42.244902,0.23938430523771512
2023-01-28 10:16:42.249902,0.222302883863449
2023-01-28 10:16:42.254902,0.20212066329736367
2023-01-28 10:16:42.259902,0.18003961443901056
2023-01-28 10:16:42.264902,0.1564705694261018
2023-01-28 10:16:42.269902,0.13154983520507807
2023-01-28 10:16:42.274902,0.10553703732116829
2023-01-28 10:16:42.279902,0.07887701690196984
2023-01-28 10:16:42.284902,0.05235222073978316
2023-01-28 10:16:42.289902,0.027261972427368098
2023-01-28 10:16:42.294902,0.005091308713595822
2023-01-28 10:16:42.299902,-0.013150176033377599
2023-01-28 10:16:42.304902,-0.02711610918985016
2023-01-28 10:16:42.309902,-0.03678202629089348
2023-01-28 10:16:42.314902,-0.04229623331542008
2023-01-28 10:16:42.319902,-0.04413843154907215
2023-01-28 10:16:42.324902,-0.04299491857638001
2023-01-28 10:16:42.329902,-0.03937840461730947
2023-01-28 10:16:42.334902,-0.0336777576256077
2023-01-28 10:16:42.339902,-0.026588838547468126
2023-01-28 10:16:42.344902,-0.019120919087186643
2023-01-28 10:16:42.349902,-0.012116432189941382
2023-01-28 10:16:42.354902,-0.006068672127102816
2023-01-28 10:16:42.359902,-0.001346270320937009
2023-01-28 10:16:42.364902,0.0018972044815895922
2023-01-28 10:16:42.369902,0.004159013740718303
2023-01-28 10:16:42.374902,0.006548379002273999
2023-01-28 10:16:42.379902,0.010169148445129304
2023-01-28 10:16:42.384902,0.01574396888737426
2023-01-28 10:16:42.389902,0.023655891418456972
2023-01-28 10:16:42.394902,0.033718280245176174
2023-01-28 10:16:42.399902,0.044691365212201954
2023-01-28 10:16:42.404902,0.054452388872871266
2023-01-28 10:16:42.409902,0.060918729752302093
2023-01-28 10:16:42.414902,0.06272355094276992
2023-01-28 10:16:42.419902,0.05925993248820297
2023-01-28 10:16:42.424902,0.05075281205031954
2023-01-28 10:16:42.429902,0.03848890587687485
2023-01-28 10:16:42.434902,0.02447154828603855
2023-01-28 10:16:42.439902,0.010505716316401997
2023-01-28 10:16:42.444902,-0.002270232380608225
2023-01-28 10:16:42.449902,-0.013126134872436485
2023-01-28 10:16:42.454902,-0.02161891569941747
2023-01-28 10:16:42.459902,-0.027887027710676117
2023-01-28 10:16:42.464902,-0.03256257800435638
2023-01-28 10:16:42.469902,-0.03608485311269762
2023-01-28 10:16:42.474902,-0.03828270550721667
2023-01-28 10:16:42.479902,-0.03858506679534905
2023-01-28 10:16:42.484902,-0.03623998828085559
2023-01-28 10:16:42.489902,-0.03045936487615101
2023-01-28 10:16:42.494902,-0.021230195474008322
2023-01-28 10:16:42.499902,-0.010649959556758393
2023-01-28 10:16:42.504902,-0.0034204366876381684
2023-01-28 10:16:42.509902,-0.005793770309537591
2023-01-28 10:16:42.514902,-0.02364907879632921
2023-01-28 10:16:42.519902,-0.06034175679087631
2023-01-28 10:16:42.524902,-0.11450169711158885
2023-01-28 10:16:42.529902,-0.1787654608488082
2023-01-28 10:16:42.534902,-0.2410023954562666
2023-01-28 10:16:42.539902,-0.2880056798458098
2023-01-28 10:16:42.544902,-0.30965425024095117
2023-01-28 10:16:42.549902,-0.30178090929985035
2023-01-28 10:16:42.554902,-0.26727964905617285
2023-01-28 10:16:42.559902,-0.21516284346580497
2023-01-28 10:16:42.564902,-0.15735027481575017
2023-01-28 10:16:42.569902,-0.10448019206523887
2023-01-28 10:16:42.574902,-0.06311009860888966
2023-01-28 10:16:42.579902,-0.035267472267150796
2023-01-28 10:16:42.584902,-0.019382443570720283
2023-01-28 10:16:42.589902,-0.011731783859431744
2023-01-28 10:16:42.594902,-0.00827771363430054
2023-01-28 10:16:42.599902,-0.006202459335327091
2023-01-28 10:16:42.604902,-0.004111064801841925
2023-01-28 10:16:42.609902,-0.0013462703209370375
2023-01-28 10:16:42.614902,0.0022533081786476525
2023-01-28 10:16:42.619902,0.0062745809555053425
