2023-01-30 10:24:10.007111,0.16482195258140558
2023-01-30 10:24:10.012111,0.18452829641956872
2023-01-30 10:24:10.017111,0.15647988021373738
2023-01-30 10:24:10.022111,0.1311299433446356
2023-01-30 10:24:10.027111,0.12279908359050745
2023-01-30 10:24:10.032111,0.1060316921837757
2023-01-30 10:24:10.037111,0.07036666572093958
2023-01-30 10:24:10.042111,0.03557240191430026
2023-01-30 10:24:10.047111,0.013895432464778423
2023-01-30 10:24:10.052111,-0.005916815041671801
2023-01-30 10:24:10.057111,-0.030988257378339722
2023-01-30 10:24:10.062111,-0.05017077747127083
2023-01-30 10:24:10.067111,-0.056134663522243354
2023-01-30 10:24:10.072111,-0.058167592928581195
2023-01-30 10:24:10.077111,-0.06389975547790518
2023-01-30 10:24:10.082111,-0.06751073712050865
2023-01-30 10:24:10.087111,-0.06474117934703821
2023-01-30 10:24:10.092111,-0.06296084783460844
2023-01-30 10:24:10.097111,-0.0676500797271728
2023-01-30 10:24:10.102111,-0.07294647976870942
2023-01-30 10:24:10.107111,-0.07358809560537329
2023-01-30 10:24:10.112111,-0.07387249673562331
2023-01-30 10:24:10.117111,-0.07743458449840537
2023-01-30 10:24:10.122111,-0.07942912259772951
2023-01-30 10:24:10.127111,-0.07604023069143294
2023-01-30 10:24:10.132111,-0.07179062936904304
2023-01-30 10:24:10.137111,-0.07075130939483637
2023-01-30 10:24:10.142111,-0.06949922517925405
2023-01-30 10:24:10.147111,-0.0649335011839866
2023-01-30 10:24:10.152111,-0.06068366759930028
2023-01-30 10:24:10.157111,-0.05986094474792478
2023-01-30 10:24:10.162111,-0.05914181175813621
2023-01-30 10:24:10.167111,-0.05562981218099592
2023-01-30 10:24:10.172111,-0.05250840424282884
2023-01-30 10:24:10.177111,-0.05264878273010249
2023-01-30 10:24:10.182111,-0.053208324812447014
2023-01-30 10:24:10.187111,-0.0514948368072509
2023-01-30 10:24:10.192111,-0.049977552312154415
2023-01-30 10:24:10.197111,-0.050797663629055
2023-01-30 10:24:10.202111,-0.0511445182440576
2023-01-30 10:24:10.207111,-0.048537850379943834
2023-01-30 10:24:10.212111,-0.04524616571276973
2023-01-30 10:24:10.217111,-0.04329701513051982
2023-01-30 10:24:10.222111,-0.040282524453788514
2023-01-30 10:24:10.227111,-0.034065447747707284
2023-01-30 10:24:10.232111,-0.026795208648228177
2023-01-30 10:24:10.237111,-0.020650824531912765
2023-01-30 10:24:10.242111,-0.014310935472771584
2023-01-30 10:24:10.247111,-0.007043878547847162
2023-01-30 10:24:10.252111,-0.0017906317095454038
2023-01-30 10:24:10.257111,-0.0010097026824950532
2023-01-30 10:24:10.262111,-0.0036090205896328626
2023-01-30 10:24:10.267111,-0.008462270721793137
2023-01-30 10:24:10.272111,-0.016455670213268065
2023-01-30 10:24:10.277111,-0.02675712108612056
2023-01-30 10:24:10.282111,-0.03585810179175206
2023-01-30 10:24:10.287111,-0.04267195984721172
2023-01-30 10:24:10.292111,-0.04975685454481069
2023-01-30 10:24:10.297111,-0.057360731065273236
2023-01-30 10:24:10.302111,-0.06165640770366538
2023-01-30 10:24:10.307111,-0.061567824333906174
2023-01-30 10:24:10.312111,-0.062035167868441946
2023-01-30 10:24:10.317111,-0.06740967929363258
2023-01-30 10:24:10.322111,-0.07632680091104088
2023-01-30 10:24:10.327111,-0.08548816293478008
2023-01-30 10:24:10.332111,-0.09256525654047212
2023-01-30 10:24:10.337111,-0.09142617881298055
2023-01-30 10:24:10.342111,-0.06980756824936263
2023-01-30 10:24:10.347111,-0.017213027924299202
2023-01-30 10:24:10.352111,0.06652693126403494
2023-01-30 10:24:10.357111,0.17160138487815857
2023-01-30 10:24:10.362111,0.2817870463325878
2023-01-30 10:24:10.367111,0.37505647540092457
2023-01-30 10:24:10.372111,0.42760077002051283
2023-01-30 10:24:10.377111,0.42518100142478926
2023-01-30 10:24:10.382111,0.3711079844671238
2023-01-30 10:24:10.387111,0.28199553489685036
2023-01-30 10:24:10.392111,0.1786811331797115
2023-01-30 10:24:10.397111,0.08161763846874226
2023-01-30 10:24:10.402111,0.007486889435995157
2023-01-30 10:24:10.407111,-0.036950312554836245
2023-01-30 10:24:10.412111,-0.05682012945694559
2023-01-30 10:24:10.417111,-0.062048636376857744
2023-01-30 10:24:10.422111,-0.05983924675255894
2023-01-30 10:24:10.427111,-0.05478839203715328
2023-01-30 10:24:10.432111,-0.05115928709972994
2023-01-30 10:24:10.437111,-0.05072554200887686
2023-01-30 10:24:10.442111,-0.05114726553865271
2023-01-30 10:24:10.447111,-0.050004325807094505
2023-01-30 10:24:10.452111,-0.04827990440185378
2023-01-30 10:24:10.457111,-0.047480069100856656
2023-01-30 10:24:10.462111,-0.046385880934767684
2023-01-30 10:24:10.467111,-0.04353741928935051
2023-01-30 10:24:10.472111,-0.040046687898734515
2023-01-30 10:24:10.477111,-0.03702243417501436
2023-01-30 10:24:10.482111,-0.032930390802371735
2023-01-30 10:24:10.487111,-0.026372473686933413
2023-01-30 10:24:10.492111,-0.018874783613066985
2023-01-30 10:24:10.497111,-0.012164513580500965
2023-01-30 10:24:10.502111,-0.005256701150869489
2023-01-30 10:24:10.507111,0.0031012296676635838
2023-01-30 10:24:10.512111,0.011734402634201445
2023-01-30 10:24:10.517111,0.01949687860906123
2023-01-30 10:24:10.522111,0.02785762514740411
2023-01-30 10:24:10.527111,0.03834466263651843
2023-01-30 10:24:10.532111,0.049870147627375475
2023-01-30 10:24:10.537111,0.06118317693471899
2023-01-30 10:24:10.542111,0.0734795678406748
2023-01-30 10:24:10.547111,0.0879402980208396
2023-01-30 10:24:10.552111,0.10308598320200824
2023-01-30 10:24:10.557111,0.11712551116943341
2023-01-30 10:24:10.562111,0.13047727662896186
2023-01-30 10:24:10.567111,0.14335374534130088
2023-01-30 10:24:10.572111,0.15323644826866212
2023-01-30 10:24:10.577111,0.1573934257030487
2023-01-30 10:24:10.582111,0.15571714779009918
2023-01-30 10:24:10.587111,0.14873883128166182
2023-01-30 10:24:10.592111,0.1353621456015851
2023-01-30 10:24:10.597111,0.11522631347179399
2023-01-30 10:24:10.602111,0.09102304695814155
2023-01-30 10:24:10.607111,0.06584703922271723
2023-01-30 10:24:10.612111,0.04034661944825053
2023-01-30 10:24:10.617111,0.01478493213653556
2023-01-30 10:24:10.622111,-0.008544990735433335
2023-01-30 10:24:10.627111,-0.027574500069022075
2023-01-30 10:24:10.632111,-0.04289940958660899
2023-01-30 10:24:10.637111,-0.0555096082389354
2023-01-30 10:24:10.642111,-0.06436538457930437
2023-01-30 10:24:10.647111,-0.06870786845684053
2023-01-30 10:24:10.652111,-0.07046951422883063
2023-01-30 10:24:10.657111,-0.07180909812450399
2023-01-30 10:24:10.662111,-0.07239921159638467
2023-01-30 10:24:10.667111,-0.07154464721679679
2023-01-30 10:24:10.672111,-0.0706281783673802
2023-01-30 10:24:10.677111,-0.07087151706218706
2023-01-30 10:24:10.682111,-0.07093500458638828
2023-01-30 10:24:10.687111,-0.06935696303844446
2023-01-30 10:24:10.692111,-0.06723354257335488
2023-01-30 10:24:10.697111,-0.06601532548665992
2023-01-30 10:24:10.702111,-0.06493136614840947
2023-01-30 10:24:10.707111,-0.0631304606795309
2023-01-30 10:24:10.712111,-0.06201624340434665
2023-01-30 10:24:10.717111,-0.06274580955505363
2023-01-30 10:24:10.722111,-0.06361463183172922
2023-01-30 10:24:10.727111,-0.06257753074169148
2023-01-30 10:24:10.732111,-0.06021098700766714
2023-01-30 10:24:10.737111,-0.057697296142578104
2023-01-30 10:24:10.742111,-0.05431911583380427
2023-01-30 10:24:10.747111,-0.049691796302795396
2023-01-30 10:24:10.752111,-0.04606076331468129
2023-01-30 10:24:10.757111,-0.0454366207122802
2023-01-30 10:24:10.762111,-0.046578398971192425
2023-01-30 10:24:10.767111,-0.047480069100856705
2023-01-30 10:24:10.772111,-0.04847063004265943
2023-01-30 10:24:10.777111,-0.050100486725568695
2023-01-30 10:24:10.782111,-0.050533690638032265
2023-01-30 10:24:10.787111,-0.04812916368246074
2023-01-30 10:24:10.792111,-0.04424537030110402
2023-01-30 10:24:10.797111,-0.04046022891998285
2023-01-30 10:24:10.802111,-0.03545552658790618
2023-01-30 10:24:10.807111,-0.027766823768615712
2023-01-30 10:24:10.812111,-0.019129802355381212
2023-01-30 10:24:10.817111,-0.011924108490347748
2023-01-30 10:24:10.822111,-0.005907931839104108
2023-01-30 10:24:10.827111,-0.0007933378219604018
2023-01-30 10:24:10.832111,0.0007552610939655863
2023-01-30 10:24:10.837111,-0.0035580000840127065
2023-01-30 10:24:10.842111,-0.011857507116904057
2023-01-30 10:24:10.847111,-0.021179717034101393
2023-01-30 10:24:10.852111,-0.03156313989827428
2023-01-30 10:24:10.857111,-0.043321054428815814
2023-01-30 10:24:10.862111,-0.053436894454996414
2023-01-30 10:24:10.867111,-0.05921185016632085
2023-01-30 10:24:10.872111,-0.06276942294822532
2023-01-30 10:24:10.877111,-0.06750583648681643
2023-01-30 10:24:10.882111,-0.07309341485734709
2023-01-30 10:24:10.887111,-0.07863660901784893
2023-01-30 10:24:10.892111,-0.08681875568700947
2023-01-30 10:24:10.897111,-0.09832581132650367
2023-01-30 10:24:10.902111,-0.10467492307140093
2023-01-30 10:24:10.907111,-0.09296476840972896
2023-01-30 10:24:10.912111,-0.05556283290636317
2023-01-30 10:24:10.917111,0.010169148445129323
2023-01-30 10:24:10.922111,0.10581743255455665
2023-01-30 10:24:10.927111,0.22422611713409418
2023-01-30 10:24:10.932111,0.3397588708731632
2023-01-30 10:24:10.937111,0.4193391501903532
2023-01-30 10:24:10.942111,0.4471171859025592
2023-01-30 10:24:10.947111,0.430205464363098
2023-01-30 10:24:10.952111,0.3796175879453182
2023-01-30 10:24:10.957111,0.29819887876510626
2023-01-30 10:24:10.962111,0.19284665675543503
2023-01-30 10:24:10.967111,0.08623342216014857
2023-01-30 10:24:10.972111,0.004230334649888841
2023-01-30 10:24:10.977111,-0.044475000351667404
2023-01-30 10:24:10.982111,-0.06852454853713714
2023-01-30 10:24:10.987111,-0.0782038792967796
2023-01-30 10:24:10.992111,-0.07814409526739427
2023-01-30 10:24:10.997111,-0.07243414968252183
2023-01-30 10:24:11.002111,-0.06670339603208668
2023-01-30 10:24:11.007111,-0.06313046067953104
2023-01-30 10:24:11.012111,-0.05933678926120205
2023-01-30 10:24:11.017111,-0.05385081097483625
2023-01-30 10:24:11.022111,-0.048507584533405014
2023-01-30 10:24:11.027111,-0.04471540451049798
2023-01-30 10:24:11.032111,-0.04140150230453784
2023-01-30 10:24:11.037111,-0.03774365037679664
2023-01-30 10:24:11.042111,-0.03464394448760404
2023-01-30 10:24:11.047111,-0.032430689781904214
2023-01-30 10:24:11.052111,-0.029808268074397265
2023-01-30 10:24:11.057111,-0.026059946045279444
2023-01-30 10:24:11.062111,-0.022072962105293525
2023-01-30 10:24:11.067111,-0.018391013145446677
2023-01-30 10:24:11.072111,-0.014158309357627482
2023-01-30 10:24:11.077111,-0.008630554191768093
2023-01-30 10:24:11.082111,-0.0020298392909176262
2023-01-30 10:24:11.087111,0.005649527069181166
2023-01-30 10:24:11.092111,0.015143816394758298
2023-01-30 10:24:11.097111,0.02668499946594225
2023-01-30 10:24:11.102111,0.039534982566183804
2023-01-30 10:24:11.107111,0.053153634071349966
2023-01-30 10:24:11.112111,0.067686378483631
2023-01-30 10:24:11.117111,0.08296390622854227
2023-01-30 10:24:11.122111,0.09805328153849134
2023-01-30 10:24:11.127111,0.11207699775695801
2023-01-30 10:24:11.132111,0.12454560146629057
2023-01-30 10:24:11.137111,0.1346510648727416
2023-01-30 10:24:11.142111,0.1410821569522699
2023-01-30 10:24:11.147111,0.1427767723798751
2023-01-30 10:24:11.152111,0.1392074283106096
2023-01-30 10:24:11.157111,0.12991508841514576
2023-01-30 10:24:11.162111,0.11458232403954027
2023-01-30 10:24:11.167111,0.09380619227886185
2023-01-30 10:24:11.172111,0.0692712608053564
2023-01-30 10:24:11.177111,0.04305660724639884
2023-01-30 10:24:11.182111,0.017148406821730473
2023-01-30 10:24:11.187111,-0.006587108131497994
2023-01-30 10:24:11.192111,-0.026711586505665887
2023-01-30 10:24:11.197111,-0.04272004216909399
2023-01-30 10:24:11.202111,-0.054921288807651646
2023-01-30 10:24:11.207111,-0.06382763385772705
2023-01-30 10:24:11.212111,-0.06991952502698026
2023-01-30 10:24:11.217111,-0.07378041744232171
2023-01-30 10:24:11.222111,-0.07597254652647155
2023-01-30 10:24:11.227111,-0.07678548991680131
2023-01-30 10:24:11.232111,-0.07639566349923924
2023-01-30 10:24:11.237111,-0.07517477124929414
2023-01-30 10:24:11.242111,-0.07358668624169087
2023-01-30 10:24:11.247111,-0.07192929834127418
2023-01-30 10:24:11.252111,-0.07041753214941658
2023-01-30 10:24:11.257111,-0.06933292001485808
2023-01-30 10:24:11.262111,-0.06882897084978881
2023-01-30 10:24:11.267111,-0.06873190402984602
2023-01-30 10:24:11.272111,-0.06871833758495009
2023-01-30 10:24:11.277111,-0.06851553916931147
2023-01-30 10:24:11.282111,-0.06780982202121513
2023-01-30 10:24:11.287111,-0.06625573337078089
2023-01-30 10:24:11.292111,-0.06382219496432856
2023-01-30 10:24:11.297111,-0.06096681207418443
2023-01-30 10:24:11.302111,-0.058332052606875795
2023-01-30 10:24:11.307111,-0.05642315000295627
2023-01-30 10:24:11.312111,-0.055555173571614276
2023-01-30 10:24:11.317111,-0.0557259730994701
2023-01-30 10:24:11.322111,-0.056384400297787254
2023-01-30 10:24:11.327111,-0.056639514863491
2023-01-30 10:24:11.332111,-0.055909972618721326
2023-01-30 10:24:11.337111,-0.05423545837402342
2023-01-30 10:24:11.342111,-0.05197442429265006
2023-01-30 10:24:11.347111,-0.04947543144226061
2023-01-30 10:24:11.352111,-0.04699100074916064
2023-01-30 10:24:11.357111,-0.04447500035166743
2023-01-30 10:24:11.362111,-0.04134696728491542
2023-01-30 10:24:11.367111,-0.03680606931447974
2023-01-30 10:24:11.372111,-0.030550296445458185
2023-01-30 10:24:11.377111,-0.02305487915873516
2023-01-30 10:24:11.382111,-0.015272390066088623
2023-01-30 10:24:11.387111,-0.008414189331233543
2023-01-30 10:24:11.392111,-0.0039116057444464804
2023-01-30 10:24:11.397111,-0.003029108047485271
2023-01-30 10:24:11.402111,-0.006269280491777873
2023-01-30 10:24:11.407111,-0.013294419273734008
2023-01-30 10:24:11.412111,-0.02330020654340453
2023-01-30 10:24:11.417111,-0.03512322902679444
2023-01-30 10:24:11.422111,-0.04714253599640977
2023-01-30 10:24:11.427111,-0.05764921754598613
2023-01-30 10:24:11.432111,-0.06552164088106359
2023-01-30 10:24:11.437111,-0.0704387873411178
2023-01-30 10:24:11.442111,-0.07274310066640856
2023-01-30 10:24:11.447111,-0.07361213862895954
2023-01-30 10:24:11.452111,-0.07515185365308039
2023-01-30 10:24:11.457111,-0.07938186824321741
2023-01-30 10:24:11.462111,-0.08630867735981693
2023-01-30 10:24:11.467111,-0.09243588149547573
2023-01-30 10:24:11.472111,-0.0905394457964669
2023-01-30 10:24:11.477111,-0.07089555263519279
2023-01-30 10:24:11.482111,-0.02443404930968753
2023-01-30 10:24:11.487111,0.05236029624938963
2023-01-30 10:24:11.492111,0.15318070070014694
2023-01-30 10:24:11.497111,0.261440873146057
2023-01-30 10:24:11.502111,0.3544946226387156
2023-01-30 10:24:11.507111,0.4106605052947998
2023-01-30 10:24:11.512111,0.41644621588406605
2023-01-30 10:24:11.517111,0.3714744448661804
2023-01-30 10:24:11.522111,0.2886601575498382
2023-01-30 10:24:11.527111,0.1889586448669432
2023-01-30 10:24:11.532111,0.09348963354507778
2023-01-30 10:24:11.537111,0.01730918884277338
2023-01-30 10:24:11.542111,-0.033134147277188955
2023-01-30 10:24:11.547111,-0.05940417572855944
2023-01-30 10:24:11.552111,-0.06824679768262204
2023-01-30 10:24:11.557111,-0.06750583648681642
2023-01-30 10:24:11.562111,-0.06289211023037057
2023-01-30 10:24:11.567111,-0.05738477036356914
2023-01-30 10:24:11.572111,-0.05237315969101965
2023-01-30 10:24:11.577111,-0.0483455285429954
2023-01-30 10:24:11.582111,-0.044897303836775704
2023-01-30 10:24:11.587111,-0.04134973138570776
2023-01-30 10:24:11.592111,-0.03773177139997433
2023-01-30 10:24:11.597111,-0.034594338387250796
2023-01-30 10:24:11.602111,-0.03190231523836636
2023-01-30 10:24:11.607111,-0.028896730393171262
2023-01-30 10:24:11.612111,-0.025158897853419692
2023-01-30 10:24:11.617111,-0.02105951309204101
2023-01-30 10:24:11.622111,-0.016950500991802366
2023-01-30 10:24:11.627111,-0.01257320307195179
2023-01-30 10:24:11.632111,-0.007510368588646566
2023-01-30 10:24:11.637111,-0.001658797264099159
2023-01-30 10:24:11.642111,0.004985619759182782
2023-01-30 10:24:11.647111,0.01252512168139207
2023-01-30 10:24:11.652111,0.020932068612162028
2023-01-30 10:24:11.657111,0.03005067631602277
2023-01-30 10:24:11.662111,0.03999767327599227
2023-01-30 10:24:11.667111,0.05118231102824211
2023-01-30 10:24:11.672111,0.06379756149910895
2023-01-30 10:24:11.677111,0.07760286331176755
2023-01-30 10:24:11.682111,0.09220211519001804
2023-01-30 10:24:11.687111,0.10712464898824692
2023-01-30 10:24:11.692111,0.12162137033149573
2023-01-30 10:24:11.697111,0.13481935858726501
2023-01-30 10:24:11.702111,0.1461288556715134
2023-01-30 10:24:11.707111,0.15510956943035115
2023-01-30 10:24:11.712111,0.16092127128271697
2023-01-30 10:24:11.717111,0.1622976958751677
2023-01-30 10:24:11.722111,0.15809514721021567
2023-01-30 10:24:11.727111,0.14760892093181605
2023-01-30 10:24:11.732111,0.13060585115251355
2023-01-30 10:24:11.737111,0.10767757892608627
2023-01-30 10:24:11.742111,0.08063312414574658
2023-01-30 10:24:11.747111,0.05207180976867664
2023-01-30 10:24:11.752111,0.024407513987525286
2023-01-30 10:24:11.757111,-0.0005769729614257528
2023-01-30 10:24:11.762111,-0.021600494958765704
2023-01-30 10:24:11.767111,-0.03798405453562731
2023-01-30 10:24:11.772111,-0.049899603649239656
2023-01-30 10:24:11.777111,-0.05803386494517327
2023-01-30 10:24:11.782111,-0.06296298016930572
2023-01-30 10:24:11.787111,-0.06517390906810758
2023-01-30 10:24:11.792111,-0.06550423035389277
2023-01-30 10:24:11.797111,-0.06500562280416476
2023-01-30 10:24:11.802111,-0.06437289525087803
2023-01-30 10:24:11.807111,-0.06389975547790515
2023-01-30 10:24:11.812111,-0.06385880299254384
2023-01-30 10:24:11.817111,-0.06442864984273908
2023-01-30 10:24:11.822111,-0.06533715085674187
2023-01-30 10:24:11.827111,-0.06608744710683818
2023-01-30 10:24:11.832111,-0.0665164204780796
2023-01-30 10:24:11.837111,-0.06673654168844223
2023-01-30 10:24:11.842111,-0.06667854643584606
2023-01-30 10:24:11.847111,-0.06618361175060264
2023-01-30 10:24:11.852111,-0.06543079731277915
2023-01-30 10:24:11.857111,-0.0647652149200439
2023-01-30 10:24:11.862111,-0.06417371848478438
2023-01-30 10:24:11.867111,-0.0633708685636519
2023-01-30 10:24:11.872111,-0.062264546134932854
2023-01-30 10:24:11.877111,-0.06087064743041988
2023-01-30 10:24:11.882111,-0.05894981757829644
2023-01-30 10:24:11.887111,-0.056278906762599896
2023-01-30 10:24:11.892111,-0.05317245375178544
2023-01-30 10:24:11.897111,-0.050220690667629166
2023-01-30 10:24:11.902111,-0.047612520220963225
2023-01-30 10:24:11.907111,-0.045172177255153635
2023-01-30 10:24:11.912111,-0.04286214349985134
2023-01-30 10:24:11.917111,-0.04070063680410381
2023-01-30 10:24:11.922111,-0.03835023223675585
2023-01-30 10:24:11.927111,-0.035363636910915285
2023-01-30 10:24:11.932111,-0.031724522087529974
2023-01-30 10:24:11.937111,-0.02764662168920042
2023-01-30 10:24:11.942111,-0.023055127626153922
2023-01-30 10:24:11.947111,-0.017886161804199236
2023-01-30 10:24:11.952111,-0.012784420859827426
2023-01-30 10:24:11.957111,-0.00894308090209958
2023-01-30 10:24:11.962111,-0.007352471900390261
2023-01-30 10:24:11.967111,-0.008630554191768131
2023-01-30 10:24:11.972111,-0.013217624066791913
2023-01-30 10:24:11.977111,-0.020963352173566836
2023-01-30 10:24:11.982111,-0.03060988770590574
2023-01-30 10:24:11.987111,-0.04034002870321274
2023-01-30 10:24:11.992111,-0.04885095329190906
2023-01-30 10:24:11.997111,-0.05555769056081763
2023-01-30 10:24:12.002111,-0.060215189706599136
2023-01-30 10:24:12.007111,-0.06317853927612305
2023-01-30 10:24:12.012111,-0.06588365404605445
2023-01-30 10:24:12.017111,-0.07019837945699693
2023-01-30 10:24:12.022111,-0.07693691559498408
2023-01-30 10:24:12.027111,-0.08486311137676228
2023-01-30 10:24:12.032111,-0.09018309544532209
2023-01-30 10:24:12.037111,-0.0860410928726196
2023-01-30 10:24:12.042111,-0.06328932166926163
2023-01-30 10:24:12.047111,-0.014039675705134754
2023-01-30 10:24:12.052111,0.06341968615995032
2023-01-30 10:24:12.057111,0.16162455081939692
2023-01-30 10:24:12.062111,0.26439250319148005
2023-01-30 10:24:12.067111,0.3503187596797942
2023-01-30 10:24:12.072111,0.39891111961235337
2023-01-30 10:24:12.077111,0.3980873227119444
2023-01-30 10:24:12.082111,0.349220268939669
2023-01-30 10:24:12.087111,0.2662249505519866
2023-01-30 10:24:12.092111,0.16963136917323357
2023-01-30 10:24:12.097111,0.07962226867675777
2023-01-30 10:24:12.102111,0.010553586326600523
2023-01-30 10:24:12.107111,-0.03228644654154773
2023-01-30 10:24:12.112111,-0.052392379662659416
2023-01-30 10:24:12.117111,-0.057841539382934466
2023-01-30 10:24:12.122111,-0.056264132124571244
2023-01-30 10:24:12.127111,-0.05267282575368877
2023-01-30 10:24:12.132111,-0.049815332742706504
2023-01-30 10:24:12.137111,-0.04846572875976564
2023-01-30 10:24:12.142111,-0.04765058685794618
2023-01-30 10:24:12.147111,-0.0462299585342407
2023-01-30 10:24:12.152111,-0.04442444936336859
2023-01-30 10:24:12.157111,-0.04296044632792469
2023-01-30 10:24:12.162111,-0.04141432506357584
2023-01-30 10:24:12.167111,-0.03887355327606201
2023-01-30 10:24:12.172111,-0.035638874132852286
2023-01-30 10:24:12.177111,-0.03250281140208245
2023-01-30 10:24:12.182111,-0.028836435283926636
2023-01-30 10:24:12.187111,-0.023487608879804615
2023-01-30 10:24:12.192111,-0.01729431570347768
2023-01-30 10:24:12.197111,-0.012260675430297852
2023-01-30 10:24:12.202111,-0.008072261291541405
2023-01-30 10:24:12.207111,-0.0019953649025410175
2023-01-30 10:24:12.212111,0.007159167484378054
2023-01-30 10:24:12.217111,0.01752555370330814
2023-01-30 10:24:12.222111,0.027552665357394885
2023-01-30 10:24:12.227111,0.03822445869445807
2023-01-30 10:24:12.232111,0.0504045321722139
2023-01-30 10:24:12.237111,0.062481366097927024
2023-01-30 10:24:12.242111,0.07288113667593993
2023-01-30 10:24:12.247111,0.08306007087230687
2023-01-30 10:24:12.252111,0.09552140430488851
2023-01-30 10:24:12.257111,0.1100575923919678
2023-01-30 10:24:12.262111,0.12428570037640042
2023-01-30 10:24:12.267111,0.13693492114543915
2023-01-30 10:24:12.272111,0.14808408092048797
2023-01-30 10:24:12.277111,0.1565520018339157
2023-01-30 10:24:12.282111,0.15951027149127142
2023-01-30 10:24:12.287111,0.15498936176300035
2023-01-30 10:24:12.292111,0.14308539299055847
2023-01-30 10:24:12.297111,0.12465020269155498
2023-01-30 10:24:12.302111,0.1005556725891721
2023-01-30 10:24:12.307111,0.07257839292287825
2023-01-30 10:24:12.312111,0.04344524324859965
2023-01-30 10:24:12.317111,0.015361905097961369
2023-01-30 10:24:12.322111,-0.010591764479994471
2023-01-30 10:24:12.327111,-0.03346443176269527
2023-01-30 10:24:12.332111,-0.05199313451599418
2023-01-30 10:24:12.337111,-0.06553451716899866
2023-01-30 10:24:12.342111,-0.07454666873732385
2023-01-30 10:24:12.347111,-0.07986267656087867
2023-01-30 10:24:12.352111,-0.08225368040088626
2023-01-30 10:24:12.357111,-0.08281966298818579
2023-01-30 10:24:12.362111,-0.08285650858113632
2023-01-30 10:24:12.367111,-0.08293986320495597
2023-01-30 10:24:12.372111,-0.08276056087768183
2023-01-30 10:24:12.377111,-0.08207440376281734
2023-01-30 10:24:12.382111,-0.0812213956215001
2023-01-30 10:24:12.387111,-0.08060793578624716
2023-01-30 10:24:12.392111,-0.0803452186583075
2023-01-30 10:24:12.397111,-0.080535814166069
2023-01-30 10:24:12.402111,-0.08124762729390558
2023-01-30 10:24:12.407111,-0.0820022821426391
2023-01-30 10:24:12.412111,-0.08188358245140336
2023-01-30 10:24:12.417111,-0.0803915709257125
2023-01-30 10:24:12.422111,-0.07777324587831587
2023-01-30 10:24:12.427111,-0.07447759807109827
2023-01-30 10:24:12.432111,-0.07082829733775638
2023-01-30 10:24:12.437111,-0.06728947162628174
2023-01-30 10:24:12.442111,-0.06443448340452279
2023-01-30 10:24:12.447111,-0.062433283776044714
2023-01-30 10:24:12.452111,-0.060998898671434286
2023-01-30 10:24:12.457111,-0.05993306636810295
2023-01-30 10:24:12.462111,-0.05927336608058948
2023-01-30 10:24:12.467111,-0.05885124206542959
2023-01-30 10:24:12.472111,-0.05822615587535735
2023-01-30 10:24:12.477111,-0.05719244480133042
2023-01-30 10:24:12.482111,-0.055903794639730844
2023-01-30 10:24:12.487111,-0.05437970161437976
2023-01-30 10:24:12.492111,-0.0522992359091999
2023-01-30 10:24:12.497111,-0.04935523122549047
2023-01-30 10:24:12.502111,-0.04539313289893486
2023-01-30 10:24:12.507111,-0.04017174243927002
2023-01-30 10:24:12.512111,-0.033522258277283876
2023-01-30 10:24:12.517111,-0.025963783264160083
2023-01-30 10:24:12.522111,-0.018834083027566374
2023-01-30 10:24:12.527111,-0.013703107833862305
2023-01-30 10:24:12.532111,-0.011906143416512662
2023-01-30 10:24:12.537111,-0.01447240542620418
2023-01-30 10:24:12.542111,-0.021802708211446746
2023-01-30 10:24:12.547111,-0.033079784363508155
2023-01-30 10:24:12.552111,-0.046299234333912136
2023-01-30 10:24:12.557111,-0.0590916499495506
2023-01-30 10:24:12.562111,-0.06945002096099481
2023-01-30 10:24:12.567111,-0.07601618766784661
2023-01-30 10:24:12.572111,-0.07850996290508908
2023-01-30 10:24:12.577111,-0.0783000439405441
2023-01-30 10:24:12.582111,-0.07818420494175635
2023-01-30 10:24:12.587111,-0.08106470108032218
2023-01-30 10:24:12.592111,-0.08829578163236568
2023-01-30 10:24:12.597111,-0.09825368970632549
2023-01-30 10:24:12.602111,-0.10519407987880659
2023-01-30 10:24:12.607111,-0.09926339238882054
2023-01-30 10:24:12.612111,-0.06910947736199811
2023-01-30 10:24:12.617111,-0.006923675537109299
2023-01-30 10:24:12.622111,0.08652257027408601
2023-01-30 10:24:12.627111,0.19951245188713068
2023-01-30 10:24:12.632111,0.31093684124115073
2023-01-30 10:24:12.637111,0.3958034515380857
2023-01-30 10:24:12.642111,0.43345875883489665
2023-01-30 10:24:12.647111,0.4152522683143614
2023-01-30 10:24:12.652111,0.3476135385550171
2023-01-30 10:24:12.657111,0.24898788332939129
2023-01-30 10:24:12.662111,0.14273084777048792
2023-01-30 10:24:12.667111,0.049451392143964594
2023-01-30 10:24:12.672111,-0.018551735922383034
2023-01-30 10:24:12.677111,-0.05911568924784664
2023-01-30 10:24:12.682111,-0.07783732030829929
2023-01-30 10:24:12.687111,-0.08322834968566885
2023-01-30 10:24:12.692111,-0.08257857123353302
2023-01-30 10:24:12.697111,-0.08031944930553428
2023-01-30 10:24:12.702111,-0.07820231686375559
2023-01-30 10:24:12.707111,-0.07611235231161105
2023-01-30 10:24:12.712111,-0.07326765486740774
2023-01-30 10:24:12.717111,-0.06942908465862266
2023-01-30 10:24:12.722111,-0.06511857169723612
2023-01-30 10:24:12.727111,-0.06079852581024157
2023-01-30 10:24:12.732111,-0.05637623968457765
2023-01-30 10:24:12.737111,-0.0516871623694896
2023-01-30 10:24:12.742111,-0.04690795542486163
2023-01-30 10:24:12.747111,-0.0421911478042602
2023-01-30 10:24:12.752111,-0.037403422675213266
2023-01-30 10:24:12.757111,-0.032550893723964566
2023-01-30 10:24:12.762111,-0.02792454807575136
2023-01-30 10:24:12.767111,-0.023415487259626326
2023-01-30 10:24:12.772111,-0.018190701329084315
2023-01-30 10:24:12.777111,-0.011491378769278535
2023-01-30 10:24:12.782111,-0.0032854698456959565
2023-01-30 10:24:12.787111,0.006250540725886777
2023-01-30 10:24:12.792111,0.017263669521851408
2023-01-30 10:24:12.797111,0.02969006821513171
2023-01-30 10:24:12.802111,0.04283425068200483
2023-01-30 10:24:12.807111,0.05618274211883543
2023-01-30 10:24:12.812111,0.07006013904537339
2023-01-30 10:24:12.817111,0.08471886813640589
2023-01-30 10:24:12.822111,0.09936014653238757
2023-01-30 10:24:12.827111,0.11287033557891837
2023-01-30 10:24:12.832111,0.12480748176220446
2023-01-30 10:24:12.837111,0.1345789432525633
2023-01-30 10:24:12.842111,0.1403972951378492
2023-01-30 10:24:12.847111,0.14054100215435017
2023-01-30 10:24:12.852111,0.135156862787297
2023-01-30 10:24:12.857111,0.12520313262939445
2023-01-30 10:24:12.862111,0.11018204511943971
2023-01-30 10:24:12.867111,0.08923848718404755
2023-01-30 10:24:12.872111,0.06453941488198477
2023-01-30 10:24:12.877111,0.04079679772257795
2023-01-30 10:24:12.882111,0.0202966587430608
2023-01-30 10:24:12.887111,0.0007212162017822076
2023-01-30 10:24:12.892111,-0.020464447484151067
2023-01-30 10:24:12.897111,-0.04149397462606425
2023-01-30 10:24:12.902111,-0.05833107586139949
2023-01-30 10:24:12.907111,-0.0696935281157493
2023-01-30 10:24:12.912111,-0.0774884839963592
2023-01-30 10:24:12.917111,-0.08310814946889868
2023-01-30 10:24:12.922111,-0.08609554481692977
2023-01-30 10:24:12.927111,-0.0864978656172752
2023-01-30 10:24:12.932111,-0.08595311236722443
2023-01-30 10:24:12.937111,-0.08565644919872278
2023-01-30 10:24:12.942111,-0.08508822980048115
2023-01-30 10:24:12.947111,-0.08356492221355427
2023-01-30 10:24:12.952111,-0.08155905399286853
2023-01-30 10:24:12.957111,-0.07969439029693598
2023-01-30 10:24:12.962111,-0.07775526045192326
2023-01-30 10:24:12.967111,-0.07555942237377163
2023-01-30 10:24:12.972111,-0.07371756391680613
2023-01-30 10:24:12.977111,-0.07265051454305638
2023-01-30 10:24:12.982111,-0.07174047346203967
2023-01-30 10:24:12.987111,-0.07027050107717503
2023-01-30 10:24:12.992111,-0.06845890932588232
2023-01-30 10:24:12.997111,-0.06685674190521246
2023-01-30 10:24:13.002111,-0.06546401993217467
2023-01-30 10:24:13.007111,-0.06416420638561238
2023-01-30 10:24:13.012111,-0.06333485588407878
2023-01-30 10:24:13.017111,-0.06325066089630116
2023-01-30 10:24:13.022111,-0.06343405977139382
2023-01-30 10:24:13.027111,-0.06329874694347377
2023-01-30 10:24:13.032111,-0.06292923573507883
2023-01-30 10:24:13.037111,-0.06257753074169145
2023-01-30 10:24:13.042111,-0.06191002879778641
2023-01-30 10:24:13.047111,-0.06043791770935038
2023-01-30 10:24:13.052111,-0.058248022629771676
2023-01-30 10:24:13.057111,-0.05565385147929186
2023-01-30 10:24:13.062111,-0.05252450800175623
2023-01-30 10:24:13.067111,-0.048561893403530065
2023-01-30 10:24:13.072111,-0.043826610915775686
2023-01-30 10:24:13.077111,-0.038392744958400685
2023-01-30 10:24:13.082111,-0.03194606190557227
2023-01-30 10:24:13.087111,-0.024473270401358542
2023-01-30 10:24:13.092111,-0.017113431310798236
2023-01-30 10:24:13.097111,-0.011731783859431718
2023-01-30 10:24:13.102111,-0.00982771107314328
2023-01-30 10:24:13.107111,-0.012164513580500972
2023-01-30 10:24:13.112111,-0.01883964009998376
2023-01-30 10:24:13.117111,-0.028920769691467185
2023-01-30 10:24:13.122111,-0.040308229524641706
2023-01-30 10:24:13.127111,-0.05074958130717268
2023-01-30 10:24:13.132111,-0.05905693167933142
2023-01-30 10:24:13.137111,-0.06512582302093496
2023-01-30 10:24:13.142111,-0.06931688831148648
2023-01-30 10:24:13.147111,-0.07250627130270001
2023-01-30 10:24:13.152111,-0.07636655813033567
2023-01-30 10:24:13.157111,-0.08262734115123736
2023-01-30 10:24:13.162111,-0.09159731457680148
2023-01-30 10:24:13.167111,-0.10106643289327613
2023-01-30 10:24:13.172111,-0.10565407858852226
2023-01-30 10:24:13.177111,-0.09657084941864004
2023-01-30 10:24:13.182111,-0.06324817307550279
2023-01-30 10:24:13.187111,0.0020915269851684002
2023-01-30 10:24:13.192111,0.09890645805109147
2023-01-30 10:24:13.197111,0.21547536551952354
2023-01-30 10:24:13.202111,0.33049347195875184
2023-01-30 10:24:13.207111,0.4185698628425598
2023-01-30 10:24:13.212111,0.4582254536215187
2023-01-30 10:24:13.217111,0.43986976146697976
2023-01-30 10:24:13.222111,0.3697306991494093
2023-01-30 10:24:13.227111,0.2670663595199584
2023-01-30 10:24:13.232111,0.15639833337878
2023-01-30 10:24:13.237111,0.05925993248820298
2023-01-30 10:24:13.242111,-0.01134206785985964
2023-01-30 10:24:13.247111,-0.05276898667216298
2023-01-30 10:24:13.252111,-0.07072577446807159
2023-01-30 10:24:13.257111,-0.07438143342733368
2023-01-30 10:24:13.262111,-0.07162683764512504
2023-01-30 10:24:13.267111,-0.06716927140951147
2023-01-30 10:24:13.272111,-0.06310099587173973
2023-01-30 10:24:13.277111,-0.059860944747924784
2023-01-30 10:24:13.282111,-0.056926242109206306
2023-01-30 10:24:13.287111,-0.05373060703277585
2023-01-30 10:24:13.292111,-0.05031951945067062
2023-01-30 10:24:13.297111,-0.04692713543772692
2023-01-30 10:24:13.302111,-0.04328587662806333
2023-01-30 10:24:13.307111,-0.038945674896240255
2023-01-30 10:24:13.312111,-0.0340067333796808
2023-01-30 10:24:13.317111,-0.02892076969146715
2023-01-30 10:24:13.322111,-0.023812581166230546
2023-01-30 10:24:13.327111,-0.018607378005981407
2023-01-30 10:24:13.332111,-0.013544150980961926
2023-01-30 10:24:13.337111,-0.008870959281921283
2023-01-30 10:24:13.342111,-0.00423581177588004
2023-01-30 10:24:13.347111,0.0009856622200459146
2023-01-30 10:24:13.352111,0.007001797253428137
2023-01-30 10:24:13.357111,0.013871392235159817
2023-01-30 10:24:13.362111,0.0221222945033856
2023-01-30 10:24:13.367111,0.03233452886342996
2023-01-30 10:24:13.372111,0.044320835113407835
2023-01-30 10:24:13.377111,0.05740880966186518
2023-01-30 10:24:13.382111,0.071247491539722
2023-01-30 10:24:13.387111,0.0856083631515502
2023-01-30 10:24:13.392111,0.09974207812148271
2023-01-30 10:24:13.397111,0.1127741783857345
2023-01-30 10:24:13.402111,0.12440717320530277
2023-01-30 10:24:13.407111,0.1343145072460174
2023-01-30 10:24:13.412111,0.14113570984782722
2023-01-30 10:24:13.417111,0.14304122328758215
2023-01-30 10:24:13.422111,0.1390600052472105
2023-01-30 10:24:13.427111,0.1290015429258345
2023-01-30 10:24:13.432111,0.1126528263679778
2023-01-30 10:24:13.437111,0.09041647613048545
2023-01-30 10:24:13.442111,0.06444094417408726
2023-01-30 10:24:13.447111,0.03762344643473626
2023-01-30 10:24:13.452111,0.011548887478011513
2023-01-30 10:24:13.457111,-0.013198256492614698
2023-01-30 10:24:13.462111,-0.034985410009779165
2023-01-30 10:24:13.467111,-0.051470797508954946
2023-01-30 10:24:13.472111,-0.06240962233967852
2023-01-30 10:24:13.477111,-0.0701503008604048
2023-01-30 10:24:13.482111,-0.0764380733591057
2023-01-30 10:24:13.487111,-0.0804156064987181
2023-01-30 10:24:13.492111,-0.08090971705984724
2023-01-30 10:24:13.497111,-0.07911741733551017
2023-01-30 10:24:13.502111,-0.07745552693503172
2023-01-30 10:24:13.507111,-0.07678548991680131
2023-01-30 10:24:13.512111,-0.07634676351812696
2023-01-30 10:24:13.517111,-0.07572770118713373
2023-01-30 10:24:13.522111,-0.07530924584380619
2023-01-30 10:24:13.527111,-0.07507860660552974
2023-01-30 10:24:13.532111,-0.07447752096613389
2023-01-30 10:24:13.537111,-0.07349193096160879
2023-01-30 10:24:13.542111,-0.07280651554845863
2023-01-30 10:24:13.547111,-0.07277071475982655
2023-01-30 10:24:13.552111,-0.07304412865954178
2023-01-30 10:24:13.557111,-0.07329960912466033
2023-01-30 10:24:13.562111,-0.07351186807814067
2023-01-30 10:24:13.567111,-0.07349193096160882
2023-01-30 10:24:13.572111,-0.07282580926048099
2023-01-30 10:24:13.577111,-0.07140040397644035
2023-01-30 10:24:13.582111,-0.06947646204887091
2023-01-30 10:24:13.587111,-0.06719331443309774
2023-01-30 10:24:13.592111,-0.06446420456938008
2023-01-30 10:24:13.597111,-0.06137549877166736
2023-01-30 10:24:13.602111,-0.05825701331429978
2023-01-30 10:24:13.607111,-0.05534132570028293
2023-01-30 10:24:13.612111,-0.05271309856341744
2023-01-30 10:24:13.617111,-0.050533216446637975
2023-01-30 10:24:13.622111,-0.048888354881245814
2023-01-30 10:24:13.627111,-0.04738390445709226
2023-01-30 10:24:13.632111,-0.04521563728699384
2023-01-30 10:24:13.637111,-0.041710339486598934
2023-01-30 10:24:13.642111,-0.03667373348964403
2023-01-30 10:24:13.647111,-0.030435323715209926
2023-01-30 10:24:13.652111,-0.023940724765208157
2023-01-30 10:24:13.657111,-0.01872758194804191
2023-01-30 10:24:13.662111,-0.01638441464728308
2023-01-30 10:24:13.667111,-0.01781404018402093
2023-01-30 10:24:13.672111,-0.022973779268410304
2023-01-30 10:24:13.677111,-0.031084418296813937
2023-01-30 10:24:13.682111,-0.0408689812485362
2023-01-30 10:24:13.687111,-0.050821702927350866
2023-01-30 10:24:13.692111,-0.05968647177147317
2023-01-30 10:24:13.697111,-0.06683270633220674
2023-01-30 10:24:13.702111,-0.07219256319562223
2023-01-30 10:24:13.707111,-0.07608830928802489
2023-01-30 10:24:13.712111,-0.07934532716804078
2023-01-30 10:24:13.717111,-0.08332451432943334
2023-01-30 10:24:13.722111,-0.08928552548732492
2023-01-30 10:24:13.727111,-0.09719590842723838
2023-01-30 10:24:13.732111,-0.10456643872719458
2023-01-30 10:24:13.737111,-0.10577838122844688
2023-01-30 10:24:13.742111,-0.09252051657181706
2023-01-30 10:24:13.747111,-0.05615870282053943
2023-01-30 10:24:13.752111,0.008101336520840505
2023-01-30 10:24:13.757111,0.09714782238006592
2023-01-30 10:24:13.762111,0.1984594569903567
2023-01-30 10:24:13.767111,0.2924050986766815
2023-01-30 10:24:13.772111,0.35785249034465444
2023-01-30 10:24:13.777111,0.37923952937126143
2023-01-30 10:24:13.782111,0.3522640204574055
2023-01-30 10:24:13.787111,0.2853852510452269
2023-01-30 10:24:13.792111,0.19629112102533464
2023-01-30 10:24:13.797111,0.10527352988719936
2023-01-30 10:24:13.802111,0.028733996516020377
2023-01-30 10:24:13.807111,-0.02476175688207141
2023-01-30 10:24:13.812111,-0.054967490424233954
2023-01-30 10:24:13.817111,-0.06740967929363245
2023-01-30 10:24:13.822111,-0.06947186083595994
2023-01-30 10:24:13.827111,-0.06726543605327598
2023-01-30 10:24:13.832111,-0.06442430938577552
2023-01-30 10:24:13.837111,-0.0623611621558666
2023-01-30 10:24:13.842111,-0.06102637474925429
2023-01-30 10:24:13.847111,-0.05974074453115458
2023-01-30 10:24:13.852111,-0.05791668919735787
2023-01-30 10:24:13.857111,-0.055341325700282995
2023-01-30 10:24:13.862111,-0.05201041342183807
2023-01-30 10:24:13.867111,-0.047984920442104374
2023-01-30 10:24:13.872111,-0.04347854189897998
2023-01-30 10:24:13.877111,-0.03882547467946998
2023-01-30 10:24:13.882111,-0.03418868400564666
2023-01-30 10:24:13.887111,-0.02942562103271469
2023-01-30 10:24:13.892111,-0.024320345139960845
2023-01-30 10:24:13.897111,-0.01879970356822008
2023-01-30 10:24:13.902111,-0.012875854417106855
2023-01-30 10:24:13.907111,-0.006563067436218185
2023-01-30 10:24:13.912111,0.0001029428350302434
2023-01-30 10:24:13.917111,0.007188121788203688
2023-01-30 10:24:13.922111,0.015092053288222246
2023-01-30 10:24:13.927111,0.02444922924041738
2023-01-30 10:24:13.932111,0.035667576984345147
2023-01-30 10:24:13.937111,0.04865805432200428
2023-01-30 10:24:13.942111,0.06299935327976472
2023-01-30 10:24:13.947111,0.07815580070018764
2023-01-30 10:24:13.952111,0.09352023190691805
2023-01-30 10:24:13.957111,0.10849495977163301
2023-01-30 10:24:13.962111,0.12259394267769289
2023-01-30 10:24:13.967111,0.13522803783416731
2023-01-30 10:24:13.972111,0.1453055099954205
2023-01-30 10:24:13.977111,0.15126308798789956
2023-01-30 10:24:13.982111,0.1516247989111311
2023-01-30 10:24:13.987111,0.14549335837364186
2023-01-30 10:24:13.992111,0.13267864152305703
2023-01-30 10:24:13.997111,0.1137598380446433
2023-01-30 10:24:14.002111,0.09014134774791308
2023-01-30 10:24:14.007111,0.06375551223754879
2023-01-30 10:24:14.012111,0.03649305603894429
2023-01-30 10:24:14.017111,0.009928743354976096
2023-01-30 10:24:14.022111,-0.014571255546012261
2023-01-30 10:24:14.027111,-0.035868488252162926
2023-01-30 10:24:14.032111,-0.05330792642449849
2023-01-30 10:24:14.037111,-0.06676058471202857
2023-01-30 10:24:14.042111,-0.07639145107939774
2023-01-30 10:24:14.047111,-0.08260329812765112
2023-01-30 10:24:14.052111,-0.08617202439925398
2023-01-30 10:24:14.057111,-0.08808454126119603
2023-01-30 10:24:14.062111,-0.08908815283493395
2023-01-30 10:24:14.067111,-0.08952697366476048
2023-01-30 10:24:14.072111,-0.08956264403909478
2023-01-30 10:24:14.077111,-0.08928656578063962
2023-01-30 10:24:14.082111,-0.08864120522375704
2023-01-30 10:24:14.087111,-0.08755564689636235
2023-01-30 10:24:14.092111,-0.08622603062206222
2023-01-30 10:24:14.097111,-0.08503139019012451
2023-01-30 10:24:14.102111,-0.08416211296584711
2023-01-30 10:24:14.107111,-0.083540879189968
2023-01-30 10:24:14.112111,-0.08303980465257815
2023-01-30 10:24:14.117111,-0.08253117650747288
2023-01-30 10:24:14.122111,-0.0818809824021528
2023-01-30 10:24:14.127111,-0.08125703036785123
2023-01-30 10:24:14.132111,-0.08127423689869549
2023-01-30 10:24:14.137111,-0.08231481164693821
2023-01-30 10:24:14.142111,-0.08374777162197702
2023-01-30 10:24:14.147111,-0.08435826003551476
2023-01-30 10:24:14.152111,-0.08357110217617275
2023-01-30 10:24:14.157111,-0.081713795661926
2023-01-30 10:24:14.162111,-0.07907477544303453
2023-01-30 10:24:14.167111,-0.07543921470642075
2023-01-30 10:24:14.172111,-0.07082756664496567
2023-01-30 10:24:14.177111,-0.0660153254866599
2023-01-30 10:24:14.182111,-0.0618006759464703
2023-01-30 10:24:14.187111,-0.05813002586364742
2023-01-30 10:24:14.192111,-0.054374704362800265
2023-01-30 10:24:14.197111,-0.05017260834574692
2023-01-30 10:24:14.202111,-0.045602592288235974
2023-01-30 10:24:14.207111,-0.04079679772257793
2023-01-30 10:24:14.212111,-0.03583513692761668
2023-01-30 10:24:14.217111,-0.03094017505645747
2023-01-30 10:24:14.222111,-0.0264724648828191
2023-01-30 10:24:14.227111,-0.02281447313725946
2023-01-30 10:24:14.232111,-0.020491207052731795
2023-01-30 10:24:14.237111,-0.020290216431021593
2023-01-30 10:24:14.242111,-0.022980934300188757
2023-01-30 10:24:14.247111,-0.028848648071288965
2023-01-30 10:24:14.252111,-0.037487094483459715
2023-01-30 10:24:14.257111,-0.04784067720174772
2023-01-30 10:24:14.262111,-0.05833488633514696
2023-01-30 10:24:14.267111,-0.06724139302968955
2023-01-30 10:24:14.272111,-0.07334911046379967
2023-01-30 10:24:14.277111,-0.07656912505626658
2023-01-30 10:24:14.282111,-0.07809109572653128
2023-01-30 10:24:14.287111,-0.08003096282482136
2023-01-30 10:24:14.292111,-0.08449247331780428
2023-01-30 10:24:14.297111,-0.09193103015422818
2023-01-30 10:24:14.302111,-0.09934253338462096
2023-01-30 10:24:14.307111,-0.09952783584594718
2023-01-30 10:24:14.312111,-0.08245085458212587
2023-01-30 10:24:14.317111,-0.038705270737409536
2023-01-30 10:24:14.322111,0.03584715415804131
2023-01-30 10:24:14.327111,0.13602137565612787
2023-01-30 10:24:14.332111,0.24615974710645958
2023-01-30 10:24:14.337111,0.34349125623702986
2023-01-30 10:24:14.342111,0.40525281551514597
2023-01-30 10:24:14.347111,0.4165504574775694
2023-01-30 10:24:14.352111,0.37555998474396624
2023-01-30 10:24:14.357111,0.2939917743206023
2023-01-30 10:24:14.362111,0.19263905952072172
2023-01-30 10:24:14.367111,0.09385427087545387
2023-01-30 10:24:14.372111,0.014359068298473866
2023-01-30 10:24:14.377111,-0.03848890587687488
2023-01-30 10:24:14.382111,-0.06615441334770514
2023-01-30 10:24:14.387111,-0.07558345794677729
2023-01-30 10:24:14.392111,-0.0751286533429411
2023-01-30 10:24:14.397111,-0.07130424678325648
2023-01-30 10:24:14.402111,-0.06738696919345356
2023-01-30 10:24:14.407111,-0.06401996314525601
2023-01-30 10:24:14.412111,-0.0607626763394121
2023-01-30 10:24:14.417111,-0.0572164878249168
2023-01-30 10:24:14.422111,-0.053367273919082074
2023-01-30 10:24:14.427111,-0.04959563538432122
2023-01-30 10:24:14.432111,-0.04649283599213789
2023-01-30 10:24:14.437111,-0.04435479640960689
2023-01-30 10:24:14.442111,-0.042766154468885514
2023-01-30 10:24:14.447111,-0.04084488004446016
2023-01-30 10:24:14.452111,-0.037867042987173
2023-01-30 10:24:14.457111,-0.033536553382873466
2023-01-30 10:24:14.462111,-0.027882035810931946
2023-01-30 10:24:14.467111,-0.021251838654279667
2023-01-30 10:24:14.472111,-0.014306785898249075
2023-01-30 10:24:14.477111,-0.007620851509272948
2023-01-30 10:24:14.482111,-0.0012267438455627773
2023-01-30 10:24:14.487111,0.005264878273010164
2023-01-30 10:24:14.492111,0.01221882832782351
2023-01-30 10:24:14.497111,0.019905567169189453
2023-01-30 10:24:14.502111,0.028705261629298887
2023-01-30 10:24:14.507111,0.03899375721812252
2023-01-30 10:24:14.512111,0.05084798093068277
2023-01-30 10:24:14.517111,0.06411612033843989
2023-01-30 10:24:14.522111,0.07863477707291659
2023-01-30 10:24:14.527111,0.09402255713939651
2023-01-30 10:24:14.532111,0.10933689051481149
2023-01-30 10:24:14.537111,0.12325584888458244
2023-01-30 10:24:14.542111,0.1345176753988044
2023-01-30 10:24:14.547111,0.1419113129377364
2023-01-30 10:24:14.552111,0.14405648445481506
2023-01-30 10:24:14.557111,0.13969957828521712
2023-01-30 10:24:14.562111,0.12831007849342893
2023-01-30 10:24:14.567111,0.11022587865591034
2023-01-30 10:24:14.572111,0.08646384534008586
2023-01-30 10:24:14.577111,0.05877912044525139
2023-01-30 10:24:14.582111,0.029687477117629407
2023-01-30 10:24:14.587111,0.0018270810833199628
2023-01-30 10:24:14.592111,-0.022891645426903272
2023-01-30 10:24:14.597111,-0.04344125837087634
2023-01-30 10:24:14.602111,-0.05934485170329251
2023-01-30 10:24:14.607111,-0.07065515220165243
2023-01-30 10:24:14.612111,-0.07806926392375538
2023-01-30 10:24:14.617111,-0.08253117650747288
2023-01-30 10:24:14.622111,-0.08471038807302401
2023-01-30 10:24:14.627111,-0.0851515978574752
2023-01-30 10:24:14.632111,-0.08469811709887647
2023-01-30 10:24:14.637111,-0.08428613841533653
2023-01-30 10:24:14.642111,-0.08442496424561541
2023-01-30 10:24:14.647111,-0.08524775505065908
2023-01-30 10:24:14.652111,-0.08683538480837245
2023-01-30 10:24:14.657111,-0.08899807929992667
2023-01-30 10:24:14.662111,-0.09094624690648181
2023-01-30 10:24:14.667111,-0.09176274389028526
2023-01-30 10:24:14.672111,-0.09117461558010743
2023-01-30 10:24:14.677111,-0.08950293064117432
2023-01-30 10:24:14.682111,-0.0871024715074001
2023-01-30 10:24:14.687111,-0.0843342170119285
2023-01-30 10:24:14.692111,-0.08179085244436893
2023-01-30 10:24:14.697111,-0.07988671958446497
2023-01-30 10:24:14.702111,-0.07834458214797028
2023-01-30 10:24:14.707111,-0.07664124667644492
2023-01-30 10:24:14.712111,-0.07479727892779804
2023-01-30 10:24:14.717111,-0.07320344448089583
2023-01-30 10:24:14.722111,-0.07194692227750205
2023-01-30 10:24:14.727111,-0.07094363868236539
2023-01-30 10:24:14.732111,-0.07042290440104403
2023-01-30 10:24:14.737111,-0.07048686593770978
2023-01-30 10:24:14.742111,-0.07039713360807337
2023-01-30 10:24:14.747111,-0.0691165551543235
2023-01-30 10:24:14.752111,-0.06639948381743183
2023-01-30 10:24:14.757111,-0.0625534877181053
2023-01-30 10:24:14.762111,-0.05742836759608206
2023-01-30 10:24:14.767111,-0.05074958130717275
2023-01-30 10:24:14.772111,-0.043351892416863914
2023-01-30 10:24:14.777111,-0.03680606931447977
2023-01-30 10:24:14.782111,-0.03157362539556853
2023-01-30 10:24:14.787111,-0.026709040626883583
2023-01-30 10:24:14.792111,-0.02185098284121659
2023-01-30 10:24:14.797111,-0.018463134765625038
2023-01-30 10:24:14.802111,-0.01845948200549329
2023-01-30 10:24:14.807111,-0.02238174341619009
2023-01-30 10:24:14.812111,-0.029486569319542712
2023-01-30 10:24:14.817111,-0.0387773923575878
2023-01-30 10:24:14.822111,-0.049107709965004145
2023-01-30 10:24:14.827111,-0.05882720276713366
2023-01-30 10:24:14.832111,-0.0663300454668322
2023-01-30 10:24:14.837111,-0.0710638388991355
2023-01-30 10:24:14.842111,-0.0737284297730078
2023-01-30 10:24:14.847111,-0.07577578723430628
2023-01-30 10:24:14.852111,-0.07905834202300734
2023-01-30 10:24:14.857111,-0.08546411991119382
2023-01-30 10:24:14.862111,-0.09584930400965479
2023-01-30 10:24:14.867111,-0.10847091674804678
2023-01-30 10:24:14.872111,-0.11783486948048898
2023-01-30 10:24:14.877111,-0.1147454977035522
2023-01-30 10:24:14.882111,-0.08822495084241096
2023-01-30 10:24:14.887111,-0.02961794659495346
2023-01-30 10:24:14.892111,0.062264691221456905
2023-01-30 10:24:14.897111,0.17763555049896235
2023-01-30 10:24:14.902111,0.29625147655490097
2023-01-30 10:24:14.907111,0.39248585700988753
2023-01-30 10:24:14.912111,0.4434728903090538
2023-01-30 10:24:14.917111,0.4372733831405638
2023-01-30 10:24:14.922111,0.3772968898735722
2023-01-30 10:24:14.927111,0.2806252241134642
2023-01-30 10:24:14.932111,0.17123647572887685
2023-01-30 10:24:14.937111,0.07168889045715328
2023-01-30 10:24:14.942111,-0.003288716499498926
2023-01-30 10:24:14.947111,-0.049403309822082506
2023-01-30 10:24:14.952111,-0.0711766263250225
2023-01-30 10:24:14.957111,-0.0773624628782272
2023-01-30 10:24:14.962111,-0.07624476033605922
2023-01-30 10:24:14.967111,-0.07322748750448221
2023-01-30 10:24:14.972111,-0.07074860191569414
2023-01-30 10:24:14.977111,-0.06911655515432347
2023-01-30 10:24:14.982111,-0.06755638133741244
2023-01-30 10:24:14.987111,-0.06536623090505589
2023-01-30 10:24:14.992111,-0.06253899075492236
2023-01-30 10:24:14.997111,-0.059356093406677204
2023-01-30 10:24:15.002111,-0.055786206103411604
2023-01-30 10:24:15.007111,-0.05166312307119356
2023-01-30 10:24:15.012111,-0.04711916801065973
2023-01-30 10:24:15.017111,-0.042359434068202875
2023-01-30 10:24:15.022111,-0.037262601901419924
2023-01-30 10:24:15.027111,-0.03166139125823969
2023-01-30 10:24:15.032111,-0.025741298606286354
2023-01-30 10:24:15.037111,-0.019689202308654685
2023-01-30 10:24:15.042111,-0.013236318867973702
2023-01-30 10:24:15.047111,-0.006034175865352154
2023-01-30 10:24:15.052111,0.0018206845708309345
2023-01-30 10:24:15.057111,0.010121067985892173
2023-01-30 10:24:15.062111,0.01905407615256399
2023-01-30 10:24:15.067111,0.028848648071289038
2023-01-30 10:24:15.072111,0.03929369487395535
2023-01-30 10:24:15.077111,0.050172608345746966
2023-01-30 10:24:15.082111,0.06179735931862122
2023-01-30 10:24:15.087111,0.07450163364410398
2023-01-30 10:24:15.092111,0.0879347510850581
2023-01-30 10:24:15.097111,0.1013789623975752
2023-01-30 10:24:15.102111,0.11427755817707942
2023-01-30 10:24:15.107111,0.12578010559082034
2023-01-30 10:24:15.112111,0.13422320216139222
2023-01-30 10:24:15.117111,0.13782441616058336
2023-01-30 10:24:15.122111,0.13561568116566397
2023-01-30 10:24:15.127111,0.12722253799438468
2023-01-30 10:24:15.132111,0.11240035056351722
2023-01-30 10:24:15.137111,0.09164254367351529
2023-01-30 10:24:15.142111,0.06678045439841503
2023-01-30 10:24:15.147111,0.04014770314097396
2023-01-30 10:24:15.152111,0.013492775166079088
2023-01-30 10:24:15.157111,-0.01173178385943171
2023-01-30 10:24:15.162111,-0.03378785210438939
2023-01-30 10:24:15.167111,-0.05137463659048076
2023-01-30 10:24:15.172111,-0.06448755342284376
2023-01-30 10:24:15.177111,-0.07375638186931605
2023-01-30 10:24:15.182111,-0.07950213151354131
2023-01-30 10:24:15.187111,-0.0822426900267601
2023-01-30 10:24:15.192111,-0.08334651627821724
2023-01-30 10:24:15.197111,-0.08406977355480186
2023-01-30 10:24:15.202111,-0.08446198997281461
2023-01-30 10:24:15.207111,-0.08414189517498008
2023-01-30 10:24:15.212111,-0.08347008664593417
2023-01-30 10:24:15.217111,-0.0829639062285423
2023-01-30 10:24:15.222111,-0.08233615920330546
2023-01-30 10:24:15.227111,-0.08125703036785113
2023-01-30 10:24:15.232111,-0.08032837464217668
2023-01-30 10:24:15.237111,-0.08012712001800525
2023-01-30 10:24:15.242111,-0.08003201144274136
2023-01-30 10:24:15.247111,-0.07918953895568838
2023-01-30 10:24:15.252111,-0.07783384544540503
2023-01-30 10:24:15.257111,-0.07642488181591034
2023-01-30 10:24:15.262111,-0.07441561627852192
2023-01-30 10:24:15.267111,-0.07128020375967012
2023-01-30 10:24:15.272111,-0.0678727526912396
2023-01-30 10:24:15.277111,-0.06531815230846394
2023-01-30 10:24:15.282111,-0.06345975829171342
2023-01-30 10:24:15.287111,-0.06183227151632305
2023-01-30 10:24:15.292111,-0.06106197518487077
2023-01-30 10:24:15.297111,-0.061639945954084244
2023-01-30 10:24:15.302111,-0.06240741338588197
2023-01-30 10:24:15.307111,-0.062048636376857765
2023-01-30 10:24:15.312111,-0.061013279620020074
2023-01-30 10:24:15.317111,-0.060173474252223816
2023-01-30 10:24:15.322111,-0.0588329697690961
2023-01-30 10:24:15.327111,-0.05603849887847898
2023-01-30 10:24:15.332111,-0.05248644427860081
2023-01-30 10:24:15.337111,-0.048922501504421234
2023-01-30 10:24:15.342111,-0.0440997348268425
2023-01-30 10:24:15.347111,-0.03680606931447985
2023-01-30 10:24:15.352111,-0.028537511712670965
2023-01-30 10:24:15.357111,-0.02163648605346668
2023-01-30 10:24:15.362111,-0.016378044980736386
2023-01-30 10:24:15.367111,-0.012645324692130089
2023-01-30 10:24:15.372111,-0.012517811781283967
2023-01-30 10:24:15.377111,-0.017717879265546646
2023-01-30 10:24:15.382111,-0.026186121371820754
2023-01-30 10:24:15.387111,-0.03481070324778545
2023-01-30 10:24:15.392111,-0.04367404808142012
2023-01-30 10:24:15.397111,-0.05363444611430164
2023-01-30 10:24:15.402111,-0.06207977638012117
2023-01-30 10:24:15.407111,-0.0661836117506027
2023-01-30 10:24:15.412111,-0.0683343510136535
2023-01-30 10:24:15.417111,-0.07265051454305639
2023-01-30 10:24:15.422111,-0.07823285316202608
2023-01-30 10:24:15.427111,-0.08241097629070274
2023-01-30 10:24:15.432111,-0.08780511874268412
2023-01-30 10:24:15.437111,-0.09652277082204815
2023-01-30 10:24:15.442111,-0.09818461194968649
2023-01-30 10:24:15.447111,-0.07531901448965064
2023-01-30 10:24:15.452111,-0.023318778873127777
2023-01-30 10:24:15.457111,0.04572510719299309
2023-01-30 10:24:15.462111,0.12242593081292177
2023-01-30 10:24:15.467111,0.2100902795791625
2023-01-30 10:24:15.472111,0.3064954832389644
2023-01-30 10:24:15.477111,0.38686037063598616
2023-01-30 10:24:15.482111,0.41897080476565085
2023-01-30 10:24:15.487111,0.39202910661697365
2023-01-30 10:24:15.492111,0.32117341409179406
2023-01-30 10:24:15.497111,0.22840917110443099
2023-01-30 10:24:15.502111,0.13076373963272045
2023-01-30 10:24:15.507111,0.04397014901041979
2023-01-30 10:24:15.512111,-0.017571868001716638
2023-01-30 10:24:15.517111,-0.05017260834574694
2023-01-30 10:24:15.522111,-0.06274838737740768
2023-01-30 10:24:15.527111,-0.06584703922271724
2023-01-30 10:24:15.532111,-0.06394602862324293
2023-01-30 10:24:15.537111,-0.05930801481008506
2023-01-30 10:24:15.542111,-0.0557421185413096
2023-01-30 10:24:15.547111,-0.05488455295562742
2023-01-30 10:24:15.552111,-0.0540403166518537
2023-01-30 10:24:15.557111,-0.05111018940806373
2023-01-30 10:24:15.562111,-0.04778056955206053
2023-01-30 10:24:15.567111,-0.04555682465434057
2023-01-30 10:24:15.572111,-0.04273995112391907
2023-01-30 10:24:15.577111,-0.03781577199697484
2023-01-30 10:24:15.582111,-0.03221137174933023
2023-01-30 10:24:15.587111,-0.027310054749250363
2023-01-30 10:24:15.592111,-0.021995870728734303
2023-01-30 10:24:15.597111,-0.015385946258902454
2023-01-30 10:24:15.602111,-0.00896132499642411
2023-01-30 10:24:15.607111,-0.003798405406996579
2023-01-30 10:24:15.612111,0.001589413843466417
2023-01-30 10:24:15.617111,0.008630554191768131
2023-01-30 10:24:15.622111,0.01645494662670139
2023-01-30 10:24:15.627111,0.02413670346140869
2023-01-30 10:24:15.632111,0.0327419675761918
2023-01-30 10:24:15.637111,0.043321054428815745
2023-01-30 10:24:15.642111,0.055130912593392624
2023-01-30 10:24:15.647111,0.06757795810699457
2023-01-30 10:24:15.652111,0.08171651758941688
2023-01-30 10:24:15.657111,0.09803732484579072
2023-01-30 10:24:15.662111,0.11471860337783475
2023-01-30 10:24:15.667111,0.12967467308044422
2023-01-30 10:24:15.672111,0.14246376940587277
2023-01-30 10:24:15.677111,0.1527055203914642
2023-01-30 10:24:15.682111,0.15856642349007016
2023-01-30 10:24:15.687111,0.1584271639585494
2023-01-30 10:24:15.692111,0.15237859552590657
2023-01-30 10:24:15.697111,0.14070928096771235
2023-01-30 10:24:15.702111,0.12273426709122166
2023-01-30 10:24:15.707111,0.0986623764038085
2023-01-30 10:24:15.712111,0.07104927885051047
2023-01-30 10:24:15.717111,0.0429604463279247
2023-01-30 10:24:15.722111,0.0160684439761471
2023-01-30 10:24:15.727111,-0.008390149101614905
2023-01-30 10:24:15.732111,-0.028611012063656904
2023-01-30 10:24:15.737111,-0.043705701828002874
2023-01-30 10:24:15.742111,-0.05478369610232271
2023-01-30 10:24:15.747111,-0.06320258229970929
2023-01-30 10:24:15.752111,-0.06898842596480993
2023-01-30 10:24:15.757111,-0.07204949855804436
2023-01-30 10:24:15.762111,-0.07344686016788814
2023-01-30 10:24:15.767111,-0.07418911159038538
2023-01-30 10:24:15.772111,-0.07410401242153264
2023-01-30 10:24:15.777111,-0.073107287287712
2023-01-30 10:24:15.782111,-0.07228004997098884
2023-01-30 10:24:15.787111,-0.07248222827911364
2023-01-30 10:24:15.792111,-0.0731136248647822
2023-01-30 10:24:15.797111,-0.07337173074483876
2023-01-30 10:24:15.802111,-0.07353843710231277
2023-01-30 10:24:15.807111,-0.07397274672985066
2023-01-30 10:24:15.812111,-0.07410386253832758
2023-01-30 10:24:15.817111,-0.07356405258178712
2023-01-30 10:24:15.822111,-0.07314296117549952
2023-01-30 10:24:15.827111,-0.07349193096160878
2023-01-30 10:24:15.832111,-0.07395738017673796
2023-01-30 10:24:15.837111,-0.07370829582214344
2023-01-30 10:24:15.842111,-0.07291007084890516
2023-01-30 10:24:15.847111,-0.07180909812450398
2023-01-30 10:24:15.852111,-0.0698380373786148
2023-01-30 10:24:15.857111,-0.06671249866485597
2023-01-30 10:24:15.862111,-0.06335062784176985
2023-01-30 10:24:15.867111,-0.06065428256988523
2023-01-30 10:24:15.872111,-0.05834085582614496
2023-01-30 10:24:15.877111,-0.055870216339826535
2023-01-30 10:24:15.882111,-0.053438926230253495
2023-01-30 10:24:15.887111,-0.051110189408063784
2023-01-30 10:24:15.892111,-0.04806410444056337
2023-01-30 10:24:15.897111,-0.043753784149885025
2023-01-30 10:24:15.902111,-0.03884903577447513
2023-01-30 10:24:15.907111,-0.03411352634429923
2023-01-30 10:24:15.912111,-0.029352546478226636
2023-01-30 10:24:15.917111,-0.02440114878118023
2023-01-30 10:24:15.922111,-0.020149115153028956
2023-01-30 10:24:15.927111,-0.017645757645368396
2023-01-30 10:24:15.932111,-0.017150063461521207
2023-01-30 10:24:15.937111,-0.01891990564763538
2023-01-30 10:24:15.942111,-0.023819824347375552
2023-01-30 10:24:15.947111,-0.032046042382717105
2023-01-30 10:24:15.952111,-0.042106866032781756
2023-01-30 10:24:15.957111,-0.05202373117208481
2023-01-30 10:24:15.962111,-0.060759541836423556
2023-01-30 10:24:15.967111,-0.06779432296752921
2023-01-30 10:24:15.972111,-0.07252404063394718
2023-01-30 10:24:15.977111,-0.07524689286947249
2023-01-30 10:24:15.982111,-0.0778669053412016
2023-01-30 10:24:15.987111,-0.08243501186370839
2023-01-30 10:24:15.992111,-0.08931841345037565
2023-01-30 10:24:15.997111,-0.09693145751953121
2023-01-30 10:24:16.002111,-0.10161796939989808
2023-01-30 10:24:16.007111,-0.09659489244222638
2023-01-30 10:24:16.012111,-0.07253131346746211
2023-01-30 10:24:16.017111,-0.02175668999552721
2023-01-30 10:24:16.022111,0.05666752403233968
2023-01-30 10:24:16.027111,0.15477299690246582
2023-01-30 10:24:16.032111,0.2565529301450774
2023-01-30 10:24:16.037111,0.3408708274364469
2023-01-30 10:24:16.042111,0.38728743590525216
2023-01-30 10:24:16.047111,0.38407167792320235
2023-01-30 10:24:16.052111,0.3333299430486871
2023-01-30 10:24:16.057111,0.2492523193359374
2023-01-30 10:24:16.062111,0.15181653309539744
2023-01-30 10:24:16.067111,0.06067832559347145
2023-01-30 10:24:16.072111,-0.009568720026632832
2023-01-30 10:24:16.077111,-0.05312959477305407
2023-01-30 10:24:16.082111,-0.07352912987541817
2023-01-30 10:24:16.087111,-0.07923762500286098
2023-01-30 10:24:16.092111,-0.07786525384941359
2023-01-30 10:24:16.097111,-0.07387658208608622
2023-01-30 10:24:16.102111,-0.06971715473301507
2023-01-30 10:24:16.107111,-0.06671249866485594
2023-01-30 10:24:16.112111,-0.06478533418540319
2023-01-30 10:24:16.117111,-0.06289005279541007
2023-01-30 10:24:16.122111,-0.06034066335962184
2023-01-30 10:24:16.127111,-0.05724052712321285
2023-01-30 10:24:16.132111,-0.053832437571031864
2023-01-30 10:24:16.137111,-0.050220690667629166
2023-01-30 10:24:16.142111,-0.04660083947210985
2023-01-30 10:24:16.147111,-0.04303256794810288
2023-01-30 10:24:16.152111,-0.039086301802272634
2023-01-30 10:24:16.157111,-0.03430585190653791
2023-01-30 10:24:16.162111,-0.028849379878728702
2023-01-30 10:24:16.167111,-0.023175081238150538
2023-01-30 10:24:16.172111,-0.0173850611344014
2023-01-30 10:24:16.177111,-0.01137117575854065
2023-01-30 10:24:16.182111,-0.005207066016696691
2023-01-30 10:24:16.187111,0.0012020270805804594
2023-01-30 10:24:16.192111,0.008518807402463968
2023-01-30 10:24:16.197111,0.017453432083129713
2023-01-30 10:24:16.202111,0.02813914997618387
2023-01-30 10:24:16.207111,0.04046022891998292
2023-01-30 10:24:16.212111,0.05453926608513959
2023-01-30 10:24:16.217111,0.07034262269735327
2023-01-30 10:24:16.222111,0.08720094418785654
2023-01-30 10:24:16.227111,0.10423978418111793
2023-01-30 10:24:16.232111,0.1208540776744415
2023-01-30 10:24:16.237111,0.13621370494365675
2023-01-30 10:24:16.242111,0.14872691294182902
2023-01-30 10:24:16.247111,0.15657603740692128
2023-01-30 10:24:16.252111,0.15848730059753943
2023-01-30 10:24:16.257111,0.15364310145378102
2023-01-30 10:24:16.262111,0.14149170538223477
2023-01-30 10:24:16.267111,0.12236635386943803
2023-01-30 10:24:16.272111,0.09795840843524654
2023-01-30 10:24:16.277111,0.07060706615447983
2023-01-30 10:24:16.282111,0.04237200652306213
2023-01-30 10:24:16.287111,0.015073418617248497
2023-01-30 10:24:16.292111,-0.009453848383070786
2023-01-30 10:24:16.297111,-0.02990643307566634
2023-01-30 10:24:16.302111,-0.046045724697623955
2023-01-30 10:24:16.307111,-0.058226190507411936
2023-01-30 10:24:16.312111,-0.06676800846984339
2023-01-30 10:24:16.317111,-0.07219374179840084
2023-01-30 10:24:16.322111,-0.07552307520668478
2023-01-30 10:24:16.327111,-0.07767498493194583
2023-01-30 10:24:16.332111,-0.07886400945378526
2023-01-30 10:24:16.337111,-0.07902126014232629
2023-01-30 10:24:16.342111,-0.07840988160847209
2023-01-30 10:24:16.347111,-0.07738649845123288
2023-01-30 10:24:16.352111,-0.07602229135124877
2023-01-30 10:24:16.357111,-0.07447759807109829
2023-01-30 10:24:16.362111,-0.07332662498108249
2023-01-30 10:24:16.367111,-0.07296304404735557
2023-01-30 10:24:16.372111,-0.07300752978208058
2023-01-30 10:24:16.377111,-0.07274667918682087
2023-01-30 10:24:16.382111,-0.07181235002822492
2023-01-30 10:24:16.387111,-0.07007817924022665
2023-01-30 10:24:16.392111,-0.067407419619603
2023-01-30 10:24:16.397111,-0.06404399871826164
2023-01-30 10:24:16.402111,-0.060860801271430315
2023-01-30 10:24:16.407111,-0.05868295952677715
2023-01-30 10:24:16.412111,-0.05761327132709154
2023-01-30 10:24:16.417111,-0.05733668804168699
2023-01-30 10:24:16.422111,-0.057641068421492615
2023-01-30 10:24:16.427111,-0.05822619050741187
2023-01-30 10:24:16.432111,-0.05846394554233944
2023-01-30 10:24:16.437111,-0.05786558240652074
2023-01-30 10:24:16.442111,-0.05647826817142347
2023-01-30 10:24:16.447111,-0.05445182323455813
2023-01-30 10:24:16.452111,-0.051610704324641626
2023-01-30 10:24:16.457111,-0.047840677201747776
2023-01-30 10:24:16.462111,-0.04347602761712238
2023-01-30 10:24:16.467111,-0.038873553276062095
2023-01-30 10:24:16.472111,-0.033971973341111454
2023-01-30 10:24:16.477111,-0.028656324371695557
2023-01-30 10:24:16.482111,-0.02317740023335735
2023-01-30 10:24:16.487111,-0.01786212250590309
2023-01-30 10:24:16.492111,-0.012860170367512068
2023-01-30 10:24:16.497111,-0.008606513962149582
2023-01-30 10:24:16.502111,-0.006134618178972914
2023-01-30 10:24:16.507111,-0.006466905586421357
2023-01-30 10:24:16.512111,-0.009933749507354235
2023-01-30 10:24:16.517111,-0.01629948616027819
2023-01-30 10:24:16.522111,-0.02504820850544914
2023-01-30 10:24:16.527111,-0.0351472720503806
2023-01-30 10:24:16.532111,-0.04500803791526285
2023-01-30 10:24:16.537111,-0.05324979871511446
2023-01-30 10:24:16.542111,-0.05938417550356659
2023-01-30 10:24:16.547111,-0.06363531202077863
2023-01-30 10:24:16.552111,-0.06663602861917904
2023-01-30 10:24:16.557111,-0.06969352811574936
2023-01-30 10:24:16.562111,-0.07477526198105454
2023-01-30 10:24:16.567111,-0.08330047130584708
2023-01-30 10:24:16.572111,-0.0943710671286523
2023-01-30 10:24:16.577111,-0.10356664657592773
2023-01-30 10:24:16.582111,-0.10267901117724712
2023-01-30 10:24:16.587111,-0.08087237924337383
2023-01-30 10:24:16.592111,-0.028241433496056668
2023-01-30 10:24:16.597111,0.058706998825073166
2023-01-30 10:24:16.602111,0.17256887827369227
2023-01-30 10:24:16.607111,0.2946408689022064
2023-01-30 10:24:16.612111,0.39934508677888636
2023-01-30 10:24:16.617111,0.46201109886169417
2023-01-30 10:24:16.622111,0.4673708239040586
2023-01-30 10:24:16.627111,0.4152762889862059
2023-01-30 10:24:16.632111,0.3206044986802619
2023-01-30 10:24:16.637111,0.20725350081920607
2023-01-30 10:24:16.642111,0.0994953075521005
2023-01-30 10:24:16.647111,0.01468877028673882
2023-01-30 10:24:16.652111,-0.04024601201100366
2023-01-30 10:24:16.657111,-0.06801068782806392
2023-01-30 10:24:16.662111,-0.07684085679708935
2023-01-30 10:24:16.667111,-0.0757277011871337
2023-01-30 10:24:16.672111,-0.07137728108388969
2023-01-30 10:24:16.677111,-0.06731351464986796
2023-01-30 10:24:16.682111,-0.06425141317584782
2023-01-30 10:24:16.687111,-0.06137549877166735
2023-01-30 10:24:16.692111,-0.05810433078294401
2023-01-30 10:24:16.697111,-0.05481243133544912
2023-01-30 10:24:16.702111,-0.05180362803352524
2023-01-30 10:24:16.707111,-0.04846572875976548
2023-01-30 10:24:16.712111,-0.044320453325584395
2023-01-30 10:24:16.717111,-0.04019578546285607
2023-01-30 10:24:16.722111,-0.037136664301615156
2023-01-30 10:24:16.727111,-0.03464242070913307
2023-01-30 10:24:16.732111,-0.031344145489125126
2023-01-30 10:24:16.737111,-0.0270456075668334
2023-01-30 10:24:16.742111,-0.0225240495072334
2023-01-30 10:24:16.747111,-0.017525553703308057
2023-01-30 10:24:16.752111,-0.010792235879564733
2023-01-30 10:24:16.757111,-0.002283851383253932
2023-01-30 10:24:16.762111,0.006414215336087049
2023-01-30 10:24:16.767111,0.014400283806025925
2023-01-30 10:24:16.772111,0.022572974554071607
2023-01-30 10:24:16.777111,0.03187775611877437
2023-01-30 10:24:16.782111,0.0420508504304423
2023-01-30 10:24:16.787111,0.052889190614223425
2023-01-30 10:24:16.792111,0.06523507836627569
2023-01-30 10:24:16.797111,0.07962226867675783
2023-01-30 10:24:16.802111,0.09507456814493936
2023-01-30 10:24:16.807111,0.11015375703573221
2023-01-30 10:24:16.812111,0.12409282633833
2023-01-30 10:24:16.817111,0.13599734008312214
2023-01-30 10:24:16.822111,0.14405777296706224
2023-01-30 10:24:16.827111,0.14664730429649342
2023-01-30 10:24:16.832111,0.14340500249104776
2023-01-30 10:24:16.837111,0.13443470001220695
2023-01-30 10:24:16.842111,0.11943646798281997
2023-01-30 10:24:16.847111,0.09863834083080283
2023-01-30 10:24:16.852111,0.07377923464591263
2023-01-30 10:24:16.857111,0.04721562191843981
2023-01-30 10:24:16.862111,0.020719885411381124
2023-01-30 10:24:16.867111,-0.0041590137407183266
2023-01-30 10:24:16.872111,-0.02556806631564651
2023-01-30 10:24:16.877111,-0.04228731244802467
2023-01-30 10:24:16.882111,-0.05458507839332073
2023-01-30 10:24:16.887111,-0.06329874694347383
2023-01-30 10:24:16.892111,-0.06871110697108265
2023-01-30 10:24:16.897111,-0.07106383889913549
2023-01-30 10:24:16.902111,-0.07134817020851082
2023-01-30 10:24:16.907111,-0.07063110917806614
2023-01-30 10:24:16.912111,-0.0692059899297141
2023-01-30 10:24:16.917111,-0.06719331443309773
2023-01-30 10:24:16.922111,-0.06527320232753384
2023-01-30 10:24:16.927111,-0.06397187709808336
2023-01-30 10:24:16.932111,-0.06287808420435406
2023-01-30 10:24:16.937111,-0.06139954179525366
2023-01-30 10:24:16.942111,-0.05967910596902207
2023-01-30 10:24:16.947111,-0.05800982564687716
2023-01-30 10:24:16.952111,-0.05606053847027391
2023-01-30 10:24:16.957111,-0.05353828519582741
2023-01-30 10:24:16.962111,-0.050981877456662966
2023-01-30 10:24:16.967111,-0.04906674474477758
2023-01-30 10:24:16.972111,-0.04771868648920581
2023-01-30 10:24:16.977111,-0.04666268825530999
2023-01-30 10:24:16.982111,-0.046150029306198354
2023-01-30 10:24:16.987111,-0.04630208015441885
2023-01-30 10:24:16.992111,-0.04639428615200908
2023-01-30 10:24:16.997111,-0.045677028596401194
2023-01-30 10:24:17.002111,-0.04436433514454014
2023-01-30 10:24:17.007111,-0.043056607246398905
2023-01-30 10:24:17.012111,-0.04181365856909918
2023-01-30 10:24:17.017111,-0.040556393563747385
2023-01-30 10:24:17.022111,-0.03966959725398664
2023-01-30 10:24:17.027111,-0.03930628299713128
2023-01-30 10:24:17.032111,-0.038681606387186165
2023-01-30 10:24:17.037111,-0.03690223023295408
2023-01-30 10:24:17.042111,-0.033948555910473806
2023-01-30 10:24:17.047111,-0.03009875677525987
2023-01-30 10:24:17.052111,-0.025064007284675397
2023-01-30 10:24:17.057111,-0.018559297546744326
2023-01-30 10:24:17.062111,-0.011149670155969545
2023-01-30 10:24:17.067111,-0.0037503242492673886
2023-01-30 10:24:17.072111,0.0030640067764129146
2023-01-30 10:24:17.077111,0.008462270721793032
2023-01-30 10:24:17.082111,0.010823468565357965
2023-01-30 10:24:17.087111,0.008822878822684203
2023-01-30 10:24:17.092111,0.0026439222186481572
2023-01-30 10:24:17.097111,-0.0065390272065997315
2023-01-30 10:24:17.102111,-0.017586863665406554
2023-01-30 10:24:17.107111,-0.02918521687388422
2023-01-30 10:24:17.112111,-0.039515701066670815
2023-01-30 10:24:17.117111,-0.04728774353861802
2023-01-30 10:24:17.122111,-0.05272385025844869
2023-01-30 10:24:17.127111,-0.0568799190223217
2023-01-30 10:24:17.132111,-0.06071542140763468
2023-01-30 10:24:17.137111,-0.06546239554882041
2023-01-30 10:24:17.142111,-0.0725900891884487
2023-01-30 10:24:17.147111,-0.08156955242156998
2023-01-30 10:24:17.152111,-0.08745130880569543
2023-01-30 10:24:17.157111,-0.08118490874767299
2023-01-30 10:24:17.162111,-0.052304518365471946
2023-01-30 10:24:17.167111,0.007668932434171362
2023-01-30 10:24:17.172111,0.10089255486206321
2023-01-30 10:24:17.177111,0.21855255961418146
2023-01-30 10:24:17.182111,0.3399767775340234
2023-01-30 10:24:17.187111,0.43845137953758223
2023-01-30 10:24:17.192111,0.4906914898831593
2023-01-30 10:24:17.197111,0.4844649732112883
2023-01-30 10:24:17.202111,0.4221874119296878
2023-01-30 10:24:17.207111,0.32046040892601
2023-01-30 10:24:17.212111,0.2045904843250777
2023-01-30 10:24:17.217111,0.09902298450469965
2023-01-30 10:24:17.222111,0.0192055480694466
2023-01-30 10:24:17.227111,-0.030315121635794577
2023-01-30 10:24:17.232111,-0.05310763671530669
2023-01-30 10:24:17.237111,-0.05750497430562974
2023-01-30 10:24:17.242111,-0.05329480500847784
2023-01-30 10:24:17.247111,-0.04776855558156957
2023-01-30 10:24:17.252111,-0.043592264400166184
2023-01-30 10:24:17.257111,-0.040604472160339314
2023-01-30 10:24:17.262111,-0.038540799091718175
2023-01-30 10:24:17.267111,-0.037046473473310394
2023-01-30 10:24:17.272111,-0.03478983521129409
2023-01-30 10:24:17.277111,-0.030844014137983218
2023-01-30 10:24:17.282111,-0.02626507821466118
2023-01-30 10:24:17.287111,-0.02255002781748769
2023-01-30 10:24:17.292111,-0.019434023378281387
2023-01-30 10:24:17.297111,-0.016035040840506443
2023-01-30 10:24:17.302111,-0.012978784561783053
2023-01-30 10:24:17.307111,-0.01101056765764944
2023-01-30 10:24:17.312111,-0.00854215781204265
2023-01-30 10:24:17.317111,-0.0034377973061053713
2023-01-30 10:24:17.322111,0.003394903995667022
2023-01-30 10:24:17.327111,0.009327730163931866
2023-01-30 10:24:17.332111,0.014711392101013188
2023-01-30 10:24:17.337111,0.02288659475743776
2023-01-30 10:24:17.342111,0.035103362366243535
2023-01-30 10:24:17.347111,0.04877825826406475
2023-01-30 10:24:17.352111,0.061741296273632056
2023-01-30 10:24:17.357111,0.07491032779216755
2023-01-30 10:24:17.362111,0.08917956061923207
2023-01-30 10:24:17.367111,0.10274927318096166
2023-01-30 10:24:17.372111,0.11389240205564664
2023-01-30 10:24:17.377111,0.1240251511335371
2023-01-30 10:24:17.382111,0.1353523316680998
2023-01-30 10:24:17.387111,0.1469357907772063
2023-01-30 10:24:17.392111,0.15554194713193867
2023-01-30 10:24:17.397111,0.15931665897369368
2023-01-30 10:24:17.402111,0.1583015676698612
2023-01-30 10:24:17.407111,0.15212854743003826
2023-01-30 10:24:17.412111,0.13972148810183985
2023-01-30 10:24:17.417111,0.12133260816335663
2023-01-30 10:24:17.422111,0.09902811706729907
2023-01-30 10:24:17.427111,0.07495840638875952
2023-01-30 10:24:17.432111,0.05047881469778976
2023-01-30 10:24:17.437111,0.026925405487418078
2023-01-30 10:24:17.442111,0.005789497218301979
2023-01-30 10:24:17.447111,-0.012236635200679264
2023-01-30 10:24:17.452111,-0.02742708997847268
2023-01-30 10:24:17.457111,-0.04002749919891352
2023-01-30 10:24:17.462111,-0.049847089051931484
2023-01-30 10:24:17.467111,-0.05687991902232165
2023-01-30 10:24:17.472111,-0.061548648727728084
2023-01-30 10:24:17.477111,-0.06421228498220435
2023-01-30 10:24:17.482111,-0.06506170972999248
2023-01-30 10:24:17.487111,-0.06457289308309544
2023-01-30 10:24:17.492111,-0.06349597207068035
2023-01-30 10:24:17.497111,-0.06231307983398424
2023-01-30 10:24:17.502111,-0.06114123388266626
2023-01-30 10:24:17.507111,-0.06014943122863755
2023-01-30 10:24:17.512111,-0.05962388516259713
2023-01-30 10:24:17.517111,-0.05962054058909403
2023-01-30 10:24:17.522111,-0.05993081065759142
2023-01-30 10:24:17.527111,-0.06036579608917224
2023-01-30 10:24:17.532111,-0.06075709250971113
2023-01-30 10:24:17.537111,-0.060774486511945704
2023-01-30 10:24:17.542111,-0.060110449567941274
2023-01-30 10:24:17.547111,-0.0588272027671337
2023-01-30 10:24:17.552111,-0.0572651323118347
2023-01-30 10:24:17.557111,-0.0556778907775878
2023-01-30 10:24:17.562111,-0.05416329453778335
2023-01-30 10:24:17.567111,-0.05279302597045885
2023-01-30 10:24:17.572111,-0.05153330839807172
2023-01-30 10:24:17.577111,-0.050148569047451026
2023-01-30 10:24:17.582111,-0.0484407682391863
2023-01-30 10:24:17.587111,-0.04651844501495362
2023-01-30 10:24:17.592111,-0.04466171961585463
2023-01-30 10:24:17.597111,-0.04303256794810288
2023-01-30 10:24:17.602111,-0.041640424784399804
2023-01-30 10:24:17.607111,-0.040388107299804694
2023-01-30 10:24:17.612111,-0.03894255061784398
2023-01-30 10:24:17.617111,-0.03670990467071532
2023-01-30 10:24:17.622111,-0.03315366549032093
2023-01-30 10:24:17.627111,-0.028103392571210827
2023-01-30 10:24:17.632111,-0.02175195972478896
2023-01-30 10:24:17.637111,-0.01461664866656065
2023-01-30 10:24:17.642111,-0.0076590094859311265
2023-01-30 10:24:17.647111,-0.0022117297630757375
2023-01-30 10:24:17.652111,0.00047454856675458736
2023-01-30 10:24:17.657111,-0.00036060810089112277
2023-01-30 10:24:17.662111,-0.004919639362163944
2023-01-30 10:24:17.667111,-0.012837648391723652
2023-01-30 10:24:17.672111,-0.023084973900219984
2023-01-30 10:24:17.677111,-0.034137569367885416
2023-01-30 10:24:17.682111,-0.04451448295988939
2023-01-30 10:24:17.687111,-0.05320171639323222
2023-01-30 10:24:17.692111,-0.059731999082771076
2023-01-30 10:24:17.697111,-0.06428440660238258
2023-01-30 10:24:17.702111,-0.06789884484404586
2023-01-30 10:24:17.707111,-0.07224182784557334
2023-01-30 10:24:17.712111,-0.0785735792203372
2023-01-30 10:24:17.717111,-0.08632957935333248
2023-01-30 10:24:17.722111,-0.09193799124523569
2023-01-30 10:24:17.727111,-0.0883970707654952
2023-01-30 10:24:17.732111,-0.06640979848463738
2023-01-30 10:24:17.737111,-0.017717879265546705
2023-01-30 10:24:17.742111,0.0602024322035774
2023-01-30 10:24:17.747111,0.1605186909437179
2023-01-30 10:24:17.752111,0.2668058727936531
2023-01-30 10:24:17.757111,0.3568577766418456
2023-01-30 10:24:17.762111,0.4094869674262883
2023-01-30 10:24:17.767111,0.41193467378616316
2023-01-30 10:24:17.772111,0.36467768292150016
2023-01-30 10:24:17.777111,0.28110605478286727
2023-01-30 10:24:17.782111,0.182190698615584
2023-01-30 10:24:17.787111,0.08897404372692093
2023-01-30 10:24:17.792111,0.01629542116828785
2023-01-30 10:24:17.797111,-0.030170878395438066
2023-01-30 10:24:17.802111,-0.053123351626358874
2023-01-30 10:24:17.807111,-0.06002923101186748
2023-01-30 10:24:17.812111,-0.05880781736620691
2023-01-30 10:24:17.817111,-0.05500475689768796
2023-01-30 10:24:17.822111,-0.05122953286634629
2023-01-30 10:24:17.827111,-0.04800895974040034
2023-01-30 10:24:17.832111,-0.04492664599179013
2023-01-30 10:24:17.837111,-0.04154205322265618
2023-01-30 10:24:17.842111,-0.037884266789184134
2023-01-30 10:24:17.847111,-0.034353934228420216
2023-01-30 10:24:17.852111,-0.03126394801551512
2023-01-30 10:24:17.857111,-0.028584202751517157
2023-01-30 10:24:17.862111,-0.02608185448662877
2023-01-30 10:24:17.867111,-0.023511648178100444
2023-01-30 10:24:17.872111,-0.02062435216085293
2023-01-30 10:24:17.877111,-0.01716494560241684
2023-01-30 10:24:17.882111,-0.012979022466303282
2023-01-30 10:24:17.887111,-0.008053581230342303
2023-01-30 10:24:17.892111,-0.0023874770027875625
2023-01-30 10:24:17.897111,0.004134973045438509
2023-01-30 10:24:17.902111,0.011700991216728586
2023-01-30 10:24:17.907111,0.02043445967137822
2023-01-30 10:24:17.912111,0.030352006780628573
2023-01-30 10:24:17.917111,0.041445892304181976
2023-01-30 10:24:17.922111,0.05371548756011225
2023-01-30 10:24:17.927111,0.06700098514556879
2023-01-30 10:24:17.932111,0.08084106656964221
2023-01-30 10:24:17.937111,0.09471973031759254
2023-01-30 10:24:17.942111,0.1084695662724736
2023-01-30 10:24:17.947111,0.12210190296173078
2023-01-30 10:24:17.952111,0.13514109392061968
2023-01-30 10:24:17.957111,0.14659921824932076
2023-01-30 10:24:17.962111,0.15581380491128374
2023-01-30 10:24:17.967111,0.16251406073570232
2023-01-30 10:24:17.972111,0.16534163625120982
2023-01-30 10:24:17.977111,0.16116778552532177
2023-01-30 10:24:17.982111,0.14743679763364645
2023-01-30 10:24:17.987111,0.1251790970563887
2023-01-30 10:24:17.992111,0.09832239836727846
2023-01-30 10:24:17.997111,0.06988584995269759
2023-01-30 10:24:18.002111,0.04046625932430173
2023-01-30 10:24:18.007111,0.010962486267089825
2023-01-30 10:24:18.012111,-0.015293074024455185
2023-01-30 10:24:18.017111,-0.03493090718984598
2023-01-30 10:24:18.022111,-0.04804896245583742
2023-01-30 10:24:18.027111,-0.05748093128204346
2023-01-30 10:24:18.032111,-0.06499854812637894
2023-01-30 10:24:18.037111,-0.06995797157287587
2023-01-30 10:24:18.042111,-0.0716064709625303
2023-01-30 10:24:18.047111,-0.07094363868236529
2023-01-30 10:24:18.052111,-0.06974118686222261
2023-01-30 10:24:18.057111,-0.06897231191396702
2023-01-30 10:24:18.062111,-0.06887038783181731
2023-01-30 10:24:18.067111,-0.06959736347198471
2023-01-30 10:24:18.072111,-0.07107689832400538
2023-01-30 10:24:18.077111,-0.07267455756664261
2023-01-30 10:24:18.082111,-0.07365686700807071
2023-01-30 10:24:18.087111,-0.07375638186931607
2023-01-30 10:24:18.092111,-0.07305712556421447
2023-01-30 10:24:18.097111,-0.07168889045715326
2023-01-30 10:24:18.102111,-0.06985515062159876
2023-01-30 10:24:18.107111,-0.0677943229675291
2023-01-30 10:24:18.112111,-0.06548330322908033
2023-01-30 10:24:18.117111,-0.06267368793487545
2023-01-30 10:24:18.122111,-0.0593890371438344
2023-01-30 10:24:18.127111,-0.056134663522243396
2023-01-30 10:24:18.132111,-0.05353396413066054
2023-01-30 10:24:18.137111,-0.05199968814849852
2023-01-30 10:24:18.142111,-0.05170397102318562
2023-01-30 10:24:18.147111,-0.05243241786956774
2023-01-30 10:24:18.152111,-0.05336380845360912
2023-01-30 10:24:18.157111,-0.05336999893188472
2023-01-30 10:24:18.162111,-0.051729038842384764
2023-01-30 10:24:18.167111,-0.048417650163173585
2023-01-30 10:24:18.172111,-0.043813007831238863
2023-01-30 10:24:18.177111,-0.03844082355499261
2023-01-30 10:24:18.182111,-0.03292633286385716
2023-01-30 10:24:18.187111,-0.027718743309378614
2023-01-30 10:24:18.192111,-0.022751895686009126
2023-01-30 10:24:18.197111,-0.017693838104605713
2023-01-30 10:24:18.202111,-0.012608498818195906
2023-01-30 10:24:18.207111,-0.008149743080139084
2023-01-30 10:24:18.212111,-0.005169557586405744
2023-01-30 10:24:18.217111,-0.0044234595261514
2023-01-30 10:24:18.222111,-0.006503956931301464
2023-01-30 10:24:18.227111,-0.011539459228515639
2023-01-30 10:24:18.232111,-0.018830435340473427
2023-01-30 10:24:18.237111,-0.027093689888715716
2023-01-30 10:24:18.242111,-0.035149894721782315
2023-01-30 10:24:18.247111,-0.0422151908278465
2023-01-30 10:24:18.252111,-0.04774291100138537
2023-01-30 10:24:18.257111,-0.051518879830837146
2023-01-30 10:24:18.262111,-0.05405912046474438
2023-01-30 10:24:18.267111,-0.056639514863491
2023-01-30 10:24:18.272111,-0.06080330596605144
2023-01-30 10:24:18.277111,-0.06769816577434526
2023-01-30 10:24:18.282111,-0.07707080582150108
2023-01-30 10:24:18.287111,-0.08568048477172856
2023-01-30 10:24:18.292111,-0.08621288614822824
2023-01-30 10:24:18.297111,-0.0684915035963058
2023-01-30 10:24:18.302111,-0.02331258494464724
2023-01-30 10:24:18.307111,0.05274494737386699
2023-01-30 10:24:18.312111,0.153662201719573
2023-01-30 10:24:18.317111,0.26319584250450123
2023-01-30 10:24:18.322111,0.3582461553992964
2023-01-30 10:24:18.327111,0.41614174842834456
2023-01-30 10:24:18.332111,0.42288879098755006
2023-01-30 10:24:18.337111,0.37818175554275496
2023-01-30 10:24:18.342111,0.2949300959023091
2023-01-30 10:24:18.347111,0.1941514015197751
2023-01-30 10:24:18.352111,0.09768795482755051
2023-01-30 10:24:18.357111,0.02149224281311026
2023-01-30 10:24:18.362111,-0.027938591438287714
2023-01-30 10:24:18.367111,-0.05276898667216301
2023-01-30 10:24:18.372111,-0.06004471511464574
2023-01-30 10:24:18.377111,-0.05772133916616431
2023-01-30 10:24:18.382111,-0.05217787328413848
2023-01-30 10:24:18.387111,-0.04719158262014376
2023-01-30 10:24:18.392111,-0.044024326306414195
2023-01-30 10:24:18.397111,-0.042407512664794825
2023-01-30 10:24:18.402111,-0.04167837226835225
2023-01-30 10:24:18.407111,-0.0412054881453514
2023-01-30 10:24:18.412111,-0.04029125805404792
2023-01-30 10:24:18.417111,-0.038344662636518353
2023-01-30 10:24:18.422111,-0.03527415272790969
2023-01-30 10:24:18.427111,-0.031420987099409124
2023-01-30 10:24:18.432111,-0.027118851907001414
2023-01-30 10:24:18.437111,-0.022574067115783514
2023-01-30 10:24:18.442111,-0.018034945719277818
2023-01-30 10:24:18.447111,-0.013655027374625187
2023-01-30 10:24:18.452111,-0.009176244873144886
2023-01-30 10:24:18.457111,-0.00406285142526022
2023-01-30 10:24:18.462111,0.0020706844095705035
2023-01-30 10:24:18.467111,0.009423892013728657
2023-01-30 10:24:18.472111,0.018251641535099575
2023-01-30 10:24:18.477111,0.028728445991873745
2023-01-30 10:24:18.482111,0.040593013879185416
2023-01-30 10:24:18.487111,0.05327383801341049
2023-01-30 10:24:18.492111,0.06635787636552055
2023-01-30 10:24:18.497111,0.0796703547239303
2023-01-30 10:24:18.502111,0.09302352630459537
2023-01-30 10:24:18.507111,0.10625918954610819
2023-01-30 10:24:18.512111,0.11943517753862982
2023-01-30 10:24:18.517111,0.13251146674156172
2023-01-30 10:24:18.522111,0.14477487275650228
2023-01-30 10:24:18.527111,0.1548210829496383
2023-01-30 10:24:18.532111,0.16103888214329787
2023-01-30 10:24:18.537111,0.16188900172710408
2023-01-30 10:24:18.542111,0.15601715843944433
2023-01-30 10:24:18.547111,0.14275273680686948
2023-01-30 10:24:18.552111,0.12269835253092297
2023-01-30 10:24:18.557111,0.09760459512472144
2023-01-30 10:24:18.562111,0.0696846605980658
2023-01-30 10:24:18.567111,0.04120548814535139
2023-01-30 10:24:18.572111,0.014378231671158138
2023-01-30 10:24:18.577111,-0.009039243683218927
2023-01-30 10:24:18.582111,-0.028221690639174842
2023-01-30 10:24:18.587111,-0.04312872886657705
2023-01-30 10:24:18.592111,-0.05396183934603696
2023-01-30 10:24:18.597111,-0.06106297299265862
2023-01-30 10:24:18.602111,-0.06515832514616263
2023-01-30 10:24:18.607111,-0.06719331443309774
2023-01-30 10:24:18.612111,-0.06788637909091855
2023-01-30 10:24:18.617111,-0.06774624437093725
2023-01-30 10:24:18.622111,-0.06738028913202895
2023-01-30 10:24:18.627111,-0.06731351464986796
2023-01-30 10:24:18.632111,-0.06753350096678494
2023-01-30 10:24:18.637111,-0.06765007972717274
2023-01-30 10:24:18.642111,-0.06750115250996129
2023-01-30 10:24:18.647111,-0.0672173500061034
2023-01-30 10:24:18.652111,-0.06676542680571232
2023-01-30 10:24:18.657111,-0.06591916084289548
2023-01-30 10:24:18.662111,-0.06471240245168466
2023-01-30 10:24:18.667111,-0.06346702575683584
2023-01-30 10:24:18.672111,-0.06228943789757312
2023-01-30 10:24:18.677111,-0.0609187297523021
2023-01-30 10:24:18.682111,-0.05913804586785544
2023-01-30 10:24:18.687111,-0.05700012296438212
2023-01-30 10:24:18.692111,-0.05463890192068498
2023-01-30 10:24:18.697111,-0.05224009603261935
2023-01-30 10:24:18.702111,-0.05023610146384284
2023-01-30 10:24:18.707111,-0.04913886636495585
2023-01-30 10:24:18.712111,-0.049051334065216244
2023-01-30 10:24:18.717111,-0.04957159608602514
2023-01-30 10:24:18.722111,-0.05015496099146487
2023-01-30 10:24:18.727111,-0.05029281228780742
2023-01-30 10:24:18.732111,-0.04944022657744906
2023-01-30 10:24:18.737111,-0.047215621918439844
2023-01-30 10:24:18.742111,-0.043753288977706216
2023-01-30 10:24:18.747111,-0.03954669088125217
2023-01-30 10:24:18.752111,-0.034900492009887325
2023-01-30 10:24:18.757111,-0.02978622913360593
2023-01-30 10:24:18.762111,-0.024174556089546266
2023-01-30 10:24:18.767111,-0.01819868944585325
2023-01-30 10:24:18.772111,-0.012095422549046844
2023-01-30 10:24:18.777111,-0.006418824195861807
2023-01-30 10:24:18.782111,-0.0023171463094412486
2023-01-30 10:24:18.787111,-0.0011539459228515057
2023-01-30 10:24:18.792111,-0.003660322863064626
2023-01-30 10:24:18.797111,-0.009568135254085064
2023-01-30 10:24:18.802111,-0.017909619183951255
2023-01-30 10:24:18.807111,-0.027334094047546234
2023-01-30 10:24:18.812111,-0.036306680729611344
2023-01-30 10:24:18.817111,-0.04360954090952874
2023-01-30 10:24:18.822111,-0.04891391586853894
2023-01-30 10:24:18.827111,-0.052720904350280685
2023-01-30 10:24:18.832111,-0.055856088335818566
2023-01-30 10:24:18.837111,-0.05935609340667719
2023-01-30 10:24:18.842111,-0.06464516330712139
2023-01-30 10:24:18.847111,-0.0729870796203613
2023-01-30 10:24:18.852111,-0.08396769501483713
2023-01-30 10:24:18.857111,-0.0939504355192184
2023-01-30 10:24:18.862111,-0.09544604065293331
2023-01-30 10:24:18.867111,-0.07796347141265855
2023-01-30 10:24:18.872111,-0.031025093295353436
2023-01-30 10:24:18.877111,0.050677459686994455
2023-01-30 10:24:18.882111,0.16216312855594442
2023-01-30 10:24:18.887111,0.28649112582206704
2023-01-30 10:24:18.892111,0.39831388856980393
2023-01-30 10:24:18.897111,0.471507132053375
2023-01-30 10:24:18.902111,0.4879897566311877
2023-01-30 10:24:18.907111,0.4443653523921963
2023-01-30 10:24:18.912111,0.35329751541124854
2023-01-30 10:24:18.917111,0.2385061979293822
2023-01-30 10:24:18.922111,0.12580137464999325
2023-01-30 10:24:18.927111,0.03473858162760722
2023-01-30 10:24:18.932111,-0.025739730615115176
2023-01-30 10:24:18.937111,-0.05709628388285635
2023-01-30 10:24:18.942111,-0.06759070868912405
2023-01-30 10:24:18.947111,-0.06719331443309774
2023-01-30 10:24:18.952111,-0.06345366420430583
2023-01-30 10:24:18.957111,-0.06010135263204576
2023-01-30 10:24:18.962111,-0.0580181780246658
2023-01-30 10:24:18.967111,-0.05675971508026124
2023-01-30 10:24:18.972111,-0.055529230649508765
2023-01-30 10:24:18.977111,-0.053754650056362055
2023-01-30 10:24:18.982111,-0.0513816473991792
2023-01-30 10:24:18.987111,-0.048634015023708246
2023-01-30 10:24:18.992111,-0.04554838127352286
2023-01-30 10:24:18.997111,-0.0419747829437255
2023-01-30 10:24:19.002111,-0.03793321535281313
2023-01-30 10:24:19.007111,-0.03360867500305164
2023-01-30 10:24:19.012111,-0.02900255881896113
2023-01-30 10:24:19.017111,-0.02392033860087388
2023-01-30 10:24:19.022111,-0.018309663276320214
2023-01-30 10:24:19.027111,-0.012308756820857495
2023-01-30 10:24:19.032111,-0.005974142418422251
2023-01-30 10:24:19.037111,0.0007452567806467414
2023-01-30 10:24:19.042111,0.00781497161189169
2023-01-30 10:24:19.047111,0.015241703018546045
2023-01-30 10:24:19.052111,0.023385231303805185
2023-01-30 10:24:19.057111,0.032815337181091316
2023-01-30 10:24:19.062111,0.04383353782065263
2023-01-30 10:24:19.067111,0.0563750676810741
2023-01-30 10:24:19.072111,0.07027459863715158
2023-01-30 10:24:19.077111,0.08524775505065907
2023-01-30 10:24:19.082111,0.1006136704560404
2023-01-30 10:24:19.087111,0.11537055671215046
2023-01-30 10:24:19.092111,0.12854840939144327
2023-01-30 10:24:19.097111,0.13919472694396962
2023-01-30 10:24:19.102111,0.14608051599618413
2023-01-30 10:24:19.107111,0.14782528579235066
2023-01-30 10:24:19.112111,0.14341617338239618
2023-01-30 10:24:19.117111,0.13243934512138347
2023-01-30 10:24:19.122111,0.11498599170588682
2023-01-30 10:24:19.127111,0.09178678691387168
2023-01-30 10:24:19.132111,0.06447488815914046
2023-01-30 10:24:19.137111,0.03533959388732906
2023-01-30 10:24:19.142111,0.006675703792265845
2023-01-30 10:24:19.147111,-0.01954495906829828
2023-01-30 10:24:19.152111,-0.04165070439380564
2023-01-30 10:24:19.157111,-0.05849063396453852
2023-01-30 10:24:19.162111,-0.06983385569911059
2023-01-30 10:24:19.167111,-0.07630467414855953
2023-01-30 10:24:19.172111,-0.0789078142258858
2023-01-30 10:24:19.177111,-0.07880489528179167
2023-01-30 10:24:19.182111,-0.07734092191595639
2023-01-30 10:24:19.187111,-0.07575174421072002
2023-01-30 10:24:19.192111,-0.07467378412592716
2023-01-30 10:24:19.197111,-0.07414102554321275
2023-01-30 10:24:19.202111,-0.07401719460452771
2023-01-30 10:24:19.207111,-0.07416506856679903
2023-01-30 10:24:19.212111,-0.07430493629047079
2023-01-30 10:24:19.217111,-0.0741169899702071
2023-01-30 10:24:19.222111,-0.07352648098298199
2023-01-30 10:24:19.227111,-0.07260243594646447
2023-01-30 10:24:19.232111,-0.07120974298031714
2023-01-30 10:24:19.237111,-0.06909251213073728
2023-01-30 10:24:19.242111,-0.06630587166178223
2023-01-30 10:24:19.247111,-0.06327470391988746
2023-01-30 10:24:19.252111,-0.060439871943197714
2023-01-30 10:24:19.257111,-0.05810598656535138
2023-01-30 10:24:19.262111,-0.05653999898034712
2023-01-30 10:24:19.267111,-0.055846177041530616
2023-01-30 10:24:19.272111,-0.05572963750513663
2023-01-30 10:24:19.277111,-0.055677890777587766
2023-01-30 10:24:19.282111,-0.05537846715238684
2023-01-30 10:24:19.287111,-0.05474030971527084
2023-01-30 10:24:19.292111,-0.05364089384266735
2023-01-30 10:24:19.297111,-0.051999688148498494
2023-01-30 10:24:19.302111,-0.050016862507118405
2023-01-30 10:24:19.307111,-0.047960877418517914
2023-01-30 10:24:19.312111,-0.04573104631623171
2023-01-30 10:24:19.317111,-0.04293640702962868
2023-01-30 10:24:19.322111,-0.03935018940678194
2023-01-30 10:24:19.327111,-0.034978985786437905
2023-01-30 10:24:19.332111,-0.02979965951872486
2023-01-30 10:24:19.337111,-0.023848216980695763
2023-01-30 10:24:19.342111,-0.01757542704114358
2023-01-30 10:24:19.347111,-0.011779865249991436
2023-01-30 10:24:19.352111,-0.0072054614194945734
2023-01-30 10:24:19.357111,-0.004495581146329584
2023-01-30 10:24:19.362111,-0.004412871114163257
2023-01-30 10:24:19.367111,-0.007620851509273014
2023-01-30 10:24:19.372111,-0.014125302634633944
2023-01-30 10:24:19.377111,-0.023151040077209407
2023-01-30 10:24:19.382111,-0.033500834570802114
2023-01-30 10:24:19.387111,-0.043777823448181055
2023-01-30 10:24:19.392111,-0.05249501521959649
2023-01-30 10:24:19.397111,-0.05861083790659906
2023-01-30 10:24:19.402111,-0.062253292095855096
2023-01-30 10:24:19.407111,-0.06481330096721638
2023-01-30 10:24:19.412111,-0.06834967528309877
2023-01-30 10:24:19.417111,-0.07483820617198939
2023-01-30 10:24:19.422111,-0.08512468654774732
2023-01-30 10:24:19.427111,-0.09717186540365204
2023-01-30 10:24:19.432111,-0.1044795245324657
2023-01-30 10:24:19.437111,-0.09649872779846187
2023-01-30 10:24:19.442111,-0.06175934101770368
2023-01-30 10:24:19.447111,0.007308324333280277
2023-01-30 10:24:19.452111,0.10954177602435766
2023-01-30 10:24:19.457111,0.23213545978069286
2023-01-30 10:24:19.462111,0.351899563072164
2023-01-30 10:24:19.467111,0.44169685244560225
2023-01-30 10:24:19.472111,0.47981954033881236
2023-01-30 10:24:19.477111,0.45775592327117903
2023-01-30 10:24:19.482111,0.3828360163210911
2023-01-30 10:24:19.487111,0.27511996030807473
2023-01-30 10:24:19.492111,0.1600754036263618
2023-01-30 10:24:19.497111,0.05993306636810293
2023-01-30 10:24:19.502111,-0.012590174664345947
2023-01-30 10:24:19.507111,-0.055581729859113575
2023-01-30 10:24:19.512111,-0.07476736640040635
2023-01-30 10:24:19.517111,-0.07882893085479734
2023-01-30 10:24:19.522111,-0.0756871246095777
2023-01-30 10:24:19.527111,-0.07051090896129604
2023-01-30 10:24:19.532111,-0.06545472715516028
2023-01-30 10:24:19.537111,-0.060822568833827924
2023-01-30 10:24:19.542111,-0.0565557571079723
2023-01-30 10:24:19.547111,-0.052793025970459
2023-01-30 10:24:19.552111,-0.04955648063707078
2023-01-30 10:24:19.557111,-0.04659056663513187
2023-01-30 10:24:19.562111,-0.04363633855505917
2023-01-30 10:24:19.567111,-0.04053235054016103
2023-01-30 10:24:19.572111,-0.03704413807358144
2023-01-30 10:24:19.577111,-0.03295958042144767
2023-01-30 10:24:19.582111,-0.0283844453167319
2023-01-30 10:24:19.587111,-0.02360781095921995
2023-01-30 10:24:19.592111,-0.018639836015440076
2023-01-30 10:24:19.597111,-0.013174216262996113
2023-01-30 10:24:19.602111,-0.006984354074106779
2023-01-30 10:24:19.607111,-2.404054066573676e-05
2023-01-30 10:24:19.612111,0.007844111202506913
2023-01-30 10:24:19.617111,0.016852419823408078
2023-01-30 10:24:19.622111,0.027026903302846354
2023-01-30 10:24:19.627111,0.038200419396161964
2023-01-30 10:24:19.632111,0.05033347244097205
2023-01-30 10:24:19.637111,0.06349106878042225
2023-01-30 10:24:19.642111,0.0774755092131766
2023-01-30 10:24:19.647111,0.09178678691387168
2023-01-30 10:24:19.652111,0.10594325344215466
2023-01-30 10:24:19.657111,0.11950552463531491
2023-01-30 10:24:19.662111,0.13175309280078532
2023-01-30 10:24:19.667111,0.14164686203002916
2023-01-30 10:24:19.672111,0.14813692429724803
2023-01-30 10:24:19.677111,0.1502293348312377
2023-01-30 10:24:19.682111,0.14681368951046583
2023-01-30 10:24:19.687111,0.13688683509826655
2023-01-30 10:24:19.692111,0.12017537202128191
2023-01-30 10:24:19.697111,0.09743630886077878
2023-01-30 10:24:19.702111,0.07024759355516076
2023-01-30 10:24:19.707111,0.04079679772257798
2023-01-30 10:24:19.712111,0.011736840335605488
2023-01-30 10:24:19.717111,-0.014352202415466383
2023-01-30 10:24:19.722111,-0.03576034289871417
2023-01-30 10:24:19.727111,-0.05195160955190651
2023-01-30 10:24:19.732111,-0.06323710382538396
2023-01-30 10:24:19.737111,-0.07043878734111783
2023-01-30 10:24:19.742111,-0.07475841650005298
2023-01-30 10:24:19.747111,-0.07745862007141105
2023-01-30 10:24:19.752111,-0.0793873328275282
2023-01-30 10:24:19.757111,-0.08089642226696005
2023-01-30 10:24:19.762111,-0.08216277009079578
2023-01-30 10:24:19.767111,-0.08330047130584707
2023-01-30 10:24:19.772111,-0.08415251076227845
2023-01-30 10:24:19.777111,-0.08431017398834219
2023-01-30 10:24:19.782111,-0.08348289852982323
2023-01-30 10:24:19.787111,-0.08168976008892044
2023-01-30 10:24:19.792111,-0.07910104956735377
2023-01-30 10:24:19.797111,-0.07596810907125474
2023-01-30 10:24:19.802111,-0.07276354994024259
2023-01-30 10:24:19.807111,-0.07010221481323234
2023-01-30 10:24:19.812111,-0.06835480257411289
2023-01-30 10:24:19.817111,-0.06745775789022443
2023-01-30 10:24:19.822111,-0.06713780152742767
2023-01-30 10:24:19.827111,-0.06714522838592521
2023-01-30 10:24:19.832111,-0.06723292890915887
2023-01-30 10:24:19.837111,-0.06714522838592514
2023-01-30 10:24:19.842111,-0.06678273158050348
2023-01-30 10:24:19.847111,-0.06625573337078089
2023-01-30 10:24:19.852111,-0.06564576108978659
2023-01-30 10:24:19.857111,-0.06478925794363005
2023-01-30 10:24:19.862111,-0.063398174952226
2023-01-30 10:24:19.867111,-0.06132742017507543
2023-01-30 10:24:19.872111,-0.05861203514215439
2023-01-30 10:24:19.877111,-0.05531728267669665
2023-01-30 10:24:19.882111,-0.05158072595350136
2023-01-30 10:24:19.887111,-0.04784067720174774
2023-01-30 10:24:19.892111,-0.04465063859406776
2023-01-30 10:24:19.897111,-0.04185458272695539
2023-01-30 10:24:19.902111,-0.03814290060635625
2023-01-30 10:24:19.907111,-0.03214220330119134
2023-01-30 10:24:19.912111,-0.024214947163953553
2023-01-30 10:24:19.917111,-0.016612013801932324
2023-01-30 10:24:19.922111,-0.011452847870236023
2023-01-30 10:24:19.927111,-0.009135405533015643
2023-01-30 10:24:19.932111,-0.009267807517697534
2023-01-30 10:24:19.937111,-0.012356838211417127
2023-01-30 10:24:19.942111,-0.01932386133002849
2023-01-30 10:24:19.947111,-0.029545824974775238
2023-01-30 10:24:19.952111,-0.04066358144484549
2023-01-30 10:24:19.957111,-0.050605338066816344
2023-01-30 10:24:19.962111,-0.05885582424998987
2023-01-30 10:24:19.967111,-0.06560663878917691
2023-01-30 10:24:19.972111,-0.07093774077356105
2023-01-30 10:24:19.977111,-0.0754873007535934
2023-01-30 10:24:19.982111,-0.08082842857975095
2023-01-30 10:24:19.987111,-0.08796434104442587
2023-01-30 10:24:19.992111,-0.09540527571171249
2023-01-30 10:24:19.997111,-0.09871046245098115
2023-01-30 10:24:20.002111,-0.0910781792784154
2023-01-30 10:24:20.007111,-0.06433248519897461
2023-01-30 10:24:20.012111,-0.011488117347486072
2023-01-30 10:24:20.017111,0.0687078684568405
2023-01-30 10:24:20.022111,0.16812858244058768
2023-01-30 10:24:20.027111,0.26980698108673085
2023-01-30 10:24:20.032111,0.3525746545826415
2023-01-30 10:24:20.037111,0.3973901271820067
2023-01-30 10:24:20.042111,0.3934862807577492
2023-01-30 10:24:20.047111,0.3426017463207243
2023-01-30 10:24:20.052111,0.2587354457745416
2023-01-30 10:24:20.057111,0.16258618235588068
2023-01-30 10:24:20.062111,0.07383924764076469
2023-01-30 10:24:20.067111,0.005649527069181147
2023-01-30 10:24:20.072111,-0.03722220101649397
2023-01-30 10:24:20.077111,-0.05755305290222153
2023-01-30 10:24:20.082111,-0.06276422090932351
2023-01-30 10:24:20.087111,-0.0607985258102416
2023-01-30 10:24:20.092111,-0.05701917013657953
2023-01-30 10:24:20.097111,-0.05385081097483627
2023-01-30 10:24:20.102111,-0.052026511611138665
2023-01-30 10:24:20.107111,-0.051350593566894434
2023-01-30 10:24:20.112111,-0.05095050040700122
2023-01-30 10:24:20.117111,-0.05000432580709452
2023-01-30 10:24:20.122111,-0.04841181373362079
2023-01-30 10:24:20.127111,-0.04639824479818344
2023-01-30 10:24:20.132111,-0.043824695772912335
2023-01-30 10:24:20.137111,-0.04046022891998293
2023-01-30 10:24:20.142111,-0.036563508243566294
2023-01-30 10:24:20.147111,-0.03252685070037834
2023-01-30 10:24:20.152111,-0.028214375317842842
2023-01-30 10:24:20.157111,-0.023247202858328753
2023-01-30 10:24:20.162111,-0.017625573422239957
2023-01-30 10:24:20.167111,-0.011443297378718836
2023-01-30 10:24:20.172111,-0.004302472634744888
2023-01-30 10:24:20.177111,0.004327297210693255
2023-01-30 10:24:20.182111,0.014420772080752651
2023-01-30 10:24:20.187111,0.025651257485151173
2023-01-30 10:24:20.192111,0.03800895706635671
2023-01-30 10:24:20.197111,0.05154291912913318
2023-01-30 10:24:20.202111,0.0658141761852417
2023-01-30 10:24:20.207111,0.08027136325836173
2023-01-30 10:24:20.212111,0.0948902788372678
2023-01-30 10:24:20.217111,0.10979314893484106
2023-01-30 10:24:20.222111,0.12448580502319989
2023-01-30 10:24:20.227111,0.13804078102111805
2023-01-30 10:24:20.232111,0.14966670001671922
2023-01-30 10:24:20.237111,0.15842716395854933
2023-01-30 10:24:20.242111,0.16275628571504566
2023-01-30 10:24:20.247111,0.16104757785797102
2023-01-30 10:24:20.252111,0.15261902514632597
2023-01-30 10:24:20.257111,0.1376561373472212
2023-01-30 10:24:20.262111,0.11669486796020304
2023-01-30 10:24:20.267111,0.0909213274717329
2023-01-30 10:24:20.272111,0.06262594206235444
2023-01-30 10:24:20.277111,0.03449817746877665
2023-01-30 10:24:20.282111,0.008503826420106558
2023-01-30 10:24:20.287111,-0.014159878715872631
2023-01-30 10:24:20.292111,-0.03256652799580021
2023-01-30 10:24:20.297111,-0.04635016247630107
2023-01-30 10:24:20.302111,-0.056170449557592546
2023-01-30 10:24:20.307111,-0.06308238208293904
2023-01-30 10:24:20.312111,-0.06760822226335592
2023-01-30 10:24:20.317111,-0.0699820145964622
2023-01-30 10:24:20.322111,-0.07085837385164508
2023-01-30 10:24:20.327111,-0.07099171727895734
2023-01-30 10:24:20.332111,-0.07053874246883561
2023-01-30 10:24:20.337111,-0.06942908465862266
2023-01-30 10:24:20.342111,-0.06810273816880628
2023-01-30 10:24:20.347111,-0.06714522838592515
2023-01-30 10:24:20.352111,-0.06654510407805704
2023-01-30 10:24:20.357111,-0.06606340408325187
2023-01-30 10:24:20.362111,-0.06595838472620168
2023-01-30 10:24:20.367111,-0.06654421985149382
2023-01-30 10:24:20.372111,-0.06738467126880947
2023-01-30 10:24:20.377111,-0.06772220134735096
2023-01-30 10:24:20.382111,-0.0673641855547252
2023-01-30 10:24:20.387111,-0.06639997661113735
2023-01-30 10:24:20.392111,-0.06450935191788773
2023-01-30 10:24:20.397111,-0.06144762039184568
2023-01-30 10:24:20.402111,-0.057837926396128315
2023-01-30 10:24:20.407111,-0.05459606647491456
2023-01-30 10:24:20.412111,-0.051902391944571226
2023-01-30 10:24:20.417111,-0.04952351376414284
2023-01-30 10:24:20.422111,-0.04765118615567062
2023-01-30 10:24:20.427111,-0.04649440571665754
2023-01-30 10:24:20.432111,-0.045509507235692255
2023-01-30 10:24:20.437111,-0.044018231332301976
2023-01-30 10:24:20.442111,-0.042169047647790635
2023-01-30 10:24:20.447111,-0.04034002870321279
2023-01-30 10:24:20.452111,-0.03808461625842087
2023-01-30 10:24:20.457111,-0.034690499305724945
2023-01-30 10:24:20.462111,-0.03029260595234813
2023-01-30 10:24:20.467111,-0.025410851463675384
2023-01-30 10:24:20.472111,-0.019987471160854767
2023-01-30 10:24:20.477111,-0.014063715934753375
2023-01-30 10:24:20.482111,-0.008838202305462983
2023-01-30 10:24:20.487111,-0.005769729614257729
2023-01-30 10:24:20.492111,-0.00510767680393567
2023-01-30 10:24:20.497111,-0.00649094581603992
2023-01-30 10:24:20.502111,-0.010268532015215905
2023-01-30 10:24:20.507111,-0.016732215881347493
2023-01-30 10:24:20.512111,-0.024703145671761538
2023-01-30 10:24:20.517111,-0.03255089372396461
2023-01-30 10:24:20.522111,-0.0400504550404311
2023-01-30 10:24:20.527111,-0.04752814769744863
2023-01-30 10:24:20.532111,-0.05396352499325143
2023-01-30 10:24:20.537111,-0.05822619050741189
2023-01-30 10:24:20.542111,-0.061742990581295634
2023-01-30 10:24:20.547111,-0.06731351464986798
2023-01-30 10:24:20.552111,-0.07516066615104545
2023-01-30 10:24:20.557111,-0.08253117650747284
2023-01-30 10:24:20.562111,-0.08697516885132613
2023-01-30 10:24:20.567111,-0.08642574399709702
2023-01-30 10:24:20.572111,-0.07475474628592209
2023-01-30 10:24:20.577111,-0.040868919342756216
2023-01-30 10:24:20.582111,0.0239756976343061
2023-01-30 10:24:20.587111,0.11755824089050289
2023-01-30 10:24:20.592111,0.22543754423822687
2023-01-30 10:24:20.597111,0.32632631063461287
2023-01-30 10:24:20.602111,0.39830968354691654
2023-01-30 10:24:20.607111,0.4243636131286621
2023-01-30 10:24:20.612111,0.3982197230461958
2023-01-30 10:24:20.617111,0.32784086465835566
2023-01-30 10:24:20.622111,0.23241715852947173
2023-01-30 10:24:20.627111,0.1342423856258392
2023-01-30 10:24:20.632111,0.051138162707716935
2023-01-30 10:24:20.637111,-0.007284283638000353
2023-01-30 10:24:20.642111,-0.040055130531803214
2023-01-30 10:24:20.647111,-0.05281706899404523
2023-01-30 10:24:20.652111,-0.0538237701629918
2023-01-30 10:24:20.657111,-0.04995624348521221
2023-01-30 10:24:20.662111,-0.045091994906559504
2023-01-30 10:24:20.667111,-0.040724676102399826
2023-01-30 10:24:20.672111,-0.03702696715482898
2023-01-30 10:24:20.677111,-0.033584635704755686
2023-01-30 10:24:20.682111,-0.030089954765604297
2023-01-30 10:24:20.687111,-0.026733081787824554
2023-01-30 10:24:20.692111,-0.023868754370930598
2023-01-30 10:24:20.697111,-0.02151628397405139
2023-01-30 10:24:20.702111,-0.019383006304026226
2023-01-30 10:24:20.707111,-0.017092823982238697
2023-01-30 10:24:20.712111,-0.014160881224694416
2023-01-30 10:24:20.717111,-0.010048946365714092
2023-01-30 10:24:20.722111,-0.004524419159646063
2023-01-30 10:24:20.727111,0.002211729763075671
2023-01-30 10:24:20.732111,0.009844109618266438
2023-01-30 10:24:20.737111,0.018126567825674917
2023-01-30 10:24:20.742111,0.026750744099467354
2023-01-30 10:24:20.747111,0.03545979782938953
2023-01-30 10:24:20.752111,0.04441800762329931
2023-01-30 10:24:20.757111,0.05413929745554912
2023-01-30 10:24:20.762111,0.06500029651095508
2023-01-30 10:24:20.767111,0.07712205499410615
2023-01-30 10:24:20.772111,0.09061143409927841
2023-01-30 10:24:20.777111,0.10541777312755575
2023-01-30 10:24:20.782111,0.120947572277177
2023-01-30 10:24:20.787111,0.13626179099082925
2023-01-30 10:24:20.792111,0.15061941825841485
2023-01-30 10:24:20.797111,0.16340355575084672
2023-01-30 10:24:20.802111,0.1736400634011572
2023-01-30 10:24:20.807111,0.18011173605918876
2023-01-30 10:24:20.812111,0.18187314186381637
2023-01-30 10:24:20.817111,0.17821252346038807
2023-01-30 10:24:20.822111,0.1683743366695847
2023-01-30 10:24:20.827111,0.1520323753356932
2023-01-30 10:24:20.832111,0.1300344090564506
2023-01-30 10:24:20.837111,0.104191705584526
2023-01-30 10:24:20.842111,0.07647281262243721
2023-01-30 10:24:20.847111,0.0488263368606567
2023-01-30 10:24:20.852111,0.023329650610604706
2023-01-30 10:24:20.857111,0.0016107162227854605
2023-01-30 10:24:20.862111,-0.01585805112203173
2023-01-30 10:24:20.867111,-0.02932946011424051
2023-01-30 10:24:20.872111,-0.03887484681672446
2023-01-30 10:24:20.877111,-0.04449903964996328
2023-01-30 10:24:20.882111,-0.046801129896431704
2023-01-30 10:24:20.887111,-0.04675885289907441
2023-01-30 10:24:20.892111,-0.045109705450599565
2023-01-30 10:24:20.897111,-0.042623877525329465
2023-01-30 10:24:20.902111,-0.040571676530152444
2023-01-30 10:24:20.907111,-0.040003459900617544
2023-01-30 10:24:20.912111,-0.04075075330241191
2023-01-30 10:24:20.917111,-0.0418545827269554
2023-01-30 10:24:20.922111,-0.04266069575698764
2023-01-30 10:24:20.927111,-0.0428162030875682
2023-01-30 10:24:20.932111,-0.04177671619743314
2023-01-30 10:24:20.937111,-0.03935436531901352
2023-01-30 10:24:20.942111,-0.036409175806312984
2023-01-30 10:24:20.947111,-0.034041404724121024
2023-01-30 10:24:20.952111,-0.03239768911489773
2023-01-30 10:24:20.957111,-0.03106037899851799
2023-01-30 10:24:20.962111,-0.030054727785149955
2023-01-30 10:24:20.967111,-0.029497742652893046
2023-01-30 10:24:20.972111,-0.028839065213286715
2023-01-30 10:24:20.977111,-0.02757450006902208
2023-01-30 10:24:20.982111,-0.02623194110819865
2023-01-30 10:24:20.987111,-0.02557913586497302
2023-01-30 10:24:20.992111,-0.02538338510094463
2023-01-30 10:24:20.997111,-0.02500216290354711
2023-01-30 10:24:21.002111,-0.024513011755621563
2023-01-30 10:24:21.007111,-0.024064581841230327
2023-01-30 10:24:21.012111,-0.022838985698242435
2023-01-30 10:24:21.017111,-0.020001729950308706
2023-01-30 10:24:21.022111,-0.016028397396489934
2023-01-30 10:24:21.027111,-0.011779865249991379
2023-01-30 10:24:21.032111,-0.0070124264945473835
2023-01-30 10:24:21.037111,-0.0011779865017159446
2023-01-30 10:24:21.042111,0.0051538792149867585
2023-01-30 10:24:21.047111,0.011154810898005957
2023-01-30 10:24:21.052111,0.017040030058702506
2023-01-30 10:24:21.057111,0.022814473137259365
2023-01-30 10:24:21.062111,0.0266646120701227
2023-01-30 10:24:21.067111,0.026444595307111785
2023-01-30 10:24:21.072111,0.021962217375913296
2023-01-30 10:24:21.077111,0.01418391894549127
2023-01-30 10:24:21.082111,0.003486077468018086
2023-01-30 10:24:21.087111,-0.009207527153193827
2023-01-30 10:24:21.092111,-0.02089811254502851
2023-01-30 10:24:21.097111,-0.028704404830932593
2023-01-30 10:24:21.102111,-0.03274954717554953
2023-01-30 10:24:21.107111,-0.03481070324778538
2023-01-30 10:24:21.112111,-0.03567655601873549
2023-01-30 10:24:21.117111,-0.03646950051188456
2023-01-30 10:24:21.122111,-0.04061761939575929
2023-01-30 10:24:21.127111,-0.05055725574493395
2023-01-30 10:24:21.132111,-0.0629570163657277
2023-01-30 10:24:21.137111,-0.0698137283325195
2023-01-30 10:24:21.142111,-0.06251862493296664
2023-01-30 10:24:21.147111,-0.03197392076253888
2023-01-30 10:24:21.152111,0.031192726626087804
2023-01-30 10:24:21.157111,0.12888133525848372
2023-01-30 10:24:21.162111,0.24736989157412148
2023-01-30 10:24:21.167111,0.3617620468139647
2023-01-30 10:24:21.172111,0.448488875876288
2023-01-30 10:24:21.177111,0.4903548955917357
2023-01-30 10:24:21.182111,0.47537277104381753
2023-01-30 10:24:21.187111,0.40354451537132247
2023-01-30 10:24:21.192111,0.29686070488094896
2023-01-30 10:24:21.197111,0.19066552817821494
2023-01-30 10:24:21.202111,0.10767374378120245
2023-01-30 10:24:21.207111,0.04620591923594466
2023-01-30 10:24:21.212111,-0.002812512665898912
2023-01-30 10:24:21.217111,-0.03735899925231927
2023-01-30 10:24:21.222111,-0.050682365149230725
2023-01-30 10:24:21.227111,-0.047383904457092195
2023-01-30 10:24:21.232111,-0.04090209635488719
2023-01-30 10:24:21.237111,-0.0376715287566184
2023-01-30 10:24:21.242111,-0.033959562503028666
2023-01-30 10:24:21.247111,-0.027310054749250457
2023-01-30 10:24:21.252111,-0.02141070167246058
2023-01-30 10:24:21.257111,-0.01865546032786354
2023-01-30 10:24:21.262111,-0.01626117196913549
2023-01-30 10:24:21.267111,-0.012188553810119495
2023-01-30 10:24:21.272111,-0.00856524821227299
2023-01-30 10:24:21.277111,-0.0068515539169310006
2023-01-30 10:24:21.282111,-0.0049079379446668936
2023-01-30 10:24:21.287111,-0.0012020270805805306
2023-01-30 10:24:21.292111,0.0025778352398067254
2023-01-30 10:24:21.297111,0.0053129596635698466
2023-01-30 10:24:21.302111,0.008924744992956968
2023-01-30 10:24:21.307111,0.014977256767451659
2023-01-30 10:24:21.312111,0.022263097106826193
2023-01-30 10:24:21.317111,0.029690068215131645
2023-01-30 10:24:21.322111,0.03842947240439655
2023-01-30 10:24:21.327111,0.049355231225490515
2023-01-30 10:24:21.332111,0.061199228114892604
2023-01-30 10:24:21.337111,0.07301112264394755
2023-01-30 10:24:21.342111,0.08586240921303188
2023-01-30 10:24:21.347111,0.10044138133525828
2023-01-30 10:24:21.352111,0.11530883629621329
2023-01-30 10:24:21.357111,0.1290736645460127
2023-01-30 10:24:21.362111,0.1420939676013619
2023-01-30 10:24:21.367111,0.1545806825160979
2023-01-30 10:24:21.372111,0.1651024609767221
2023-01-30 10:24:21.377111,0.1723466366529463
2023-01-30 10:24:21.382111,0.1763777599635479
2023-01-30 10:24:21.387111,0.17681817710399617
2023-01-30 10:24:21.392111,0.1716958468693899
2023-01-30 10:24:21.397111,0.15953302383422843
2023-01-30 10:24:21.402111,0.14106837161255442
2023-01-30 10:24:21.407111,0.11791884899139393
2023-01-30 10:24:21.412111,0.09129980036458236
2023-01-30 10:24:21.417111,0.06315450370311723
2023-01-30 10:24:21.422111,0.0367150430224605
2023-01-30 10:24:21.427111,0.014472405426204224
2023-01-30 10:24:21.432111,-0.0032486694569700274
2023-01-30 10:24:21.437111,-0.016876459121704056
2023-01-30 10:24:21.442111,-0.026287008055557136
2023-01-30 10:24:21.447111,-0.03182967752218241
2023-01-30 10:24:21.452111,-0.03505342526968283
2023-01-30 10:24:21.457111,-0.03721475601196278
2023-01-30 10:24:21.462111,-0.03824778144074873
2023-01-30 10:24:21.467111,-0.03808021545410148
2023-01-30 10:24:21.472111,-0.03764615456899372
2023-01-30 10:24:21.477111,-0.037671528756618416
2023-01-30 10:24:21.482111,-0.03770830099940054
2023-01-30 10:24:21.487111,-0.03726283833384511
2023-01-30 10:24:21.492111,-0.03668324357449129
2023-01-30 10:24:21.497111,-0.03610889241099343
2023-01-30 10:24:21.502111,-0.03478820488049122
2023-01-30 10:24:21.507111,-0.03235856816172592
2023-01-30 10:24:21.512111,-0.029723061266751782
2023-01-30 10:24:21.517111,-0.027838945388793886
2023-01-30 10:24:21.522111,-0.026649671858840245
2023-01-30 10:24:21.527111,-0.025867622345685883
2023-01-30 10:24:21.532111,-0.025640637097931726
2023-01-30 10:24:21.537111,-0.025675296783447283
2023-01-30 10:24:21.542111,-0.02483942448485921
2023-01-30 10:24:21.547111,-0.022525986656546582
2023-01-30 10:24:21.552111,-0.01953865856132699
2023-01-30 10:24:21.557111,-0.01697262190282339
2023-01-30 10:24:21.562111,-0.015145135924761252
2023-01-30 10:24:21.567111,-0.014159878715872716
2023-01-30 10:24:21.572111,-0.01437784725842584
2023-01-30 10:24:21.577111,-0.015554229728877421
2023-01-30 10:24:21.582111,-0.016479569453940256
2023-01-30 10:24:21.587111,-0.016251405701041128
2023-01-30 10:24:21.592111,-0.015123695599787747
2023-01-30 10:24:21.597111,-0.013558864593505736
2023-01-30 10:24:21.602111,-0.011342964727756462
2023-01-30 10:24:21.607111,-0.008173784241080189
2023-01-30 10:24:21.612111,-0.004157688210231247
2023-01-30 10:24:21.617111,0.0008654594421385771
2023-01-30 10:24:21.622111,0.007500703052177196
2023-01-30 10:24:21.627111,0.015554229728877511
2023-01-30 10:24:21.632111,0.02333184670339386
2023-01-30 10:24:21.637111,0.02872844599187374
2023-01-30 10:24:21.642111,0.030358449997174148
2023-01-30 10:24:21.647111,0.027406215667724616
2023-01-30 10:24:21.652111,0.01955304179622572
2023-01-30 10:24:21.657111,0.0078131761401891
2023-01-30 10:24:21.662111,-0.005371220374705047
2023-01-30 10:24:21.667111,-0.017597675323486266
2023-01-30 10:24:21.672111,-0.027632146235203325
2023-01-30 10:24:21.677111,-0.035003028810024255
2023-01-30 10:24:21.682111,-0.03962030248559665
2023-01-30 10:24:21.687111,-0.04245559498667709
2023-01-30 10:24:21.692111,-0.04571703560698994
2023-01-30 10:24:21.697111,-0.05142271518707274
2023-01-30 10:24:21.702111,-0.059757924296207465
2023-01-30 10:24:21.707111,-0.0683232173323631
2023-01-30 10:24:21.712111,-0.0715208389766888
2023-01-30 10:24:21.717111,-0.06026963517069809
2023-01-30 10:24:21.722111,-0.02421988432920503
2023-01-30 10:24:21.727111,0.043080650269985074
2023-01-30 10:24:21.732111,0.13919556364345675
2023-01-30 10:24:21.737111,0.2511755824089049
2023-01-30 10:24:21.742111,0.3577776900245253
2023-01-30 10:24:21.747111,0.43489336967468245
2023-01-30 10:24:21.752111,0.46341562229456845
2023-01-30 10:24:21.757111,0.4366723895072936
2023-01-30 10:24:21.762111,0.3629790675226342
2023-01-30 10:24:21.767111,0.2617534101009368
2023-01-30 10:24:21.772111,0.15613060376501667
2023-01-30 10:24:21.777111,0.06579896062612527
2023-01-30 10:24:21.782111,0.001950768728335736
2023-01-30 10:24:21.787111,-0.03428181260824193
2023-01-30 10:24:21.792111,-0.04902892143400343
2023-01-30 10:24:21.797111,-0.05055725574493395
2023-01-30 10:24:21.802111,-0.04575187951861812
2023-01-30 10:24:21.807111,-0.03942648693919174
2023-01-30 10:24:21.812111,-0.03436826909282639
2023-01-30 10:24:21.817111,-0.03110845945775496
2023-01-30 10:24:21.822111,-0.02873129322859271
2023-01-30 10:24:21.827111,-0.02663691900670516
2023-01-30 10:24:21.832111,-0.025033604548776053
2023-01-30 10:24:21.837111,-0.023848216980695676
2023-01-30 10:24:21.842111,-0.022409463084182565
2023-01-30 10:24:21.847111,-0.02050658129155632
2023-01-30 10:24:21.852111,-0.01859412397407607
2023-01-30 10:24:21.857111,-0.01656393334269516
2023-01-30 10:24:21.862111,-0.01344126068322733
2023-01-30 10:24:21.867111,-0.008726716041564941
2023-01-30 10:24:21.872111,-0.0029445966171144275
2023-01-30 10:24:21.877111,0.00355800008401269
2023-01-30 10:24:21.882111,0.011182086233920585
2023-01-30 10:24:21.887111,0.019905567169189432
2023-01-30 10:24:21.892111,0.028696083427719742
2023-01-30 10:24:21.897111,0.03680606931447988
2023-01-30 10:24:21.902111,0.044739690915981595
2023-01-30 10:24:21.907111,0.053369998931884724
2023-01-30 10:24:21.912111,0.0630636312228189
2023-01-30 10:24:21.917111,0.07423719018697732
2023-01-30 10:24:21.922111,0.08768494478877258
2023-01-30 10:24:21.927111,0.10349452495574953
2023-01-30 10:24:21.932111,0.1203647082097295
2023-01-30 10:24:21.937111,0.1366223990917205
2023-01-30 10:24:21.942111,0.15117118235115803
2023-01-30 10:24:21.947111,0.16294679045677174
2023-01-30 10:24:21.952111,0.17040172322524688
2023-01-30 10:24:21.957111,0.17229855060577387
2023-01-30 10:24:21.962111,0.16834239159315356
2023-01-30 10:24:21.967111,0.1584992855787276
2023-01-30 10:24:21.972111,0.14252784049242392
2023-01-30 10:24:21.977111,0.12085179984569534
2023-01-30 10:24:21.982111,0.09516863268655697
2023-01-30 10:24:21.987111,0.0675539225339889
2023-01-30 10:24:21.992111,0.039584133318469925
2023-01-30 10:24:21.997111,0.012765526771545308
2023-01-30 10:24:22.002111,-0.011082901814831523
2023-01-30 10:24:22.007111,-0.03062764927744857
2023-01-30 10:24:22.012111,-0.04562156191383506
2023-01-30 10:24:22.017111,-0.05623082444071759
2023-01-30 10:24:22.022111,-0.06250371514628968
2023-01-30 10:24:22.027111,-0.06502966582775103
2023-01-30 10:24:22.032111,-0.06531373138510584
2023-01-30 10:24:22.037111,-0.06478925794363016
2023-01-30 10:24:22.042111,-0.06400043806361877
2023-01-30 10:24:22.047111,-0.06317853927612299
2023-01-30 10:24:22.052111,-0.06283535583202578
2023-01-30 10:24:22.057111,-0.06320258229970928
2023-01-30 10:24:22.062111,-0.06381325827884986
2023-01-30 10:24:22.067111,-0.06426036357879636
2023-01-30 10:24:22.072111,-0.06474143106539776
2023-01-30 10:24:22.077111,-0.06534218788146977
2023-01-30 10:24:22.082111,-0.06550670755103942
2023-01-30 10:24:22.087111,-0.06481330096721641
2023-01-30 10:24:22.092111,-0.06362622515556166
2023-01-30 10:24:22.097111,-0.062433283776044804
2023-01-30 10:24:22.102111,-0.061195149216570044
2023-01-30 10:24:22.107111,-0.059860944747924784
2023-01-30 10:24:22.112111,-0.058800668104003646
2023-01-30 10:24:22.117111,-0.05813002586364744
2023-01-30 10:24:22.122111,-0.05726518028471082
2023-01-30 10:24:22.127111,-0.05572597309947014
2023-01-30 10:24:22.132111,-0.05376635816126458
2023-01-30 10:24:22.137111,-0.05171120166778565
2023-01-30 10:24:22.142111,-0.04936077680679479
2023-01-30 10:24:22.147111,-0.046590566635131815
2023-01-30 10:24:22.152111,-0.0438371469293391
2023-01-30 10:24:22.157111,-0.041397809982299805
2023-01-30 10:24:22.162111,-0.03888002510230511
2023-01-30 10:24:22.167111,-0.0358684882521629
2023-01-30 10:24:22.172111,-0.03246748727205765
2023-01-30 10:24:22.177111,-0.028680365532636577
2023-01-30 10:24:22.182111,-0.024022944316412168
2023-01-30 10:24:22.187111,-0.018415054306387905
2023-01-30 10:24:22.192111,-0.012850838051073754
2023-01-30 10:24:22.197111,-0.008630554191768074
2023-01-30 10:24:22.202111,-0.006519267674498368
2023-01-30 10:24:22.207111,-0.007043878547847219
2023-01-30 10:24:22.212111,-0.010712301301597513
2023-01-30 10:24:22.217111,-0.0172130279242992
2023-01-30 10:24:22.222111,-0.02508153326379955
2023-01-30 10:24:22.227111,-0.03286341950297349
2023-01-30 10:24:22.232111,-0.04009922789867485
2023-01-30 10:24:22.237111,-0.04675885289907445
2023-01-30 10:24:22.242111,-0.05255024757536421
2023-01-30 10:24:22.247111,-0.05745689198374735
2023-01-30 10:24:22.252111,-0.0622383251555985
2023-01-30 10:24:22.257111,-0.0676981657743452
2023-01-30 10:24:22.262111,-0.07395321617261641
2023-01-30 10:24:22.267111,-0.0806079357862472
2023-01-30 10:24:22.272111,-0.08628645573916556
2023-01-30 10:24:22.277111,-0.08678635209798817
2023-01-30 10:24:22.282111,-0.0743771026292229
2023-01-30 10:24:22.287111,-0.04041215032339092
2023-01-30 10:24:22.292111,0.020334348348284303
2023-01-30 10:24:22.297111,0.10628323256969449
2023-01-30 10:24:22.302111,0.20725516608796601
2023-01-30 10:24:22.307111,0.30481001734733576
2023-01-30 10:24:22.312111,0.37669256114316724
2023-01-30 10:24:22.317111,0.40505906939506514
2023-01-30 10:24:22.322111,0.3836398891708674
2023-01-30 10:24:22.327111,0.3193545341491699
2023-01-30 10:24:22.332111,0.22891911888279498
2023-01-30 10:24:22.337111,0.13330480456352228
2023-01-30 10:24:22.342111,0.05129340662345677
2023-01-30 10:24:22.347111,-0.006442864891141605
2023-01-30 10:24:22.352111,-0.03928145809359273
2023-01-30 10:24:22.357111,-0.053225755691528306
2023-01-30 10:24:22.362111,-0.05585191713360937
2023-01-30 10:24:22.367111,-0.053658485412597566
2023-01-30 10:24:22.372111,-0.05120487442652614
2023-01-30 10:24:22.377111,-0.05010048672556877
2023-01-30 10:24:22.382111,-0.049097083129464786
2023-01-30 10:24:22.387111,-0.046566527336835764
2023-01-30 10:24:22.392111,-0.04261857662584043
2023-01-30 10:24:22.397111,-0.03817638009786598
2023-01-30 10:24:22.402111,-0.03334333486618952
2023-01-30 10:24:22.407111,-0.02817551419138902
2023-01-30 10:24:22.412111,-0.02387074806850559
2023-01-30 10:24:22.417111,-0.02127587795257553
2023-01-30 10:24:22.422111,-0.01906427042928296
2023-01-30 10:24:22.427111,-0.015409986488520976
2023-01-30 10:24:22.432111,-0.010772899188876958
2023-01-30 10:24:22.437111,-0.006827513687312607
2023-01-30 10:24:22.442111,-0.003183566736781946
2023-01-30 10:24:22.447111,0.0022838513832539225
2023-01-30 10:24:22.452111,0.009958718883246438
2023-01-30 10:24:22.457111,0.018030405044555615
2023-01-30 10:24:22.462111,0.02587837678028376
2023-01-30 10:24:22.467111,0.035195350646972615
2023-01-30 10:24:22.472111,0.04681689400782455
2023-01-30 10:24:22.477111,0.059019528329372406
2023-01-30 10:24:22.482111,0.07050632652103025
2023-01-30 10:24:22.487111,0.08291582763195023
2023-01-30 10:24:22.492111,0.0983574242170669
2023-01-30 10:24:22.497111,0.11592348664998997
2023-01-30 10:24:22.502111,0.13264498017818255
2023-01-30 10:24:22.507111,0.14683961868286124
2023-01-30 10:24:22.512111,0.15846063050683892
2023-01-30 10:24:22.517111,0.16676923632621754
2023-01-30 10:24:22.522111,0.1697869761137958
2023-01-30 10:24:22.527111,0.16614417731761918
2023-01-30 10:24:22.532111,0.1559305817171089
2023-01-30 10:24:22.537111,0.1396034210920332
2023-01-30 10:24:22.542111,0.11747567621632984
