2023-01-27 15:12:50.063071,-0.06892423331737517
2023-01-27 15:12:50.068071,-0.08334164431047174
2023-01-27 15:12:50.073071,-0.09851813316345207
2023-01-27 15:12:50.078071,-0.10945977658920092
2023-01-27 15:12:50.083071,-0.11601965129375447
2023-01-27 15:12:50.088071,-0.12063214909522847
2023-01-27 15:12:50.093071,-0.1245780810713768
2023-01-27 15:12:50.098071,-0.12778312165893985
2023-01-27 15:12:50.103071,-0.1305882185697555
2023-01-27 15:12:50.108071,-0.13387054647914426
2023-01-27 15:12:50.113071,-0.1377763450145721
2023-01-27 15:12:50.118071,-0.14126167746856044
2023-01-27 15:12:50.123071,-0.14244019985198964
2023-01-27 15:12:50.128071,-0.13855724500938674
2023-01-27 15:12:50.133071,-0.12597243487834925
2023-01-27 15:12:50.138071,-0.10126221018319646
2023-01-27 15:12:50.143071,-0.0632025822997093
2023-01-27 15:12:50.148071,-0.014466097119433348
2023-01-27 15:12:50.153071,0.0377436503767967
2023-01-27 15:12:50.158071,0.08259790655971547
2023-01-27 15:12:50.163071,0.10839879512786862
2023-01-27 15:12:50.168071,0.10649467459843105
2023-01-27 15:12:50.173071,0.07462184131145468
2023-01-27 15:12:50.178071,0.018185366397072533
2023-01-27 15:12:50.183071,-0.051014028489589594
2023-01-27 15:12:50.188071,-0.11833595967307023
2023-01-27 15:12:50.193071,-0.17100036144256586
2023-01-27 15:12:50.198071,-0.2018779921310038
2023-01-27 15:12:50.203071,-0.21069130301475517
2023-01-27 15:12:50.208071,-0.20266960773722126
2023-01-27 15:12:50.213071,-0.18585741519927967
2023-01-27 15:12:50.218071,-0.1681031125030805
2023-01-27 15:12:50.223071,-0.154580682516098
2023-01-27 15:12:50.228071,-0.1468598730830496
2023-01-27 15:12:50.233071,-0.14378647506237033
2023-01-27 15:12:50.238071,-0.14305954795883416
2023-01-27 15:12:50.243071,-0.1423440426588058
2023-01-27 15:12:50.248071,-0.13996014654637168
2023-01-27 15:12:50.253071,-0.13549248874187458
2023-01-27 15:12:50.258071,-0.12987626051681803
2023-01-27 15:12:50.263071,-0.12462615966796864
2023-01-27 15:12:50.268071,-0.1209409770137882
2023-01-27 15:12:50.273071,-0.11940936744213111
2023-01-27 15:12:50.278071,-0.11996043426125083
2023-01-27 15:12:50.283071,-0.12164513766765601
2023-01-27 15:12:50.288071,-0.12277758951616151
2023-01-27 15:12:50.293071,-0.1217893809080123
2023-01-27 15:12:50.298071,-0.11797611769482014
2023-01-27 15:12:50.303071,-0.11140386760234834
2023-01-27 15:12:50.308071,-0.10251291810653769
2023-01-27 15:12:50.313071,-0.09207527339458463
2023-01-27 15:12:50.318071,-0.081109609621099
2023-01-27 15:12:50.323071,-0.07036666572093968
2023-01-27 15:12:50.328071,-0.060022374785802704
2023-01-27 15:12:50.333071,-0.05005240440368657
2023-01-27 15:12:50.338071,-0.0405889570595785
2023-01-27 15:12:50.343071,-0.031685434281826116
2023-01-27 15:12:50.348071,-0.023130100823736535
2023-01-27 15:12:50.353071,-0.014857053756713843
2023-01-27 15:12:50.358071,-0.007277853530299401
2023-01-27 15:12:50.363071,-0.0009375810623168092
2023-01-27 15:12:50.368071,0.00386227688132152
2023-01-27 15:12:50.373071,0.006875594612210861
2023-01-27 15:12:50.378071,0.007745014957174907
2023-01-27 15:12:50.383071,0.006346702575683404
2023-01-27 15:12:50.388071,0.0029459727894275145
2023-01-27 15:12:50.393071,-0.0023559730034321074
2023-01-27 15:12:50.398071,-0.010079245352168585
2023-01-27 15:12:50.403071,-0.021011432632803792
2023-01-27 15:12:50.408071,-0.035669959131639395
2023-01-27 15:12:50.413071,-0.05423545837402335
2023-01-27 15:12:50.418071,-0.07643897037700505
2023-01-27 15:12:50.423071,-0.10101835429668422
2023-01-27 15:12:50.428071,-0.12559556741917552
2023-01-27 15:12:50.433071,-0.14758488535881042
2023-01-27 15:12:50.438071,-0.16523952850347726
2023-01-27 15:12:50.443071,-0.17790000140666956
2023-01-27 15:12:50.448071,-0.1858726966455959
2023-01-27 15:12:50.453071,-0.190497249364853
2023-01-27 15:12:50.458071,-0.1938535442841127
2023-01-27 15:12:50.463071,-0.19773344695568074
2023-01-27 15:12:50.468071,-0.2028226028616493
2023-01-27 15:12:50.473071,-0.20888826251029968
2023-01-27 15:12:50.478071,-0.2152861694797099
2023-01-27 15:12:50.483071,-0.22100469470024092
2023-01-27 15:12:50.488071,-0.22475348523661173
2023-01-27 15:12:50.493071,-0.22562047839164726
2023-01-27 15:12:50.498071,-0.2235600967627785
2023-01-27 15:12:50.503071,-0.219057410955429
2023-01-27 15:12:50.508071,-0.21269352258675872
2023-01-27 15:12:50.513071,-0.20533025264739985
2023-01-27 15:12:50.518071,-0.19825234452023746
2023-01-27 15:12:50.523071,-0.19258877635002128
2023-01-27 15:12:50.528071,-0.18872924225731094
2023-01-27 15:12:50.533071,-0.1865065097808837
2023-01-27 15:12:50.538071,-0.18553249646120304
2023-01-27 15:12:50.543071,-0.18501600623130787
2023-01-27 15:12:50.548071,-0.18376587387046023
2023-01-27 15:12:50.553071,-0.18104931712150557
2023-01-27 15:12:50.558071,-0.1773548885163068
2023-01-27 15:12:50.563071,-0.1739333122968672
2023-01-27 15:12:50.568071,-0.1717458651870065
2023-01-27 15:12:50.573071,-0.17109653353691093
2023-01-27 15:12:50.578071,-0.17183617522925185
2023-01-27 15:12:50.583071,-0.17330825328826896
2023-01-27 15:12:50.588071,-0.17426988456569933
2023-01-27 15:12:50.593071,-0.17354866862297041
2023-01-27 15:12:50.598071,-0.17107263716256985
2023-01-27 15:12:50.603071,-0.16818761825561523
2023-01-27 15:12:50.608071,-0.16703249200749715
2023-01-27 15:12:50.613071,-0.1695819795131682
2023-01-27 15:12:50.618071,-0.17676058611833628
2023-01-27 15:12:50.623071,-0.18785278499126426
2023-01-27 15:12:50.628071,-0.20068756661431045
2023-01-27 15:12:50.633071,-0.21268665790557853
2023-01-27 15:12:50.638071,-0.22195881658977148
2023-01-27 15:12:50.643071,-0.22768795490264876
2023-01-27 15:12:50.648071,-0.230010742940953
2023-01-27 15:12:50.653071,-0.2298035323619841
2023-01-27 15:12:50.658071,-0.22827756468994023
2023-01-27 15:12:50.663071,-0.2264138162136077
2023-01-27 15:12:50.668071,-0.22481047262487996
2023-01-27 15:12:50.673071,-0.22403380274772647
2023-01-27 15:12:50.678071,-0.22460967008982421
2023-01-27 15:12:50.683071,-0.22617340087890614
2023-01-27 15:12:50.688071,-0.22656396970741058
2023-01-27 15:12:50.693071,-0.22179803252220145
2023-01-27 15:12:50.698071,-0.20698374907823713
2023-01-27 15:12:50.703071,-0.17799615859985335
2023-01-27 15:12:50.708071,-0.13389283558307946
2023-01-27 15:12:50.713071,-0.07918953895568837
2023-01-27 15:12:50.718071,-0.02412131804234743
2023-01-27 15:12:50.723071,0.018054446205496663
2023-01-27 15:12:50.728071,0.03550427737107532
2023-01-27 15:12:50.733071,0.021973054856061935
2023-01-27 15:12:50.738071,-0.020715176752601174
2023-01-27 15:12:50.743071,-0.08269946277141565
2023-01-27 15:12:50.748071,-0.1491934541904946
2023-01-27 15:12:50.753071,-0.20566682517528526
2023-01-27 15:12:50.758071,-0.2424833533395557
2023-01-27 15:12:50.763071,-0.25692126154899586
2023-01-27 15:12:50.768071,-0.2525469594625661
2023-01-27 15:12:50.773071,-0.23691952228546131
2023-01-27 15:12:50.778071,-0.2184036209805928
2023-01-27 15:12:50.783071,-0.20314256846904738
2023-01-27 15:12:50.788071,-0.19366001443785716
2023-01-27 15:12:50.793071,-0.1895115822553634
2023-01-27 15:12:50.798071,-0.18876170990333518
2023-01-27 15:12:50.803071,-0.18907885253429407
2023-01-27 15:12:50.808071,-0.18847620858165356
2023-01-27 15:12:50.813071,-0.18592953681945795
2023-01-27 15:12:50.818071,-0.1814344328529578
2023-01-27 15:12:50.823071,-0.17539978027343753
2023-01-27 15:12:50.828071,-0.16821577159430656
2023-01-27 15:12:50.833071,-0.16047060489654535
2023-01-27 15:12:50.838071,-0.1531351580109205
2023-01-27 15:12:50.843071,-0.1471761912107467
2023-01-27 15:12:50.848071,-0.1431171310320755
2023-01-27 15:12:50.853071,-0.14099776744842518
2023-01-27 15:12:50.858071,-0.1403054501668573
2023-01-27 15:12:50.863071,-0.13967554271221164
2023-01-27 15:12:50.868071,-0.1370573323324326
2023-01-27 15:12:50.873071,-0.13066034018993367
2023-01-27 15:12:50.878071,-0.11982611048348013
2023-01-27 15:12:50.883071,-0.10510524362325653
2023-01-27 15:12:50.888071,-0.08792558692657866
2023-01-27 15:12:50.893071,-0.07029454410076139
2023-01-27 15:12:50.898071,-0.054231598090232806
2023-01-27 15:12:50.903071,-0.04089295864105218
2023-01-27 15:12:50.908071,-0.030206187963466514
2023-01-27 15:12:50.913071,-0.021420121192932063
2023-01-27 15:12:50.918071,-0.01380941732921795
2023-01-27 15:12:50.923071,-0.006875594612210875
2023-01-27 15:12:50.928071,-0.0004012315373559071
2023-01-27 15:12:50.933071,0.0053129596635698795
2023-01-27 15:12:50.938071,0.009487437147412063
2023-01-27 15:12:50.943071,0.01139521598815912
2023-01-27 15:12:50.948071,0.010713111747414544
2023-01-27 15:12:50.953071,0.007284283638000431
2023-01-27 15:12:50.958071,0.0008658151980767457
2023-01-27 15:12:50.963071,-0.008702675811946269
2023-01-27 15:12:50.968071,-0.021357450657142518
2023-01-27 15:12:50.973071,-0.03699839115142818
2023-01-27 15:12:50.978071,-0.05550299165991513
2023-01-27 15:12:50.983071,-0.0763046741485594
2023-01-27 15:12:50.988071,-0.09814520808407415
2023-01-27 15:12:50.993071,-0.11940936744213093
2023-01-27 15:12:50.998071,-0.13856497257628025
2023-01-27 15:12:51.003071,-0.1543162316083907
2023-01-27 15:12:51.008071,-0.16578688058394583
2023-01-27 15:12:51.013071,-0.1728755235671997
2023-01-27 15:12:51.018071,-0.17628709543214166
2023-01-27 15:12:51.023071,-0.17705857753753662
2023-01-27 15:12:51.028071,-0.17614187125328842
2023-01-27 15:12:51.033071,-0.17436604201793673
2023-01-27 15:12:51.038071,-0.1724041460000639
2023-01-27 15:12:51.043071,-0.17056763172149642
2023-01-27 15:12:51.048071,-0.16880883604150704
2023-01-27 15:12:51.053071,-0.16700963675975794
2023-01-27 15:12:51.058071,-0.1650957545754065
2023-01-27 15:12:51.063071,-0.16287466883659357
2023-01-27 15:12:51.068071,-0.16003657213646022
2023-01-27 15:12:51.073071,-0.1564077585935592
2023-01-27 15:12:51.078071,-0.1520583057522418
2023-01-27 15:12:51.083071,-0.1472002267837524
2023-01-27 15:12:51.088071,-0.14217300988708445
2023-01-27 15:12:51.093071,-0.13743977248668673
2023-01-27 15:12:51.098071,-0.13332914798143738
2023-01-27 15:12:51.103071,-0.1297948807477951
2023-01-27 15:12:51.108071,-0.12658729622581646
2023-01-27 15:12:51.113071,-0.12356837838888154
2023-01-27 15:12:51.118071,-0.12080218663429533
2023-01-27 15:12:51.123071,-0.1186641082167625
2023-01-27 15:12:51.128071,-0.1179834708528905
2023-01-27 15:12:51.133071,-0.11948148906230917
2023-01-27 15:12:51.138071,-0.12259331614395735
2023-01-27 15:12:51.143071,-0.1253233402967453
2023-01-27 15:12:51.148071,-0.12580018312505953
2023-01-27 15:12:51.153071,-0.12352029979228962
2023-01-27 15:12:51.158071,-0.11864100688314136
2023-01-27 15:12:51.163071,-0.1110672950744627
2023-01-27 15:12:51.168071,-0.10153695082835046
2023-01-27 15:12:51.173071,-0.09308497607707969
2023-01-27 15:12:51.178071,-0.0897719858537038
2023-01-27 15:12:51.183071,-0.09356578439474098
2023-01-27 15:12:51.188071,-0.10326682070618165
2023-01-27 15:12:51.193071,-0.11628409475088108
2023-01-27 15:12:51.198071,-0.13021345671414658
2023-01-27 15:12:51.203071,-0.1427527368068695
2023-01-27 15:12:51.208071,-0.1518572884005784
2023-01-27 15:12:51.213071,-0.15700876712799067
2023-01-27 15:12:51.218071,-0.15958715610011082
2023-01-27 15:12:51.223071,-0.16140818595886228
2023-01-27 15:12:51.228071,-0.16349284750377327
2023-01-27 15:12:51.233071,-0.1664326637983321
2023-01-27 15:12:51.238071,-0.17081633927929396
2023-01-27 15:12:51.243071,-0.1765056550502777
2023-01-27 15:12:51.248071,-0.18204923312786328
2023-01-27 15:12:51.253071,-0.18520832061767567
2023-01-27 15:12:51.258071,-0.18332742194831023
2023-01-27 15:12:51.263071,-0.1728034019470213
2023-01-27 15:12:51.268071,-0.14927196729433714
2023-01-27 15:12:51.273071,-0.10964890569448467
2023-01-27 15:12:51.278071,-0.05452835004057055
2023-01-27 15:12:51.283071,0.010770162567496223
2023-01-27 15:12:51.288071,0.07633613726485988
2023-01-27 15:12:51.293071,0.12883326411247245
2023-01-27 15:12:51.298071,0.1547950466873103
2023-01-27 15:12:51.303071,0.14578184485435483
2023-01-27 15:12:51.308071,0.10233549558316701
2023-01-27 15:12:51.313071,0.03408948704600327
2023-01-27 15:12:51.318071,-0.043444588792166235
2023-01-27 15:12:51.323071,-0.11354347318410869
2023-01-27 15:12:51.328071,-0.16331211554348096
2023-01-27 15:12:51.333071,-0.18766045570373527
2023-01-27 15:12:51.338071,-0.18986369217091925
2023-01-27 15:12:51.343071,-0.17821252346038802
2023-01-27 15:12:51.348071,-0.16150511039442245
2023-01-27 15:12:51.353071,-0.14621457457542408
2023-01-27 15:12:51.358071,-0.13551039930810854
2023-01-27 15:12:51.363071,-0.12931406497955314
2023-01-27 15:12:51.368071,-0.12552568367711964
2023-01-27 15:12:51.373071,-0.12212594598531717
2023-01-27 15:12:51.378071,-0.11840858099404404
2023-01-27 15:12:51.383071,-0.11445701122283924
2023-01-27 15:12:51.388071,-0.11027680108197126
2023-01-27 15:12:51.393071,-0.1058505028486251
2023-01-27 15:12:51.398071,-0.10134679816224265
2023-01-27 15:12:51.403071,-0.09669105708599096
2023-01-27 15:12:51.408071,-0.09138100043775758
2023-01-27 15:12:51.413071,-0.08517563343048087
2023-01-27 15:12:51.418071,-0.07853159152544768
2023-01-27 15:12:51.423071,-0.07200141996145233
2023-01-27 15:12:51.428071,-0.06569138850111934
2023-01-27 15:12:51.433071,-0.05962054058909412
2023-01-27 15:12:51.438071,-0.05397080441886407
2023-01-27 15:12:51.443071,-0.04848977178335181
2023-01-27 15:12:51.448071,-0.04216954041484991
2023-01-27 15:12:51.453071,-0.0340173654258251
2023-01-27 15:12:51.458071,-0.02376897714989613
2023-01-27 15:12:51.463071,-0.011587540619075146
2023-01-27 15:12:51.468071,0.002287405069974047
2023-01-27 15:12:51.473071,0.017116865143179807
2023-01-27 15:12:51.478071,0.031464259671385345
2023-01-27 15:12:51.483071,0.04399418830871584
2023-01-27 15:12:51.488071,0.05416345027580063
2023-01-27 15:12:51.493071,0.06190439313650127
2023-01-27 15:12:51.498071,0.0672741817342806
2023-01-27 15:12:51.503071,0.07084747403860094
2023-01-27 15:12:51.508071,0.07379407097104919
2023-01-27 15:12:51.513071,0.07688164710998535
2023-01-27 15:12:51.518071,0.07964192923161137
2023-01-27 15:12:51.523071,0.08077621459960932
2023-01-27 15:12:51.528071,0.07887477623430243
2023-01-27 15:12:51.533071,0.07250627130269995
2023-01-27 15:12:51.538071,0.060452448715735234
2023-01-27 15:12:51.543071,0.04264792054891579
2023-01-27 15:12:51.548071,0.020619081607275016
2023-01-27 15:12:51.553071,-0.0033897161483764176
2023-01-27 15:12:51.558071,-0.02735733498601408
2023-01-27 15:12:51.563071,-0.049427352845668675
2023-01-27 15:12:51.568071,-0.06780705436846045
2023-01-27 15:12:51.573071,-0.0814974308013916
2023-01-27 15:12:51.578071,-0.09080206134872058
2023-01-27 15:12:51.583071,-0.09669105708599082
2023-01-27 15:12:51.588071,-0.10004576278783993
2023-01-27 15:12:51.593071,-0.10173957049846634
2023-01-27 15:12:51.598071,-0.10266951043464928
2023-01-27 15:12:51.603071,-0.10303775966167439
2023-01-27 15:12:51.608071,-0.10204495474215684
2023-01-27 15:12:51.613071,-0.09883066266775134
2023-01-27 15:12:51.618071,-0.09338147494781306
2023-01-27 15:12:51.623071,-0.0862574577331542
2023-01-27 15:12:51.628071,-0.07809094573927251
2023-01-27 15:12:51.633071,-0.06983777135610576
2023-01-27 15:12:51.638071,-0.0628695468793937
2023-01-27 15:12:51.643071,-0.058130025863647385
2023-01-27 15:12:51.648071,-0.05551554465400279
2023-01-27 15:12:51.653071,-0.05442778393626204
2023-01-27 15:12:51.658071,-0.05438025275762296
2023-01-27 15:12:51.663071,-0.054668188095092655
2023-01-27 15:12:51.668071,-0.05415774693924434
2023-01-27 15:12:51.673071,-0.05209585279226291
2023-01-27 15:12:51.678071,-0.04874369336570878
2023-01-27 15:12:51.683071,-0.044787526130676165
2023-01-27 15:12:51.688071,-0.04066302162640406
2023-01-27 15:12:51.693071,-0.03687819093465802
2023-01-27 15:12:51.698071,-0.03428003139523856
2023-01-27 15:12:51.703071,-0.03327210992574689
2023-01-27 15:12:51.708071,-0.03314837485790034
2023-01-27 15:12:51.713071,-0.03264705464243877
2023-01-27 15:12:51.718071,-0.03064251603206408
2023-01-27 15:12:51.723071,-0.025939743965864025
2023-01-27 15:12:51.728071,-0.017295185502686918
2023-01-27 15:12:51.733071,-0.004591743461787734
2023-01-27 15:12:51.738071,0.010309737088370989
2023-01-27 15:12:51.743071,0.02442518994212151
2023-01-27 15:12:51.748071,0.03497837032929504
2023-01-27 15:12:51.753071,0.03971497341990466
2023-01-27 15:12:51.758071,0.03705937434965186
2023-01-27 15:12:51.763071,0.027117729187011726
2023-01-27 15:12:51.768071,0.012171154630215512
2023-01-27 15:12:51.773071,-0.004615783691406165
2023-01-27 15:12:51.778071,-0.020711131417134994
2023-01-27 15:12:51.783071,-0.03413756936788546
2023-01-27 15:12:51.788071,-0.04297787079412533
2023-01-27 15:12:51.793071,-0.04627804085612287
2023-01-27 15:12:51.798071,-0.04515642820158194
2023-01-27 15:12:51.803071,-0.041950743645429694
2023-01-27 15:12:51.808071,-0.038304159260578716
2023-01-27 15:12:51.813071,-0.0347385816276073
2023-01-27 15:12:51.818071,-0.031626788477944444
2023-01-27 15:12:51.823071,-0.02932946011424055
2023-01-27 15:12:51.828071,-0.027088920874909744
2023-01-27 15:12:51.833071,-0.022429823875427187
2023-01-27 15:12:51.838071,-0.01181959813569955
2023-01-27 15:12:51.843071,0.008318027481436691
2023-01-27 15:12:51.848071,0.04061531112531738
2023-01-27 15:12:51.853071,0.08531987667083736
2023-01-27 15:12:51.858071,0.13878942415730594
2023-01-27 15:12:51.863071,0.19316574931144706
2023-01-27 15:12:51.868071,0.23772254560245457
2023-01-27 15:12:51.873071,0.26151299476623524
2023-01-27 15:12:51.878071,0.2568989305779879
2023-01-27 15:12:51.883071,0.22295197844505305
2023-01-27 15:12:51.888071,0.1666848751847693
2023-01-27 15:12:51.893071,0.10087411105632776
2023-01-27 15:12:51.898071,0.03969961515008902
2023-01-27 15:12:51.903071,-0.005505283828824701
2023-01-27 15:12:51.908071,-0.029128532786658026
2023-01-27 15:12:51.913071,-0.03223836421966551
2023-01-27 15:12:51.918071,-0.02104823553981631
2023-01-27 15:12:51.923071,-0.003437797306105428
2023-01-27 15:12:51.928071,0.014217332199616142
2023-01-27 15:12:51.933071,0.028199553489684896
2023-01-27 15:12:51.938071,0.037170433820407994
2023-01-27 15:12:51.943071,0.0416622571647168
2023-01-27 15:12:51.948071,0.04329811655288602
2023-01-27 15:12:51.953071,0.043585501611232765
2023-01-27 15:12:51.958071,0.04325837680006598
2023-01-27 15:12:51.963071,0.042744081467389984
2023-01-27 15:12:51.968071,0.042692828651918396
2023-01-27 15:12:51.973071,0.043681662529706934
2023-01-27 15:12:51.978071,0.04587883829233088
2023-01-27 15:12:51.983071,0.0494033098220825
2023-01-27 15:12:51.988071,0.054566060366201284
2023-01-27 15:12:51.993071,0.06135145947337152
2023-01-27 15:12:51.998071,0.06909807759815552
2023-01-27 15:12:52.003071,0.07709801197052003
2023-01-27 15:12:52.008071,0.08511475895408055
2023-01-27 15:12:52.013071,0.09301285445690147
2023-01-27 15:12:52.018071,0.10043551609331297
2023-01-27 15:12:52.023071,0.10729293525218966
2023-01-27 15:12:52.028071,0.11409447321678358
2023-01-27 15:12:52.033071,0.12138068675994865
2023-01-27 15:12:52.038071,0.1292817083475956
2023-01-27 15:12:52.043071,0.1379686594009399
2023-01-27 15:12:52.048071,0.14793276505943528
2023-01-27 15:12:52.053071,0.15931665897369368
2023-01-27 15:12:52.058071,0.17145319899295342
2023-01-27 15:12:52.063071,0.1835014522075654
2023-01-27 15:12:52.068071,0.1950412982638538
2023-01-27 15:12:52.073071,0.20564278960227958
2023-01-27 15:12:52.078071,0.2144264705190952
2023-01-27 15:12:52.083071,0.2205238789319992
2023-01-27 15:12:52.088071,0.22343826337810643
2023-01-27 15:12:52.093071,0.2225192487239836
2023-01-27 15:12:52.098071,0.2167158301704246
2023-01-27 15:12:52.103071,0.2054504603147506
2023-01-27 15:12:52.108071,0.18930730316939484
2023-01-27 15:12:52.113071,0.16943773627281178
2023-01-27 15:12:52.118071,0.14681028237586316
2023-01-27 15:12:52.123071,0.12241443246603008
2023-01-27 15:12:52.128071,0.09749041311557313
2023-01-27 15:12:52.133071,0.0729630440473556
2023-01-27 15:12:52.138071,0.049211947469668775
2023-01-27 15:12:52.143071,0.026949446648359188
2023-01-27 15:12:52.148071,0.007762378975391868
2023-01-27 15:12:52.153071,-0.006803472992032719
2023-01-27 15:12:52.158071,-0.016290208429516537
2023-01-27 15:12:52.163071,-0.021179717034101323
2023-01-27 15:12:52.168071,-0.022466861955433747
2023-01-27 15:12:52.173071,-0.021876892074942568
2023-01-27 15:12:52.178071,-0.021640887578515258
2023-01-27 15:12:52.183071,-0.0231270007789134
2023-01-27 15:12:52.188071,-0.02596167776883669
2023-01-27 15:12:52.193071,-0.02889673039317139
2023-01-27 15:12:52.198071,-0.030999547023465135
2023-01-27 15:12:52.203071,-0.031685434281825964
2023-01-27 15:12:52.208071,-0.030529977033224846
2023-01-27 15:12:52.213071,-0.027862986549734937
2023-01-27 15:12:52.218071,-0.024954401912493644
2023-01-27 15:12:52.223071,-0.022886594757437696
2023-01-27 15:12:52.228071,-0.02167638734372875
2023-01-27 15:12:52.233071,-0.020939311012625635
2023-01-27 15:12:52.238071,-0.020683897865473387
2023-01-27 15:12:52.243071,-0.020843148231506282
2023-01-27 15:12:52.248071,-0.020770054751057292
2023-01-27 15:12:52.253071,-0.019953649491071652
2023-01-27 15:12:52.258071,-0.018666565997018988
2023-01-27 15:12:52.263071,-0.01728514954447737
2023-01-27 15:12:52.268071,-0.01559770628774163
2023-01-27 15:12:52.273071,-0.01336654089391225
2023-01-27 15:12:52.278071,-0.010825655933474336
2023-01-27 15:12:52.283071,-0.007933378219604421
2023-01-27 15:12:52.288071,-0.0038919120134459696
2023-01-27 15:12:52.293071,0.0017549594631418018
2023-01-27 15:12:52.298071,0.008078611838702595
2023-01-27 15:12:52.303071,0.013414621353149442
2023-01-27 15:12:52.308071,0.016380274985731972
2023-01-27 15:12:52.313071,0.015746554359793663
2023-01-27 15:12:52.318071,0.010373601747041486
2023-01-27 15:12:52.323071,0.0003606081008911038
2023-01-27 15:12:52.328071,-0.012299715385880537
2023-01-27 15:12:52.333071,-0.02505024336278426
2023-01-27 15:12:52.338071,-0.036291344238408
2023-01-27 15:12:52.343071,-0.045196216553449534
2023-01-27 15:12:52.348071,-0.051173383535431556
2023-01-27 15:12:52.353071,-0.0545720271766185
2023-01-27 15:12:52.358071,-0.057102508315037
2023-01-27 15:12:52.363071,-0.06041387841105461
2023-01-27 15:12:52.368071,-0.06470344443443106
2023-01-27 15:12:52.373071,-0.06938099861145011
2023-01-27 15:12:52.378071,-0.07412689404496747
2023-01-27 15:12:52.383071,-0.07822792232036586
2023-01-27 15:12:52.388071,-0.07972497573307422
2023-01-27 15:12:52.393071,-0.07642488181591017
2023-01-27 15:12:52.398071,-0.06707410557304602
2023-01-27 15:12:52.403071,-0.05048513412475581
2023-01-27 15:12:52.408071,-0.024624851391122356
2023-01-27 15:12:52.413071,0.01144329737871873
2023-01-27 15:12:52.418071,0.05469496696690515
2023-01-27 15:12:52.423071,0.0984219759702682
2023-01-27 15:12:52.428071,0.1352131218864182
2023-01-27 15:12:52.433071,0.15878777205944059
2023-01-27 15:12:52.438071,0.16389129212148945
2023-01-27 15:12:52.443071,0.14698386192321766
2023-01-27 15:12:52.448071,0.10856958097979211
2023-01-27 15:12:52.453071,0.0547162704169751
2023-01-27 15:12:52.458071,-0.00405939084510365
2023-01-27 15:12:52.463071,-0.055918298661708755
2023-01-27 15:12:52.468071,-0.09154472459925146
2023-01-27 15:12:52.473071,-0.1073650568723678
2023-01-27 15:12:52.478071,-0.10625513575079781
2023-01-27 15:12:52.483071,-0.09505629539489732
2023-01-27 15:12:52.488071,-0.08098534500943022
2023-01-27 15:12:52.493071,-0.06938099861145014
2023-01-27 15:12:52.498071,-0.06283618744611223
2023-01-27 15:12:52.503071,-0.06094276905059807
2023-01-27 15:12:52.508071,-0.06124940542699168
2023-01-27 15:12:52.513071,-0.0615678243339061
2023-01-27 15:12:52.518071,-0.06150524488357498
2023-01-27 15:12:52.523071,-0.06168802827596657
2023-01-27 15:12:52.528071,-0.06232185907890169
2023-01-27 15:12:52.533071,-0.06308238208293909
2023-01-27 15:12:52.538071,-0.06355893330595024
2023-01-27 15:12:52.543071,-0.06298621743917467
2023-01-27 15:12:52.548071,-0.06025992344524485
2023-01-27 15:12:52.553071,-0.05510091781616207
2023-01-27 15:12:52.558071,-0.048665808537147415
2023-01-27 15:12:52.563071,-0.04231135174632067
2023-01-27 15:12:52.568071,-0.036366192959211695
2023-01-27 15:12:52.573071,-0.030675729736685708
2023-01-27 15:12:52.578071,-0.025432517461391035
2023-01-27 15:12:52.583071,-0.02062678337097159
2023-01-27 15:12:52.588071,-0.015494864496975508
2023-01-27 15:12:52.593071,-0.00937581062316888
2023-01-27 15:12:52.598071,-0.002346131875191361
2023-01-27 15:12:52.603071,0.00576972961425785
2023-01-27 15:12:52.608071,0.01607133000154846
2023-01-27 15:12:52.613071,0.029257338494062403
2023-01-27 15:12:52.618071,0.04433594019390913
2023-01-27 15:12:52.623071,0.05942821502685532
2023-01-27 15:12:52.628071,0.07298589429176167
2023-01-27 15:12:52.633071,0.08351683616638172
2023-01-27 15:12:52.638071,0.08938944524238031
2023-01-27 15:12:52.643071,0.09020011126995077
2023-01-27 15:12:52.648071,0.08752945553833566
2023-01-27 15:12:52.653071,0.08325239270925508
2023-01-27 15:12:52.658071,0.07779098940627117
2023-01-27 15:12:52.663071,0.07072727382183067
2023-01-27 15:12:52.668071,0.06189817813492876
2023-01-27 15:12:52.673071,0.05079766362905497
2023-01-27 15:12:52.678071,0.036144725465074454
2023-01-27 15:12:52.683071,0.017477473244071017
2023-01-27 15:12:52.688071,-0.003626873363680384
2023-01-27 15:12:52.693071,-0.024978121742606104
2023-01-27 15:12:52.698071,-0.04542673884465981
2023-01-27 15:12:52.703071,-0.0641642063856124
2023-01-27 15:12:52.708071,-0.079804719855035
2023-01-27 15:12:52.713071,-0.09161850064992896
2023-01-27 15:12:52.718071,-0.10058462843149767
2023-01-27 15:12:52.723071,-0.10786990821361536
2023-01-27 15:12:52.728071,-0.11334674908255067
2023-01-27 15:12:52.733071,-0.11686106771230695
2023-01-27 15:12:52.738071,-0.11965411386543856
2023-01-27 15:12:52.743071,-0.12303948402404771
2023-01-27 15:12:52.748071,-0.126836895453969
2023-01-27 15:12:52.753071,-0.13046801090240465
2023-01-27 15:12:52.758071,-0.13421202275922442
2023-01-27 15:12:52.763071,-0.1378484666347503
2023-01-27 15:12:52.768071,-0.13952310847150132
2023-01-27 15:12:52.773071,-0.1377522945404052
2023-01-27 15:12:52.778071,-0.1333506313135344
2023-01-27 15:12:52.783071,-0.1278235614299773
2023-01-27 15:12:52.788071,-0.12129993670884615
2023-01-27 15:12:52.793071,-0.1136877164244651
2023-01-27 15:12:52.798071,-0.10619978649809454
2023-01-27 15:12:52.803071,-0.0997922867536544
2023-01-27 15:12:52.808071,-0.09368304765807937
2023-01-27 15:12:52.813071,-0.08741140365600576
2023-01-27 15:12:52.818071,-0.08268389520652418
2023-01-27 15:12:52.823071,-0.08099257946014393
2023-01-27 15:12:52.828071,-0.08100363245355593
2023-01-27 15:12:52.833071,-0.08043964952230442
2023-01-27 15:12:52.838071,-0.07878145299510174
2023-01-27 15:12:52.843071,-0.07596810907125473
2023-01-27 15:12:52.848071,-0.07070423338570352
2023-01-27 15:12:52.853071,-0.06293813884258266
2023-01-27 15:12:52.858071,-0.05608803614826801
2023-01-27 15:12:52.863071,-0.05382677167654027
2023-01-27 15:12:52.868071,-0.0563630972116518
2023-01-27 15:12:52.873071,-0.06245732307434078
2023-01-27 15:12:52.878071,-0.07250712230342082
2023-01-27 15:12:52.883071,-0.08618533611297603
2023-01-27 15:12:52.888071,-0.09957336379350727
2023-01-27 15:12:52.893071,-0.10873536765575403
2023-01-27 15:12:52.898071,-0.11409709514607601
2023-01-27 15:12:52.903071,-0.11753420531749714
2023-01-27 15:12:52.908071,-0.11799316219373158
2023-01-27 15:12:52.913071,-0.1146974191069602
2023-01-27 15:12:52.918071,-0.11165821423921873
2023-01-27 15:12:52.923071,-0.11315882205963129
2023-01-27 15:12:52.928071,-0.11724894263026245
2023-01-27 15:12:52.933071,-0.11984209716320028
2023-01-27 15:12:52.938071,-0.12217496055412724
2023-01-27 15:12:52.943071,-0.12628495693206782
2023-01-27 15:12:52.948071,-0.12571903889259092
2023-01-27 15:12:52.953071,-0.11085093021392818
2023-01-27 15:12:52.958071,-0.0828843144399987
2023-01-27 15:12:52.963071,-0.0516871623694898
2023-01-27 15:12:52.968071,-0.01881422127638549
2023-01-27 15:12:52.973071,0.02454539202153669
2023-01-27 15:12:52.978071,0.07773123801203322
2023-01-27 15:12:52.983071,0.12046714872121812
2023-01-27 15:12:52.988071,0.13114172276629013
2023-01-27 15:12:52.993071,0.10765354335308064
2023-01-27 15:12:52.998071,0.06292676795818593
2023-01-27 15:12:53.003071,0.008245905861258514
2023-01-27 15:12:53.008071,-0.049046631769242156
2023-01-27 15:12:53.013071,-0.0982056111097335
2023-01-27 15:12:53.018071,-0.1286936809167446
2023-01-27 15:12:53.023071,-0.140661209821701
2023-01-27 15:12:53.028071,-0.1427529252466626
2023-01-27 15:12:53.033071,-0.1399159431457519
2023-01-27 15:12:53.038071,-0.1311216379151987
2023-01-27 15:12:53.043071,-0.11803905665874481
2023-01-27 15:12:53.048071,-0.10687237699061161
2023-01-27 15:12:53.053071,-0.10017693042755127
2023-01-27 15:12:53.058071,-0.09425849794017688
2023-01-27 15:12:53.063071,-0.08669018745422359
2023-01-27 15:12:53.068071,-0.08021616549715725
2023-01-27 15:12:53.073071,-0.07714609801769243
2023-01-27 15:12:53.078071,-0.0754475856385295
2023-01-27 15:12:53.083071,-0.07277071475982665
2023-01-27 15:12:53.088071,-0.06961488154004764
2023-01-27 15:12:53.093071,-0.06618361175060265
2023-01-27 15:12:53.098071,-0.06037264960600934
2023-01-27 15:12:53.103071,-0.051446758210659006
2023-01-27 15:12:53.108071,-0.04229687312163009
2023-01-27 15:12:53.113071,-0.035748284310102366
2023-01-27 15:12:53.118071,-0.031434268538011595
2023-01-27 15:12:53.123071,-0.027983188629150318
2023-01-27 15:12:53.128071,-0.025221077623662727
2023-01-27 15:12:53.133071,-0.02228558063507079
2023-01-27 15:12:53.138071,-0.0163899462706426
2023-01-27 15:12:53.143071,-0.005673567764460908
2023-01-27 15:12:53.148071,0.00870996363141513
2023-01-27 15:12:53.153071,0.024857919663190776
2023-01-27 15:12:53.158071,0.04232478232379186
2023-01-27 15:12:53.163071,0.06067832559347141
2023-01-27 15:12:53.168071,0.07816346014535547
2023-01-27 15:12:53.173071,0.09356578439474085
2023-01-27 15:12:53.178071,0.10761529017123754
2023-01-27 15:12:53.183071,0.12102007865905756
2023-01-27 15:12:53.188071,0.1327265846337132
2023-01-27 15:12:53.193071,0.14140646159648884
2023-01-27 15:12:53.198071,0.14696990465301732
2023-01-27 15:12:53.203071,0.1492917537689206
2023-01-27 15:12:53.208071,0.14708074720152614
2023-01-27 15:12:53.213071,0.1394351422786711
2023-01-27 15:12:53.218071,0.1271864059982686
2023-01-27 15:12:53.223071,0.11152406781911832
2023-01-27 15:12:53.228071,0.09265864284030646
2023-01-27 15:12:53.233071,0.07101576030254358
2023-01-27 15:12:53.238071,0.04843810042163992
2023-01-27 15:12:53.243071,0.026997527107596283
2023-01-27 15:12:53.248071,0.007700207148053276
2023-01-27 15:12:53.253071,-0.008726716041564903
2023-01-27 15:12:53.258071,-0.021120881913010835
2023-01-27 15:12:53.263071,-0.029161175712943
2023-01-27 15:12:53.268071,-0.03431040959504294
2023-01-27 15:12:53.273071,-0.038368701934814384
2023-01-27 15:12:53.278071,-0.04185886397891356
2023-01-27 15:12:53.283071,-0.04449903964996326
2023-01-27 15:12:53.288071,-0.046091127818471724
2023-01-27 15:12:53.293071,-0.04603763669729227
2023-01-27 15:12:53.298071,-0.04315592378734074
2023-01-27 15:12:53.303071,-0.03719071671366682
2023-01-27 15:12:53.308071,-0.029861641833349276
2023-01-27 15:12:53.313071,-0.02358376979827875
2023-01-27 15:12:53.318071,-0.019766818959444512
2023-01-27 15:12:53.323071,-0.018775662407279032
2023-01-27 15:12:53.328071,-0.020341739089363122
2023-01-27 15:12:53.333071,-0.023054879158735123
2023-01-27 15:12:53.338071,-0.02440933380474635
2023-01-27 15:12:53.343071,-0.02252598665654646
2023-01-27 15:12:53.348071,-0.01751451581435212
2023-01-27 15:12:53.353071,-0.010698040947318039
2023-01-27 15:12:53.358071,-0.0032833616430416154
2023-01-27 15:12:53.363071,0.0036782026290893364
2023-01-27 15:12:53.368071,0.009050213515833821
2023-01-27 15:12:53.373071,0.012308756820857553
2023-01-27 15:12:53.378071,0.013925419307746779
2023-01-27 15:12:53.383071,0.01440028380602583
2023-01-27 15:12:53.388071,0.013569821421168379
2023-01-27 15:12:53.393071,0.011539459228515653
2023-01-27 15:12:53.398071,0.009656803507916815
2023-01-27 15:12:53.403071,0.009832581505179414
2023-01-27 15:12:53.408071,0.013287825957019814
2023-01-27 15:12:53.413071,0.020242135971784533
2023-01-27 15:12:53.418071,0.029882910398099677
2023-01-27 15:12:53.423071,0.03985921666026111
2023-01-27 15:12:53.428071,0.04654878249393087
2023-01-27 15:12:53.433071,0.04692713543772692
2023-01-27 15:12:53.438071,0.04028282743200392
2023-01-27 15:12:53.443071,0.028055310249328547
2023-01-27 15:12:53.448071,0.012728127322112384
2023-01-27 15:12:53.453071,-0.0027406215667723473
2023-01-27 15:12:53.458071,-0.015416565653667263
2023-01-27 15:12:53.463071,-0.02351164817810047
2023-01-27 15:12:53.468071,-0.0270558859061252
2023-01-27 15:12:53.473071,-0.027189850807189855
2023-01-27 15:12:53.478071,-0.025232509599456648
2023-01-27 15:12:53.483071,-0.02271831035614004
2023-01-27 15:12:53.488071,-0.021533401506403198
2023-01-27 15:12:53.493071,-0.023078918457031212
2023-01-27 15:12:53.498071,-0.02728485954973026
2023-01-27 15:12:53.503071,-0.032550893723964615
2023-01-27 15:12:53.508071,-0.03601795256084459
2023-01-27 15:12:53.513071,-0.03346443176269527
2023-01-27 15:12:53.518071,-0.019755382756577355
2023-01-27 15:12:53.523071,0.009255608543753572
2023-01-27 15:12:53.528071,0.05437093250106768
2023-01-27 15:12:53.533071,0.11171638965606685
2023-01-27 15:12:53.538071,0.17261642940772892
2023-01-27 15:12:53.543071,0.22463481128215773
2023-01-27 15:12:53.548071,0.2545483835934981
2023-01-27 15:12:53.553071,0.2530747652053832
2023-01-27 15:12:53.558071,0.2189259685396646
2023-01-27 15:12:53.563071,0.1596772670745848
2023-01-27 15:12:53.568071,0.08928101202397562
2023-01-27 15:12:53.573071,0.02363185212016098
2023-01-27 15:12:53.578071,-0.024455770503385547
2023-01-27 15:12:53.583071,-0.04923502728342995
2023-01-27 15:12:53.588071,-0.05295616653061796
2023-01-27 15:12:53.593071,-0.043224893510341644
2023-01-27 15:12:53.598071,-0.028811273719007848
2023-01-27 15:12:53.603071,-0.016395648941397608
2023-01-27 15:12:53.608071,-0.009095693662375472
2023-01-27 15:12:53.613071,-0.006563067436218053
2023-01-27 15:12:53.618071,-0.006429376452929679
2023-01-27 15:12:53.623071,-0.00629862165078516
2023-01-27 15:12:53.628071,-0.004830163444151992
2023-01-27 15:12:53.633071,-0.0014905135612933668
2023-01-27 15:12:53.638071,0.0038799170117671524
2023-01-27 15:12:53.643071,0.01093844603747128
2023-01-27 15:12:53.648071,0.018854324405919942
2023-01-27 15:12:53.653071,0.026925405487418164
2023-01-27 15:12:53.658071,0.03494075426710932
2023-01-27 15:12:53.663071,0.042744081467389984
2023-01-27 15:12:53.668071,0.04986068066996132
2023-01-27 15:12:53.673071,0.055846177041530554
2023-01-27 15:12:53.678071,0.06062515031905915
2023-01-27 15:12:53.683071,0.06421228498220438
2023-01-27 15:12:53.688071,0.06653687386934931
2023-01-27 15:12:53.693071,0.06796260923147199
2023-01-27 15:12:53.698071,0.06971915385779778
2023-01-27 15:12:53.703071,0.07346789538860311
2023-01-27 15:12:53.708071,0.08056148564125047
2023-01-27 15:12:53.713071,0.09173870086669922
2023-01-27 15:12:53.718071,0.10696132637633397
2023-01-27 15:12:53.723071,0.12508293986320487
2023-01-27 15:12:53.728071,0.14398448956472332
2023-01-27 15:12:53.733071,0.1615524291992186
2023-01-27 15:12:53.738071,0.17659783232268356
2023-01-27 15:12:53.743071,0.18883845210075362
2023-01-27 15:12:53.748071,0.1983768881425748
2023-01-27 15:12:53.753071,0.2054264247417449
2023-01-27 15:12:53.758071,0.21014781407028119
2023-01-27 15:12:53.763071,0.21232604980468744
2023-01-27 15:12:53.768071,0.21135028997878172
2023-01-27 15:12:53.773071,0.20677268505096427
2023-01-27 15:12:53.778071,0.19872712806405482
2023-01-27 15:12:53.783071,0.1876123845577239
2023-01-27 15:12:53.788071,0.17360545030559915
2023-01-27 15:12:53.793071,0.15674433112144465
2023-01-27 15:12:53.798071,0.13733929408103052
2023-01-27 15:12:53.803071,0.11616389453411098
2023-01-27 15:12:53.808071,0.09449542529965688
2023-01-27 15:12:53.813071,0.07411698997020719
2023-01-27 15:12:53.818071,0.0568490511638735
2023-01-27 15:12:53.823071,0.04351337999105442
2023-01-27 15:12:53.828071,0.0332234741706333
2023-01-27 15:12:53.833071,0.02380013465881344
2023-01-27 15:12:53.838071,0.012950304874014553
2023-01-27 15:12:53.843071,-0.00062505406094715
2023-01-27 15:12:53.848071,-0.016524502218989275
2023-01-27 15:12:53.853071,-0.03250281140208237
2023-01-27 15:12:53.858071,-0.045273348234657625
2023-01-27 15:12:53.863071,-0.052095852792263045
2023-01-27 15:12:53.868071,-0.05205056587843163
2023-01-27 15:12:53.873071,-0.046133797615766484
2023-01-27 15:12:53.878071,-0.036525093560712624
2023-01-27 15:12:53.883071,-0.025819540023803756
2023-01-27 15:12:53.888071,-0.016431875020227825
2023-01-27 15:12:53.893071,-0.01012106798589223
2023-01-27 15:12:53.898071,-0.007874898913993063
2023-01-27 15:12:53.903071,-0.010169148445129261
2023-01-27 15:12:53.908071,-0.017009526680923974
2023-01-27 15:12:53.913071,-0.027430256828665657
2023-01-27 15:12:53.918071,-0.03908074713029872
2023-01-27 15:12:53.923071,-0.04865805432200422
2023-01-27 15:12:53.928071,-0.05306198294866714
2023-01-27 15:12:53.933071,-0.0506293773651122
2023-01-27 15:12:53.938071,-0.04205253005879844
2023-01-27 15:12:53.943071,-0.03067572973668564
2023-01-27 15:12:53.948071,-0.021672270248178457
2023-01-27 15:12:53.953071,-0.020049810409545756
2023-01-27 15:12:53.958071,-0.02842751564517478
2023-01-27 15:12:53.963071,-0.04582127183675754
2023-01-27 15:12:53.968071,-0.06793814694182838
2023-01-27 15:12:53.973071,-0.08870959281921371
2023-01-27 15:12:53.978071,-0.1024872603419274
2023-01-27 15:12:53.983071,-0.10606686770915981
2023-01-27 15:12:53.988071,-0.09955975805094472
2023-01-27 15:12:53.993071,-0.08572857081890096
2023-01-27 15:12:53.998071,-0.06846918162437536
2023-01-27 15:12:54.003071,-0.051518879830837194
2023-01-27 15:12:54.008071,-0.03790029766581041
2023-01-27 15:12:54.013071,-0.029930472373962354
2023-01-27 15:12:54.018071,-0.029409545504035534
2023-01-27 15:12:54.023071,-0.03762344643473618
2023-01-27 15:12:54.028071,-0.054924461008623554
2023-01-27 15:12:54.033071,-0.08007904142141342
2023-01-27 15:12:54.038071,-0.1100203694691646
2023-01-27 15:12:54.043071,-0.14049291610717773
2023-01-27 15:12:54.048071,-0.16736845577832163
2023-01-27 15:12:54.053071,-0.18790087103843672
2023-01-27 15:12:54.058071,-0.20131157138343503
2023-01-27 15:12:54.063071,-0.20857572555541984
2023-01-27 15:12:54.068071,-0.21167841452005873
2023-01-27 15:12:54.073071,-0.21275877952575675
2023-01-27 15:12:54.078071,-0.21345359306059328
2023-01-27 15:12:54.083071,-0.214489698410034
2023-01-27 15:12:54.088071,-0.21537563614189786
2023-01-27 15:12:54.093071,-0.2140810191631316
2023-01-27 15:12:54.098071,-0.20687170029223992
2023-01-27 15:12:54.103071,-0.18881440162658683
2023-01-27 15:12:54.108071,-0.1554746830774416
2023-01-27 15:12:54.113071,-0.10563413798809047
2023-01-27 15:12:54.118071,-0.04377883326778783
2023-01-27 15:12:54.123071,0.01930455490946766
2023-01-27 15:12:54.128071,0.0687064611916376
2023-01-27 15:12:54.133071,0.08988758176565166
2023-01-27 15:12:54.138071,0.07395146895500944
2023-01-27 15:12:54.143071,0.02151628397405138
2023-01-27 15:12:54.148071,-0.05690921642523748
2023-01-27 15:12:54.153071,-0.1446278989315031
2023-01-27 15:12:54.158071,-0.22468986348520661
2023-01-27 15:12:54.163071,-0.2850246429443358
2023-01-27 15:12:54.168071,-0.3208663638932688
2023-01-27 15:12:54.173071,-0.334379881620407
2023-01-27 15:12:54.178071,-0.33215276951336653
2023-01-27 15:12:54.183071,-0.3215903043746947
2023-01-27 15:12:54.188071,-0.308068163241759
2023-01-27 15:12:54.193071,-0.294472575187683
2023-01-27 15:12:54.198071,-0.2824850249142644
2023-01-27 15:12:54.203071,-0.2732688188552854
2023-01-27 15:12:54.208071,-0.2667741747818122
2023-01-27 15:12:54.213071,-0.26144087314605696
2023-01-27 15:12:54.218071,-0.25553625870971153
2023-01-27 15:12:54.223071,-0.24865131080150596
2023-01-27 15:12:54.228071,-0.24156251665896508
2023-01-27 15:12:54.233071,-0.23518860340118392
2023-01-27 15:12:54.238071,-0.23037233563836568
2023-01-27 15:12:54.243071,-0.2282168567180633
2023-01-27 15:12:54.248071,-0.22951413512481772
2023-01-27 15:12:54.253071,-0.23357789218425742
2023-01-27 15:12:54.258071,-0.2382886745099901
2023-01-27 15:12:54.263071,-0.24163147807121266
2023-01-27 15:12:54.268071,-0.24294851031353626
2023-01-27 15:12:54.273071,-0.24271330237388605
2023-01-27 15:12:54.278071,-0.24150732768447525
2023-01-27 15:12:54.283071,-0.23917934298515303
2023-01-27 15:12:54.288071,-0.234369508360854
2023-01-27 15:12:54.293071,-0.22463481128215768
2023-01-27 15:12:54.298071,-0.2077173065650279
2023-01-27 15:12:54.303071,-0.1835014522075652
2023-01-27 15:12:54.308071,-0.15498290740911164
2023-01-27 15:12:54.313071,-0.12719850242137892
2023-01-27 15:12:54.318071,-0.10490858038364655
2023-01-27 15:12:54.323071,-0.09058475494384757
2023-01-27 15:12:54.328071,-0.08360717451102491
2023-01-27 15:12:54.333071,-0.08089642226696005
2023-01-27 15:12:54.338071,-0.0788032787626598
2023-01-27 15:12:54.343071,-0.07534305751323689
2023-01-27 15:12:54.348071,-0.07133174600330615
2023-01-27 15:12:54.353071,-0.06971757113933565
2023-01-27 15:12:54.358071,-0.07381466298737543
2023-01-27 15:12:54.363071,-0.08565644919872276
2023-01-27 15:12:54.368071,-0.10511624317835791
2023-01-27 15:12:54.373071,-0.129891037940979
2023-01-27 15:12:54.378071,-0.1562832133142929
2023-01-27 15:12:54.383071,-0.18044829368591292
2023-01-27 15:12:54.388071,-0.1994756187510855
2023-01-27 15:12:54.393071,-0.21189332008361816
2023-01-27 15:12:54.398071,-0.21774010105327418
2023-01-27 15:12:54.403071,-0.2184804379940032
2023-01-27 15:12:54.408071,-0.21673640152869558
2023-01-27 15:12:54.413071,-0.21569173038005823
2023-01-27 15:12:54.418071,-0.21824413016591157
2023-01-27 15:12:54.423071,-0.2261493653059004
2023-01-27 15:12:54.428071,-0.2393862150285301
2023-01-27 15:12:54.433071,-0.2559596300125121
2023-01-27 15:12:54.438071,-0.27232023992428744
2023-01-27 15:12:54.443071,-0.28435152769088734
2023-01-27 15:12:54.448071,-0.2885867307163798
2023-01-27 15:12:54.453071,-0.28322160243988026
2023-01-27 15:12:54.458071,-0.26860915108558353
2023-01-27 15:12:54.463071,-0.2471367567777633
2023-01-27 15:12:54.468071,-0.2226149201229973
2023-01-27 15:12:54.473071,-0.19944033026695251
2023-01-27 15:12:54.478071,-0.18174340426603536
2023-01-27 15:12:54.483071,-0.1726110875606536
2023-01-27 15:12:54.488071,-0.17345816727454852
2023-01-27 15:12:54.493071,-0.18364569544792167
2023-01-27 15:12:54.498071,-0.200417831430052
2023-01-27 15:12:54.503071,-0.21924972534179688
2023-01-27 15:12:54.508071,-0.2347581277830757
2023-01-27 15:12:54.513071,-0.24213632941246027
2023-01-27 15:12:54.518071,-0.23863084890646633
2023-01-27 15:12:54.523071,-0.22439441084861747
2023-01-27 15:12:54.528071,-0.20239125942404992
2023-01-27 15:12:54.533071,-0.17746727168560011
2023-01-27 15:12:54.538071,-0.15487806758141393
2023-01-27 15:12:54.543071,-0.13871392607688895
2023-01-27 15:12:54.548071,-0.13083227039003467
2023-01-27 15:12:54.553071,-0.1306843757629394
2023-01-27 15:12:54.558071,-0.13583431993937753
2023-01-27 15:12:54.563071,-0.14275273680686945
2023-01-27 15:12:54.568071,-0.14780218639721102
2023-01-27 15:12:54.573071,-0.14842629432678223
2023-01-27 15:12:54.578071,-0.1441177115775081
2023-01-27 15:12:54.583071,-0.13657431304454795
2023-01-27 15:12:54.588071,-0.1289583411023071
2023-01-27 15:12:54.593071,-0.12462615966796871
2023-01-27 15:12:54.598071,-0.1257009240002371
2023-01-27 15:12:54.603071,-0.1319825649261474
2023-01-27 15:12:54.608071,-0.14095863138253606
2023-01-27 15:12:54.613071,-0.1491955965757369
2023-01-27 15:12:54.618071,-0.15421893918799073
2023-01-27 15:12:54.623071,-0.1555903851985931
2023-01-27 15:12:54.628071,-0.1547686949893239
2023-01-27 15:12:54.633071,-0.15419602394103998
2023-01-27 15:12:54.638071,-0.15608630356644784
2023-01-27 15:12:54.643071,-0.16136011481285084
2023-01-27 15:12:54.648071,-0.1693411550904747
2023-01-27 15:12:54.653071,-0.1783086955547332
2023-01-27 15:12:54.658071,-0.18600044600198423
2023-01-27 15:12:54.663071,-0.1893192529678344
2023-01-27 15:12:54.668071,-0.18388812636303922
2023-01-27 15:12:54.673071,-0.16465365886688238
2023-01-27 15:12:54.678071,-0.1277088106367094
2023-01-27 15:12:54.683071,-0.07257839292287815
2023-01-27 15:12:54.688071,-0.004208211602157614
2023-01-27 15:12:54.693071,0.06632785499095903
2023-01-27 15:12:54.698071,0.12378121268555918
2023-01-27 15:12:54.703071,0.1534988582134245
2023-01-27 15:12:54.708071,0.14676107219541437
2023-01-27 15:12:54.713071,0.1038791760802267
2023-01-27 15:12:54.718071,0.034166463746623965
2023-01-27 15:12:54.723071,-0.04661460965871807
2023-01-27 15:12:54.728071,-0.12082270629888962
2023-01-27 15:12:54.733071,-0.1744862496852873
2023-01-27 15:12:54.738071,-0.20129530450121697
2023-01-27 15:12:54.743071,-0.20299832522869105
2023-01-27 15:12:54.748071,-0.18696944027557574
2023-01-27 15:12:54.753071,-0.1629948616027833
2023-01-27 15:12:54.758071,-0.13995739291687193
2023-01-27 15:12:54.763071,-0.12270291894674304
2023-01-27 15:12:54.768071,-0.11092762464605964
2023-01-27 15:12:54.773071,-0.10137896239757523
2023-01-27 15:12:54.778071,-0.0912367838031209
2023-01-27 15:12:54.783071,-0.0795501470565795
2023-01-27 15:12:54.788071,-0.06686864351665167
2023-01-27 15:12:54.793071,-0.055028796195983845
2023-01-27 15:12:54.798071,-0.04672005824926168
2023-01-27 15:12:54.803071,-0.04353741928935047
2023-01-27 15:12:54.808071,-0.04441855167870729
2023-01-27 15:12:54.813071,-0.04714350029826164
2023-01-27 15:12:54.818071,-0.05078888590964887
2023-01-27 15:12:54.823071,-0.05490859597921375
2023-01-27 15:12:54.828071,-0.05687210629779986
2023-01-27 15:12:54.833071,-0.052817068994045334
2023-01-27 15:12:54.838071,-0.04184968923925745
2023-01-27 15:12:54.843071,-0.026805203408002815
2023-01-27 15:12:54.848071,-0.009912052995076503
2023-01-27 15:12:54.853071,0.009592175483703651
2023-01-27 15:12:54.858071,0.03178171623460914
2023-01-27 15:12:54.863071,0.05255262181162834
2023-01-27 15:12:54.868071,0.06676230685230007
2023-01-27 15:12:54.873071,0.07378041744232161
2023-01-27 15:12:54.878071,0.07742273577573013
2023-01-27 15:12:54.883071,0.08111278712749485
2023-01-27 15:12:54.888071,0.08552837535413269
2023-01-27 15:12:54.893071,0.09046455472707733
2023-01-27 15:12:54.898071,0.09611663463231487
2023-01-27 15:12:54.903071,0.10190784931182863
2023-01-27 15:12:54.908071,0.10618543286897321
2023-01-27 15:12:54.913071,0.10803818702697746
2023-01-27 15:12:54.918071,0.10814180410609849
2023-01-27 15:12:54.923071,0.10731697082519523
2023-01-27 15:12:54.928071,0.105525193590317
2023-01-27 15:12:54.933071,0.10270118713378898
2023-01-27 15:12:54.938071,0.09916410906673483
2023-01-27 15:12:54.943071,0.09438316524028774
2023-01-27 15:12:54.948071,0.08625938574614592
2023-01-27 15:12:54.953071,0.0723620280623434
2023-01-27 15:12:54.958071,0.05142620066427894
2023-01-27 15:12:54.963071,0.023679932579398117
2023-01-27 15:12:54.968071,-0.009026177577998642
2023-01-27 15:12:54.973071,-0.04276812076568592
2023-01-27 15:12:54.978071,-0.07226881973835901
2023-01-27 15:12:54.983071,-0.09325325489044176
2023-01-27 15:12:54.988071,-0.10430885588105011
2023-01-27 15:12:54.993071,-0.10669191926717754
2023-01-27 15:12:54.998071,-0.10317930810335074
2023-01-27 15:12:55.003071,-0.09724398702383039
2023-01-27 15:12:55.008071,-0.09207908467897595
2023-01-27 15:12:55.013071,-0.08921444416046134
2023-01-27 15:12:55.018071,-0.08804386281208762
2023-01-27 15:12:55.023071,-0.08693059533834446
2023-01-27 15:12:55.028071,-0.08448483184047875
2023-01-27 15:12:55.033071,-0.07979055494070045
2023-01-27 15:12:55.038071,-0.07227961498203012
2023-01-27 15:12:55.043071,-0.062096714973449686
2023-01-27 15:12:55.048071,-0.050370317824602086
2023-01-27 15:12:55.053071,-0.038825474679469986
2023-01-27 15:12:55.058071,-0.02939049733317904
2023-01-27 15:12:55.063071,-0.024184783920645637
2023-01-27 15:12:55.068071,-0.025047937703430497
2023-01-27 15:12:55.073071,-0.0322624072432518
2023-01-27 15:12:55.078071,-0.04372021673462052
2023-01-27 15:12:55.083071,-0.055605769157409474
2023-01-27 15:12:55.088071,-0.06397225757165928
2023-01-27 15:12:55.093071,-0.06608744710683803
2023-01-27 15:12:55.098071,-0.06123835315236385
2023-01-27 15:12:55.103071,-0.05082170292735075
2023-01-27 15:12:55.108071,-0.037254634763528166
2023-01-27 15:12:55.113071,-0.022189419716596527
2023-01-27 15:12:55.118071,-0.00572851131227003
2023-01-27 15:12:55.123071,0.0125010814517737
2023-01-27 15:12:55.128071,0.03161958595639324
2023-01-27 15:12:55.133071,0.04877825826406471
2023-01-27 15:12:55.138071,0.05984174683468501
2023-01-27 15:12:55.143071,0.060990851372480316
2023-01-27 15:12:55.148071,0.050689650959932255
2023-01-27 15:12:55.153071,0.031012296676635666
2023-01-27 15:12:55.158071,0.007070940851018842
2023-01-27 15:12:55.163071,-0.015409986488520946
2023-01-27 15:12:55.168071,-0.03260457832968457
2023-01-27 15:12:55.173071,-0.04356145858764633
2023-01-27 15:12:55.178071,-0.049631050614317586
2023-01-27 15:12:55.183071,-0.0531536340713499
2023-01-27 15:12:55.188071,-0.05599220121081794
2023-01-27 15:12:55.193071,-0.05853871628642078
2023-01-27 15:12:55.198071,-0.059920528567575314
2023-01-27 15:12:55.203071,-0.05918781086802471
2023-01-27 15:12:55.208071,-0.05614749239020985
2023-01-27 15:12:55.213071,-0.0509659461677074
2023-01-27 15:12:55.218071,-0.043104245522324766
2023-01-27 15:12:55.223071,-0.030603608116507492
2023-01-27 15:12:55.228071,-0.010161858649039231
2023-01-27 15:12:55.233071,0.021804770454764175
2023-01-27 15:12:55.238071,0.06697292899449862
2023-01-27 15:12:55.243071,0.12255867570638652
2023-01-27 15:12:55.248071,0.18019127308463226
2023-01-27 15:12:55.253071,0.22749564051628102
2023-01-27 15:12:55.258071,0.25192939463399455
2023-01-27 15:12:55.263071,0.24526159465312947
2023-01-27 15:12:55.268071,0.20698978519322886
2023-01-27 15:12:55.273071,0.1452289074659347
2023-01-27 15:12:55.278071,0.07427622023273492
2023-01-27 15:12:55.283071,0.009664297103881912
2023-01-27 15:12:55.288071,-0.03692757547404062
2023-01-27 15:12:55.293071,-0.06060620397329326
2023-01-27 15:12:55.298071,-0.06325880345650117
2023-01-27 15:12:55.303071,-0.05125443264842026
2023-01-27 15:12:55.308071,-0.03217553103208335
2023-01-27 15:12:55.313071,-0.012092391960322819
2023-01-27 15:12:55.318071,0.005534149613895503
2023-01-27 15:12:55.323071,0.019400715827941836
2023-01-27 15:12:55.328071,0.029414618954838885
2023-01-27 15:12:55.333071,0.03613293170928951
2023-01-27 15:12:55.338071,0.04061794619311847
2023-01-27 15:12:55.343071,0.04430671781301494
2023-01-27 15:12:55.348071,0.04863107060648023
2023-01-27 15:12:55.353071,0.05437970161437984
2023-01-27 15:12:55.358071,0.06108478640399293
2023-01-27 15:12:55.363071,0.06697694957256317
2023-01-27 15:12:55.368071,0.0698320583875585
2023-01-27 15:12:55.373071,0.0683232173323632
2023-01-27 15:12:55.378071,0.06304930435562346
2023-01-27 15:12:55.383071,0.05663951486349106
2023-01-27 15:12:55.388071,0.05282184642062727
2023-01-27 15:12:55.393071,0.05481243133544914
2023-01-27 15:12:55.398071,0.06386775757802442
2023-01-27 15:12:55.403071,0.07890105247497549
2023-01-27 15:12:55.408071,0.09727474395562324
2023-01-27 15:12:55.413071,0.11601965129375454
2023-01-27 15:12:55.418071,0.13281872548192625
2023-01-27 15:12:55.423071,0.1466232538223266
2023-01-27 15:12:55.428071,0.15774202340246846
2023-01-27 15:12:55.433071,0.1672019660472869
2023-01-27 15:12:55.438071,0.17592503062621312
2023-01-27 15:12:55.443071,0.18463134765624994
2023-01-27 15:12:55.448071,0.19419608857420728
2023-01-27 15:12:55.453071,0.20523409545421603
2023-01-27 15:12:55.458071,0.2170090429638778
2023-01-27 15:12:55.463071,0.22737543284893028
2023-01-27 15:12:55.468071,0.23421477263015875
2023-01-27 15:12:55.473071,0.23643872141838065
2023-01-27 15:12:55.478071,0.23335408978144354
2023-01-27 15:12:55.483071,0.22408187389373768
2023-01-27 15:12:55.488071,0.20868542047506639
2023-01-27 15:12:55.493071,0.18943946063518508
2023-01-27 15:12:55.498071,0.169818332226641
2023-01-27 15:12:55.503071,0.1520564258098602
2023-01-27 15:12:55.508071,0.13621239436418214
2023-01-27 15:12:55.513071,0.12128452956676475
2023-01-27 15:12:55.518071,0.10628823948946384
2023-01-27 15:12:55.523071,0.09034435451030727
2023-01-27 15:12:55.528071,0.07292456531974037
2023-01-27 15:12:55.533071,0.05462010949850078
2023-01-27 15:12:55.538071,0.037133861032717326
2023-01-27 15:12:55.543071,0.022093256935477198
2023-01-27 15:12:55.548071,0.010100839439146398
2023-01-27 15:12:55.553071,0.0008895000210030919
2023-01-27 15:12:55.558071,-0.00622380544270796
2023-01-27 15:12:55.563071,-0.012164513580500965
2023-01-27 15:12:55.568071,-0.01761911435532422
2023-01-27 15:12:55.573071,-0.022189419716596544
2023-01-27 15:12:55.578071,-0.024321383070499962
2023-01-27 15:12:55.583071,-0.022429823875427187
2023-01-27 15:12:55.588071,-0.016038928253642077
2023-01-27 15:12:55.593071,-0.005986094474792442
2023-01-27 15:12:55.598071,0.005875561871085532
2023-01-27 15:12:55.603071,0.01699666306376455
2023-01-27 15:12:55.608071,0.02484649218830422
2023-01-27 15:12:55.613071,0.028031270951032656
2023-01-27 15:12:55.618071,0.026851413977002966
2023-01-27 15:12:55.623071,0.022814473137259445
2023-01-27 15:12:55.628071,0.01786429251118767
2023-01-27 15:12:55.633071,0.013943513855337982
2023-01-27 15:12:55.638071,0.012512338574908445
2023-01-27 15:12:55.643071,0.013847351074218769
2023-01-27 15:12:55.648071,0.016854132649993383
2023-01-27 15:12:55.653071,0.01978536508977415
2023-01-27 15:12:55.658071,0.021140528596727107
2023-01-27 15:12:55.663071,0.020097892731428164
2023-01-27 15:12:55.668071,0.016752180351196293
2023-01-27 15:12:55.673071,0.012380878441035748
2023-01-27 15:12:55.678071,0.009240565365218344
2023-01-27 15:12:55.683071,0.009664297103881893
2023-01-27 15:12:55.688071,0.015115663940716046
2023-01-27 15:12:55.693071,0.025723379105329437
2023-01-27 15:12:55.698071,0.04004987530287561
2023-01-27 15:12:55.703071,0.05500475689768795
2023-01-27 15:12:55.708071,0.06647154678455089
2023-01-27 15:12:55.713071,0.07079939544200889
2023-01-27 15:12:55.718071,0.06626630510107775
2023-01-27 15:12:55.723071,0.05363444611430166
2023-01-27 15:12:55.728071,0.035802008702013
2023-01-27 15:12:55.733071,0.016852419823408203
2023-01-27 15:12:55.738071,0.0006250591741319908
2023-01-27 15:12:55.743071,-0.010673999786376858
2023-01-27 15:12:55.748071,-0.016895516114705193
2023-01-27 15:12:55.753071,-0.019232433289289343
2023-01-27 15:12:55.758071,-0.019289574060813323
2023-01-27 15:12:55.763071,-0.018679499626159553
2023-01-27 15:12:55.768071,-0.01891906758118576
2023-01-27 15:12:55.773071,-0.021251838654279622
2023-01-27 15:12:55.778071,-0.02649323485625187
2023-01-27 15:12:55.783071,-0.03485878556966776
2023-01-27 15:12:55.788071,-0.04537847448726515
2023-01-27 15:12:55.793071,-0.05505283921957004
2023-01-27 15:12:55.798071,-0.05869826729209539
2023-01-27 15:12:55.803071,-0.05005240440368648
2023-01-27 15:12:55.808071,-0.023704348960775008
2023-01-27 15:12:55.813071,0.02276639267802235
2023-01-27 15:12:55.818071,0.08676634306114203
2023-01-27 15:12:55.823071,0.1595330238342284
2023-01-27 15:12:55.828071,0.22710629431082097
2023-01-27 15:12:55.833071,0.27382177114486683
2023-01-27 15:12:55.838071,0.2870937410349479
2023-01-27 15:12:55.843071,0.26163321733474737
2023-01-27 15:12:55.848071,0.2017036802485536
2023-01-27 15:12:55.853071,0.12046714872121814
2023-01-27 15:12:55.858071,0.036113373913146965
2023-01-27 15:12:55.863071,-0.03399332612752905
2023-01-27 15:12:55.868071,-0.0785437214398301
2023-01-27 15:12:55.873071,-0.0947437733411787
2023-01-27 15:12:55.878071,-0.08761185940188687
2023-01-27 15:12:55.883071,-0.06692886352539057
2023-01-27 15:12:55.888071,-0.0430556519202792
2023-01-27 15:12:55.893071,-0.02324720285832877
2023-01-27 15:12:55.898071,-0.010096122222586445
2023-01-27 15:12:55.903071,-0.0024521350860594944
2023-01-27 15:12:55.908071,0.0024260005863732015
2023-01-27 15:12:55.913071,0.006923675537109375
2023-01-27 15:12:55.918071,0.011908866870689053
2023-01-27 15:12:55.923071,0.01653989218175413
2023-01-27 15:12:55.928071,0.019195212634023563
2023-01-27 15:12:55.933071,0.0189920272678137
2023-01-27 15:12:55.938071,0.016644602816796816
2023-01-27 15:12:55.943071,0.014039675705134869
2023-01-27 15:12:55.948071,0.013223278340656008
2023-01-27 15:12:55.953071,0.015698473900556554
2023-01-27 15:12:55.958071,0.02213112319828167
2023-01-27 15:12:55.963071,0.03228644654154778
2023-01-27 15:12:55.968071,0.0453258235388999
2023-01-27 15:12:55.973071,0.06034175679087631
2023-01-27 15:12:55.978071,0.07649867839994126
2023-01-27 15:12:55.983071,0.09262820333242405
2023-01-27 15:12:55.988071,0.10708858217702212
2023-01-27 15:12:55.993071,0.11847178637981412
2023-01-27 15:12:55.998071,0.12656095882451376
2023-01-27 15:12:56.003071,0.1326316595077514
2023-01-27 15:12:56.008071,0.13899375999416322
2023-01-27 15:12:56.013071,0.14811377227306355
2023-01-27 15:12:56.018071,0.1614518059573082
2023-01-27 15:12:56.023071,0.17840485274791706
2023-01-27 15:12:56.028071,0.1963025759444521
2023-01-27 15:12:56.033071,0.21182119846343986
2023-01-27 15:12:56.038071,0.22272684585483607
2023-01-27 15:12:56.043071,0.22857746481895436
2023-01-27 15:12:56.048071,0.23031928179360728
2023-01-27 15:12:56.053071,0.22961120307445515
2023-01-27 15:12:56.058071,0.2281581502550986
2023-01-27 15:12:56.063071,0.22679845988750438
2023-01-27 15:12:56.068071,0.22469318142361078
2023-01-27 15:12:56.073071,0.21951417624950387
2023-01-27 15:12:56.078071,0.20877916465676974
2023-01-27 15:12:56.083071,0.19136270880699138
2023-01-27 15:12:56.088071,0.1682157633113678
2023-01-27 15:12:56.093071,0.14217576384544367
2023-01-27 15:12:56.098071,0.11719147831494532
2023-01-27 15:12:56.103071,0.09714782238006588
2023-01-27 15:12:56.108071,0.08450062586214621
2023-01-27 15:12:56.113071,0.07926166057586669
2023-01-27 15:12:56.118071,0.07892420584872288
2023-01-27 15:12:56.123071,0.07945398986339555
2023-01-27 15:12:56.128071,0.07690530947472533
2023-01-27 15:12:56.133071,0.0689723119139671
2023-01-27 15:12:56.138071,0.055879953455368
2023-01-27 15:12:56.143071,0.04029194638133037
2023-01-27 15:12:56.148071,0.02623975263832346
2023-01-27 15:12:56.153071,0.01742939278483387
2023-01-27 15:12:56.158071,0.01562545095962183
2023-01-27 15:12:56.163071,0.01992960833013046
2023-01-27 15:12:56.168071,0.02738854910220339
2023-01-27 15:12:56.173071,0.034594338387250886
2023-01-27 15:12:56.178071,0.0393523011888004
2023-01-27 15:12:56.183071,0.041518013924360206
2023-01-27 15:12:56.188071,0.04261819519015599
2023-01-27 15:12:56.193071,0.04452308267354968
2023-01-27 15:12:56.198071,0.04799994239539307
2023-01-27 15:12:56.203071,0.052143931388854904
2023-01-27 15:12:56.208071,0.055130217320264976
2023-01-27 15:12:56.213071,0.05572597309947006
2023-01-27 15:12:56.218071,0.05441956016930886
2023-01-27 15:12:56.223071,0.05336999893188475
2023-01-27 15:12:56.228071,0.0552222634863383
2023-01-27 15:12:56.233071,0.06149570271372794
2023-01-27 15:12:56.238071,0.07149145804978865
2023-01-27 15:12:56.243071,0.08243501186370834
2023-01-27 15:12:56.248071,0.0908362558701122
2023-01-27 15:12:56.253071,0.094214878976345
2023-01-27 15:12:56.258071,0.09215872980831875
2023-01-27 15:12:56.263071,0.0863055437803268
2023-01-27 15:12:56.268071,0.07953829873809422
2023-01-27 15:12:56.273071,0.0748862847685813
2023-01-27 15:12:56.278071,0.07452950156718376
2023-01-27 15:12:56.283071,0.07921358197927465
2023-01-27 15:12:56.288071,0.08818437521393431
2023-01-27 15:12:56.293071,0.099455714225769
2023-01-27 15:12:56.298071,0.1102025958234073
2023-01-27 15:12:56.303071,0.11734187602996815
2023-01-27 15:12:56.308071,0.11839032030110833
2023-01-27 15:12:56.313071,0.11231740564107887
2023-01-27 15:12:56.318071,0.0999113308691966
2023-01-27 15:12:56.323071,0.08349280059337605
2023-01-27 15:12:56.328071,0.06620372494843024
2023-01-27 15:12:56.333071,0.05115827172994611
2023-01-27 15:12:56.338071,0.040677698758928064
2023-01-27 15:12:56.343071,0.03584444522857653
2023-01-27 15:12:56.348071,0.036490968477590514
2023-01-27 15:12:56.353071,0.04144589230418201
2023-01-27 15:12:56.358071,0.04879442683982626
2023-01-27 15:12:56.363071,0.056182742118835394
2023-01-27 15:12:56.368071,0.06134518472209193
2023-01-27 15:12:56.373071,0.06281793117523195
2023-01-27 15:12:56.378071,0.06058752895394806
2023-01-27 15:12:56.383071,0.05647122859954822
2023-01-27 15:12:56.388071,0.054104746822951924
2023-01-27 15:12:56.393071,0.058370433747768416
2023-01-27 15:12:56.398071,0.07415982199458913
2023-01-27 15:12:56.403071,0.10462443530559529
2023-01-27 15:12:56.408071,0.1493280295712085
2023-01-27 15:12:56.413071,0.20292620360851266
2023-01-27 15:12:56.418071,0.2552147271667616
2023-01-27 15:12:56.423071,0.29324650764465326
2023-01-27 15:12:56.428071,0.3053062813778438
2023-01-27 15:12:56.433071,0.28528910875320423
2023-01-27 15:12:56.438071,0.2354924123847033
2023-01-27 15:12:56.443071,0.1664326637983321
2023-01-27 15:12:56.448071,0.09357440444990436
2023-01-27 15:12:56.453071,0.03221432492136945
2023-01-27 15:12:56.458071,-0.007296665427839296
2023-01-27 15:12:56.463071,-0.021924972534179597
2023-01-27 15:12:56.468071,-0.015239084133678136
2023-01-27 15:12:56.473071,0.005361040588468377
2023-01-27 15:12:56.478071,0.031730654076700615
2023-01-27 15:12:56.483071,0.05714436620473862
2023-01-27 15:12:56.488071,0.07717375143308927
2023-01-27 15:12:56.493071,0.0895750522613525
2023-01-27 15:12:56.498071,0.09385637302933483
2023-01-27 15:12:56.503071,0.09108960628509521
2023-01-27 15:12:56.508071,0.08388857631950977
2023-01-27 15:12:56.513071,0.07596810907125467
2023-01-27 15:12:56.518071,0.0710150623198414
2023-01-27 15:12:56.523071,0.07132828235626217
2023-01-27 15:12:56.528071,0.0769213894059627
2023-01-27 15:12:56.533071,0.08548816293478008
2023-01-27 15:12:56.538071,0.09332949346229218
2023-01-27 15:12:56.543071,0.09702762216329566
2023-01-27 15:12:56.548071,0.09513962440333303
2023-01-27 15:12:56.553071,0.088974043726921
2023-01-27 15:12:56.558071,0.08209284434238152
2023-01-27 15:12:56.563071,0.07894913852214809
2023-01-27 15:12:56.568071,0.08324234528109511
2023-01-27 15:12:56.573071,0.09645064920186992
2023-01-27 15:12:56.578071,0.11713986282819303
2023-01-27 15:12:56.583071,0.14157474040985094
2023-01-27 15:12:56.588071,0.16535757216473973
2023-01-27 15:12:56.593071,0.18508812785148615
2023-01-27 15:12:56.598071,0.19929637668652853
2023-01-27 15:12:56.603071,0.20855168998241405
2023-01-27 15:12:56.608071,0.21478132733170519
2023-01-27 15:12:56.613071,0.21992287039756758
2023-01-27 15:12:56.618071,0.22470853294291335
2023-01-27 15:12:56.623071,0.22862553596496574
2023-01-27 15:12:56.628071,0.23096246982814944
2023-01-27 15:12:56.633071,0.23167869448661788
2023-01-27 15:12:56.638071,0.23135042931257832
2023-01-27 15:12:56.643071,0.23071706295013408
2023-01-27 15:12:56.648071,0.230345180278662
2023-01-27 15:12:56.653071,0.23011605441570265
2023-01-27 15:12:56.658071,0.22855106056243046
2023-01-27 15:12:56.663071,0.22297601401805855
2023-01-27 15:12:56.668071,0.21103146107625737
2023-01-27 15:12:56.673071,0.19232432544231404
2023-01-27 15:12:56.678071,0.1686878833990164
2023-01-27 15:12:56.683071,0.1431133449077605
2023-01-27 15:12:56.688071,0.1185486289796208
2023-01-27 15:12:56.693071,0.09717186540365201
2023-01-27 15:12:56.698071,0.07998264872469016
2023-01-27 15:12:56.703071,0.06676058471202827
2023-01-27 15:12:56.708071,0.056594256608585546
2023-01-27 15:12:56.713071,0.04858593270182587
2023-01-27 15:12:56.718071,0.042085435014200034
2023-01-27 15:12:56.723071,0.036517582833766805
2023-01-27 15:12:56.728071,0.03136648370676876
2023-01-27 15:12:56.733071,0.02639651298522936
2023-01-27 15:12:56.738071,0.02171479252506998
2023-01-27 15:12:56.743071,0.01759767532348627
2023-01-27 15:12:56.748071,0.014357127359249242
2023-01-27 15:12:56.753071,0.012284716591238976
2023-01-27 15:12:56.758071,0.0115253670205639
2023-01-27 15:12:56.763071,0.012020270340144634
2023-01-27 15:12:56.768071,0.013727825268471633
2023-01-27 15:12:56.773071,0.016876459121704063
2023-01-27 15:12:56.778071,0.021833042861453236
2023-01-27 15:12:56.783071,0.028656324371695574
2023-01-27 15:12:56.788071,0.036754899191881844
2023-01-27 15:12:56.793071,0.044835608452558566
2023-01-27 15:12:56.798071,0.051115525268196106
2023-01-27 15:12:56.803071,0.05387485027313225
2023-01-27 15:12:56.808071,0.052292012672630596
2023-01-27 15:12:56.813071,0.04704733937978734
2023-01-27 15:12:56.818071,0.04017762972761537
2023-01-27 15:12:56.823071,0.03428181260824207
2023-01-27 15:12:56.828071,0.03159556879520261
2023-01-27 15:12:56.833071,0.033296149224042816
2023-01-27 15:12:56.838071,0.03920230025385005
2023-01-27 15:12:56.843071,0.048008959740400294
2023-01-27 15:12:56.848071,0.057938619751391446
2023-01-27 15:12:56.853071,0.06731351464986791
2023-01-27 15:12:56.858071,0.07469209490279471
2023-01-27 15:12:56.863071,0.0787568092346191
2023-01-27 15:12:56.868071,0.07829999561961626
2023-01-27 15:12:56.873071,0.07236202806234343
2023-01-27 15:12:56.878071,0.06046761092754236
2023-01-27 15:12:56.883071,0.043008528649806824
2023-01-27 15:12:56.888071,0.02163190042967752
2023-01-27 15:12:56.893071,-0.0007933378219603545
2023-01-27 15:12:56.898071,-0.02082889034085402
2023-01-27 15:12:56.903071,-0.03543575853109354
2023-01-27 15:12:56.908071,-0.04288827669579416
2023-01-27 15:12:56.913071,-0.04344125837087635
2023-01-27 15:12:56.918071,-0.03941092406263815
2023-01-27 15:12:56.923071,-0.03425776958465572
2023-01-27 15:12:56.928071,-0.03092914871450455
2023-01-27 15:12:56.933071,-0.030507445335388125
2023-01-27 15:12:56.938071,-0.031994107576857854
2023-01-27 15:12:56.943071,-0.033103823661804095
2023-01-27 15:12:56.948071,-0.031394832017893
2023-01-27 15:12:56.953071,-0.02512236498296258
2023-01-27 15:12:56.958071,-0.013370031941849408
2023-01-27 15:12:56.963071,0.004567702766507816
2023-01-27 15:12:56.968071,0.029725887770198228
2023-01-27 15:12:56.973071,0.06279389560222617
2023-01-27 15:12:56.978071,0.10219662127075704
2023-01-27 15:12:56.983071,0.142416164278984
2023-01-27 15:12:56.988071,0.17422935727180802
2023-01-27 15:12:56.993071,0.18734793365001656
2023-01-27 15:12:56.998071,0.17457363475569734
2023-01-27 15:12:57.003071,0.1356126964092255
2023-01-27 15:12:57.008071,0.07833171523749123
2023-01-27 15:12:57.013071,0.01620332524180402
2023-01-27 15:12:57.018071,-0.03699300405578677
2023-01-27 15:12:57.023071,-0.07231394946575151
2023-01-27 15:12:57.028071,-0.08808502624292058
2023-01-27 15:12:57.033071,-0.08892595767974842
2023-01-27 15:12:57.038071,-0.08230821039003482
2023-01-27 15:12:57.043071,-0.074501633644104
2023-01-27 15:12:57.048071,-0.06806140104918612
2023-01-27 15:12:57.053071,-0.06209671497344965
2023-01-27 15:12:57.058071,-0.054550707331443946
2023-01-27 15:12:57.063071,-0.04445096105337135
2023-01-27 15:12:57.068071,-0.03279525553203452
2023-01-27 15:12:57.073071,-0.022117298096418322
2023-01-27 15:12:57.078071,-0.015248301454317773
2023-01-27 15:12:57.083071,-0.013823310844600124
2023-01-27 15:12:57.088071,-0.017432207778771004
2023-01-27 15:12:57.093071,-0.024112662300467394
2023-01-27 15:12:57.098071,-0.0316447442011274
2023-01-27 15:12:57.103071,-0.03841678425669668
2023-01-27 15:12:57.108071,-0.04350499272111699
2023-01-27 15:12:57.113071,-0.04649440571665766
2023-01-27 15:12:57.118071,-0.04720329397639015
2023-01-27 15:12:57.123071,-0.04514813423156733
2023-01-27 15:12:57.128071,-0.0392716044620386
2023-01-27 15:12:57.133071,-0.0286082439124584
2023-01-27 15:12:57.138071,-0.013319058237772538
2023-01-27 15:12:57.143071,0.005096594803035221
2023-01-27 15:12:57.148071,0.024418204316505692
2023-01-27 15:12:57.153071,0.042287312448024694
2023-01-27 15:12:57.158071,0.05672765616566534
2023-01-27 15:12:57.163071,0.06702502816915507
2023-01-27 15:12:57.168071,0.07424062448369408
2023-01-27 15:12:57.173071,0.08034348487853996
2023-01-27 15:12:57.178071,0.08674355185291346
2023-01-27 15:12:57.183071,0.0938302278518675
2023-01-27 15:12:57.188071,0.10132366592176718
2023-01-27 15:12:57.193071,0.10818243026733375
2023-01-27 15:12:57.198071,0.11248382678522713
2023-01-27 15:12:57.203071,0.11250972747802723
2023-01-27 15:12:57.208071,0.10807290261320107
2023-01-27 15:12:57.213071,0.10010480880737294
2023-01-27 15:12:57.218071,0.08929356144817976
2023-01-27 15:12:57.223071,0.0761604309082031
2023-01-27 15:12:57.228071,0.06195183113853188
2023-01-27 15:12:57.233071,0.04772047325968737
2023-01-27 15:12:57.238071,0.0325412416031742
2023-01-27 15:12:57.243071,0.014592608436942128
2023-01-27 15:12:57.248071,-0.005529496901918302
2023-01-27 15:12:57.253071,-0.024569433182477913
2023-01-27 15:12:57.258071,-0.04054704289255073
2023-01-27 15:12:57.263071,-0.05493263527750962
2023-01-27 15:12:57.268071,-0.06954295182198193
2023-01-27 15:12:57.273071,-0.08320431411266313
2023-01-27 15:12:57.278071,-0.09357313102072631
2023-01-27 15:12:57.283071,-0.100946232676506
2023-01-27 15:12:57.288071,-0.10786982038954109
2023-01-27 15:12:57.293071,-0.11553883552551246
2023-01-27 15:12:57.298071,-0.12279094880275153
2023-01-27 15:12:57.303071,-0.12844860553741447
2023-01-27 15:12:57.308071,-0.13248490533936969
2023-01-27 15:12:57.313071,-0.13460299372673024
2023-01-27 15:12:57.318071,-0.1335731897992738
2023-01-27 15:12:57.323071,-0.12868902087211592
2023-01-27 15:12:57.328071,-0.12064613258491326
2023-01-27 15:12:57.333071,-0.11056244373321536
2023-01-27 15:12:57.338071,-0.09932803621888606
2023-01-27 15:12:57.343071,-0.08832494914531697
2023-01-27 15:12:57.348071,-0.0795392689093772
2023-01-27 15:12:57.353071,-0.07421314716339109
2023-01-27 15:12:57.358071,-0.07208404992815999
2023-01-27 15:12:57.363071,-0.07231394946575156
2023-01-27 15:12:57.368071,-0.07438786938899776
2023-01-27 15:12:57.373071,-0.07781922817230215
2023-01-27 15:12:57.378071,-0.08190419543739202
2023-01-27 15:12:57.383071,-0.08628150075674042
2023-01-27 15:12:57.388071,-0.0910352216895429
2023-01-27 15:12:57.393071,-0.09580155462026593
2023-01-27 15:12:57.398071,-0.09938716686135554
2023-01-27 15:12:57.403071,-0.1006577461957931
2023-01-27 15:12:57.408071,-0.09928467114926202
2023-01-27 15:12:57.413071,-0.09541690349578848
2023-01-27 15:12:57.418071,-0.08933741794792426
2023-01-27 15:12:57.423071,-0.08180996030569065
2023-01-27 15:12:57.428071,-0.07409920461270875
2023-01-27 15:12:57.433071,-0.06714522838592524
2023-01-27 15:12:57.438071,-0.06111302234706428
2023-01-27 15:12:57.443071,-0.056038498878478955
2023-01-27 15:12:57.448071,-0.05246874546257892
2023-01-27 15:12:57.453071,-0.051254432648420285
2023-01-27 15:12:57.458071,-0.05325250393021349
2023-01-27 15:12:57.463071,-0.059452258050441624
2023-01-27 15:12:57.468071,-0.07066453022076209
2023-01-27 15:12:57.473071,-0.08642574399709697
2023-01-27 15:12:57.478071,-0.10437737890617967
2023-01-27 15:12:57.483071,-0.12102007865905759
2023-01-27 15:12:57.488071,-0.13301804509788867
2023-01-27 15:12:57.493071,-0.1381129026412963
2023-01-27 15:12:57.498071,-0.13584182215303553
2023-01-27 15:12:57.503071,-0.12808799743652338
2023-01-27 15:12:57.508071,-0.11854221590015718
2023-01-27 15:12:57.513071,-0.1108268946409224
2023-01-27 15:12:57.518071,-0.10658768684715106
2023-01-27 15:12:57.523071,-0.10469655692577359
2023-01-27 15:12:57.528071,-0.10136052853725915
2023-01-27 15:12:57.533071,-0.09084920585155476
2023-01-27 15:12:57.538071,-0.0673209528881523
2023-01-27 15:12:57.543071,-0.02764662168920038
2023-01-27 15:12:57.548071,0.026210622317400074
2023-01-27 15:12:57.553071,0.0865459442138671
2023-01-27 15:12:57.558071,0.14106813853303307
2023-01-27 15:12:57.563071,0.17566423118114466
2023-01-27 15:12:57.568071,0.17872870532746432
2023-01-27 15:12:57.573071,0.14587800204753865
2023-01-27 15:12:57.578071,0.08256274564681694
2023-01-27 15:12:57.583071,0.00293294596485786
2023-01-27 15:12:57.588071,-0.07445152667690859
2023-01-27 15:12:57.593071,-0.13234317302703852
2023-01-27 15:12:57.598071,-0.16025073075470855
2023-01-27 15:12:57.603071,-0.15763382613658894
2023-01-27 15:12:57.608071,-0.1330937594441757
2023-01-27 15:12:57.613071,-0.09988844394683827
2023-01-27 15:12:57.618071,-0.07044712169365806
2023-01-27 15:12:57.623071,-0.05252858251333225
2023-01-27 15:12:57.628071,-0.047871846462986534
2023-01-27 15:12:57.633071,-0.05310555547475813
2023-01-27 15:12:57.638071,-0.06241544318327675
2023-01-27 15:12:57.643071,-0.07067918777465822
2023-01-27 15:12:57.648071,-0.07523222920536475
2023-01-27 15:12:57.653071,-0.07565557956695554
2023-01-27 15:12:57.658071,-0.07274287625602797
2023-01-27 15:12:57.663071,-0.06779432296752923
2023-01-27 15:12:57.668071,-0.062184585810409664
2023-01-27 15:12:57.673071,-0.05692800134420395
2023-01-27 15:12:57.678071,-0.052524527298144046
2023-01-27 15:12:57.683071,-0.04911482334136961
2023-01-27 15:12:57.688071,-0.046385043045217095
2023-01-27 15:12:57.693071,-0.04320085048675535
2023-01-27 15:12:57.698071,-0.03778538355994851
2023-01-27 15:12:57.703071,-0.028680365532636528
2023-01-27 15:12:57.708071,-0.015582904262637034
2023-01-27 15:12:57.713071,0.000625054060947112
2023-01-27 15:12:57.718071,0.018290333541035087
2023-01-27 15:12:57.723071,0.03543575853109342
2023-01-27 15:12:57.728071,0.050413826547513314
2023-01-27 15:12:57.733071,0.0626496523618698
2023-01-27 15:12:57.738071,0.07276815560479495
2023-01-27 15:12:57.743071,0.08195420354604716
2023-01-27 15:12:57.748071,0.09130755958908571
2023-01-27 15:12:57.753071,0.10161936283111558
2023-01-27 15:12:57.758071,0.11314545140636861
2023-01-27 15:12:57.763071,0.12522718310356132
2023-01-27 15:12:57.768071,0.1363434111201387
2023-01-27 15:12:57.773071,0.14477214217185963
2023-01-27 15:12:57.778071,0.14918176450149262
2023-01-27 15:12:57.783071,0.14876286685466758
2023-01-27 15:12:57.788071,0.14330331737931376
2023-01-27 15:12:57.793071,0.13335287570953355
2023-01-27 15:12:57.798071,0.11998630568508159
2023-01-27 15:12:57.803071,0.10414361953735343
2023-01-27 15:12:57.808071,0.08631733410991425
2023-01-27 15:12:57.813071,0.06688078492879856
2023-01-27 15:12:57.818071,0.04639305169016078
2023-01-27 15:12:57.823071,0.025482973083853645
2023-01-27 15:12:57.828071,0.004773377387640734
2023-01-27 15:12:57.833071,-0.014905135147273518
2023-01-27 15:12:57.838071,-0.03250175601370333
2023-01-27 15:12:57.843071,-0.0471435002982616
2023-01-27 15:12:57.848071,-0.058404397341912904
2023-01-27 15:12:57.853071,-0.06618361175060274
2023-01-27 15:12:57.858071,-0.07065213358951705
2023-01-27 15:12:57.863071,-0.07243414968252172
2023-01-27 15:12:57.868071,-0.07249372548453802
2023-01-27 15:12:57.873071,-0.07156869024038308
2023-01-27 15:12:57.878071,-0.06981252056709186
2023-01-27 15:12:57.883071,-0.06704907119274132
2023-01-27 15:12:57.888071,-0.0632083851711319
2023-01-27 15:12:57.893071,-0.0585387162864208
2023-01-27 15:12:57.898071,-0.0537207076697706
2023-01-27 15:12:57.903071,-0.04988412186503412
2023-01-27 15:12:57.908071,-0.048226655583209266
2023-01-27 15:12:57.913071,-0.04940330982208257
2023-01-27 15:12:57.918071,-0.05330001112976822
2023-01-27 15:12:57.923071,-0.059235893189907
2023-01-27 15:12:57.928071,-0.06606727464092876
2023-01-27 15:12:57.933071,-0.07221778482198708
2023-01-27 15:12:57.938071,-0.0761926128395409
2023-01-27 15:12:57.943071,-0.07738649845123287
2023-01-27 15:12:57.948071,-0.07624316175547115
2023-01-27 15:12:57.953071,-0.07361213862895963
2023-01-27 15:12:57.958071,-0.07023252555073865
2023-01-27 15:12:57.963071,-0.06680866330862037
2023-01-27 15:12:57.968071,-0.06408938092598179
2023-01-27 15:12:57.973071,-0.06260156631469718
2023-01-27 15:12:57.978071,-0.06251879186873505
2023-01-27 15:12:57.983071,-0.06385167688131334
2023-01-27 15:12:57.988071,-0.06640484809699203
2023-01-27 15:12:57.993071,-0.06938099861145011
2023-01-27 15:12:57.998071,-0.07137643998092509
2023-01-27 15:12:58.003071,-0.07108788192272184
2023-01-27 15:12:58.008071,-0.06801135873595843
2023-01-27 15:12:58.013071,-0.06255348771810533
2023-01-27 15:12:58.018071,-0.05584733766098805
2023-01-27 15:12:58.023071,-0.04954755306243892
2023-01-27 15:12:58.028071,-0.04534394363641245
2023-01-27 15:12:58.033071,-0.04425863549113269
2023-01-27 15:12:58.038071,-0.04641361187690109
2023-01-27 15:12:58.043071,-0.051470797508955016
2023-01-27 15:12:58.048071,-0.05903854355052863
2023-01-27 15:12:58.053071,-0.0685876607894897
2023-01-27 15:12:58.058071,-0.07929373738607956
2023-01-27 15:12:58.063071,-0.09015202522277836
2023-01-27 15:12:58.068071,-0.10007431077750292
2023-01-27 15:12:58.073071,-0.10784586519002912
2023-01-27 15:12:58.078071,-0.11235876825446844
2023-01-27 15:12:58.083071,-0.11318286508321758
2023-01-27 15:12:58.088071,-0.11086256757279045
2023-01-27 15:12:58.093071,-0.1066438406705855
2023-01-27 15:12:58.098071,-0.10203126594272699
2023-01-27 15:12:58.103071,-0.09832581132650375
2023-01-27 15:12:58.108071,-0.09575615382108693
2023-01-27 15:12:58.113071,-0.09236375987529746
2023-01-27 15:12:58.118071,-0.08371106674358299
2023-01-27 15:12:58.123071,-0.06414016336202616
2023-01-27 15:12:58.128071,-0.02914741915247248
2023-01-27 15:12:58.133071,0.022021135315299013
2023-01-27 15:12:58.138071,0.08435479387132848
2023-01-27 15:12:58.143071,0.14674346148967737
2023-01-27 15:12:58.148071,0.1944158983466709
2023-01-27 15:12:58.153071,0.21379253268241863
2023-01-27 15:12:58.158071,0.19756978874969838
2023-01-27 15:12:58.163071,0.14765700697898848
2023-01-27 15:12:58.168071,0.0749012368323008
2023-01-27 15:12:58.173071,-0.004207094665616784
2023-01-27 15:12:58.178071,-0.07278451965077523
2023-01-27 15:12:58.183071,-0.11876027286052694
2023-01-27 15:12:58.188071,-0.13778910365250488
2023-01-27 15:12:58.193071,-0.1329682320356369
2023-01-27 15:12:58.198071,-0.11229163649209041
2023-01-27 15:12:58.203071,-0.08534391969442352
2023-01-27 15:12:58.208071,-0.060255403014630234
2023-01-27 15:12:58.213071,-0.04168629646301255
2023-01-27 15:12:58.218071,-0.030468148010497787
2023-01-27 15:12:58.223071,-0.024737715721130257
2023-01-27 15:12:58.228071,-0.021585011676371568
2023-01-27 15:12:58.233071,-0.018439095467329025
2023-01-27 15:12:58.238071,-0.014038558051165903
2023-01-27 15:12:58.243071,-0.008798837661743088
2023-01-27 15:12:58.248071,-0.004216483929125872
2023-01-27 15:12:58.253071,-0.0015866756439207469
2023-01-27 15:12:58.258071,-0.0010286486948839315
2023-01-27 15:12:58.263071,-0.0014424324035643772
2023-01-27 15:12:58.268071,-0.0011313544042762848
2023-01-27 15:12:58.273071,0.0013703107833861453
2023-01-27 15:12:58.278071,0.006506948333145876
2023-01-27 15:12:58.283071,0.013366540893912296
2023-01-27 15:12:58.288071,0.02027533260057022
2023-01-27 15:12:58.293071,0.026035904884338247
2023-01-27 15:12:58.298071,0.03081146792325456
2023-01-27 15:12:58.303071,0.036060810089111314
2023-01-27 15:12:58.308071,0.0437786890700656
2023-01-27 15:12:58.313071,0.05548556894063934
2023-01-27 15:12:58.318071,0.07128717921828744
2023-01-27 15:12:58.323071,0.08955101668834678
2023-01-27 15:12:58.328071,0.10768598113474813
2023-01-27 15:12:58.333071,0.12359242141246787
2023-01-27 15:12:58.338071,0.13663088041122834
2023-01-27 15:12:58.343071,0.14748871326446522
2023-01-27 15:12:58.348071,0.15730361841509993
2023-01-27 15:12:58.353071,0.16664902865886677
2023-01-27 15:12:58.358071,0.1748103981538403
2023-01-27 15:12:58.363071,0.17982324957847584
2023-01-27 15:12:58.368071,0.17949975655354986
2023-01-27 15:12:58.373071,0.17280340194702148
2023-01-27 15:12:58.378071,0.1604818822037422
2023-01-27 15:12:58.383071,0.14457981288433058
2023-01-27 15:12:58.388071,0.12737342191948825
2023-01-27 15:12:58.393071,0.11039416491985311
2023-01-27 15:12:58.398071,0.09394638561161514
2023-01-27 15:12:58.403071,0.07738649845123284
2023-01-27 15:12:58.408071,0.060025261915767715
2023-01-27 15:12:58.413071,0.04190266132354726
2023-01-27 15:12:58.418071,0.023822302379235234
2023-01-27 15:12:58.423071,0.006899635307490854
2023-01-27 15:12:58.428071,-0.007808477568498574
2023-01-27 15:12:58.433071,-0.0195209197700023
2023-01-27 15:12:58.438071,-0.027900782456204476
2023-01-27 15:12:58.443071,-0.033007662743329974
2023-01-27 15:12:58.448071,-0.03513236539997934
2023-01-27 15:12:58.453071,-0.03502706810832022
2023-01-27 15:12:58.458071,-0.034341116538181775
2023-01-27 15:12:58.463071,-0.0351953506469726
2023-01-27 15:12:58.468071,-0.03879666854665188
2023-01-27 15:12:58.473071,-0.044643282890319824
2023-01-27 15:12:58.478071,-0.05117949067840063
2023-01-27 15:12:58.483071,-0.05661547183990471
2023-01-27 15:12:58.488071,-0.05890354026887122
2023-01-27 15:12:58.493071,-0.05615870282053943
2023-01-27 15:12:58.498071,-0.048488493194821035
2023-01-27 15:12:58.503071,-0.03906587883830073
2023-01-27 15:12:58.508071,-0.03204366567959703
2023-01-27 15:12:58.513071,-0.029137134552002005
2023-01-27 15:12:58.518071,-0.028939345597548603
2023-01-27 15:12:58.523071,-0.02932946011424055
2023-01-27 15:12:58.528071,-0.029350347243575818
2023-01-27 15:12:58.533071,-0.028680365532636604
2023-01-27 15:12:58.538071,-0.026822695987896245
2023-01-27 15:12:58.543071,-0.023848216980695704
2023-01-27 15:12:58.548071,-0.02128219379570543
2023-01-27 15:12:58.553071,-0.02137204073369507
2023-01-27 15:12:58.558071,-0.025564435282489972
2023-01-27 15:12:58.563071,-0.03382503986358633
2023-01-27 15:12:58.568071,-0.04475780089892769
2023-01-27 15:12:58.573071,-0.055846177041530554
2023-01-27 15:12:58.578071,-0.06413725177560779
2023-01-27 15:12:58.583071,-0.06760200113058092
2023-01-27 15:12:58.588071,-0.066128581367888
2023-01-27 15:12:58.593071,-0.0612312555313111
2023-01-27 15:12:58.598071,-0.05504511763566612
2023-01-27 15:12:58.603071,-0.049499474465847
2023-01-27 15:12:58.608071,-0.04565604468822631
2023-01-27 15:12:58.613071,-0.043200850486755274
2023-01-27 15:12:58.618071,-0.04078674853538907
2023-01-27 15:12:58.623071,-0.03733495995402344
2023-01-27 15:12:58.628071,-0.03309242064316214
2023-01-27 15:12:58.633071,-0.029521783813834128
2023-01-27 15:12:58.638071,-0.02854084119947675
2023-01-27 15:12:58.643071,-0.03185371682047846
2023-01-27 15:12:58.648071,-0.040282803374219675
2023-01-27 15:12:58.653071,-0.05312959477305412
2023-01-27 15:12:58.658071,-0.06831466408888566
2023-01-27 15:12:58.663071,-0.08346875756978987
2023-01-27 15:12:58.668071,-0.09691723429755988
2023-01-27 15:12:58.673071,-0.10779778659343717
2023-01-27 15:12:58.678071,-0.11583778835609497
2023-01-27 15:12:58.683071,-0.12133260816335657
2023-01-27 15:12:58.688071,-0.12494325577581425
2023-01-27 15:12:58.693071,-0.12712638080120073
2023-01-27 15:12:58.698071,-0.12789625981180636
2023-01-27 15:12:58.703071,-0.12719850242137898
2023-01-27 15:12:58.708071,-0.12504402795486033
2023-01-27 15:12:58.713071,-0.1208998784422874
2023-01-27 15:12:58.718071,-0.11315115700872691
2023-01-27 15:12:58.723071,-0.09943167865276317
2023-01-27 15:12:58.728071,-0.07751631708276718
2023-01-27 15:12:58.733071,-0.04635016247630112
2023-01-27 15:12:58.738071,-0.0073823481475624435
2023-01-27 15:12:58.743071,0.03418564796447752
2023-01-27 15:12:58.748071,0.06967308529664186
2023-01-27 15:12:58.753071,0.08943080902099589
2023-01-27 15:12:58.758071,0.08635744467641336
2023-01-27 15:12:58.763071,0.058610837906599
2023-01-27 15:12:58.768071,0.010677463236532011
2023-01-27 15:12:58.773071,-0.0474800691008566
2023-01-27 15:12:58.778071,-0.10340305050174216
2023-01-27 15:12:58.783071,-0.14638285338878626
2023-01-27 15:12:58.788071,-0.17078282427715988
2023-01-27 15:12:58.793071,-0.1768181771039962
2023-01-27 15:12:58.798071,-0.16915891829546434
2023-01-27 15:12:58.803071,-0.1546047180891035
2023-01-27 15:12:58.808071,-0.1395933239367595
2023-01-27 15:12:58.813071,-0.12820820510387415
2023-01-27 15:12:58.818071,-0.12162735201663494
2023-01-27 15:12:58.823071,-0.11912088096141811
2023-01-27 15:12:58.828071,-0.11937622571262875
2023-01-27 15:12:58.833071,-0.12111624330282207
2023-01-27 15:12:58.838071,-0.12326743806560132
2023-01-27 15:12:58.843071,-0.12517909705638874
2023-01-27 15:12:58.848071,-0.12665027943125828
2023-01-27 15:12:58.853071,-0.12760719656944267
2023-01-27 15:12:58.858071,-0.127990411526049
2023-01-27 15:12:58.863071,-0.12806396186351762
2023-01-27 15:12:58.868071,-0.12841643050291732
2023-01-27 15:12:58.873071,-0.12929002940654755
2023-01-27 15:12:58.878071,-0.13005670064367233
2023-01-27 15:12:58.883071,-0.12953042984008775
2023-01-27 15:12:58.888071,-0.12662284285713224
2023-01-27 15:12:58.893071,-0.1207075566053389
2023-01-27 15:12:58.898071,-0.1118769381031104
2023-01-27 15:12:58.903071,-0.10121067613363258
2023-01-27 15:12:58.908071,-0.09046028395682099
2023-01-27 15:12:58.913071,-0.0809925794601439
2023-01-27 15:12:58.918071,-0.07298786539418516
2023-01-27 15:12:58.923071,-0.06567876040935497
2023-01-27 15:12:58.928071,-0.0581200161919098
2023-01-27 15:12:58.933071,-0.04973987862467753
2023-01-27 15:12:58.938071,-0.04072721332148913
2023-01-27 15:12:58.943071,-0.032310485839843694
2023-01-27 15:12:58.948071,-0.026347920249074955
2023-01-27 15:12:58.953071,-0.024136703461408605
2023-01-27 15:12:58.958071,-0.025522546279801335
2023-01-27 15:12:58.963071,-0.02916117571294303
2023-01-27 15:12:58.968071,-0.033419341253557285
2023-01-27 15:12:58.973071,-0.03709455579519277
2023-01-27 15:12:58.978071,-0.03993041533803605
2023-01-27 15:12:58.983071,-0.04296044632792468
2023-01-27 15:12:58.988071,-0.0481358341278173
2023-01-27 15:12:58.993071,-0.057192444801330594
2023-01-27 15:12:58.998071,-0.07081556384662718
2023-01-27 15:12:59.003071,-0.08880575746297832
2023-01-27 15:12:59.008071,-0.11055383192584387
2023-01-27 15:12:59.013071,-0.13503572344779952
2023-01-27 15:12:59.018071,-0.16067966312327073
2023-01-27 15:12:59.023071,-0.18564105033874495
2023-01-27 15:12:59.028071,-0.20816112415947455
2023-01-27 15:12:59.033071,-0.2267023026943205
2023-01-27 15:12:59.038071,-0.24032354412781076
2023-01-27 15:12:59.043071,-0.24939656257629378
2023-01-27 15:12:59.048071,-0.2556906911263161
2023-01-27 15:12:59.053071,-0.2612966299057004
2023-01-27 15:12:59.058071,-0.2674132320877203
2023-01-27 15:12:59.063071,-0.27408620715141285
2023-01-27 15:12:59.068071,-0.2805691543218055
2023-01-27 15:12:59.073071,-0.2856256663799285
2023-01-27 15:12:59.078071,-0.2880355180494643
2023-01-27 15:12:59.083071,-0.28750082850456216
2023-01-27 15:12:59.088071,-0.28502245318244357
2023-01-27 15:12:59.093071,-0.28209170699119546
2023-01-27 15:12:59.098071,-0.2796984880025067
2023-01-27 15:12:59.103071,-0.27831733226776106
2023-01-27 15:12:59.108071,-0.27833198283070204
2023-01-27 15:12:59.113071,-0.27983188629150374
2023-01-27 15:12:59.118071,-0.2822234023572165
2023-01-27 15:12:59.123071,-0.2847121357917784
2023-01-27 15:12:59.128071,-0.2871729026697893
2023-01-27 15:12:59.133071,-0.29002508521079995
2023-01-27 15:12:59.138071,-0.2932104609544339
2023-01-27 15:12:59.143071,-0.295770764350891
2023-01-27 15:12:59.148071,-0.29659009241354484
2023-01-27 15:12:59.153071,-0.2952899634838105
2023-01-27 15:12:59.158071,-0.29239864233984203
2023-01-27 15:12:59.163071,-0.28899133205413796
2023-01-27 15:12:59.168071,-0.28619468058821323
2023-01-27 15:12:59.173071,-0.28459191322326644
2023-01-27 15:12:59.178071,-0.28376121910945606
2023-01-27 15:12:59.183071,-0.28245231509208674
2023-01-27 15:12:59.188071,-0.2794115104092757
2023-01-27 15:12:59.193071,-0.2742304503917693
2023-01-27 15:12:59.198071,-0.2677033149897396
2023-01-27 15:12:59.203071,-0.2616332173347472
2023-01-27 15:12:59.208071,-0.25819474149354965
2023-01-27 15:12:59.213071,-0.25908491015434254
2023-01-27 15:12:59.218071,-0.2649401350490957
2023-01-27 15:12:59.223071,-0.2753363251686096
2023-01-27 15:12:59.228071,-0.2891197082635609
2023-01-27 15:12:59.233071,-0.30466577410697926
2023-01-27 15:12:59.238071,-0.3200830852635898
2023-01-27 15:12:59.243071,-0.333538472652435
2023-01-27 15:12:59.248071,-0.3435789080334429
2023-01-27 15:12:59.253071,-0.3492850065231321
2023-01-27 15:12:59.258071,-0.35039549090568195
2023-01-27 15:12:59.263071,-0.34748196601867665
2023-01-27 15:12:59.268071,-0.34189059445254927
2023-01-27 15:12:59.273071,-0.3352934122085569
2023-01-27 15:12:59.278071,-0.3291624738548705
2023-01-27 15:12:59.283071,-0.3244030475616453
2023-01-27 15:12:59.288071,-0.32093849356549775
2023-01-27 15:12:59.293071,-0.31721493601798995
2023-01-27 15:12:59.298071,-0.3101893765861016
2023-01-27 15:12:59.303071,-0.29625159502029397
2023-01-27 15:12:59.308071,-0.27276703559340953
2023-01-27 15:12:59.313071,-0.23961207270622242
2023-01-27 15:12:59.318071,-0.20026613857781922
2023-01-27 15:12:59.323071,-0.16191303730010967
2023-01-27 15:12:59.328071,-0.1338740434555026
2023-01-27 15:12:59.333071,-0.12453000247478475
2023-01-27 15:12:59.338071,-0.1381645906068451
2023-01-27 15:12:59.343071,-0.17330825328826893
2023-01-27 15:12:59.348071,-0.22311772292630716
2023-01-27 15:12:59.353071,-0.27745187282562245
2023-01-27 15:12:59.358071,-0.3259925694165997
2023-01-27 15:12:59.363071,-0.36132931709289534
2023-01-27 15:12:59.368071,-0.3806338328104787
2023-01-27 15:12:59.373071,-0.385321795940399
2023-01-27 15:12:59.378071,-0.3794209066222183
2023-01-27 15:12:59.383071,-0.36774814128875716
2023-01-27 15:12:59.388071,-0.3544242024918166
2023-01-27 15:12:59.393071,-0.34195265173912026
2023-01-27 15:12:59.398071,-0.33117790419045695
2023-01-27 15:12:59.403071,-0.32202303409576405
2023-01-27 15:12:59.408071,-0.3142692617811349
2023-01-27 15:12:59.413071,-0.30786317586898787
2023-01-27 15:12:59.418071,-0.3029896633617892
2023-01-27 15:12:59.423071,-0.30014616250991805
2023-01-27 15:12:59.428071,-0.2999053769025163
2023-01-27 15:12:59.433071,-0.30223768949508645
2023-01-27 15:12:59.438071,-0.3059936997044966
2023-01-27 15:12:59.443071,-0.3090892434120177
2023-01-27 15:12:59.448071,-0.30917169336866634
2023-01-27 15:12:59.453071,-0.3043532371520995
2023-01-27 15:12:59.458071,-0.2939626261781864
2023-01-27 15:12:59.463071,-0.2791106700897215
2023-01-27 15:12:59.468071,-0.26242918736881804
2023-01-27 15:12:59.473071,-0.24682423472404458
2023-01-27 15:12:59.478071,-0.23411392973254877
2023-01-27 15:12:59.483071,-0.22446653246879555
2023-01-27 15:12:59.488071,-0.21664804719033356
2023-01-27 15:12:59.493071,-0.20867189764976485
2023-01-27 15:12:59.498071,-0.1987107628621971
2023-01-27 15:12:59.503071,-0.1860257089138031
2023-01-27 15:12:59.508071,-0.1712771047989373
2023-01-27 15:12:59.513071,-0.15597502887248985
2023-01-27 15:12:59.518071,-0.1416927536323732
2023-01-27 15:12:59.523071,-0.12965063750743852
2023-01-27 15:12:59.528071,-0.12052640361222242
2023-01-27 15:12:59.533071,-0.1142406463623045
2023-01-27 15:12:59.538071,-0.11000028383780999
2023-01-27 15:12:59.543071,-0.10681211948394775
2023-01-27 15:12:59.548071,-0.10404842554445046
2023-01-27 15:12:59.553071,-0.10166744887828809
2023-01-27 15:12:59.558071,-0.10028449918333075
2023-01-27 15:12:59.563071,-0.10125875473022461
2023-01-27 15:12:59.568071,-0.10643233080474118
2023-01-27 15:12:59.573071,-0.1173418760299682
2023-01-27 15:12:59.578071,-0.13444681977648434
2023-01-27 15:12:59.583071,-0.15688857436180098
2023-01-27 15:12:59.588071,-0.18261529180377206
2023-01-27 15:12:59.593071,-0.20864784717559806
2023-01-27 15:12:59.598071,-0.23173929616440564
2023-01-27 15:12:59.603071,-0.24946868419647195
2023-01-27 15:12:59.608071,-0.26107372576223903
2023-01-27 15:12:59.613071,-0.26740294694900496
2023-01-27 15:12:59.618071,-0.2702108267995933
2023-01-27 15:12:59.623071,-0.27132153511047347
2023-01-27 15:12:59.628071,-0.2718492209907796
2023-01-27 15:12:59.633071,-0.27170619368553145
2023-01-27 15:12:59.638071,-0.26990393480368036
2023-01-27 15:12:59.643071,-0.2656239271163938
2023-01-27 15:12:59.648071,-0.25912910319831145
2023-01-27 15:12:59.653071,-0.2517285048961638
2023-01-27 15:12:59.658071,-0.2450352997241221
2023-01-27 15:12:59.663071,-0.24018904566764826
2023-01-27 15:12:59.668071,-0.2373423399844086
2023-01-27 15:12:59.673071,-0.23557326197624195
2023-01-27 15:12:59.678071,-0.23347947262069138
2023-01-27 15:12:59.683071,-0.23021221160888672
2023-01-27 15:12:59.688071,-0.2260699450695641
2023-01-27 15:12:59.693071,-0.22215864062309257
2023-01-27 15:12:59.698071,-0.2196062784212094
2023-01-27 15:12:59.703071,-0.21898528933525077
2023-01-27 15:12:59.708071,-0.22005412037095037
2023-01-27 15:12:59.713071,-0.22182206809520724
2023-01-27 15:12:59.718071,-0.22310994888006241
2023-01-27 15:12:59.723071,-0.2233366221189498
2023-01-27 15:12:59.728071,-0.22278602971174555
2023-01-27 15:12:59.733071,-0.22218267619609822
2023-01-27 15:12:59.738071,-0.222230313903094
2023-01-27 15:12:59.743071,-0.2234327793121337
2023-01-27 15:12:59.748071,-0.2257605965545882
2023-01-27 15:12:59.753071,-0.22814473509788497
2023-01-27 15:12:59.758071,-0.22863745030974333
2023-01-27 15:12:59.763071,-0.22554835677146895
2023-01-27 15:12:59.768071,-0.21857346124828267
2023-01-27 15:12:59.773071,-0.2090084552764891
2023-01-27 15:12:59.778071,-0.19932928855934612
2023-01-27 15:12:59.783071,-0.19266089797019947
2023-01-27 15:12:59.788071,-0.1919225188687828
2023-01-27 15:12:59.793071,-0.19857487082481373
2023-01-27 15:12:59.798071,-0.2118435817527416
2023-01-27 15:12:59.803071,-0.22915443778038017
2023-01-27 15:12:59.808071,-0.24726968687427278
2023-01-27 15:12:59.813071,-0.26324391365051253
2023-01-27 15:12:59.818071,-0.2751231038971227
2023-01-27 15:12:59.823071,-0.28254848718643166
2023-01-27 15:12:59.828071,-0.286803452429193
2023-01-27 15:12:59.833071,-0.28995296359062184
2023-01-27 15:12:59.838071,-0.2937257034909719
2023-01-27 15:12:59.843071,-0.2989681661128996
2023-01-27 15:12:59.848071,-0.3055773344371748
2023-01-27 15:12:59.853071,-0.31245490908622725
2023-01-27 15:12:59.858071,-0.31761415954156774
2023-01-27 15:12:59.863071,-0.31865736842155445
2023-01-27 15:12:59.868071,-0.3131828736818505
2023-01-27 15:12:59.873071,-0.298751801252365
2023-01-27 15:12:59.878071,-0.2729975514070654
2023-01-27 15:12:59.883071,-0.2346116304397583
2023-01-27 15:12:59.888071,-0.18487694220445003
2023-01-27 15:12:59.893071,-0.12873709201812736
2023-01-27 15:12:59.898071,-0.07477104194129769
2023-01-27 15:12:59.903071,-0.0338250398635864
2023-01-27 15:12:59.908071,-0.016149337823545794
2023-01-27 15:12:59.913071,-0.027670662850141445
2023-01-27 15:12:59.918071,-0.06721700038974715
2023-01-27 15:12:59.923071,-0.12638112902641285
2023-01-27 15:12:59.928071,-0.19207387598806136
2023-01-27 15:12:59.933071,-0.250502437353134
2023-01-27 15:12:59.938071,-0.2911888284866858
2023-01-27 15:12:59.943071,-0.309786409139633
2023-01-27 15:12:59.948071,-0.3085605316013818
2023-01-27 15:12:59.953071,-0.2943523824214933
2023-01-27 15:12:59.958071,-0.2753424128558322
2023-01-27 15:12:59.963071,-0.2583156228065489
2023-01-27 15:12:59.968071,-0.2471513470416478
2023-01-27 15:12:59.973071,-0.24247288703918438
2023-01-27 15:12:59.978071,-0.24239491726358459
2023-01-27 15:12:59.983071,-0.24408361315727226
2023-01-27 15:12:59.988071,-0.24522547155785884
2023-01-27 15:12:59.993071,-0.24463653564453103
2023-01-27 15:12:59.998071,-0.2421843652610035
2023-01-27 15:13:00.003071,-0.2385542839765548
2023-01-27 15:13:00.008071,-0.2348831083219217
2023-01-27 15:13:00.013071,-0.2321354597806929
2023-01-27 15:13:00.018071,-0.2305797611731511
2023-01-27 15:13:00.023071,-0.22973141074180597
2023-01-27 15:13:00.028071,-0.2285488016216737
2023-01-27 15:13:00.033071,-0.22562047839164723
2023-01-27 15:13:00.038071,-0.2195846146377277
2023-01-27 15:13:00.043071,-0.20987391471862796
2023-01-27 15:13:00.048071,-0.19715686713945635
2023-01-27 15:13:00.053071,-0.1829485148191452
2023-01-27 15:13:00.058071,-0.16881254299766327
2023-01-27 15:13:00.063071,-0.15585482120513905
2023-01-27 15:13:00.068071,-0.14454700006357096
2023-01-27 15:13:00.073071,-0.1346510648727415
2023-01-27 15:13:00.078071,-0.12541709350471525
2023-01-27 15:13:00.083071,-0.11613985151052465
2023-01-27 15:13:00.088071,-0.10653980188740246
2023-01-27 15:13:00.093071,-0.09657084941864003
2023-01-27 15:13:00.098071,-0.08613098003604384
2023-01-27 15:13:00.103071,-0.07524689286947248
2023-01-27 15:13:00.108071,-0.06444242290953926
2023-01-27 15:13:00.113071,-0.054716270416974994
2023-01-27 15:13:00.118071,-0.04723797459672729
2023-01-27 15:13:00.123071,-0.0431768111884593
2023-01-27 15:13:00.128071,-0.04358786190411166
2023-01-27 15:13:00.133071,-0.04913886636495589
2023-01-27 15:13:00.138071,-0.05993293505268653
2023-01-27 15:13:00.143071,-0.0756555795669555
2023-01-27 15:13:00.148071,-0.09566329367783948
2023-01-27 15:13:00.153071,-0.11868815124034882
2023-01-27 15:13:00.158071,-0.14262675554466644
2023-01-27 15:13:00.163071,-0.1649902313947677
2023-01-27 15:13:00.168071,-0.18375957002899915
2023-01-27 15:13:00.173071,-0.197997897863388
2023-01-27 15:13:00.178071,-0.2080466653586222
2023-01-27 15:13:00.183071,-0.21537920832633964
2023-01-27 15:13:00.188071,-0.221941012167507
2023-01-27 15:13:00.193071,-0.22905826568603505
2023-01-27 15:13:00.198071,-0.23668424506374844
2023-01-27 15:13:00.203071,-0.24360279738903037
2023-01-27 15:13:00.208071,-0.24823572832361654
2023-01-27 15:13:00.213071,-0.2493725270032881
2023-01-27 15:13:00.218071,-0.24670289772121123
2023-01-27 15:13:00.223071,-0.24119874835014335
2023-01-27 15:13:00.228071,-0.2349620584194168
2023-01-27 15:13:00.233071,-0.2303324192762373
2023-01-27 15:13:00.238071,-0.2288594413380967
2023-01-27 15:13:00.243071,-0.2308132350444793
2023-01-27 15:13:00.248071,-0.2351393828304254
2023-01-27 15:13:00.253071,-0.23958802223205547
2023-01-27 15:13:00.258071,-0.24130489970677574
2023-01-27 15:13:00.263071,-0.23804943263530737
2023-01-27 15:13:00.268071,-0.22930857660862272
2023-01-27 15:13:00.273071,-0.21648506820201865
2023-01-27 15:13:00.278071,-0.20230475100427653
2023-01-27 15:13:00.283071,-0.19001643359661102
2023-01-27 15:13:00.288071,-0.18243021436102944
2023-01-27 15:13:00.293071,-0.18078486621379847
2023-01-27 15:13:00.298071,-0.1841604439373877
2023-01-27 15:13:00.303071,-0.19011259078979484
2023-01-27 15:13:00.308071,-0.1960258604641937
2023-01-27 15:13:00.313071,-0.2000894248485564
2023-01-27 15:13:00.318071,-0.20157328916446682
2023-01-27 15:13:00.323071,-0.2007865905761717
2023-01-27 15:13:00.328071,-0.19880716351643773
2023-01-27 15:13:00.333071,-0.19681990146636963
2023-01-27 15:13:00.338071,-0.1953783350768662
2023-01-27 15:13:00.343071,-0.1941514015197753
2023-01-27 15:13:00.348071,-0.19219008633616597
2023-01-27 15:13:00.353071,-0.1883816719055174
2023-01-27 15:13:00.358071,-0.18201499666309362
2023-01-27 15:13:00.363071,-0.17340442538261408
2023-01-27 15:13:00.368071,-0.16408795931217884
2023-01-27 15:13:00.373071,-0.1562394797801971
2023-01-27 15:13:00.378071,-0.15175963657923194
2023-01-27 15:13:00.383071,-0.15176793932914728
2023-01-27 15:13:00.388071,-0.15654124947991968
2023-01-27 15:13:00.393071,-0.16554316878318776
2023-01-27 15:13:00.398071,-0.17756032553539633
2023-01-27 15:13:00.403071,-0.19109825789928417
2023-01-27 15:13:00.408071,-0.20474138403157538
2023-01-27 15:13:00.413071,-0.21715819835662833
2023-01-27 15:13:00.418071,-0.22706393827161309
2023-01-27 15:13:00.423071,-0.23357789218425742
2023-01-27 15:13:00.428071,-0.23671917268130843
2023-01-27 15:13:00.433071,-0.23747245967388136
2023-01-27 15:13:00.438071,-0.23737708937686738
2023-01-27 15:13:00.443071,-0.23790518939495078
2023-01-27 15:13:00.448071,-0.23960702722482224
2023-01-27 15:13:00.453071,-0.24107854068279258
2023-01-27 15:13:00.458071,-0.23845531019113464
2023-01-27 15:13:00.463071,-0.22619745135307312
2023-01-27 15:13:00.468071,-0.19905922533987502
2023-01-27 15:13:00.473071,-0.15448451042175282
2023-01-27 15:13:00.478071,-0.09472738419136226
2023-01-27 15:13:00.483071,-0.027935108169913195
2023-01-27 15:13:00.488071,0.032843926093464045
2023-01-27 15:13:00.493071,0.07313132286071765
2023-01-27 15:13:00.498071,0.08178608015160779
2023-01-27 15:13:00.503071,0.05495667457580561
2023-01-27 15:13:00.508071,-0.0023475746734106977
2023-01-27 15:13:00.513071,-0.0775788277387618
2023-01-27 15:13:00.518071,-0.15454456503882388
2023-01-27 15:13:00.523071,-0.21855255961418152
2023-01-27 15:13:00.528071,-0.2605935933625649
2023-01-27 15:13:00.533071,-0.2787981629371643
2023-01-27 15:13:00.538071,-0.2771654869996517
2023-01-27 15:13:00.543071,-0.26288330554962147
2023-01-27 15:13:00.548071,-0.24350879678597698
2023-01-27 15:13:00.553071,-0.22480309009551994
2023-01-27 15:13:00.558071,-0.20980795518429082
2023-01-27 15:13:00.563071,-0.199272036552429
2023-01-27 15:13:00.568071,-0.1927044609327526
2023-01-27 15:13:00.573071,-0.18917500972747794
2023-01-27 15:13:00.578071,-0.18769249969706397
2023-01-27 15:13:00.583071,-0.18742005527019492
2023-01-27 15:13:00.588071,-0.1876893508502296
2023-01-27 15:13:00.593071,-0.1877085417509078
2023-01-27 15:13:00.598071,-0.18634952860566814
2023-01-27 15:13:00.603071,-0.18246769905090326
2023-01-27 15:13:00.608071,-0.1755352474259327
2023-01-27 15:13:00.613071,-0.16599993407726285
2023-01-27 15:13:00.618071,-0.15517872733802157
2023-01-27 15:13:00.623071,-0.14482021331787104
2023-01-27 15:13:00.628071,-0.13636261171708172
2023-01-27 15:13:00.633071,-0.1300833672285078
2023-01-27 15:13:00.638071,-0.12481253515108161
2023-01-27 15:13:00.643071,-0.11866410821676246
2023-01-27 15:13:00.648071,-0.110266209817536
2023-01-27 15:13:00.653071,-0.09952783584594722
2023-01-27 15:13:00.658071,-0.08755831889570459
2023-01-27 15:13:00.663071,-0.0759681090712547
2023-01-27 15:13:00.668071,-0.06587358800394763
2023-01-27 15:13:00.673071,-0.057072244584560304
2023-01-27 15:13:00.678071,-0.04808454826122939
2023-01-27 15:13:00.683071,-0.03726283833384507
2023-01-27 15:13:00.688071,-0.024125077182059234
2023-01-27 15:13:00.693071,-0.009832581505179414
2023-01-27 15:13:00.698071,0.00339122732198102
2023-01-27 15:13:00.703071,0.013342499732971108
2023-01-27 15:13:00.708071,0.018863437151083434
2023-01-27 15:13:00.713071,0.020362338051199826
2023-01-27 15:13:00.718071,0.01936800231826162
2023-01-27 15:13:00.723071,0.01721302792429918
2023-01-27 15:13:00.728071,0.013845403058409516
2023-01-27 15:13:00.733071,0.007765094749629346
2023-01-27 15:13:00.738071,-0.0029800037152405423
2023-01-27 15:13:00.743071,-0.0195690002292394
2023-01-27 15:13:00.748071,-0.04159822571662276
2023-01-27 15:13:00.753071,-0.06697694957256306
2023-01-27 15:13:00.758071,-0.09268589860889732
2023-01-27 15:13:00.763071,-0.11609177291393277
2023-01-27 15:13:00.768071,-0.1358822932650158
2023-01-27 15:13:00.773071,-0.1519362181425094
2023-01-27 15:13:00.778071,-0.1645015750297133
2023-01-27 15:13:00.783071,-0.17354866862297041
2023-01-27 15:13:00.788071,-0.17865446087570383
2023-01-27 15:13:00.793071,-0.1792943477630614
2023-01-27 15:13:00.798071,-0.17543499975296875
2023-01-27 15:13:00.803071,-0.1681635826826094
2023-01-27 15:13:00.808071,-0.15971901444180703
2023-01-27 15:13:00.813071,-0.1526093482971191
2023-01-27 15:13:00.818071,-0.14842933261216873
2023-01-27 15:13:00.823071,-0.1472723484039306
2023-01-27 15:13:00.828071,-0.1479513185984295
2023-01-27 15:13:00.833071,-0.14869074523448936
2023-01-27 15:13:00.838071,-0.14800064293440562
2023-01-27 15:13:00.843071,-0.14542123675346363
2023-01-27 15:13:00.848071,-0.141636879090193
2023-01-27 15:13:00.853071,-0.13782441616058347
2023-01-27 15:13:00.858071,-0.13484420072357947
2023-01-27 15:13:00.863071,-0.13292014598846424
2023-01-27 15:13:00.868071,-0.13177944678151707
2023-01-27 15:13:00.873071,-0.13092479109764094
2023-01-27 15:13:00.878071,-0.12995687612860402
2023-01-27 15:13:00.883071,-0.1288332641124724
2023-01-27 15:13:00.888071,-0.1277425944706649
2023-01-27 15:13:00.893071,-0.12669365108013142
2023-01-27 15:13:00.898071,-0.12546807303462207
2023-01-27 15:13:00.903071,-0.12407322973012913
2023-01-27 15:13:00.908071,-0.1228835564668212
2023-01-27 15:13:00.913071,-0.122005745768547
2023-01-27 15:13:00.918071,-0.1206819964010105
2023-01-27 15:13:00.923071,-0.11763036251068107
2023-01-27 15:13:00.928071,-0.1119226924352619
2023-01-27 15:13:00.933071,-0.10344644635915748
2023-01-27 15:13:00.938071,-0.09289322484231685
2023-01-27 15:13:00.943071,-0.08178591728210438
2023-01-27 15:13:00.948071,-0.07242485668171748
2023-01-27 15:13:00.953071,-0.067265436053276
2023-01-27 15:13:00.958071,-0.06797157689597502
2023-01-27 15:13:00.963071,-0.07488628476858128
2023-01-27 15:13:00.968071,-0.08705388399961886
2023-01-27 15:13:00.973071,-0.10238866508007045
2023-01-27 15:13:00.978071,-0.11796711347802581
2023-01-27 15:13:00.983071,-0.13073246181011178
2023-01-27 15:13:00.988071,-0.13840347115472182
2023-01-27 15:13:00.993071,-0.140012115240097
2023-01-27 15:13:00.998071,-0.13593830885533548
2023-01-27 15:13:01.003071,-0.12770335376262654
2023-01-27 15:13:01.008071,-0.11753414539218109
2023-01-27 15:13:01.013071,-0.10760545730590818
2023-01-27 15:13:01.018071,-0.09931226842160565
2023-01-27 15:13:01.023071,-0.09301285445690147
2023-01-27 15:13:01.028071,-0.08806306866596314
2023-01-27 15:13:01.033071,-0.08269946277141575
2023-01-27 15:13:01.038071,-0.07392706762267898
2023-01-27 15:13:01.043071,-0.057985782623290974
2023-01-27 15:13:01.048071,-0.031543886834166805
2023-01-27 15:13:01.053071,0.0067313513718543876
2023-01-27 15:13:01.058071,0.054635461645788454
2023-01-27 15:13:01.063071,0.10553797334432603
2023-01-27 15:13:01.068071,0.14914001225649498
2023-01-27 15:13:01.073071,0.1743660420179367
2023-01-27 15:13:01.078071,0.17337988013665373
2023-01-27 15:13:01.083071,0.1447721421718598
2023-01-27 15:13:01.088071,0.09449242122771181
2023-01-27 15:13:01.093071,0.034209690988063736
2023-01-27 15:13:01.098071,-0.022384088950773814
2023-01-27 15:13:01.103071,-0.06401996314525599
2023-01-27 15:13:01.108071,-0.0851126795746107
2023-01-27 15:13:01.113071,-0.08642574399709696
2023-01-27 15:13:01.118071,-0.07335960171068505
2023-01-27 15:13:01.123071,-0.05322575569152832
2023-01-27 15:13:01.128071,-0.032690434735426196
2023-01-27 15:13:01.133071,-0.01601099967956538
2023-01-27 15:13:01.138071,-0.00448719350637892
2023-01-27 15:13:01.143071,0.002836783882230539
2023-01-27 15:13:01.148071,0.007920998480350307
2023-01-27 15:13:01.153071,0.012765526771545438
2023-01-27 15:13:01.158071,0.018856316942650744
2023-01-27 15:13:01.163071,0.026733081787824638
2023-01-27 15:13:01.168071,0.035791892976961774
2023-01-27 15:13:01.173071,0.04464328289031988
2023-01-27 15:13:01.178071,0.0518333302300393
2023-01-27 15:13:01.183071,0.05642315000295632
2023-01-27 15:13:01.188071,0.05831457419115545
2023-01-27 15:13:01.193071,0.05844255536794663
2023-01-27 15:13:01.198071,0.058612655117212364
2023-01-27 15:13:01.203071,0.06075044721364967
2023-01-27 15:13:01.208071,0.06600195438459971
2023-01-27 15:13:01.213071,0.07440547645092012
2023-01-27 15:13:01.218071,0.08520917813155161
2023-01-27 15:13:01.223071,0.09736418724060045
2023-01-27 15:13:01.228071,0.10996790257669499
2023-01-27 15:13:01.233071,0.12267887592315668
2023-01-27 15:13:01.238071,0.13584203986364926
2023-01-27 15:13:01.243071,0.15003702044486983
2023-01-27 15:13:01.248071,0.16539660720021493
2023-01-27 15:13:01.253071,0.18136183917522422
2023-01-27 15:13:01.258071,0.1969677310963501
2023-01-27 15:13:01.263071,0.21122018992900837
2023-01-27 15:13:01.268071,0.2233506548339711
2023-01-27 15:13:01.273071,0.23302495479583732
2023-01-27 15:13:01.278071,0.24036184124331642
2023-01-27 15:13:01.283071,0.2455500811338423
2023-01-27 15:13:01.288071,0.24836620069017806
2023-01-27 15:13:01.293071,0.2481464594602583
2023-01-27 15:13:01.298071,0.24420743629536756
2023-01-27 15:13:01.303071,0.23619830608367903
2023-01-27 15:13:01.308071,0.22414481241045037
2023-01-27 15:13:01.313071,0.20838341116905207
2023-01-27 15:13:01.318071,0.18949633543322011
2023-01-27 15:13:01.323071,0.16818761825561518
2023-01-27 15:13:01.328071,0.14523759197938704
2023-01-27 15:13:01.333071,0.12171725928783401
2023-01-27 15:13:01.338071,0.09919987342767964
2023-01-27 15:13:01.343071,0.07950206845998758
2023-01-27 15:13:01.348071,0.06401008170769155
2023-01-27 15:13:01.353071,0.05315363407134992
2023-01-27 15:13:01.358071,0.0463701697828421
2023-01-27 15:13:01.363071,0.04243155568838106
2023-01-27 15:13:01.368071,0.0399354570921512
2023-01-27 15:13:01.373071,0.037839811295270816
2023-01-27 15:13:01.378071,0.03577993069295369
2023-01-27 15:13:01.383071,0.033921204507350845
2023-01-27 15:13:01.388071,0.032528030978835915
2023-01-27 15:13:01.393071,0.0317094735801219
2023-01-27 15:13:01.398071,0.031490940232854
2023-01-27 15:13:01.403071,0.031949877738952616
2023-01-27 15:13:01.408071,0.033207659431118024
2023-01-27 15:13:01.413071,0.03533959388732906
2023-01-27 15:13:01.418071,0.038300349271655626
2023-01-27 15:13:01.423071,0.041878622025251284
2023-01-27 15:13:01.428071,0.04573683209330255
2023-01-27 15:13:01.433071,0.049595635384321185
2023-01-27 15:13:01.438071,0.05343716270965475
2023-01-27 15:13:01.443071,0.057480931282043325
2023-01-27 15:13:01.448071,0.061864241700197206
2023-01-27 15:13:01.453071,0.06625573337078089
2023-01-27 15:13:01.458071,0.06974483861541363
2023-01-27 15:13:01.463071,0.07118403911590572
2023-01-27 15:13:01.468071,0.06982364437180061
2023-01-27 15:13:01.473071,0.06584703922271717
2023-01-27 15:13:01.478071,0.0605249154793309
2023-01-27 15:13:01.483071,0.05596637725830062
2023-01-27 15:13:01.488071,0.05447333610185075
2023-01-27 15:13:01.493071,0.05750497430562968
2023-01-27 15:13:01.498071,0.06470997255951527
2023-01-27 15:13:01.503071,0.07390062510967252
2023-01-27 15:13:01.508071,0.08218079967450337
2023-01-27 15:13:01.513071,0.08717100322246543
2023-01-27 15:13:01.518071,0.08727505316568612
2023-01-27 15:13:01.523071,0.0814253091812133
2023-01-27 15:13:01.528071,0.06943535499358057
2023-01-27 15:13:01.533071,0.052793025970458894
2023-01-27 15:13:01.538071,0.03457655451925825
2023-01-27 15:13:01.543071,0.018174648284912203
2023-01-27 15:13:01.548071,0.0060524665212351655
2023-01-27 15:13:01.553071,-0.0005529324407688516
2023-01-27 15:13:01.558071,-0.0015647056308379348
2023-01-27 15:13:01.563071,0.0017790000420064254
2023-01-27 15:13:01.568071,0.007047626667421336
2023-01-27 15:13:01.573071,0.011515418998897
2023-01-27 15:13:01.578071,0.013245242508487402
2023-01-27 15:13:01.583071,0.011635622009634942
2023-01-27 15:13:01.588071,0.0076472420085824805
2023-01-27 15:13:01.593071,0.004062851425260282
2023-01-27 15:13:01.598071,0.005277554173454291
2023-01-27 15:13:01.603071,0.016059082001447563
2023-01-27 15:13:01.608071,0.039743199744061965
2023-01-27 15:13:01.613071,0.07673740386962889
2023-01-27 15:13:01.618071,0.12360639422281679
2023-01-27 15:13:01.623071,0.17287552356719965
2023-01-27 15:13:01.628071,0.21422056000947998
2023-01-27 15:13:01.633071,0.23735225200653065
2023-01-27 15:13:01.638071,0.23548941671112514
2023-01-27 15:13:01.643071,0.20771026611328125
2023-01-27 15:13:01.648071,0.1593672835321791
2023-01-27 15:13:01.653071,0.10068178176879877
2023-01-27 15:13:01.658071,0.04384148044842847
2023-01-27 15:13:01.663071,-0.0006490945816039376
2023-01-27 15:13:01.668071,-0.026849492669965887
2023-01-27 15:13:01.673071,-0.03423373028635972
2023-01-27 15:13:01.678071,-0.026667100669283513
2023-01-27 15:13:01.683071,-0.010529756546020574
2023-01-27 15:13:01.688071,0.007373927614762882
2023-01-27 15:13:01.693071,0.02180477045476425
2023-01-27 15:13:01.698071,0.03032486527581122
2023-01-27 15:13:01.703071,0.033248066902160575
2023-01-27 15:13:01.708071,0.03268948162327833
2023-01-27 15:13:01.713071,0.031493108719587354
2023-01-27 15:13:01.718071,0.03223930147825736
2023-01-27 15:13:01.723071,0.036277174949645795
2023-01-27 15:13:01.728071,0.04325451174770326
2023-01-27 15:13:01.733071,0.051639080047607436
2023-01-27 15:13:01.738071,0.05979748039244448
2023-01-27 15:13:01.743071,0.06673654168844215
2023-01-27 15:13:01.748071,0.07228176803932303
2023-01-27 15:13:01.753071,0.07700185477733604
2023-01-27 15:13:01.758071,0.08187076704396419
2023-01-27 15:13:01.763071,0.08755564689636226
2023-01-27 15:13:01.768071,0.093845489154265
2023-01-27 15:13:01.773071,0.09988844394683823
2023-01-27 15:13:01.778071,0.10502077259895376
2023-01-27 15:13:01.783071,0.10936041921377178
2023-01-27 15:13:01.788071,0.11384181860385617
2023-01-27 15:13:01.793071,0.11993825435638404
2023-01-27 15:13:01.798071,0.12914469152686997
2023-01-27 15:13:01.803071,0.14219979941844935
2023-01-27 15:13:01.808071,0.15852994015620037
2023-01-27 15:13:01.813071,0.17650565505027765
2023-01-27 15:13:01.818071,0.1942960104041133
2023-01-27 15:13:01.823071,0.21054705977439883
2023-01-27 15:13:01.828071,0.22457682602606138
2023-01-27 15:13:01.833071,0.23631851375102977
2023-01-27 15:13:01.838071,0.2460702322864726
2023-01-27 15:13:01.843071,0.2539642751216887
2023-01-27 15:13:01.848071,0.2594992303096329
2023-01-27 15:13:01.853071,0.2616332173347472
2023-01-27 15:13:01.858071,0.2593085533558151
2023-01-27 15:13:01.863071,0.25184869766235335
2023-01-27 15:13:01.868071,0.2390967234987015
2023-01-27 15:13:01.873071,0.22155761718749983
2023-01-27 15:13:01.878071,0.20047734442010492
2023-01-27 15:13:01.883071,0.17753939330577842
2023-01-27 15:13:01.888071,0.15431245841555313
2023-01-27 15:13:01.893071,0.13193449378013603
2023-01-27 15:13:01.898071,0.11112252239726061
2023-01-27 15:13:01.903071,0.09221951663494102
2023-01-27 15:13:01.908071,0.07527022040686725
2023-01-27 15:13:01.913071,0.06034175679087629
2023-01-27 15:13:01.918071,0.04788969120613483
2023-01-27 15:13:01.923071,0.038681231439113596
2023-01-27 15:13:01.928071,0.03326660790421898
2023-01-27 15:13:01.933071,0.03149310871958723
2023-01-27 15:13:01.938071,0.0323412687172561
2023-01-27 15:13:01.943071,0.033993326127529054
2023-01-27 15:13:01.948071,0.0341631951459997
2023-01-27 15:13:01.953071,0.030819972977042056
2023-01-27 15:13:01.958071,0.023018969660939238
2023-01-27 15:13:01.963071,0.011250972747802773
2023-01-27 15:13:01.968071,-0.0028595966007282335
2023-01-27 15:13:01.973071,-0.017140906304121017
2023-01-27 15:13:01.978071,-0.02945488007122617
2023-01-27 15:13:01.983071,-0.03827254101634021
2023-01-27 15:13:01.988071,-0.04311597574321386
2023-01-27 15:13:01.993071,-0.04454712197184563
2023-01-27 15:13:01.998071,-0.04368516557777423
2023-01-27 15:13:02.003071,-0.04166225716471662
2023-01-27 15:13:02.008071,-0.039346555237932845
2023-01-27 15:13:02.013071,-0.0372868776321411
2023-01-27 15:13:02.018071,-0.035752535369207826
2023-01-27 15:13:02.023071,-0.03488282486796368
2023-01-27 15:13:02.028071,-0.03488415844559902
2023-01-27 15:13:02.033071,-0.03601273149251932
2023-01-27 15:13:02.038071,-0.0382109827567165
2023-01-27 15:13:02.043071,-0.04070063680410385
2023-01-27 15:13:02.048071,-0.042027066482542785
2023-01-27 15:13:02.053071,-0.04070063680410375
2023-01-27 15:13:02.058071,-0.0360528214278423
2023-01-27 15:13:02.063071,-0.028776526451110736
2023-01-27 15:13:02.068071,-0.020899095309890755
2023-01-27 15:13:02.073071,-0.015193621627986478
2023-01-27 15:13:02.078071,-0.01410396149196136
2023-01-27 15:13:02.083071,-0.018535256385803184
2023-01-27 15:13:02.088071,-0.027344997106217617
2023-01-27 15:13:02.093071,-0.03815233707427971
2023-01-27 15:13:02.098071,-0.048835210383837147
2023-01-27 15:13:02.103071,-0.058298312127590034
2023-01-27 15:13:02.108071,-0.06612943696528281
2023-01-27 15:13:02.113071,-0.07224182784557344
2023-01-27 15:13:02.118071,-0.07717053880596311
2023-01-27 15:13:02.123071,-0.08207440376281729
2023-01-27 15:13:02.128071,-0.087660609684053
2023-01-27 15:13:02.133071,-0.09322921931743622
2023-01-27 15:13:02.138071,-0.09738497613151012
2023-01-27 15:13:02.143071,-0.09962400048971172
2023-01-27 15:13:02.148071,-0.10057919458469393
2023-01-27 15:13:02.153071,-0.10058562457561493
2023-01-27 15:13:02.158071,-0.0984442156060598
2023-01-27 15:13:02.163071,-0.09152233600616447
2023-01-27 15:13:02.168071,-0.07644262859999368
2023-01-27 15:13:02.173071,-0.04986008256673809
2023-01-27 15:13:02.178071,-0.01008012943670648
2023-01-27 15:13:02.183071,0.04053235054016108
2023-01-27 15:13:02.188071,0.09429907264114915
2023-01-27 15:13:02.193071,0.13972362875938402
2023-01-27 15:13:02.198071,0.16501780937537888
2023-01-27 15:13:02.203071,0.1618890017271041
2023-01-27 15:13:02.208071,0.12852871529432922
2023-01-27 15:13:02.213071,0.07096767425537101
2023-01-27 15:13:02.218071,0.0016246772201290156
2023-01-27 15:13:02.223071,-0.06495754420757291
2023-01-27 15:13:02.228071,-0.11700700461400475
2023-01-27 15:13:02.233071,-0.14854650199413288
2023-01-27 15:13:02.238071,-0.15990054516064361
2023-01-27 15:13:02.243071,-0.15635967254638666
2023-01-27 15:13:02.248071,-0.14554890840324347
2023-01-27 15:13:02.253071,-0.13424238562583918
2023-01-27 15:13:02.258071,-0.1261718333173025
2023-01-27 15:13:02.263071,-0.12190958112478245
2023-01-27 15:13:02.268071,-0.12014862980746227
2023-01-27 15:13:02.273071,-0.11902471631765361
2023-01-27 15:13:02.278071,-0.11707600862915814
2023-01-27 15:13:02.283071,-0.11395215988159169
2023-01-27 15:13:02.288071,-0.1104519855654662
2023-01-27 15:13:02.293071,-0.10762950032949438
2023-01-27 15:13:02.298071,-0.10583040336431523
2023-01-27 15:13:02.303071,-0.10462443530559531
2023-01-27 15:13:02.308071,-0.10333368522819512
2023-01-27 15:13:02.313071,-0.10133087635040279
2023-01-27 15:13:02.318071,-0.09813075316085015
2023-01-27 15:13:02.323071,-0.0936619490385055
2023-01-27 15:13:02.328071,-0.08838916808824744
2023-01-27 15:13:02.333071,-0.08286774158477785
2023-01-27 15:13:02.338071,-0.07725840782113098
2023-01-27 15:13:02.343071,-0.07147252559661867
2023-01-27 15:13:02.348071,-0.06554956928965407
2023-01-27 15:13:02.353071,-0.05954841896891591
2023-01-27 15:13:02.358071,-0.053225023826276315
2023-01-27 15:13:02.363071,-0.04615783691406265
2023-01-27 15:13:02.368071,-0.038102180094349646
2023-01-27 15:13:02.373071,-0.02899289131164559
2023-01-27 15:13:02.378071,-0.018819455535166858
2023-01-27 15:13:02.383071,-0.007861256599426193
2023-01-27 15:13:02.388071,0.003071746733986231
2023-01-27 15:13:02.393071,0.01295785140246151
2023-01-27 15:13:02.398071,0.021052515773123275
2023-01-27 15:13:02.403071,0.026853283867239914
2023-01-27 15:13:02.408071,0.029793774869682408
2023-01-27 15:13:02.413071,0.0293054189532995
2023-01-27 15:13:02.418071,0.025043753149669574
2023-01-27 15:13:02.423071,0.016756257042288666
2023-01-27 15:13:02.428071,0.004109825903939272
2023-01-27 15:13:02.433071,-0.01295785140246155
2023-01-27 15:13:02.438071,-0.033766048727160304
2023-01-27 15:13:02.443071,-0.05704820156097417
2023-01-27 15:13:02.448071,-0.0815015752302328
2023-01-27 15:13:02.453071,-0.10599474608898163
2023-01-27 15:13:02.458071,-0.12951175081371538
2023-01-27 15:13:02.463071,-0.151335209608078
2023-01-27 15:13:02.468071,-0.17121911815916033
2023-01-27 15:13:02.473071,-0.1890307664871214
2023-01-27 15:13:02.478071,-0.20425873779682055
2023-01-27 15:13:02.483071,-0.21614849567413325
2023-01-27 15:13:02.488071,-0.22426033347871047
2023-01-27 15:13:02.493071,-0.22869765758514396
2023-01-27 15:13:02.498071,-0.2300178910257231
2023-01-27 15:13:02.503071,-0.22929868102073664
2023-01-27 15:13:02.508071,-0.22814771545069235
2023-01-27 15:13:02.513071,-0.22816877067089075
2023-01-27 15:13:02.518071,-0.2302584356466594
2023-01-27 15:13:02.523071,-0.23446738719940177
2023-01-27 15:13:02.528071,-0.24027007615678658
2023-01-27 15:13:02.533071,-0.2466319054365158
2023-01-27 15:13:02.538071,-0.2520485008411479
2023-01-27 15:13:02.543071,-0.2550941705703734
2023-01-27 15:13:02.548071,-0.2551435103657364
2023-01-27 15:13:02.553071,-0.2524977922439575
2023-01-27 15:13:02.558071,-0.24801630651371026
2023-01-27 15:13:02.563071,-0.24288158118724815
2023-01-27 15:13:02.568071,-0.23843495981456506
2023-01-27 15:13:02.573071,-0.23566941916942588
2023-01-27 15:13:02.578071,-0.23474832445546184
2023-01-27 15:13:02.583071,-0.23521265387535095
2023-01-27 15:13:02.588071,-0.23658338068996385
2023-01-27 15:13:02.593071,-0.23857831954956044
2023-01-27 15:13:02.598071,-0.24100153242923794
2023-01-27 15:13:02.603071,-0.24384319782257075
2023-01-27 15:13:02.608071,-0.2473776730841672
2023-01-27 15:13:02.613071,-0.25172850489616383
2023-01-27 15:13:02.618071,-0.256300352685093
2023-01-27 15:13:02.623071,-0.25990229845047
2023-01-27 15:13:02.628071,-0.2614084698936458
2023-01-27 15:13:02.633071,-0.26019078493118275
2023-01-27 15:13:02.638071,-0.2562972963595986
2023-01-27 15:13:02.643071,-0.25076687335968
2023-01-27 15:13:02.648071,-0.24568840664946132
