-26.73
-33.73
-41.12
-47.69
-51.9
-52.31
-48.12
-39.48
-27.5
-13.98
-0.81
10.51
19.21
25.24
28.9
30.69
30.91
29.74
27.33
23.92
19.96
16.02
12.66
10.2
8.68
7.87
7.42
7.03
6.52
5.83
4.93
3.82
2.38
0.49
-1.99
-5.14
-9.02
-13.66
-19.14
-25.55
-32.78
-40.41
-47.45
-52.53
-54.17
-51.3
-43.76
-32.4
-18.89
-5.15
7.19
17.15
24.43
29.21
31.8
32.47
31.48
29.07
25.65
21.76
18.01
14.93
12.78
11.52
10.8
10.18
9.23
7.77
5.85
3.69
1.51
-0.58
-2.7
-5.12
-8.17
-12.12
-17.19
-23.41
-30.64
-38.42
-45.85
-51.7
-54.52
-53.18
-47.25
-37.31
-24.79
-11.53
0.78
11.14
19.21
25.13
29.12
31.27
31.51
29.91
26.82
22.96
19.18
16.13
14.06
12.76
11.73
10.48
8.75
6.55
4.18
1.97
0.15
-1.32
-2.73
-4.57
-7.35
-11.47
-17.12
-24.19
-32.24
-40.43
-47.6
-52.38
-53.52
-50.31
-42.82
-31.93
-19.12
-6.04
5.95
15.96
23.69
29.19
32.7
34.46
34.64
33.38
30.89
27.52
23.81
20.29
17.41
15.36
14.01
13.04
12.07
10.8
9.15
7.18
5.01
2.72
0.26
-2.52
-5.89
-10.13
-15.46
-22.01
-29.69
-38.05
-46.28
-53.22
-57.49
-57.88
-53.7
-45.07
-33.01
-19.16
-5.36
6.89
16.72
23.9
28.6
31.12
31.69
30.53
27.91
24.35
20.48
16.98
14.4
12.93
12.45
12.54
12.69
12.45
11.59
10.15
8.34
6.44
4.6
2.76
0.62
-2.24
-6.2
-11.53
-18.26
-26.15
-34.63
-42.68
-48.99
-52.15
-51.08
-45.45
-35.85
-23.66
-10.65
1.54
11.81
19.67
25.14
28.51
30.06
30.02
28.57
25.93
22.5
18.78
15.4
12.87
11.42
10.99
11.17
11.39
11.16
10.16
8.36
5.94
3.1
0.02
-3.26
-6.84
-10.87
-15.59
-21.24
-28.01
-35.86
-44.31
-52.32
-58.44
-61.11
-59.15
-52.24
-41.08
-27.15
-12.35
1.61
13.55
22.86
29.46
33.56
35.5
35.72
34.73
33.04
31.15
29.43
28.05
27.03
26.32
25.8
25.38
24.95
24.4
23.55
22.27
20.41
17.93
14.81
11.11
6.96
2.5
-2.16
-6.96
-12.02
-17.63
-24.14
-31.69
-39.98
-48.03
-54.3
-57.14
-55.32
-48.54
-37.58
-24.03
-9.76
3.58
15.01
24.12
30.96
35.73
38.65
39.94
39.94
39.09
37.9
36.82
36.03
35.49
34.99
34.31
33.39
32.35
31.43
30.86
30.76
31.06
31.5
31.7
31.24
29.68
26.74
22.34
16.72
10.42
4.08
-1.72
-6.71
-11.03
-15.11
-19.57
-24.91
-31.3
-38.47
-45.62
-51.51
-54.73
-54.05
-48.81
-39.24
-26.48
-12.26
1.53
13.38
22.41
28.45
31.79
32.95
32.46
30.84
28.59
26.35
24.7
24.15
24.84
26.52
28.6
30.36
31.3
31.32
30.69
29.88
29.24
28.73
27.97
26.38
23.57
19.57
14.85
10.12
6.03
2.94
0.78
-0.84
-2.6
-5.18
-9.26
-15.25
-23.12
-32.23
-41.28
-48.49
-52.11
-50.95
-44.8
-34.51
-21.68
-8.2
4.3
14.71
22.55
27.76
30.48
30.95
29.44
26.37
22.28
17.91
13.97
11.12
9.74
9.86
11.07
12.67
13.83
13.94
12.84
10.9
8.81
7.15
6
4.84
2.7
-1.33
-7.68
-16.14
-26
-36.36
-46.37
-55.22
-61.99
-65.68
-65.32
-60.31
-50.77
-37.66
-22.49
-7.06
7.12
19
28.09
34.35
37.99
39.39
39.01
37.39
35.11
32.7
30.57
28.97
27.86
26.98
25.92
24.29
21.88
18.7
15.02
11.22
7.59
4.25
1.09
-2.14
-5.78
-10.14
-15.48
-21.8
-28.78
-35.63
-41.19
-44.18
-43.62
-39.21
-31.47
-21.64
-11.2
-1.43
6.84
13.31
17.99
21.01
22.47
22.47
21.2
19.07
16.61
14.37
12.67
11.46
10.35
8.83
6.52
3.46
0.08
-2.99
-5.26
-6.67
-7.66
-9.01
-11.56
-15.88
-22.14
-29.93
-38.37
-46.12
-51.69
-53.74
-51.45
-44.85
-34.79
-22.77
-10.48
0.67
9.82
16.65
21.26
23.93
25
24.8
23.66
21.93
19.91
17.82
15.76
13.74
11.66
9.48
7.18
4.84
2.63
0.68
-0.97
-2.45
-4.1
-6.47
-10.12
-15.43
-22.25
-29.75
-36.49
-40.77
-41.18
-37.07
-28.76
-17.39
-4.5
8.39
20.19
30.19
38.09
43.79
47.38
49.13
49.57
49.44
49.48
50.23
51.86
54.06
56.17
57.36
56.96
54.62
50.44
44.82
38.32
31.48
24.57
17.68
10.64
3.31
-4.25
-11.53
-17.58
-21.18
-21.37
-17.9
-11.39
-3.22
5.06
12.3
18.05
22.44
25.82
28.4
30.18
31.12
31.33
31.11
30.68
29.97
28.57
25.98
22.12
17.52
13.35
10.85
10.82
13.2
17.16
21.37
24.4
25.02
22.17
15.01
2.95
-13.88
-34.4
-56.44
-77.16
-93.75
-104.35
-108.46
-107
-101.64
-94.24
-86.26
-78.69
-72.13
-66.96
-63.2
-60.46
-57.85
-54.23
-48.66
-40.91
-31.78
-22.86
-16.02
-12.71
-13.45
-17.59
-23.66
-29.86
-34.64
-37.16
-37.39
-36.08
-34.29
-33.07
-33.01
-34.05
-35.38
-35.65
-33.06
-25.87
-12.89
5.97
29.28
54.4
78.16
97.94
112.61
122.57
129.22
133.92
137.22
138.78
137.85
134.06
127.75
119.78
110.95
101.46
90.98
79.09
65.82
51.83
38.11
25.36
13.51
1.75
-11.01
-25.39
-41.03
-56.46
-69.48
-77.98
-80.78
-78.22
-72.05
-64.91
-59.37
-57.11
-58.55
-62.93
-68.89
-75.01
-80.2
-83.79
-85.38
-84.8
-82.11
-77.74
-72.51
-67.43
-63.32
-60.43
-58.37
-56.34
-53.6
-49.92
-45.73
-41.91
-39.39
-38.78
-40.24
-43.44
-47.76
-52.33
-56.02
-57.6
-55.88
-50.15
-40.51
-27.95
-14.05
-0.5
11.45
21.12
28.38
33.35
36.24
37.25
36.7
35.12
33.1
31.18
29.6
28.3
26.93
25.06
22.43
19.05
15.22
11.47
8.36
6.27
5.27
5.05
4.9
3.86
1.05
-4.07
-11.31
-19.58
-27.02
-31.55
-31.57
-26.6
-17.51
-6.22
5.03
14.51
21.4
25.82
28.35
29.55
29.63
28.54
26.21
22.74
18.47
13.78
8.88
3.83
-1.3
-6.23
-10.34
-12.88
-13.23
-11.33
-7.71
-3.38
0.57
3.36
4.68
4.56
3.18
0.61
-3.27
-8.59
-15.31
-22.91
-30.37
-36.27
-39.15
-37.94
-32.33
-22.9
-10.97
1.86
14.1
24.82
33.57
40.31
45.09
47.87
48.57
47.2
44
39.54
34.55
29.78
25.74
22.69
20.54
19.03
17.82
16.58
15.07
13.22
11.11
8.84
6.5
4.08
1.46
-1.51
-5.02
-9.22
-14.27
-20.3
-27.29
-34.83
-41.95
-47.15
-48.75
-45.57
-37.42
-25.28
-11.1
2.93
15.06
24.39
30.84
34.87
36.99
37.56
36.76
34.79
31.95
28.71
25.58
22.95
20.97
19.54
18.41
17.27
15.91
14.23
12.33
10.36
8.48
6.76
5.1
3.33
1.23
-1.37
-4.52
-8.29
-12.79
-18.19
-24.59
-31.7
-38.65
-44.04
-46.27
-44.14
-37.3
-26.54
-13.5
-0.14
11.88
21.57
28.66
33.38
36.07
37.02
36.4
34.4
31.36
27.85
24.48
21.74
19.79
18.43
17.22
15.75
13.83
11.48
8.92
6.36
3.92
1.61
-0.68
-3.08
-5.69
-8.66
-12.18
-16.48
-21.74
-27.91
-34.54
-40.74
-45.32
-46.99
-44.84
-38.7
-29.24
-17.84
-6.18
4.25
12.5
18.21
21.47
22.59
21.87
19.64
16.25
12.15
7.86
3.91
0.64
-1.81
-3.64
-5.23
-6.97
-9.16
-11.81
-14.72
-17.56
-20.08
-22.27
-24.4
-26.86
-30
-33.98
-38.72
-43.91
-48.98
-53.15
-55.46
-54.93
-50.87
-43.08
-32.16
-19.3
-5.99
6.33
16.66
24.56
29.97
33.06
34.05
33.17
30.76
27.34
23.56
20.02
17.13
14.89
13
11.03
8.65
5.86
2.98
0.44
-1.46
-2.77
-3.88
-5.4
-7.97
-12.02
-17.63
-24.43
-31.62
-37.98
-42.16
-42.94
-39.63
-32.31
-21.8
-9.52
2.95
14.23
23.46
30.28
34.68
36.88
37.09
35.58
32.68
28.83
24.56
20.31
16.38
12.8
9.47
6.22
3.01
-0.07
-2.86
-5.25
-7.28
-9.16
-11.31
-14.2
-18.32
-23.96
-31
-38.68
-45.66
-50.25
-50.92
-46.88
-38.35
-26.58
-13.35
-0.46
10.79
19.7
26.07
30.05
31.83
31.67
29.9
27.01
23.54
19.99
16.72
13.87
11.38
9.07
6.86
4.7
2.66
0.81
-0.85
-2.5
-4.47
-7.23
-11.26
-16.79
-23.67
-31.17
-38
-42.61
-43.6
-40.19
-32.53
-21.72
-9.45
2.51
12.8
20.69
26.07
29.21
30.47
30.22
28.75
26.39
23.52
20.48
17.53
14.73
12.01
9.22
6.36
3.56
1.07
-0.95
-2.49
-3.83
-5.49
-8.04
-11.97
-17.47
-24.27
-31.58
-38.13
-42.45
-43.21
-39.67
-31.96
-21.08
-8.57
3.85
14.79
23.43
29.51
33.17
34.72
34.45
32.64
29.64
25.87
21.92
18.32
15.42
13.26
11.61
10.11
8.49
6.68
4.79
2.95
1.18
-0.73
-3.25
-6.91
-12.15
-19.02
-26.96
-34.79
-40.82
-43.4
-41.32
-34.29
-23.06
-9.14
5.62
19.5
31.21
39.98
45.48
47.71
46.99
43.89
39.2
33.77
28.33
23.37
19.05
15.28
11.82
8.45
5.1
1.82
-1.2
-3.82
-6.05
-8.11
-10.39
-13.41
-17.58
-23.14
-29.94
-37.36
-44.24
-49.04
-50.24
-46.8
-38.61
-26.58
-12.43
1.92
14.93
25.71
34.09
40.25
44.42
46.72
47.26
46.25
44.12
41.51
39.01
36.95
35.32
33.78
31.93
29.5
26.51
23.24
20.07
17.21
14.68
12.22
9.39
5.66
0.61
-5.99
-13.95
-22.57
-30.53
-36.17
-37.9
-34.73
-26.71
-14.85
-0.89
13.33
26.29
37
44.99
50.12
52.45
52.29
50.18
46.89
43.24
39.89
37.2
35.2
33.73
32.55
31.48
30.45
29.41
28.32
27.09
25.58
23.59
20.97
17.66
13.78
9.6
5.42
1.44
-2.4
-6.44
-11.14
-16.95
-24.07
-32.23
-40.62
-48
-52.83
-53.77
-50.04
-41.74
-29.89
-16.12
-2.21
10.39
20.83
28.83
34.48
38.04
39.81
40.12
39.33
37.86
36.16
34.53
33.11
31.83
30.53
29.08
27.46
25.8
24.28
23.03
21.98
20.88
19.38
17.17
14.14
10.4
6.27
2.11
-1.85
-5.57
-9.18
-12.97
-17.3
-22.49
-28.65
-35.52
-42.41
-48.13
-51.34
-50.93
-46.4
-38.04
-26.93
-14.56
-2.42
8.32
16.96
23.26
27.29
29.34
29.82
29.26
28.26
27.35
26.88
26.95
27.35
27.68
27.54
26.66
25.09
23.08
21.06
19.35
18.04
16.98
15.81
14.16
11.81
8.75
5.21
1.49
-2.12
-5.5
-8.73
-12.04
-15.73
-20
-24.89
-30.1
-35.06
-38.9
-40.74
-39.87
-36
-29.37
-20.73
-11.11
-1.61
6.84
13.66
18.64
21.88
23.65
24.27
24.08
23.47
22.83
22.5
22.63
23.13
23.61
23.58
22.71
20.99
18.74
16.46
14.52
12.95
11.5
9.73
7.29
4.08
0.32
-3.61
-7.31
-10.52
-13.24
-15.72
-18.37
-21.66
-25.92
-31.24
-37.35
-43.56
-48.82
-51.96
-51.94
-48.22
-40.91
-30.89
-19.57
-8.55
0.79
7.63
11.77
13.6
13.73
12.83
11.38
9.68
7.88
6.12
4.54
3.29
2.51
2.2
2.29
2.65
3.15
3.69
4.21
4.54
4.51
3.92
2.65
0.74
-1.63
-4.18
-6.72
-9.15
-11.58
-14.25
-17.47
-21.5
-26.27
-31.29
-35.57
-37.88
-37.12
-32.74
-25.05
-15.12
-4.54
5.13
12.72
17.75
20.32
20.95
20.27
18.8
16.9
14.69
12.26
9.72
7.27
5.24
3.81
2.96
2.4
1.75
0.7
-0.78
-2.47
-4.07
-5.47
-6.77
-8.26
-10.18
-12.63
-15.55
-18.85
-22.53
-26.64
-31.06
-35.35
-38.58
-39.65
-37.66
-32.37
-24.36
-14.83
-5.2
3.39
10.3
15.41
18.86
20.82
21.36
20.5
18.38
15.41
12.19
9.37
7.36
6.22
5.66
5.18
4.4
3.16
1.6
-0.02
-1.46
-2.65
-3.78
-5.15
-7.12
-10.01
-13.98
-19.04
-24.92
-31.08
-36.65
-40.58
-41.87
-39.81
-34.32
-26.02
-16.12
-6.07
2.85
9.94
15.03
18.42
20.53
21.64
21.84
21.08
19.49
17.37
15.22
13.49
12.35
11.62
10.88
9.64
7.69
5.13
2.34
-0.25
-2.37
-4.01
-5.44
-7.04
-9.21
-12.27
-16.43
-21.69
-27.85
-34.35
-40.23
-44.27
-45.28
-42.5
-35.91
-26.37
-15.34
-4.44
5.05
12.44
17.71
21.2
23.41
24.67
25.14
24.85
23.8
22.13
20.11
18.05
16.23
14.79
13.65
12.61
11.46
10.07
8.42
6.6
4.67
2.62
0.33
-2.33
-5.43
-8.99
-13.02
-17.55
-22.73
-28.61
-35.01
-41.28
-46.31
-48.81
-47.66
-42.38
-33.37
-21.83
-9.42
2.23
11.96
19.24
24.13
26.99
28.28
28.37
27.58
26.18
24.46
22.69
21.09
19.74
18.6
17.58
16.55
15.45
14.26
13.01
11.71
10.29
8.65
6.59
4.01
0.89
-2.61
-6.21
-9.62
-12.78
-15.91
-19.49
-24.05
-29.93
-36.9
-44.16
-50.39
-54.15
-54.27
-50.25
-42.39
-31.72
-19.71
-7.82
2.82
11.56
18.16
22.65
25.22
26.16
25.83
24.71
23.35
22.17
21.4
20.97
20.63
20.02
18.99
17.6
16.16
15.01
14.36
14.13
13.98
13.43
12.05
9.66
6.36
2.46
-1.63
-5.59
-9.3
-12.84
-16.47
-20.56
-25.47
-31.44
-38.33
-45.55
-51.95
-56.08
-56.63
-52.83
-44.81
-33.55
-20.61
-7.65
4.05
13.74
21.16
26.43
29.75
31.42
31.74
31.06
29.81
28.32
26.85
25.51
24.22
22.87
21.36
19.72
18.07
16.62
15.57
14.94
14.55
13.99
12.78
10.54
7.18
2.92
-1.74
-6.25
-10.2
-13.53
-16.47
-19.55
-23.36
-28.33
-34.53
-41.56
-48.44
-53.83
-56.33
-54.9
-49.22
-39.82
-27.92
-14.99
-2.43
8.78
18.09
25.27
30.3
33.3
34.51
34.31
33.22
31.76
30.29
28.95
27.65
26.17
24.33
22.14
19.81
17.68
16.06
15.06
14.47
13.91
12.89
11.08
8.38
4.94
1.04
-3.01
-6.96
-10.7
-14.29
-18
-22.25
-27.47
-33.83
-40.94
-47.74
-52.68
-54.16
-51.15
-43.55
-32.3
-19.09
-5.8
6.11
15.81
23.14
28.34
31.74
33.59
33.98
33.05
31.04
28.36
25.45
22.65
20.12
17.84
15.74
13.76
11.96
10.4
9.04
7.74
6.25
4.36
1.95
-0.9
-4.05
-7.32
-10.61
-14.03
-17.83
-22.39
-27.99
-34.63
-41.76
-48.27
-52.71
-53.72
-50.47
-43.02
-32.31
-19.86
-7.29
4.1
13.54
20.77
25.85
28.97
30.26
29.94
28.25
25.59
22.44
19.31
16.53
14.21
12.18
10.16
7.89
5.31
2.6
0.14
-1.73
-2.92
-3.65
-4.41
-5.81
-8.37
-12.37
-17.86
-24.58
-31.94
-39.04
-44.73
-47.78
-47.29
-42.91
-35.06
-24.79
-13.49
-2.43
7.45
15.63
21.9
26.2
28.54
29.01
27.9
25.61
22.7
19.64
16.75
14.08
11.49
8.79
5.87
2.84
-0.06
-2.49
-4.25
-5.39
-6.24
-7.38
-9.46
-13.05
-18.4
-25.35
-33.2
-40.8
-46.68
-49.43
-48.09
-42.5
-33.32
-21.85
-9.62
2.07
12.33
20.72
27.08
31.31
33.42
33.52
31.95
29.26
26.1
23.01
20.3
17.99
15.88
13.69
11.19
8.34
5.23
2.13
-0.72
-3.22
-5.49
-7.91
-11.07
-15.55
-21.69
-29.3
-37.45
-44.62
-49.04
-49.25
-44.63
-35.62
-23.58
-10.24
2.83
14.56
24.45
32.28
37.97
41.36
42.39
41.2
38.28
34.37
30.28
26.67
23.83
21.66
19.75
17.58
14.76
11.18
7.04
2.79
-1.09
-4.33
-7.06
-9.68
-12.84
-17.11
-22.9
-30.23
-38.72
-47.53
-55.4
-60.84
-62.42
-59.19
-51.05
-38.85
-24.22
-9.09
4.89
16.67
25.93
32.83
37.72
40.83
42.31
42.25
40.89
38.61
35.91
33.27
30.96
29.03
27.38
25.82
24.17
22.31
20.22
17.89
15.38
12.7
9.85
6.76
3.26
-0.85
-5.84
-11.96
-19.33
-27.79
-36.74
-45.03
-51.12
-53.48
-51.1
-43.86
-32.63
-18.99
-4.79
8.42
19.61
28.34
34.61
38.59
40.54
40.7
39.37
36.89
33.67
30.23
27.05
24.5
22.71
21.49
20.46
19.17
17.37
15.1
12.53
9.9
7.3
4.68
1.83
-1.47
-5.48
-10.45
-16.64
-24.07
-32.39
-40.69
-47.56
-51.45
-51.15
-46.25
-37.26
-25.45
-12.45
0.26
11.65
21.19
28.71
34.18
37.6
38.99
38.52
36.53
33.62
30.43
27.5
25.11
23.2
21.45
19.48
17.02
14.06
10.81
7.63
4.84
2.59
0.75
-1.1
-3.59
-7.37
-12.94
-20.35
-29.02
-37.74
-44.87
-48.71
-48.06
-42.62
-33.12
-20.98
-7.91
4.63
15.71
24.94
32.23
37.55
40.87
42.14
41.49
39.28
36.1
32.6
29.34
26.61
24.4
22.46
20.41
17.97
15.06
11.86
8.66
5.77
3.23
0.9
-1.66
-4.95
-9.45
-15.43
-22.86
-31.25
-39.56
-46.4
-50.17
-49.6
-44.17
-34.3
-21.3
-6.99
6.92
19.12
28.95
36.24
41.13
43.87
44.76
44.14
42.44
40.16
37.76
35.54
33.6
31.83
30.02
28.04
25.91
23.79
21.88
20.27
18.8
17.09
14.78
11.62
7.67
3.22
-1.31
-5.67
-9.85
-14.14
-18.98
-24.86
-32.05
-40.4
-49.19
-57.11
-62.45
-63.61
-59.58
-50.41
-37.26
-22.01
-6.7
7.05
18.37
27.01
33.12
36.94
38.72
38.72
37.39
35.32
33.1
31.18
29.64
28.29
26.83
25.08
23.11
21.22
19.76
18.88
18.46
18.1
17.28
15.6
12.89
9.27
5.06
0.64
-3.67
-7.68
-11.43
-15.18
-19.37
-24.45
-30.64
-37.66
-44.6
-50.07
-52.49
-50.67
-44.2
-33.67
-20.54
-6.69
6.07
16.45
23.9
28.52
30.88
31.66
31.4
30.39
28.69
26.27
23.17
19.66
16.19
13.25
11.18
10.07
9.64
9.44
8.96
7.84
5.98
3.54
0.79
-1.98
-4.71
-7.48
-10.57
-14.31
-18.97
-24.66
-31.21
-38.1
-44.45
-49.08
-50.82
-48.8
-42.81
-33.45
-21.95
-9.83
1.55
11.26
18.86
24.24
27.5
28.79
28.37
26.61
23.97
20.94
17.91
15.11
12.64
10.43
8.37
6.35
4.22
1.94
-0.43
-2.78
-4.9
-6.73
-8.37
-10.17
-12.6
-16.11
-21.01
-27.28
-34.5
-41.82
-48.09
-51.94
-52.26
-48.39
-40.48
-29.44
-16.73
-3.96
7.58
17.07
24.26
29.22
32.15
33.23
32.59
30.45
27.23
23.52
19.99
17.09
14.95
13.27
11.54
9.36
6.64
3.69
0.98
-1.16
-2.77
-4.28
-6.3
-9.33
-13.64
-19.2
-25.72
-32.71
-39.42
-44.79
-47.63
-46.88
-42.05
-33.41
-22.09
-9.67
2.26
12.54
20.66
26.57
30.54
32.75
33.28
32.09
29.33
25.41
21.1
17.26
14.53
12.92
11.83
10.27
7.41
2.97
-2.59
-8.41
-13.61
-17.72
-20.74
-22.97
-24.81
-26.57
-28.57
-31.15
-34.57
-38.75
-43.06
-46.22
-46.75
-43.51
-36.23
-25.67
-13.33
-0.93
10.11
19.05
25.71
30.29
33.13
34.45
34.4
33.04
30.54
27.23
23.63
20.33
17.83
16.32
15.6
15.22
14.7
13.67
12.03
9.83
7.14
3.99
0.3
-3.96
-8.73
-13.91
-19.38
-25.17
-31.37
-37.95
-44.44
-49.87
-52.9
-52.27
-47.33
-38.34
-26.49
-13.44
-0.81
10.26
19.28
26.26
31.4
34.84
36.62
36.75
35.4
32.96
30.02
27.15
24.71
22.75
21.07
19.37
17.39
15.09
12.57
10.05
7.72
5.66
3.79
1.9
-0.35
-3.37
-7.55
-13.18
-20.28
-28.48
-36.96
-44.5
-49.69
-51.27
-48.51
-41.47
-31.01
-18.58
-5.76
6.05
15.91
23.39
28.42
31.18
31.9
30.91
28.62
25.54
22.22
19.15
16.63
14.65
13
11.29
9.22
6.69
3.89
1.19
-1.03
-2.66
-3.9
-5.31
-7.6
-11.38
-17
-24.3
-32.58
-40.66
-47.09
-50.5
-49.95
-45.21
-36.8
-25.83
-13.7
-1.76
8.98
17.87
24.62
29.14
31.51
31.91
30.64
28.14
24.93
21.5
18.25
15.35
12.77
10.32
7.77
5.06
2.3
-0.27
-2.38
-3.96
-5.23
-6.73
-9.15
-13.12
-18.94
-26.33
-34.39
-41.74
-46.82
-48.27
-45.42
-38.4
-28.11
-15.98
-3.51
8.08
18
25.86
31.57
35.1
36.52
36
33.86
30.62
26.89
23.3
20.22
17.8
15.83
13.93
11.73
9.05
6.02
2.99
0.33
-1.75
-3.44
-5.26
-7.94
-12.16
-18.28
-26.15
-35
-43.55
-50.21
-53.42
-52.11
-46.01
-35.75
-22.76
-8.78
4.54
16.06
25.23
32.03
36.64
39.36
40.45
40.17
38.78
36.57
33.86
30.91
27.93
25.1
22.53
20.29
18.33
16.54
14.73
12.73
10.43
7.82
4.97
1.97
-1.18
-4.55
-8.34
-12.82
-18.29
-24.97
-32.91
-41.74
-50.59
-58.06
-62.5
-62.45
-57.12
-46.75
-32.63
-16.69
-0.96
12.97
24.2
32.55
38.19
41.48
42.8
42.54
41.21
39.36
37.5
35.94
34.7
33.57
32.3
30.76
29.03
27.33
25.93
24.95
24.28
23.63
22.59
20.76
17.92
14.05
9.38
4.32
-0.71
-5.44
-9.84
-14.16
-18.81
-24.26
-30.87
-38.7
-47.31
-55.65
-62.21
-65.29
-63.58
-56.64
-45.08
-30.46
-14.77
0.18
13.1
23.38
30.92
35.85
38.41
38.94
37.94
36.01
33.78
31.69
29.93
28.47
27.1
25.69
24.19
22.74
21.52
20.64
20.06
19.48
18.51
16.76
14.03
10.34
5.99
1.38
-3.08
-7.15
-10.79
-14.23
-17.93
-22.48
-28.35
-35.58
-43.56
-50.98
-56.12
-57.34
-53.65
-45.12
-32.85
-18.64
-4.4
8.32
18.6
26.18
31.21
34.03
35.01
34.55
33.04
30.88
28.5
26.21
24.2
22.51
21.07
19.75
18.49
17.28
16.13
15.05
13.94
12.58
10.72
8.21
5.05
1.46
-2.28
-5.98
-9.62
-13.49
-18.01
-23.61
-30.5
-38.42
-46.61
-53.76
-58.35
-58.95
-54.76
-45.86
-33.32
-18.87
-4.37
8.63
19.21
27.1
32.46
35.63
36.98
36.83
35.55
33.5
31.09
28.63
26.28
24.07
21.94
19.83
17.76
15.85
14.24
12.96
11.92
10.85
9.43
7.34
4.4
0.66
-3.67
-8.25
-12.8
-17.2
-21.58
-26.35
-31.97
-38.69
-46.22
-53.61
-59.31
-61.68
-59.51
-52.48
-41.31
-27.42
-12.58
1.65
14.15
24.24
31.61
36.21
38.24
38.15
36.63
34.39
32.01
29.78
27.68
25.57
23.28
20.87
18.53
16.55
15.14
14.33
13.95
13.65
13.01
11.67
9.39
6.15
2.09
-2.49
-7.22
-11.82
-16.22
-20.56
-25.35
-31.1
-38.13
-46.17
-54.21
-60.63
-63.61
-61.76
-54.63
-42.93
-28.3
-12.79
1.79
14.23
24.02
31.18
35.91
38.45
39.09
38.21
36.37
34.18
32.12
30.43
29.01
27.6
25.97
24.04
21.95
19.96
18.28
17.01
16.05
15.12
13.89
12.04
9.36
5.86
1.77
-2.59
-6.91
-11.02
-14.98
-19.07
-23.68
-29.16
-35.74
-43.33
-51.44
-59.1
-64.95
-67.53
-65.62
-58.75
-47.42
-33.04
-17.55
-2.86
9.61
19.2
25.95
30.29
32.75
33.75
33.53
32.25
30.06
27.22
24.08
21.02
18.34
16.22
14.64
13.54
12.74
12.09
11.41
10.48
9.1
7.11
4.5
1.41
-1.86
-4.99
-7.8
-10.29
-12.74
-15.66
-19.63
-25.11
-32.07
-39.83
-47
-51.78
-52.54
-48.34
-39.38
-26.98
-13.06
0.45
12.11
21.28
27.85
32.02
34.01
34.05
32.49
29.88
26.89
24.05
21.61
19.43
17.26
14.93
12.56
10.49
9.05
8.3
7.97
7.55
6.54
4.65
1.85
-1.66
-5.6
-9.68
-13.72
-17.69
-21.79
-26.46
-32.13
-38.98
-46.56
-53.73
-58.82
-60.15
-56.65
-48.27
-36.04
-21.72
-7.24
5.81
16.46
24.4
29.75
32.83
34.02
33.65
32.01
29.44
26.28
22.92
19.72
16.96
14.77
13.11
11.78
10.54
9.16
7.49
5.48
3.15
0.57
-2.21
-5.2
-8.46
-12.05
-16.02
-20.46
-25.48
-31.25
-37.88
-45.21
-52.55
-58.62
-61.81
-60.68
-54.53
-43.78
-29.92
-15
-0.94
10.96
20.22
26.91
31.35
33.79
34.39
33.29
30.81
27.45
23.8
20.43
17.69
15.65
14.15
12.9
11.61
10.11
8.33
6.27
3.98
1.49
-1.16
-3.91
-6.73
-9.69
-13
-17.07
-22.39
-29.24
-37.51
-46.42
-54.59
-60.31
-62.01
-58.8
-50.71
-38.71
-24.45
-9.79
3.76
15.25
24.35
31.14
35.87
38.7
39.72
38.99
36.71
33.33
29.41
25.56
22.23
19.65
17.77
16.39
15.28
14.13
12.76
11.01
8.83
6.25
3.36
0.25
-3.05
-6.57
-10.49
-15.06
-20.61
-27.36
-35.2
-43.55
-51.24
-56.7
-58.35
-55.17
-47.06
-35.04
-20.86
-6.49
6.43
16.96
24.86
30.35
33.76
35.34
35.21
33.51
30.53
26.79
22.96
19.7
17.39
16.1
15.54
15.25
14.73
13.67
11.96
9.66
6.93
3.93
0.72
-2.7
-6.4
-10.52
-15.27
-20.92
-27.68
-35.54
-44.06
-52.23
-58.62
-61.63
-60.05
-53.5
-42.63
-28.92
-14.23
-0.24
11.91
21.71
29.06
34.06
36.86
37.6
36.57
34.19
31.08
27.85
25.04
22.99
21.79
21.24
21.02
20.68
19.82
18.24
15.98
13.23
10.22
7.08
3.72
-0.08
-4.59
-9.99
-16.39
-23.73
-31.79
-40.05
-47.59
-53.19
-55.47
-53.32
-46.34
-34.97
-20.44
-4.42
11.39
25.53
36.96
45.07
49.64
50.9
49.53
46.47
42.74
39.17
36.21
33.89
32.01
30.33
28.75
27.34
26.25
25.55
25.16
24.82
24.15
22.78
20.47
17.15
12.98
8.27
3.28
-1.84
-7.11
-12.82
-19.38
-27.19
-36.45
-46.88
-57.52
-66.82
-72.94
-74.26
-69.91
-60.1
-46.04
-29.58
-12.65
3.13
16.7
27.51
35.39
40.44
43.02
43.65
42.96
41.62
40.13
38.78
37.61
36.53
35.42
34.26
33.11
32.16
31.54
31.25
31.11
30.79
29.86
27.99
25.03
21.01
16.16
10.81
5.33
0.01
-5.05
-9.99
-15.25
-21.41
-28.88
-37.64
-46.95
-55.41
-61.24
-62.81
-59.19
-50.43
-37.6
-22.49
-7.07
6.91
18.33
26.69
32.15
35.17
36.33
36.16
35.02
33.18
30.87
28.38
25.96
23.9
22.32
21.2
20.35
19.54
18.55
17.28
15.71
13.88
11.81
9.45
6.72
3.53
-0.15
-4.32
-9.01
-14.33
-20.49
-27.66
-35.72
-44.07
-51.51
-56.53
-57.62
-53.89
-45.33
-32.92
-18.36
-3.6
9.68
20.45
28.34
33.64
36.82
38.39
38.61
37.57
35.37
32.25
28.64
25.13
22.18
20.02
18.5
17.29
15.99
14.4
12.52
10.5
8.46
6.42
4.22
1.59
-1.72
-5.94
-11.22
-17.67
-25.26
-33.66
-42.1
-49.33
-53.86
-54.34
-50.07
-41.26
-29.02
-15.06
-1.18
11.17
21.14
28.47
33.34
36.13
37.24
37.01
35.7
33.58
30.89
27.96
25.1
22.59
20.59
19.12
18.03
17.12
16.14
14.91
13.32
11.35
9.07
6.53
3.73
0.58
-3.14
-7.7
-13.37
-20.36
-28.62
-37.75
-46.86
-54.56
-59.27
-59.54
-54.63
-44.8
-31.29
-16.05
-1.11
11.95
22.25
29.66
34.48
37.22
38.35
38.23
37.15
35.32
32.95
30.22
27.35
24.54
21.99
19.83
18.1
16.72
15.51
14.26
12.8
11.02
8.89
6.41
3.59
0.44
-3.06
-6.97
-11.37
-16.39
-22.22
-28.88
-36.1
-43.12
-48.68
-51.29
-49.66
-43.26
-32.58
-19.09
-4.79
8.39
19.11
26.83
31.76
34.44
35.46
35.12
33.55
30.78
27.01
22.69
18.46
14.95
12.54
11.19
10.53
10.02
9.19
7.83
5.99
3.91
1.76
-0.44
-2.84
-5.71
-9.26
-13.65
-18.9
-24.99
-31.79
-38.9
-45.64
-50.91
-53.43
-52.1
-46.44
-36.83
-24.47
-11.02
1.9
13.14
22.14
28.78
33.13
35.28
35.28
33.33
29.87
25.62
21.43
17.99
15.59
14.08
12.97
11.66
9.78
7.3
4.49
1.79
-0.48
-2.25
-3.78
-5.51
-7.93
-11.5
-16.5
-22.94
-30.44
-38.14
-44.81
-49.02
-49.56
-45.79
-37.97
-27.14
-14.83
-2.6
8.4
17.5
24.42
29.14
31.64
31.99
30.38
27.27
23.37
19.45
16.15
13.73
12.06
10.67
9.12
7.09
4.6
1.89
-0.64
-2.72
-4.32
-5.67
-7.26
-9.64
-13.31
-18.55
-25.26
-32.88
-40.34
-46.2
-48.95
-47.48
-41.44
-31.49
-19.08
-6.02
6.05
16.12
23.84
29.31
32.79
34.41
34.22
32.28
28.92
24.71
20.41
16.69
13.92
12.07
10.81
9.65
8.23
6.39
4.2
1.92
-0.23
-2.16
-3.97
-5.98
-8.6
-12.23
-17.17
-23.5
-30.93
-38.78
-45.89
-50.83
-52.23
-49.2
-41.73
-30.8
-18.09
-5.37
5.94
15.12
22.1
27.07
30.22
31.56
31
28.61
24.79
20.3
15.99
12.57
10.38
9.3
8.9
8.67
8.18
7.27
6.02
4.67
3.48
2.46
1.39
-0.22
-2.94
-7.25
-13.25
-20.59
-28.47
-35.71
-41
-43.17
-41.53
-36
-27.2
-16.28
-4.64
6.45
16.08
23.76
29.32
32.75
34.07
33.35
30.8
26.92
22.38
17.93
14.21
11.55
9.92
9.03
8.42
7.66
6.51
4.92
3.05
1.14
-0.65
-2.33
-4.11
-6.36
-9.53
-14.03
-20.06
-27.47
-35.54
-43.03
-48.33
-49.91
-46.79
-39
-27.6
-14.36
-1.19
10.45
19.82
26.79
31.57
34.36
35.19
34.05
31.07
26.68
21.65
16.85
13.06
10.73
9.85
10.04
10.74
11.37
11.55
11.17
10.3
9.15
7.84
6.27
4.14
1
-3.54
-9.72
-17.43
-26.17
-35
-42.61
-47.58
-48.73
-45.56
-38.43
-28.54
-17.52
-6.86
2.48
10.23
16.53
21.53
25.07
26.75
26.14
23.24
18.62
13.31
8.5
5.05
3.28
2.96
3.57
4.57
5.64
6.74
8.02
9.61
11.53
13.59
15.45
16.66
16.8
15.46
12.3
7.18
0.31
-7.54
-15.04
-20.55
-22.57
-20.25
-13.72
-4.07
7.09
18.12
27.78
35.38
40.76
43.95
45.06
44.2
41.55
37.42
32.29
26.79
21.48
16.81
12.9
9.62
6.58
3.34
-0.42
-4.83
-9.75
-14.9
-19.92
-24.49
-28.4
-31.55
-34.02
-36.07
-38.11
-40.52
-43.34
-46.08
-47.73
-46.89
-42.36
-33.53
-20.82
-5.52
10.52
25.46
37.98
47.44
53.82
57.4
58.44
57.09
53.48
47.93
41.13
34.04
27.7
22.83
19.58
17.5
15.77
13.57
10.43
6.23
1.16
-4.5
-10.54
-16.82
-23.17
-29.4
-35.37
-41.13
-46.9
-52.89
-58.98
-64.46
-68.04
-68.27
-64.15
-55.68
-43.96
-30.84
-18.27
-7.65
0.35
5.75
8.83
9.91
9.25
7.12
3.99
0.52
-2.52
-4.56
-5.44
-5.44
-5.17
-5.25
-6.08
-7.64
-9.52
-11.14
-12.01
-12.03
-11.59
-11.57
-13
-16.8
-23.32
-32.16
-42.1
-51.3
-57.79
-59.95
-57
-49.25
-37.95
-24.91
-11.94
-0.38
9.09
16.32
21.41
24.48
25.6
24.89
22.71
19.77
16.9
14.84
13.89
13.84
14.11
14.13
13.56
12.51
11.33
10.42
9.97
9.87
9.69
8.87
6.8
3.05
-2.59
-9.83
-17.85
-25.3
-30.53
-32.08
-29.13
-21.84
-11.3
0.79
12.69
23.07
31.23
37.02
40.58
42.16
41.92
40.12
37.15
33.63
30.29
27.73
26.15
25.26
24.46
23.08
20.73
17.49
13.79
10.21
7.19
4.9
3.16
1.61
-0.16
-2.66
-6.41
-11.83
-19.05
-27.52
-35.92
-42.38
-45.07
-42.88
-35.97
-25.8
-14.61
-4.63
2.61
6.62
7.88
7.37
6.13
4.84
3.82
3.05
2.35
1.62
0.88
0.3
0.15
0.57
1.52
2.7
3.67
4.04
3.63
2.48
0.87
-0.9
-2.63
-4.36
-6.34
-8.94
-12.57
-17.53
-23.88
-31.26
-38.82
-45.27
-49.18
-49.28
-44.93
-36.4
-24.8
-11.76
0.98
12.08
20.73
26.71
30.15
31.41
30.88
29.05
26.4
23.4
20.41
17.68
15.27
13.17
11.31
9.6
7.88
5.89
3.37
0.12
-3.84
-8.22
-12.56
-16.36
-19.28
-21.26
-22.51
-23.51
-24.81
-27.03
-30.58
-35.63
-41.84
-48.33
-53.72
-56.45
-55.18
-49.25
-38.94
-25.47
-10.61
3.82
16.44
26.56
34.21
39.75
43.62
46.03
47.03
46.6
44.85
42.14
38.99
35.91
33.25
31.02
28.93
26.65
23.86
20.49
16.69
12.78
9.1
5.92
3.41
1.54
0.03
-1.62
-4.13
-8.27
-14.57
-23.01
-32.88
-42.8
-50.97
-55.77
-56.14
-51.96
-44.01
-33.71
-22.67
-12.26
-3.41
3.51
8.49
11.68
13.2
13.1
11.44
8.44
4.66
0.99
-1.56
-2.23
-0.82
2.23
5.94
9.26
11.5
12.46
12.42
11.85
11.06
10.09
8.75
6.77
3.98
0.39
-3.92
-8.85
-14.38
-20.5
-27
-33.24
-38.07
-40.01
-37.7
-30.51
-18.92
-4.53
10.42
23.81
34.25
41.42
45.85
48.44
49.97
50.74
50.68
49.53
47.15
43.72
39.67
35.59
32.02
29.29
27.43
26.24
25.4
24.59
23.55
22.13
20.27
17.95
15.27
12.37
9.47
6.83
4.53
2.37
-0.28
-4.28
-10.43
-18.95
-29.15
-39.41
-47.57
-51.64
-50.48
-44.21
-34.1
-22.13
-10.27
0.06
8.24
14.34
18.77
21.97
24.14
25.3
25.41
24.56
23.07
21.39
20
19.15
18.83
18.79
18.7
18.28
17.44
16.21
14.72
13.07
11.3
9.37
7.17
4.61
1.55
-2.11
-6.51
-11.84
-18.22
-25.58
-33.42
-40.71
-46
-47.78
-45.07
-37.84
-27.21
-15.11
-3.61
5.69
12.13
15.86
17.53
17.76
16.87
14.94
12.01
8.3
4.32
0.69
-2
-3.48
-3.84
-3.52
-3.08
-3.03
-3.68
-5.03
-6.87
-8.91
-10.9
-12.82
-14.85
-17.35
-20.68
-25.17
-31.02
-38.22
-46.46
-54.93
-62.33
-66.99
-67.32
-62.39
-52.32
-38.43
-22.78
-7.59
5.44
15.48
22.52
27.02
29.57
30.65
30.53
29.54
28.05
26.59
25.65
25.61
26.48
27.91
29.31
30.1
29.94
28.91
27.43
26.07
25.19
24.77
24.38
23.37
21.15
17.38
12.05
5.48
-1.72
-8.69
-14.32
-17.41
-16.91
-12.3
-3.81
7.45
19.81
31.53
41.24
48.3
52.68
54.86
55.34
54.5
52.43
49.14
44.66
39.22
33.32
27.58
22.52
18.37
15
11.95
8.72
4.98
0.68
-3.88
-8.31
-12.31
-15.83
-19.05
-22.26
-25.74
-29.69
-34.32
-39.82
-46.22
-53.18
-59.77
-64.5
-65.69
-62.13
-53.58
-40.99
-26.28
-11.69
0.91
10.48
16.8
20.35
21.87
22.05
21.46
20.42
19.14
17.73
16.27
14.83
13.45
12.19
11.07
10.1
9.24
8.37
7.36
6.07
4.4
2.3
-0.24
-3.19
-6.55
-10.35
-14.62
-19.43
-24.89
-31.08
-37.98
-45.35
-52.51
-58.28
-61.19
-59.94
-53.91
-43.57
-30.39
-16.41
-3.53
6.99
14.73
19.9
22.93
24.25
24.19
23.06
21.26
19.25
17.4
15.91
14.76
13.84
13.1
12.58
12.41
12.63
13.16
13.76
14.1
13.91
12.99
11.23
8.56
5.02
0.63
-4.54
-10.42
-17.01
-24.37
-32.63
-41.82
-51.56
-60.97
-68.61
-72.88
-72.54
-67.24
-57.74
-45.77
-33.39
-22.36
-13.71
-7.64
-3.81
-1.77
-1.29
-2.32
-4.78
-8.31
-12.11
-15.17
-16.52
-15.57
-12.32
-7.27
-1.24
4.89
10.36
14.64
17.45
18.69
18.46
16.94
14.36
10.94
6.81
1.96
-3.68
-10.21
-17.58
-25.35
-32.63
-38.15
-40.53
-38.71
-32.42
-22.28
-9.66
3.72
16.32
27.1
35.59
41.76
45.77
47.79
47.97
46.51
43.71
40.03
36.02
32.25
29.18
27.03
25.73
24.94
24.21
23.11
21.48
19.38
17.01
14.56
12.04
9.3
6.12
2.25
-2.45
-8.14
-14.82
-22.33
-30.1
-37.06
-41.77
-42.77
-39.12
-30.81
-18.84
-5
8.79
20.94
30.57
37.45
41.85
44.12
44.59
43.46
40.96
37.41
33.29
29.12
25.38
22.41
20.25
18.77
17.61
16.34
14.62
12.25
9.32
6.07
2.83
-0.23
-3.18
-6.33
-10.07
-14.63
-20.11
-26.47
-33.61
-41.38
-49.31
-56.48
-61.47
-62.78
-59.37
-51.23
-39.51
-26.15
-13.11
-1.72
7.61
15.16
21.39
26.52
30.39
32.68
33.19
32.05
29.71
26.75
23.67
20.78
18.23
16.04
14.19
12.56
11.03
9.4
7.54
5.32
2.69
-0.33
-3.68
-7.25
-10.97
-14.87
-19.13
-24.08
-30.03
-36.95
-44.23
-50.59
-54.35
-53.93
-48.49
-38.32
-24.77
-9.88
4.35
16.45
25.76
32.35
36.61
39
39.8
39.18
37.26
34.33
30.76
27.06
23.68
20.96
19.03
17.77
16.89
15.98
14.65
12.74
10.32
7.72
5.25
3.05
0.89
-1.71
-5.32
-10.36
-17.01
-25.09
-34.09
-43.1
-50.8
-55.62
-56.01
-51.02
-40.73
-26.44
-10.28
5.41
18.87
29.32
36.86
42.06
45.48
47.32
47.53
46.08
43.2
39.5
35.8
32.74
30.57
29.07
27.69
25.87
23.38
20.39
17.36
14.76
12.76
11.13
9.35
6.82
3.07
-2.2
-9.06
-17.38
-26.66
-35.94
-43.81
-48.66
-49.24
-45.04
-36.69
-25.67
-13.9
-3.08
5.69
12
15.98
17.93
18.24
17.18
15.07
12.24
9.05
5.84
2.91
0.46
-1.47
-2.97
-4.25
-5.55
-7.11
-8.97
-11.06
-13.19
-15.26
-17.28
-19.44
-21.96
-25.14
-29.24
-34.52
-41.2
-49.33
-58.49
-67.65
-75.24
-79.46
-78.87
-72.92
-62.23
-48.41
-33.55
-19.58
-7.79
1.42
8.37
13.66
17.71
20.55
21.85
21.28
18.94
15.47
11.85
9.03
7.43
6.91
6.88
6.76
6.36
5.87
5.66
6
6.75
7.59
8.08
7.98
7.19
5.68
3.21
-0.64
-6.37
-14.22
-23.7
-33.5
-41.67
-46.14
-45.33
-38.81
-27.36
-12.85
2.4
16.23
27.21
34.81
39.26
41.23
41.43
40.43
38.59
36.13
33.18
29.91
26.56
23.39
20.71
18.79
17.8
17.7
18.2
18.8
18.95
18.23
16.44
13.75
10.51
7.19
4.13
1.49
-0.81
-3.15
-6.11
-10.37
-16.43
-24.26
-33.07
-41.24
-46.68
-47.53
-42.81
-32.82
-19.12
-4
10.32
22.28
31.3
37.55
41.6
43.92
44.75
44.15
42.16
39.04
35.25
31.48
28.4
26.46
25.78
26.06
26.71
26.99
26.34
24.5
21.66
18.34
15.15
12.51
10.52
8.97
7.44
5.6
3.12
-0.29
-4.94
-11.04
-18.44
-26.33
-33.2
-37.22
-36.77
-31.15
-20.86
-7.49
6.86
20.2
31.18
39.26
44.46
47.16
47.76
46.57
43.93
40.24
35.99
31.71
27.83
24.58
21.92
19.57
17.13
14.27
10.8
6.78
2.51
-1.6
-5.19
-8.11
-10.5
-12.75
-15.4
-18.95
-23.79
-30.08
-37.7
-46.1
-54.23
-60.61
-63.62
-61.94
-55.17
-43.91
-29.74
-14.66
-0.52
11.44
20.63
26.99
30.72
32.09
31.47
29.37
26.41
23.22
20.26
17.7
15.52
13.59
11.83
10.24
8.83
7.56
6.35
5.08
3.72
2.29
0.84
-0.75
-2.74
-5.5
-9.38
-14.6
-21.24
-29.17
-38.03
-47.01
-54.74
-59.46
-59.46
-53.78
-42.7
-27.85
-11.68
3.31
15.41
24.06
29.62
32.9
34.66
35.28
34.91
33.64
31.67
29.39
27.18
25.37
24.1
23.37
23.06
22.95
22.83
22.4
21.43
19.72
17.22
13.95
10.04
5.6
0.75
-4.44
-10.01
-16.07
-22.9
-30.77
-39.77
-49.44
-58.61
-65.51
-68.29
-65.65
-57.46
-44.8
-29.7
-14.41
-0.77
10.23
18.37
23.89
27.16
28.42
27.84
25.67
22.34
18.49
14.75
11.62
9.24
7.41
5.66
3.44
0.28
-4.11
-9.74
-16.26
-23.07
-29.33
-34.26
-37.35
-38.57
-38.44
-37.89
-38.04
-39.9
-44.02
-50.26
-57.68
-64.66
-69.23
-69.64
-64.83
-54.82
-40.68
-24.22
-7.5
7.71
20.24
29.53
35.59
38.76
39.62
38.77
36.79
34.13
31.13
27.97
24.84
21.94
19.45
17.51
16.17
15.34
14.85
14.48
14
13.23
11.98
10.05
7.25
3.49
-1.26
-6.9
-13.37
-20.72
-28.93
-37.74
-46.36
-53.42
-57.14
-55.98
-49.16
-37.13
-21.45
-4.3
12.2
26.52
37.94
46.38
52.08
55.27
56.07
54.6
51.08
46.01
40.12
34.23
29.07
25.09
22.38
20.73
19.71
18.92
17.99
16.75
15.13
13.08
10.56
7.53
3.9
-0.29
-5.01
-10.29
-16.29
-23.26
-31.36
-40.28
-48.98
-55.73
-58.53
-55.83
-47.15
-33.41
-16.61
0.88
17
30.55
41.16
48.98
54.21
56.96
57.19
55.02
50.86
45.43
39.61
34.18
29.59
25.97
23.13
20.78
18.61
16.39
13.94
11.18
8.08
4.65
0.97
-2.89
-6.84
-10.86
-15.12
-19.92
-25.71
-32.84
-41.28
-50.33
-58.47
-63.75
-64.29
-58.98
-47.96
-32.64
-15.18
2.14
17.56
30.12
39.55
46
49.75
51.13
50.5
48.3
45.04
41.21
37.21
33.32
29.67
26.32
23.32
20.62
18.17
15.86
13.59
11.28
8.87
6.29
3.39
-0.05
-4.32
-9.68
-16.26
-23.99
-32.57
-41.39
-49.51
-55.64
-58.42
-56.64
-49.73
-38.06
-22.9
-6.17
10.13
24.46
35.97
44.41
49.9
52.59
52.61
50.23
45.93
40.53
34.99
30.16
26.46
23.86
21.93
20.11
18
15.47
12.66
9.83
7.26
5.07
3.16
1.23
-1.19
-4.61
-9.53
-16.19
-24.47
-33.7
-42.57
-49.45
-52.66
-51.03
-44.24
-32.94
-18.55
-2.89
12.29
25.66
36.3
43.8
48.08
49.34
48
44.71
40.22
35.29
30.51
26.31
22.8
19.82
17.07
14.25
11.24
8.17
5.29
2.87
0.92
-0.83
-2.91
-5.96
-10.49
-16.84
-24.96
-34.36
-44
-52.33
-57.54
-58.15
-53.49
-44.05
-31.32
-17.28
-3.74
8.06
17.59
24.69
29.35
31.52
31.23
28.76
24.76
20.09
15.63
11.87
8.87
6.25
3.45
0.06
-4.04
-8.59
-13.13
-17.19
-20.57
-23.38
-26.05
-29.1
-33.07
-38.29
-44.73
-51.89
-58.68
-63.57
-65.02
-61.96
-54.28
-42.96
-29.7
-16.3
-4.09
6.32
14.81
21.47
26.2
28.77
29.03
27.21
24
20.34
17.06
14.6
12.85
11.31
9.43
6.88
3.74
0.35
-2.81
-5.41
-7.44
-9.25
-11.41
-14.53
-19.13
-25.54
-33.74
-43.17
-52.67
-60.49
-64.63
-63.46
-56.29
-43.74
-27.6
-10.26
6.02
19.73
30.31
37.93
42.99
45.76
46.24
44.38
40.33
34.67
28.35
22.43
17.68
14.38
12.24
10.67
9.06
7.06
4.68
2.15
-0.3
-2.56
-4.81
-7.35
-10.52
-14.61
-19.88
-26.46
-34.37
-43.27
-52.21
-59.66
-63.73
-62.7
-55.67
-43.03
-26.38
-8.02
9.66
24.84
36.47
44.25
48.41
49.46
48.15
45.32
41.82
38.28
35.06
32.32
30.1
28.52
27.66
27.5
27.71
27.7
26.85
24.77
21.56
17.68
13.75
10.13
6.81
3.45
-0.51
-5.52
-11.91
-19.71
-28.62
-37.82
-45.95
-51.28
-52.19
-47.67
-37.82
-23.92
-8.13
7.3
20.59
30.91
38.29
43.17
45.95
46.72
45.3
41.57
35.8
28.86
22.02
16.59
13.48
12.92
14.44
17.13
19.92
21.94
22.64
21.81
19.56
16.14
11.9
7.21
2.37
-2.48
-7.41
-12.72
-18.87
-26.14
-34.32
-42.5
-49.06
-52.13
-50.23
-42.82
-30.63
-15.37
0.75
15.75
28.32
37.93
44.55
48.47
49.99
49.47
47.29
44
40.14
36.21
32.55
29.27
26.33
23.61
20.93
18.07
14.87
11.19
6.98
2.34
-2.53
-7.4
-12.14
-16.78
-21.49
-26.49
-32.01
-38.14
-44.92
-52.42
-60.6
-69.21
-77.52
-84.2
-87.58
-86.21
-79.41
-67.69
-52.55
-35.98
-19.69
-4.73
8.55
20.05
29.54
36.53
40.53
41.39
39.64
36.37
32.86
30.08
28.37
27.49
26.91
26.23
25.36
24.49
23.92
23.77
23.86
23.71
22.76
20.61
17.18
12.74
7.78
2.84
-1.67
-5.63
-9.15
-12.69
-16.89
-22.41
-29.64
-38.31
-47.4
-55.16
-59.68
-59.42
-53.83
-43.55
-30.14
-15.57
-1.58
10.76
21.03
29.23
35.46
39.69
41.81
41.8
40
37.07
33.89
31.26
29.57
28.78
28.53
28.4
28.14
27.75
27.38
27.11
26.86
26.4
25.41
23.67
21.08
17.7
13.68
9.23
4.57
-0.15
-4.81
-9.47
-14.32
-19.69
-25.97
-33.42
-41.87
-50.57
-58.08
-62.61
-62.5
-56.89
-46.07
-31.55
-15.61
-0.56
11.9
21.02
26.93
30.24
31.61
31.55
30.35
28.29
25.71
23.01
20.61
18.74
17.48
16.68
16.19
15.9
15.83
16
16.4
16.88
17.14
16.84
15.71
13.65
10.77
7.36
3.76
0.23
-3.15
-6.62
-10.71
-15.96
-22.73
-30.7
-38.85
-45.51
-48.86
-47.5
-41.06
-30.31
-17
-3.23
9.12
18.84
25.53
29.4
30.99
30.87
29.53
27.31
24.42
21.03
17.3
13.47
9.81
6.59
3.98
2.07
0.76
-0.11
-0.75
-1.3
-1.88
-2.55
-3.37
-4.38
-5.62
-7.08
-8.81
-11.02
-14.06
-18.39
-24.29
-31.57
-39.36
-46.15
-50.15
-49.89
-44.75
-35.18
-22.6
-8.86
4.29
15.62
24.51
30.76
34.44
35.72
34.87
32.37
28.86
25.04
21.47
18.47
16.01
13.93
12.02
10.2
8.41
6.63
4.77
2.67
0.21
-2.65
-5.8
-9.02
-12.12
-15.1
-18.13
-21.63
-26.09
-31.88
-39.1
-47.27
-55.3
-61.54
-64.24
-62.05
-54.53
-42.4
-27.34
-11.46
3.33
15.69
25.04
31.36
34.95
36.21
35.56
33.49
30.48
27
23.44
20.1
17.19
14.86
13.25
12.36
12.03
11.91
11.6
10.74
9.2
7.06
4.51
1.74
-1.22
-4.37
-7.81
-11.59
-15.83
-20.75
-26.6
-33.5
-41.08
-48.28
-53.42
-54.73
-50.99
-42.1
-29.25
-14.44
0.12
12.71
22.42
29.14
33.21
35.11
35.2
33.74
30.98
27.22
22.9
18.56
14.69
11.66
9.58
8.35
7.67
7.15
6.49
5.53
4.25
2.77
1.17
-0.5
-2.31
-4.42
-7
-10.28
-14.5
-19.91
-26.58
-34.23
-42.05
-48.69
-52.52
-52.16
-46.95
-37.3
-24.63
-10.93
1.88
12.4
20.08
25.09
27.98
29.35
29.57
28.74
26.9
24.15
20.75
17.16
13.83
11.1
9.06
7.6
6.42
5.22
3.74
1.88
-0.38
-2.96
-5.73
-8.6
-11.48
-14.38
-17.41
-20.89
-25.27
-30.94
-37.85
-45.28
-51.72
-55.27
-54.3
-48.08
-37.17
-23.23
-8.38
5.46
17.08
26.02
32.3
36.08
37.48
36.52
33.42
28.64
22.95
17.27
12.38
8.74
6.35
4.9
3.88
2.81
1.42
-0.34
-2.37
-4.48
-6.54
-8.49
-10.42
-12.52
-15.08
-18.46
-22.98
-28.87
-36.01
-43.92
-51.61
-57.69
-60.67
-59.29
-52.99
-42.16
-28.16
-12.94
1.55
13.87
23.39
30.2
34.81
37.72
39.22
39.38
38.19
35.83
32.69
29.35
26.35
24.02
22.34
21.03
19.7
18.02
15.83
13.16
10.16
6.94
3.58
0.06
-3.72
-7.88
-12.55
-17.9
-24.16
-31.47
-39.76
-48.51
-56.58
-62.42
-64.38
-61.26
-52.79
-39.81
-24.13
-7.96
6.65
18.31
26.44
31.23
33.29
33.36
32.14
30.14
27.73
25.16
22.61
20.21
18
15.97
14.09
12.34
10.7
9.18
7.74
6.31
4.77
3.05
1.13
-0.98
-3.22
-5.62
-8.22
-11.18
-14.7
-19.06
-24.5
-31.03
-38.18
-44.84
-49.39
-50.07
-45.61
-35.76
-21.47
-4.65
12.39
27.64
39.81
48.44
53.72
56.16
56.46
55.28
53.21
50.69
47.92
44.89
41.51
37.77
33.82
30.07
26.94
24.67
23.16
21.98
20.63
18.75
16.23
13.16
9.68
5.8
1.34
-3.92
-10.2
-17.59
-26.12
-35.58
-45.5
-54.97
-62.62
-66.86
-66.32
-60.4
-49.62
-35.59
-20.53
-6.58
4.75
12.92
18.11
20.89
21.8
21.11
18.84
15.05
10
4.31
-1.16
-5.56
-8.36
-9.54
-9.58
-9.23
-9.26
-10.11
-11.82
-14.06
-16.39
-18.47
-20.27
-22.01
-24.12
-27.09
-31.36
-37.26
-44.83
-53.7
-62.9
-70.93
-75.9
-76.11
-70.48
-59.03
-42.9
-24.01
-4.55
13.65
29.44
42.32
52.18
59.04
62.95
63.97
62.36
58.71
53.76
48.3
42.99
38.22
34.15
30.77
27.93
25.38
22.84
20.06
16.88
13.34
9.56
5.65
1.55
-3.05
-8.63
-15.63
-24.24
-34.13
-44.41
-53.61
-59.99
-61.97
-58.64
-50.09
-37.43
-22.51
-7.3
6.62
18.31
27.41
33.91
37.89
39.41
38.58
35.68
31.25
25.97
20.54
15.5
11.14
7.52
4.51
1.91
-0.42
-2.58
-4.52
-6.21
-7.67
-9.01
-10.51
-12.47
-15.21
-18.99
-24.06
-30.68
-38.89
-48.4
-58.24
-66.81
-72.13
-72.42
-66.72
-55.3
-39.59
-21.77
-4.12
11.54
24.19
33.55
39.89
43.68
45.34
45.18
43.45
40.44
36.6
32.53
28.82
25.88
23.81
22.34
21.06
19.58
17.76
15.65
13.5
11.44
9.44
7.21
4.33
0.35
-5.03
-11.95
-20.29
-29.69
-39.44
-48.36
-54.98
-57.75
-55.52
-47.96
-35.79
-20.61
-4.51
10.6
23.4
33.28
40.24
44.56
46.49
46.23
44.02
40.28
35.65
30.95
26.9
23.93
22.06
20.92
20
18.88
17.37
15.56
13.66
11.82
10
7.96
5.33
1.77
-2.98
-9.06
-16.43
-24.85
-33.7
-41.87
-47.83
-50.02
-47.35
-39.75
-28.23
-14.59
-0.78
11.76
22.3
30.76
37.28
41.86
44.31
44.4
42.23
38.35
33.68
29.2
25.66
23.34
22.06
21.31
20.53
19.26
17.36
14.99
12.5
10.19
8.18
6.33
4.18
1.21
-3.1
-9.1
-16.77
-25.62
-34.6
-42.11
-46.31
-45.63
-39.29
-27.71
-12.48
4.07
19.56
32.3
41.57
47.59
51.07
52.79
53.22
52.6
51.04
48.79
46.23
43.76
41.55
39.35
36.57
32.55
26.97
20.1
12.77
6.05
0.8
-2.75
-5.07
-7.07
-9.79
-13.92
-19.78
-27.38
-36.61
-47.27
-58.81
-70.11
-79.41
-84.69
-84.34
-77.8
-65.96
-50.76
-34.48
-19.02
-5.42
6.12
15.72
23.5
29.4
33.25
35.08
35.24
34.32
33.01
31.76
30.8
30.16
29.75
29.53
29.43
29.32
28.98
28.2
26.87
25.12
23.22
21.39
19.6
17.51
14.58
10.2
4.01
-4.09
-13.8
-24.37
-34.58
-42.73
-47.01
-45.98
-39.05
-26.89
-11.3
5.37
20.89
33.79
43.49
50.12
54.09
55.78
55.4
53.14
49.35
44.59
39.62
35.12
31.49
28.79
26.72
24.84
22.81
20.54
18.22
16.15
14.56
13.47
12.55
11.31
9.13
5.54
0.23
-6.78
-15.15
-24.13
-32.65
-39.38
-43.06
-42.84
-38.5
-30.6
-20.25
-8.81
2.46
12.59
20.92
26.98
30.49
31.34
29.76
26.34
21.94
17.48
13.65
10.69
8.42
6.33
3.83
0.55
-3.57
-8.23
-12.88
-16.89
-19.84
-21.69
-22.9
-24.32
-26.99
-31.68
-38.55
-46.84
-55
-61.07
-63.32
-60.77
-53.5
-42.64
-29.83
-16.78
-4.85
5.15
12.82
18.05
20.81
21.19
19.44
16.08
11.86
7.7
4.37
2.32
1.55
1.68
2.12
2.41
2.34
1.99
1.57
1.16
0.61
-0.53
-2.82
-6.72
-12.31
-19.05
-25.8
-31.01
-33.12
-31.04
-24.57
-14.47
-2.28
10.24
21.54
30.72
37.48
41.97
44.46
45.15
44.2
41.79
38.25
34.05
29.68
25.53
21.78
18.47
15.61
13.29
11.72
11.01
11.03
11.3
11.05
9.56
6.43
1.76
-3.79
-9.27
-13.59
-15.83
-15.27
-11.61
-5.04
3.72
13.49
22.9
30.77
36.42
39.82
41.39
41.7
41.19
39.99
37.94
34.75
30.12
23.92
16.28
7.61
-1.42
-9.93
-17.08
-22.27
-25.36
-26.76
-27.33
-28.16
-30.2
-33.96
-39.25
-45.16
-50.25
-52.98
-52.22
-47.52
-39.36
-28.9
-17.7
-7.26
1.28
7.28
10.66
11.7
10.97
9.09
6.59
3.89
1.2
-1.45
-4.14
-6.95
-9.84
-12.65
-15.02
-16.59
-17.1
-16.59
-15.41
-14.24
-13.87
-14.94
-17.8
-22.31
-27.74
-32.94
-36.42
-36.78
-33.07
-25.12
-13.62
-0.01
13.98
26.78
37.4
45.55
51.48
55.51
57.67
57.57
54.53
48.19
38.77
27.28
15.2
3.9
-5.79
-13.79
-20.43
-26.04
-30.6
-33.81
-35.41
-35.54
-34.88
-34.47
-35.33
-37.98
-42.24
-47.23
-51.59
-53.85
-52.83
-48
-39.6
-28.6
-16.38
-4.32
6.5
15.48
22.42
27.28
30.04
30.69
29.33
26.29
22.2
17.84
13.96
10.99
8.92
7.41
5.99
4.32
2.32
0.22
-1.68
-3.16
-4.32
-5.42
-6.9
-9.09
-12.23
-16.42
-21.54
-27.23
-32.71
-36.91
-38.65
-37
-31.66
-23.19
-12.79
-2.03
7.74
15.6
21.12
24.26
25.18
24.12
21.41
17.57
13.26
9.16
5.82
3.46
1.95
0.91
-0.05
-1.15
-2.35
-3.45
-4.29
-4.88
-5.51
-6.62
-8.7
-12.05
-16.68
-22.21
-27.8
-32.32
-34.56
-33.56
-28.93
-21.03
-10.88
0.11
10.52
19.22
25.53
29.2
30.35
29.37
26.86
23.49
19.9
16.55
13.62
11.07
8.72
6.43
4.19
2.15
0.5
-0.6
-1.17
-1.39
-1.64
-2.42
-4.25
-7.55
-12.46
-18.61
-25.08
-30.46
-33.27
-32.47
-27.82
-20.09
-10.79
-1.65
5.93
11.27
14.35
15.55
15.35
14.06
11.83
8.85
5.45
2.08
-0.77
-2.82
-4.09
-4.89
-5.62
-6.57
-7.77
-8.96
-9.81
-10.08
-9.83
-9.42
-9.42
-10.49
-13.14
-17.52
-23.27
-29.4
-34.5
-36.98
-35.66
-30.14
-21.06
-9.92
1.46
11.49
19.28
24.63
27.91
29.56
29.9
29.04
27.01
23.94
20.12
16.07
12.35
9.45
7.65
6.89
6.84
6.96
6.75
5.86
4.34
2.39
0.36
-1.56
-3.4
-5.44
-7.99
-11.35
-15.7
-21.05
-27.2
-33.6
-39.28
-42.99
-43.5
-40.03
-32.6
-22.1
-10
2.04
12.64
20.92
26.48
29.33
29.74
28.13
25.08
21.2
17.09
13.22
9.93
7.41
5.75
4.87
4.55
4.45
4.19
3.52
2.39
0.97
-0.47
-1.76
-2.93
-4.21
-5.92
-8.33
-11.63
-15.89
-21.09
-26.97
-32.96
-38.04
-40.94
-40.5
-36.13
-28.09
-17.51
-5.96
4.99
14.26
21.36
26.29
29.22
30.31
29.67
27.43
23.87
19.52
15.04
11.08
8.07
6.11
4.99
4.34
3.75
2.97
1.89
0.57
-0.89
-2.41
-3.98
-5.68
-7.63
-10.04
-13.11
-17.09
-22.15
-28.19
-34.73
-40.85
-45.27
-46.76
-44.47
-38.29
-28.95
-17.79
-6.38
3.94
12.33
18.48
22.4
24.27
24.25
22.53
19.42
15.44
11.28
7.59
4.85
3.15
2.29
1.79
1.22
0.37
-0.71
-1.81
-2.73
-3.42
-4.11
-5.19
-7.13
-10.28
-14.83
-20.66
-27.29
-33.9
-39.34
-42.43
-42.18
-38.16
-30.61
-20.51
-9.24
1.76
11.32
18.73
23.74
26.4
26.91
25.54
22.68
18.83
14.65
10.82
7.89
6.05
5.11
4.59
4.01
3.09
1.85
0.51
-0.76
-1.98
-3.4
-5.46
-8.61
-13.13
-19
-25.76
-32.48
-37.86
-40.5
-39.36
-34.12
-25.36
-14.41
-2.88
7.83
16.79
23.64
28.36
31.08
31.87
30.84
28.22
24.48
20.29
16.39
13.4
11.57
10.74
10.42
10
9.01
7.29
5.06
2.72
0.65
-1.06
-2.61
-4.51
-7.34
-11.61
-17.53
-24.85
-32.76
-39.92
-44.81
-46.06
-42.91
-35.5
-24.84
-12.51
-0.19
10.79
19.67
26.2
30.51
32.83
33.42
32.56
30.62
28.03
25.26
22.72
20.61
18.97
17.67
16.53
15.48
14.47
13.5
12.48
11.21
9.45
7.05
4.02
0.56
-3.05
-6.6
-10.13
-13.96
-18.57
-24.44
-31.71
-39.95
-48.05
-54.41
-57.32
-55.54
-48.72
-37.54
-23.54
-8.64
5.42
17.44
26.85
33.6
37.92
40.17
40.73
40.06
38.63
36.87
35.12
33.5
31.96
30.38
28.71
27.03
25.52
24.35
23.49
22.68
21.47
19.43
16.36
12.38
7.89
3.35
-0.93
-4.91
-8.79
-12.92
-17.64
-23.2
-29.59
-36.51
-43.16
-48.32
-50.57
-48.72
-42.26
-31.67
-18.35
-4.24
8.83
19.57
27.4
32.36
34.83
35.3
34.23
32.03
29.15
25.97
22.85
20.09
17.9
16.41
15.67
15.6
16
16.56
16.9
16.67
15.71
14.04
11.84
9.28
6.41
3.19
-0.54
-4.86
-9.77
-15.26
-21.35
-28.04
-35.15
-42.07
-47.65
-50.42
-49.06
-42.95
-32.6
-19.55
-5.88
6.51
16.41
23.5
28.06
30.66
31.72
31.47
30.05
27.65
24.7
21.8
19.52
18.23
17.91
18.23
18.69
18.81
18.32
17.12
15.35
13.17
10.75
8.14
5.31
2.14
-1.56
-5.98
-11.35
-17.82
-25.3
-33.31
-40.94
-46.89
-49.8
-48.65
-43.08
-33.62
-21.5
-8.38
4.14
14.86
23.14
28.82
32.12
33.43
33.14
31.67
29.36
26.58
23.67
20.96
18.72
17.09
16.09
15.53
15.15
14.64
13.73
12.33
10.43
8.11
5.44
2.46
-0.88
-4.61
-8.85
-13.74
-19.37
-25.67
-32.2
-38.2
-42.68
-44.63
-43.38
-38.73
-31.05
-21.12
-10.05
0.96
10.79
18.61
23.94
26.74
27.31
26.24
24.12
21.51
18.9
16.66
15.04
14.12
13.69
13.39
12.79
11.63
9.91
7.95
6.13
4.75
3.82
3.07
2.01
0.14
-2.99
-7.62
-13.76
-21.06
-28.79
-35.74
-40.5
-41.78
-38.79
-31.62
-21.25
-9.26
2.7
13.31
21.88
28.25
32.56
35.01
35.69
34.66
32.11
28.43
24.3
20.44
17.43
15.56
14.73
14.53
14.4
13.9
12.78
11.08
9.06
7.01
5.04
3.05
0.73
-2.31
-6.42
-11.79
-18.35
-25.69
-33.09
-39.47
-43.6
-44.34
-41.07
-33.85
-23.59
-11.74
0.1
10.63
19.07
25.12
28.87
30.48
30.19
28.26
25.1
21.26
17.37
13.98
11.45
9.83
8.93
8.39
7.8
6.86
5.44
3.57
1.44
-0.72
-2.74
-4.69
-6.92
-9.92
-14.2
-19.96
-27
-34.51
-41.29
-45.91
-47.16
-44.38
-37.68
-27.91
-16.42
-4.68
6.09
15.05
21.84
26.39
28.8
29.28
28.13
25.81
22.83
19.79
17.17
15.27
14.11
13.46
12.93
12.14
10.97
9.55
8.2
7.17
6.45
5.68
4.28
1.72
-2.22
-7.34
-13.14
-18.9
-23.84
-27.11
-27.98
-25.93
-20.88
-13.33
-4.3
5.03
13.65
21.01
27.02
31.74
35.16
37.08
37.21
35.48
32.23
28.18
24.2
20.97
18.73
17.3
16.24
15.14
13.78
12.13
10.22
7.98
5.13
1.33
-3.66
-9.88
-17.13
-25.04
-33.25
-41.38
-48.92
-55.06
-58.73
-58.88
-54.89
-47.06
-36.67
-25.65
-15.92
-8.7
-4.25
-1.96
-0.92
-0.37
0.07
0.5
1.07
2.2
4.49
8.37
13.84
20.32
26.82
32.35
36.22
38.22
38.54
37.54
35.59
32.92
29.72
26.15
22.37
18.5
14.5
10.2
5.29
-0.55
-7.41
-15.02
-22.63
-29.09
-33.06
-33.4
-29.51
-21.64
-10.85
1.29
13.07
23.16
30.77
35.7
38.11
38.31
36.66
33.61
29.73
25.7
22.24
19.93
18.96
19.17
20.11
21.24
22.2
22.81
23.09
23.07
22.66
21.67
19.88
17.19
13.63
9.4
4.72
-0.27
-5.52
-11.07
-17.06
-23.66
-31.02
-39.16
-47.65
-55.5
-61.16
-63
-59.86
-51.71
-39.63
-25.57
-11.65
0.56
10.33
17.64
22.84
26.13
27.55
27
24.56
20.69
16.13
11.7
8
5.26
3.38
2.2
1.69
2.07
3.61
6.39
10.1
14
17.16
18.72
18.27
15.9
12.17
7.83
3.59
-0.16
-3.42
-6.48
-9.8
-13.74
-18.41
-23.57
-28.57
-32.46
-34.16
-32.78
-27.82
-19.46
-8.6
3.27
14.5
23.62
29.81
32.94
33.46
32.12
29.67
26.62
23.25
19.73
16.26
13.13
10.63
8.96
8.16
8.07
8.39
8.8
9.03
8.92
8.33
7.16
5.33
2.77
-0.51
-4.33
-8.43
-12.47
-16.18
-19.5
-22.64
-26.07
-30.29
-35.56
-41.53
-47.19
-51.04
-51.6
-47.97
-40.29
-29.72
-18.08
-7.25
1.42
7.34
10.61
11.77
11.43
10.1
8.11
5.68
2.96
0.09
-2.74
-5.35
-7.57
-9.3
-10.51
-11.3
-11.75
-11.92
-11.82
-11.42
-10.84
-10.28
-10.01
-10.29
-11.21
-12.77
-14.94
-17.83
-21.71
-26.82
-33.1
-39.93
-46.09
-50
-50.22
-46.02
-37.63
-26.18
-13.41
-1.06
9.49
17.5
22.82
25.72
26.65
26.08
24.43
22.05
19.23
16.22
13.26
10.55
8.26
6.53
5.35
4.63
4.15
3.66
2.94
1.85
0.41
-1.26
-2.96
-4.55
-5.98
-7.36
-8.98
-11.2
-14.45
-19.01
-24.91
-31.73
-38.49
-43.82
-46.2
-44.4
-37.98
-27.48
-14.29
-0.32
12.58
23.08
30.56
35.08
37.12
37.36
36.44
34.89
33.09
31.22
29.37
27.48
25.5
23.43
21.43
19.75
18.67
18.3
18.5
18.87
18.91
18.22
16.59
14.11
11.05
7.78
4.62
1.78
-0.71
-3.07
-5.79
-9.45
-14.54
-21.02
-28.09
-34.2
-37.44
-36.23
-29.97
-19.41
-6.36
6.88
18.34
26.92
32.57
35.88
37.72
38.78
39.41
39.72
39.77
39.63
39.44
39.33
39.36
39.5
39.7
39.89
39.99
39.82
39.13
37.49
34.42
29.56
22.83
14.58
5.61
-3.04
-10.41
-15.96
-19.72
-22.23
-24.35
-26.94
-30.61
-35.54
-41.28
-46.78
-50.61
-51.3
-47.9
-40.31
-29.44
-16.9
-4.54
6.11
14.13
19.28
21.76
22.03
20.66
18.26
15.5
12.9
10.79
9.15
7.64
5.73
2.93
-0.97
-5.85
-11.21
-16.44
-20.97
-24.48
-26.99
-28.78
-30.25
-31.73
-33.38
-35.15
-36.96
-38.78
-40.84
-43.54
-47.38
-52.61
-58.95
-65.46
-70.58
-72.56
-69.99
-62.34
-50.18
-35.03
-18.9
-3.72
9.17
19.11
26.1
30.42
32.45
32.55
31.08
28.45
25.14
21.61
18.29
15.46
13.31
11.95
11.36
11.38
11.65
11.73
11.18
9.78
7.51
4.59
1.24
-2.33
-6.07
-9.99
-14.24
-19.02
-24.62
-31.28
-38.97
-47.08
-54.33
-58.9
-59.08
-53.9
-43.61
-29.75
-14.59
-0.44
11.11
19.43
24.77
27.76
28.98
28.71
27.08
24.14
20.23
15.87
11.75
8.42
6.18
4.98
4.49
4.22
3.7
2.65
1.01
-1.12
-3.52
-6.02
-8.56
-11.27
-14.39
-18.24
-23.11
-29.23
-36.58
-44.72
-52.72
-59.19
-62.58
-61.6
-55.66
-45.1
-31.18
-15.7
-0.6
12.56
22.8
29.83
33.88
35.53
35.43
34.12
31.96
29.14
25.77
22.01
18.11
14.43
11.29
8.97
7.56
6.96
6.87
6.93
6.72
5.94
4.4
2.08
-0.96
-4.59
-8.71
-13.25
-18.26
-23.92
-30.53
-38.29
-47.05
-56.01
-63.69
-68.22
-67.95
-62.02
-50.79
-35.69
-18.85
-2.38
12.06
23.6
32.02
37.55
40.6
41.63
41.11
39.53
37.36
34.96
32.68
30.66
28.93
27.41
26.02
24.77
23.71
22.94
22.45
22.01
21.19
19.51
16.64
12.55
7.57
2.2
-3.09
-8.11
-12.99
-18.21
-24.33
-31.77
-40.46
-49.64
-57.86
-63.3
-64.28
-59.83
-50.1
-36.26
-20.22
-4.02
10.64
22.67
31.7
37.72
41.06
42.12
41.39
39.42
36.74
33.87
31.22
29.08
27.51
26.49
25.8
25.23
24.66
24.06
23.48
22.91
22.21
21.07
19.14
16.2
12.3
7.74
2.96
-1.65
-5.97
-10.16
-14.72
-20.26
-27.32
-35.97
-45.62
-54.93
-62
-64.91
-62.35
-54.09
-41.1
-25.24
-8.67
6.72
19.65
29.55
36.35
40.28
41.77
41.3
39.45
36.82
33.96
31.32
29.17
27.66
26.84
26.77
27.46
28.92
31.02
33.39
35.5
36.67
36.33
34.21
30.43
25.45
19.88
14.28
8.9
3.62
-1.99
-8.54
-16.5
-25.99
-36.39
-46.35
-54.03
-57.49
-55.46
-47.75
-35.42
-20.48
-5.14
8.69
19.91
28.14
33.51
36.32
36.93
35.71
33.15
29.84
26.36
23.16
20.42
18.14
16.19
14.48
13.02
11.86
11
10.35
9.75
8.99
7.9
6.34
4.19
1.35
-2.24
-6.54
-11.54
-17.24
-23.75
-31.24
-39.67
-48.54
-56.7
-62.48
-64.21
-60.77
-52.12
-39.37
-24.35
-9.07
4.88
16.52
25.5
31.86
35.84
37.71
37.77
36.34
33.81
30.61
27.22
24.12
21.68
20.12
19.38
19.19
19.12
18.82
18.03
16.66
14.7
12.1
8.8
4.74
-0.01
-5.23
-10.67
-16.22
-22.07
-28.62
-36.28
-44.91
-53.59
-60.6
-63.89
-61.82
-53.77
-40.51
-23.88
-6.27
10.16
23.94
34.4
41.52
45.65
47.23
46.77
44.76
41.81
38.54
35.56
33.32
32.02
31.57
31.64
31.78
31.51
30.46
28.37
25.17
20.97
16.03
10.65
5.11
-0.45
-6.01
-11.74
-17.96
-25.05
-33.28
-42.52
-52.04
-60.47
-66.02
-67.01
-62.45
-52.52
-38.58
-22.74
-7.23
6.29
16.97
24.66
29.56
31.96
32.11
30.32
27.05
22.91
18.51
14.29
10.42
6.93
3.87
1.43
-0.19
-0.9
-0.92
-0.73
-0.96
-2.08
-4.32
-7.7
-12.09
-17.44
-23.86
-31.46
-40.16
-49.4
-57.99
-64.27
-66.54
-63.59
-55.16
-42.06
-25.93
-8.73
7.75
22.19
33.77
41.99
46.57
47.54
45.31
40.81
35.28
29.99
25.78
22.83
20.72
18.67
15.97
12.31
7.89
3.28
-0.86
-4.1
-6.48
-8.43
-10.69
-14.02
-19.06
-26.1
-34.9
-44.56
-53.57
-59.97
-61.96
-58.46
-49.51
-36.37
-21.01
-5.51
8.55
20.35
29.69
36.58
41.01
42.85
42.1
39.17
34.95
30.6
27.14
25.1
24.27
23.95
23.27
21.62
18.93
15.57
12.18
9.27
6.98
5
2.68
-0.7
-5.76
-12.81
-21.79
-32.1
-42.57
-51.47
-56.85
-57.04
-51.21
-39.83
-24.51
-7.57
8.72
22.8
33.99
42.36
48.27
52.02
53.7
53.36
51.14
47.46
42.99
38.49
34.65
31.87
30.21
29.36
28.82
28.07
26.82
25.06
23.01
20.93
18.93
16.86
14.38
11.11
6.81
1.37
-5.25
-13.06
-21.81
-30.81
-38.58
-43.06
-42.16
-34.61
-20.65
-2.16
17.87
36.33
51
60.94
66.39
68.22
67.29
64.28
59.59
53.64
46.89
39.88
33.05
26.7
20.91
15.66
10.91
6.65
2.83
-0.65
-3.96
-7.27
-10.76
-14.53
-18.61
-23.01
-27.7
-32.6
-37.66
-42.89
-48.46
-54.77
-62.2
-70.74
-79.61
-87.15
-91.13
-89.52
-81.31
-67
-48.5
-28.46
-9.46
6.76
19.44
28.66
34.84
38.4
39.63
38.72
36.01
32.09
27.74
23.8
20.89
19.25
18.72
18.83
18.99
18.7
17.68
15.88
13.47
10.7
7.81
4.88
1.79
-1.84
-6.48
-12.62
-20.51
-29.98
-40.24
-49.86
-57.02
-59.87
-57.14
-48.56
-35.07
-18.57
-1.34
14.56
27.83
37.97
45
49.16
50.64
49.51
46.02
40.73
34.54
28.53
23.6
20.19
18.18
16.99
15.95
14.56
12.68
10.52
8.4
6.53
4.86
3
0.45
-3.35
-8.83
-16.16
-25.05
-34.66
-43.55
-49.83
-51.68
-47.93
-38.54
-24.7
-8.51
7.74
22.17
33.72
42.05
47.32
49.78
49.64
47.13
42.68
37.03
31.18
26.09
22.38
20.12
18.83
17.74
16.12
13.67
10.57
7.33
4.51
2.38
0.8
-0.81
-3.17
-7
-12.73
-20.44
-29.6
-39.08
-47.21
-52.05
-52.01
-46.36
-35.62
-21.36
-5.75
9.11
21.79
31.62
38.57
42.83
44.57
43.85
40.81
35.9
29.93
23.96
19
15.63
13.86
13.14
12.67
11.75
10.08
7.79
5.35
3.19
1.45
-0.12
-2.02
-4.87
-9.16
-15.13
-22.72
-31.39
-40.11
-47.4
-51.56
-51.2
-45.64
-35.31
-21.64
-6.64
7.67
19.83
29.09
35.38
38.9
39.91
38.63
35.33
30.48
24.81
19.26
14.68
11.57
9.92
9.25
8.81
7.89
6.17
3.73
0.95
-1.72
-4.04
-6.13
-8.37
-11.28
-15.34
-20.79
-27.61
-35.33
-43.04
-49.4
-52.88
-52.15
-46.51
-36.29
-22.82
-8.04
6.03
17.89
26.78
32.7
35.99
37.1
36.36
34
30.29
25.71
20.89
16.55
13.25
11.23
10.26
9.84
9.32
8.29
6.59
4.42
2.08
-0.17
-2.33
-4.63
-7.38
-10.91
-15.44
-21.14
-28.03
-35.86
-43.89
-50.92
-55.34
-55.69
-51.09
-41.73
-28.81
-14.21
0.13
12.67
22.58
29.65
34.05
36.13
36.24
34.7
31.85
28.09
23.85
19.62
15.93
13.22
11.68
11.27
11.63
12.23
12.57
12.22
11.02
8.98
6.23
2.96
-0.64
-4.43
-8.29
-12.19
-16.26
-20.8
-26.2
-32.72
-40.14
-47.56
-53.42
-55.87
-53.45
-45.72
-33.47
-18.57
-3.3
10.36
21.27
29.11
34.16
36.86
37.58
36.6
34.19
30.74
26.81
22.96
19.67
17.24
15.76
15.15
15.26
15.85
16.6
17.11
16.94
15.67
13.06
9.08
4
-1.7
-7.43
-12.68
-17.22
-21.14
-24.95
-29.31
-34.85
-41.67
-49.11
-55.68
-59.42
-58.57
-52.31
-41.12
-26.69
-11.29
2.9
14.45
22.79
28.08
30.77
31.4
30.39
28.13
24.97
21.33
17.59
14.1
11.19
9.1
7.97
7.72
8.03
8.42
8.4
7.65
6.17
4.16
1.91
-0.41
-2.88
-5.69
-9
-12.9
-17.37
-22.42
-28.12
-34.55
-41.46
-48.04
-52.93
-54.51
-51.54
-43.68
-31.8
-17.67
-3.4
9.21
19.05
25.82
29.77
31.39
31.13
29.41
26.55
22.95
19.02
15.17
11.71
8.85
6.63
5.02
3.96
3.33
2.98
2.72
2.31
1.59
0.44
-1.14
-3.08
-5.35
-7.95
-11.05
-14.88
-19.74
-25.79
-32.85
-40.2
-46.6
-50.47
-50.39
-45.63
-36.52
-24.33
-10.9
1.95
12.95
21.51
27.57
31.3
32.86
32.35
29.87
25.72
20.46
14.84
9.65
5.53
2.8
1.4
0.99
1.04
1.01
0.56
-0.44
-1.85
-3.47
-5.09
-6.71
-8.53
-10.9
-14.19
-18.71
-24.57
-31.56
-38.96
-45.65
-50.23
-51.42
-48.45
-41.37
-31.07
-18.94
-6.48
5.05
14.81
22.27
27.13
29.21
28.51
25.34
20.35
14.5
8.8
4.11
0.85
-0.99
-1.85
-2.33
-2.94
-3.91
-5.14
-6.33
-7.25
-7.92
-8.7
-10.11
-12.65
-16.63
-22.1
-28.86
-36.49
-44.2
-50.84
-54.94
-55.13
-50.58
-41.45
-28.98
-15.09
-1.77
9.55
18.2
24.18
27.75
29.16
28.56
26.17
22.4
17.95
13.6
10.01
7.48
5.84
4.7
3.61
2.23
0.48
-1.49
-3.42
-5.11
-6.58
-8.19
-10.6
-14.59
-20.67
-28.75
-37.94
-46.66
-52.99
-55.25
-52.54
-44.99
-33.73
-20.45
-6.9
5.55
16.09
24.42
30.47
34.2
35.52
34.37
31
26.04
20.57
15.71
12.35
10.72
10.42
10.59
10.37
9.24
7.17
4.53
1.8
-0.68
-2.93
-5.23
-8.07
-11.95
-17.26
-24.11
-32.2
-40.69
-48.24
-53.28
-54.38
-50.71
-42.29
-30.06
-15.57
-0.62
13.18
24.67
33.22
38.67
41.25
41.43
39.79
36.95
33.51
29.97
26.74
24.1
22.2
21.14
20.88
21.3
22.13
22.98
23.39
22.94
21.42
18.79
15.27
11.15
6.67
2
-2.83
-7.85
-13.21
-19.15
-25.99
-34.03
-43.15
-52.54
-60.63
-65.38
-64.94
-58.46
-46.41
-30.6
-13.44
2.8
16.64
27.48
35.42
40.8
43.87
44.78
43.69
41.03
37.56
34.11
31.44
29.95
29.6
30
30.74
31.45
31.99
32.36
32.54
32.49
31.99
30.77
28.55
25.22
20.83
15.65
10.1
4.66
-0.37
-4.92
-9.22
-13.69
-18.88
-25.2
-32.85
-41.59
-50.66
-58.74
-64.13
-65.19
-60.83
-50.96
-36.71
-20.06
-3.3
11.61
23.53
32.14
37.68
40.56
41.17
39.83
36.95
33.16
29.22
25.86
23.52
22.24
21.75
21.69
21.79
22.02
22.44
23
23.46
23.37
22.21
19.66
15.7
10.68
5.19
-0.21
-5.15
-9.64
-14.01
-18.85
-24.74
-32.05
-40.58
-49.56
-57.57
-62.89
-63.91
-59.66
-50.12
-36.35
-20.19
-3.82
10.84
22.55
30.87
36
38.47
38.9
37.78
35.48
32.33
28.7
25.02
21.73
19.2
17.65
17.11
17.43
18.31
19.39
20.27
20.6
20.15
18.76
16.44
13.28
9.42
5.02
0.19
-4.99
-10.63
-16.96
-24.27
-32.59
-41.44
-49.64
-55.41
-56.92
-52.96
-43.44
-29.57
-13.47
2.48
16.32
26.93
34.08
38.13
39.71
39.4
37.69
35.02
31.84
28.57
25.6
23.16
21.31
19.97
19.03
18.43
18.14
18.12
18.27
18.31
17.91
16.69
14.41
11.06
6.84
2.13
-2.74
-7.61
-12.62
-18.2
-24.84
-32.72
-41.44
-49.86
-56.25
-58.82
-56.2
-47.99
-34.97
-18.85
-1.87
13.85
26.78
36.15
41.93
44.57
44.71
43.01
40.09
36.56
33.03
29.99
27.73
26.19
25.1
24.04
22.72
21.16
19.65
18.56
18.05
17.96
17.8
16.98
15.04
11.85
7.66
2.89
-1.99
-6.65
-11.01
-15.25
-19.75
-25.05
-31.63
-39.62
-48.45
-56.72
-62.47
-63.66
-59.03
-48.55
-33.59
-16.43
0.46
15.15
26.62
34.66
39.58
41.8
41.74
39.79
36.47
32.44
28.41
24.99
22.5
20.95
20.12
19.71
19.5
19.35
19.26
19.29
19.46
19.62
19.46
18.55
16.44
12.9
8.06
2.39
-3.4
-8.66
-13.1
-16.89
-20.66
-25.22
-31.19
-38.68
-47.04
-54.91
-60.47
-62.03
-58.48
-49.73
-36.78
-21.35
-5.47
9.12
21.23
30.24
36.04
38.85
39.09
37.36
34.34
30.68
26.86
23.18
19.78
16.75
14.23
12.38
11.29
10.91
11.03
11.27
11.25
10.66
9.3
7.13
4.22
0.7
-3.23
-7.35
-11.48
-15.6
-19.88
-24.7
-30.5
-37.5
-45.27
-52.67
-57.95
-59.28
-55.42
-46.3
-33.14
-18.02
-3.2
9.61
19.57
26.64
31.2
33.63
34.13
32.72
29.5
24.87
19.49
14.24
9.94
7.07
5.69
5.47
5.87
6.3
6.37
5.89
4.91
3.51
1.81
-0.23
-2.72
-5.77
-9.44
-13.76
-18.76
-24.57
-31.3
-38.81
-46.44
-52.86
-56.37
-55.38
-49.12
-38.01
-23.62
-8.19
6.14
17.9
26.49
32.03
34.96
35.74
34.72
32.21
28.58
24.31
20.01
16.14
13.05
10.82
9.34
8.39
7.72
7.06
6.17
4.9
3.16
0.96
-1.63
-4.5
-7.6
-10.92
-14.59
-18.84
-23.92
-30.12
-37.46
-45.52
-53.29
-59.19
-61.48
-58.8
-50.77
-38.16
-22.77
-6.79
7.72
19.42
27.77
32.91
35.36
35.76
34.69
32.59
29.78
26.53
23.08
19.72
16.72
14.28
12.44
11.14
10.21
9.48
8.87
8.25
7.49
6.36
4.61
2.05
-1.33
-5.31
-9.62
-14.07
-18.69
-23.8
-29.86
-37.09
-45.19
-53.1
-59.11
-61.35
-58.44
-50.11
-37.32
-22.04
-6.52
7.32
18.39
26.39
31.61
34.46
35.37
34.6
32.45
29.29
25.66
22.12
19.14
16.99
15.65
14.91
14.49
14.19
13.9
13.57
13.04
12.04
10.21
7.28
3.3
-1.36
-6.1
-10.5
-14.44
-18.26
-22.59
-28
-34.75
-42.51
-50.41
-57.08
-60.92
-60.49
-54.92
-44.28
-29.7
-13.16
3.03
16.85
27.11
33.64
36.99
38.15
37.97
36.97
35.29
32.92
29.86
26.33
22.81
19.9
18.21
18.03
19.28
21.36
23.38
24.45
23.91
21.69
18.25
14.4
10.96
8.46
6.95
6.03
4.81
2.04
-3.77
-13.91
-28.71
-46.67
-64.35
-77.08
-80.75
-73.65
-57.52
-36.96
-17.58
-3.58
3.61
5.35
4.38
3.11
2.59
2.52
2.13
1.04
-0.39
-1.38
-1.37
-0.4
0.91
1.69
1.3
-0.33
-2.73
-5.04
-6.48
-6.71
-5.92
-4.86
-4.47
-5.51
-8.28
-12.64
-18.11
-24.21
-30.6
-36.91
-42.6
-46.71
-48.04
-45.44
-38.33
-27.13
-13.16
1.65
15.37
26.58
34.58
39.28
41.01
40.23
37.45
33.21
28.1
22.81
17.91
13.85
10.8
8.71
7.29
6.14
4.88
3.26
1.28
-0.9
-2.95
-4.65
-6.04
-7.46
-9.52
-12.89
-18.16
-25.55
-34.79
-44.99
-54.69
-62.1
-65.46
-63.65
-56.51
-45.01
-30.99
-16.57
-3.6
6.8
14.29
19.15
21.91
23.11
23.1
22.06
20.09
17.28
13.77
9.86
6.01
2.85
1.12
1.43
4.01
8.56
14.17
19.65
23.84
26.1
26.44
25.39
23.7
21.92
20.11
17.81
14.24
8.71
1.01
-8.31
-17.88
-25.84
-30.29
-29.95
-24.63
-15.35
-4.06
7.02
15.98
21.71
24
23.38
20.82
17.37
14.02
11.59
10.65
11.49
14.06
18
22.67
27.31
31.13
33.51
34.06
32.72
29.77
25.8
21.45
17.26
13.45
9.86
6.08
1.63
-3.9
-10.79
-19.07
-28.55
-38.65
-48.33
-56.09
-60.27
-59.5
-53.2
-41.83
-26.88
-10.39
5.55
19.28
29.81
36.81
40.51
41.42
40.34
38.03
35.24
32.48
30.02
27.9
26.03
24.37
22.92
21.85
21.29
21.29
21.65
22
21.85
20.79
18.61
15.33
11.26
6.77
2.19
-2.32
-6.84
-11.65
-17.15
-23.75
-31.67
-40.63
-49.75
-57.47
-61.91
-61.45
-55.33
-44
-29.01
-12.54
3.26
16.87
27.52
35.09
39.79
41.91
41.8
39.92
36.89
33.44
30.24
27.73
26.03
24.91
24.07
23.29
22.56
22
21.81
21.96
22.18
21.96
20.75
18.22
14.41
9.74
4.8
0.14
-4.08
-8.06
-12.4
-17.72
-24.52
-32.83
-42.04
-50.86
-57.61
-60.51
-58.28
-50.55
-38.05
-22.51
-6.11
9.02
21.41
30.41
36.11
39.02
39.71
38.66
36.19
32.65
28.5
24.37
20.92
18.61
17.6
17.63
18.24
18.9
19.24
19.09
18.45
17.36
15.82
13.72
10.93
7.41
3.27
-1.25
-5.88
-10.42
-14.97
-19.9
-25.79
-33.06
-41.56
-50.34
-57.64
-61.42
-60.07
-52.99
-40.92
-25.65
-9.45
5.63
18.22
27.74
34.26
38.12
39.7
39.35
37.39
34.25
30.39
26.33
22.54
19.33
16.88
15.2
14.25
13.91
14.02
14.35
14.58
14.34
13.29
11.29
8.35
4.72
0.69
-3.48
-7.73
-12.24
-17.35
-23.46
-30.86
-39.45
-48.56
-56.88
-62.7
-64.25
-60.33
-50.79
-36.67
-19.98
-3.1
11.85
23.54
31.55
36.18
38.07
37.85
36.07
33.12
29.38
25.32
21.38
17.97
15.4
13.79
13.11
13.24
13.92
14.81
15.47
15.5
14.64
12.81
10.12
6.81
3.1
-0.86
-5.01
-9.43
-14.25
-19.7
-26.1
-33.62
-42.13
-50.9
-58.55
-63.24
-63.31
-57.81
-47.03
-32.42
-16.17
-0.54
12.81
23
29.95
33.96
35.49
35.02
32.97
29.87
26.34
22.97
20.21
18.25
17.03
16.34
15.97
15.8
15.8
15.95
16.16
16.26
15.92
14.79
12.6
9.28
4.99
0.1
-4.94
-9.79
-14.4
-19.12
-24.54
-31.21
-39.21
-47.87
-55.73
-60.88
-61.59
-56.87
-46.9
-32.94
-16.99
-1.17
12.8
23.82
31.5
35.95
37.56
36.94
34.75
31.68
28.29
25.02
22.08
19.56
17.43
15.74
14.57
13.99
13.99
14.38
14.81
14.86
14.18
12.63
10.22
7.11
3.44
-0.64
-5.06
-9.72
-14.55
-19.63
-25.18
-31.52
-38.83
-46.8
-54.36
-59.8
-61.25
-57.44
-48.22
-34.77
-19.21
-3.86
9.45
19.79
27.03
31.53
33.72
33.94
32.42
29.46
25.51
21.18
17.09
13.79
11.56
10.45
10.24
10.59
11.05
11.21
10.79
9.68
7.93
5.71
3.23
0.59
-2.22
-5.33
-8.93
-13.28
-18.61
-25.09
-32.66
-40.81
-48.45
-54.05
-55.93
-52.94
-44.87
-32.67
-18.18
-3.52
9.52
19.85
27.16
31.64
33.63
33.5
31.52
28.06
23.63
18.91
14.59
11.2
9.02
7.95
7.61
7.48
7.07
6.09
4.56
2.68
0.75
-1.11
-2.98
-5.19
-8.1
-12.05
-17.21
-23.64
-31.24
-39.66
-48.17
-55.55
-60.27
-60.87
-56.48
-47.28
-34.49
-19.94
-5.57
7.21
17.63
25.48
30.74
33.38
33.33
30.75
26.18
20.62
15.26
11.09
8.58
7.61
7.53
7.58
7.15
6.04
4.35
2.41
0.49
-1.31
-3.15
-5.37
-8.43
-12.81
-18.86
-26.62
-35.7
-45.13
-53.48
-59.08
-60.52
-57.01
-48.76
-36.85
-22.94
-8.72
4.44
15.69
24.64
31.12
35.03
36.37
35.25
32.16
27.84
23.23
19.12
16.06
14.11
13.01
12.26
11.42
10.19
8.55
6.72
4.93
3.3
1.7
-0.32
-3.35
-8
-14.61
-23.06
-32.68
-42.25
-50.2
-54.92
-55.19
-50.53
-41.37
-28.95
-14.98
-1.13
11.3
21.58
29.47
34.96
38.18
39.25
38.37
35.87
32.32
28.39
24.81
22.12
20.58
20.08
20.2
20.36
20.04
18.91
16.97
14.41
11.48
8.35
4.99
1.2
-3.27
-8.64
-15.05
-22.46
-30.61
-38.83
-46.1
-51.02
-52.24
-48.77
-40.48
-28.14
-13.34
2.06
16.32
28.23
37.17
43.04
46.04
46.57
45.18
42.53
39.36
36.42
34.22
32.94
32.43
32.29
32.12
31.7
31.06
30.33
29.69
29.12
28.43
27.29
25.32
22.27
18.07
12.9
7.1
1.11
-4.68
-10.08
-15.15
-20.25
-25.89
-32.58
-40.52
-49.35
-58.03
-64.91
-68.13
-66.18
-58.44
-45.54
-29.2
-11.75
4.63
18.44
29.08
36.64
41.45
43.8
43.87
41.85
38.3
34.11
30.39
28.06
27.52
28.49
30.19
31.74
32.53
32.49
31.96
31.44
31.22
31.12
30.59
28.93
25.69
20.85
14.83
8.33
1.98
-3.82
-8.99
-13.72
-18.36
-23.34
-29.11
-35.96
-43.91
-52.42
-60.33
-65.97
-67.61
-64.03
-55.02
-41.59
-25.63
-9.28
5.6
17.91
27.27
33.75
37.58
38.94
38.07
35.36
31.53
27.49
24.12
21.98
21.21
21.52
22.41
23.36
24.03
24.27
24.14
23.78
23.28
22.65
21.66
20.01
17.38
13.59
8.75
3.25
-2.4
-7.76
-12.63
-17.19
-21.91
-27.4
-34.14
-42.17
-50.93
-59.16
-65.14
-67.2
-64.27
-56.24
-44.02
-29.29
-13.86
0.7
13.34
23.52
30.99
35.71
37.75
37.38
35.08
31.55
27.59
23.92
21.05
19.23
18.43
18.42
18.93
19.77
20.81
21.92
22.88
23.31
22.76
20.86
17.54
13.05
7.9
2.6
-2.52
-7.43
-12.33
-17.54
-23.39
-30.11
-37.78
-46.11
-54.33
-61.15
-64.98
-64.33
-58.4
-47.46
-32.89
-16.78
-1.29
11.91
22.02
29.02
33.36
35.56
36.03
35.01
32.72
29.48
25.74
22.04
18.86
16.52
15.18
14.77
15.04
15.61
16.03
15.88
14.88
12.98
10.35
7.29
4.02
0.64
-2.93
-6.86
-11.35
-16.62
-22.91
-30.34
-38.73
-47.32
-54.67
-58.99
-58.65
-52.86
-42.1
-28
-12.83
1.32
13.03
21.82
27.83
31.44
32.93
32.39
29.9
25.72
20.47
14.99
10.23
6.92
5.33
5.29
6.16
7.18
7.67
7.34
6.25
4.71
3.05
1.42
-0.36
-2.64
-5.8
-10.19
-15.93
-22.96
-30.91
-39.07
-46.35
-51.38
-52.84
-49.82
-42.25
-30.99
-17.6
-3.89
8.57
18.8
26.38
31.3
33.72
33.8
31.74
27.86
22.76
17.26
12.25
8.46
6.21
5.35
5.35
5.52
5.29
4.34
2.72
0.74
-1.29
-3.18
-5.06
-7.39
-10.79
-15.82
-22.8
-31.45
-40.93
-49.77
-56.22
-58.71
-56.23
-48.75
-37.21
-23.28
-8.87
4.34
15.27
23.39
28.69
31.35
31.66
29.95
26.66
22.41
17.9
13.86
10.85
9.06
8.31
8.12
7.9
7.23
5.98
4.35
2.66
1.09
-0.4
-2.19
-4.77
-8.61
-14.04
-21.1
-29.47
-38.38
-46.54
-52.34
-54.22
-51.21
-43.33
-31.71
-18.16
-4.63
7.4
17.14
24.38
29.17
31.55
31.55
29.35
25.44
20.71
16.21
12.86
11.1
10.78
11.3
11.84
11.74
10.71
8.84
6.47
3.98
1.6
-0.71
-3.2
-6.3
-10.41
-15.91
-22.97
-31.39
-40.48
-48.95
-55.13
-57.43
-54.79
-47.13
-35.43
-21.44
-7.11
5.86
16.47
24.43
29.92
33.29
34.82
34.63
32.85
29.74
25.87
22.03
19.02
17.33
16.92
17.28
17.66
17.4
16.24
14.27
11.8
9.12
6.35
3.35
-0.06
-4.09
-8.9
-14.61
-21.33
-29.03
-37.34
-45.36
-51.76
-55.04
-53.97
-48.04
-37.73
-24.34
-9.66
4.5
16.76
26.33
33.03
37.11
39.09
39.44
38.6
36.86
34.41
31.54
28.55
25.82
23.68
22.27
21.58
21.38
21.37
21.21
20.59
19.29
17.1
13.95
9.91
5.22
0.15
-5.04
-10.26
-15.64
-21.52
-28.3
-36.16
-44.85
-53.51
-60.67
-64.62
-63.85
-57.65
-46.42
-31.67
-15.52
-0.1
13.04
23.14
30.2
34.64
37
37.73
37.18
35.72
33.8
31.87
30.34
29.39
28.97
28.86
28.84
28.78
28.69
28.64
28.59
28.35
27.57
25.86
22.98
18.92
13.91
8.34
2.59
-3.09
-8.71
-14.46
-20.74
-27.83
-35.77
-44.1
-51.86
-57.72
-60.26
-58.42
-51.8
-40.87
-26.8
-11.24
4.14
18.01
29.66
38.92
45.98
51.01
53.95
54.64
53.13
50.01
46.44
43.85
43.36
45.21
48.76
52.82
56.27
58.56
59.73
60.12
59.91
58.91
56.71
52.95
47.7
41.47
34.96
28.79
23.27
18.42
14.07
10.04
6.2
2.44
-1.46
-5.92
-11.51
-18.79
-28.08
-39.27
-51.72
-64.31
-75.58
-84.01
-88.19
-87.14
-80.48
-68.73
-53.24
-35.97
-19.11
-4.51
6.72
14.33
18.84
21.15
22.14
22.42
22.32
21.92
21.24
20.27
19.14
18
17.04
16.37
15.96
15.63
15.1
14.13
12.6
10.55
8.09
5.32
2.25
-1.2
-5.06
-9.24
-13.52
-17.58
-21.15
-24.12
-26.52
-28.5
-30.27
-32.02
-33.94
-36.29
-39.38
-43.58
-49.15
-56.05
-63.66
-70.74
-75.6
-76.58
-72.54
-63.38
-50
-34.16
-17.83
-2.73
10.1
20.24
27.71
32.77
35.64
36.57
35.91
34.19
32.11
30.37
29.5
29.64
30.55
31.72
32.63
32.99
32.82
32.38
31.91
31.49
30.91
29.79
27.71
24.42
20.01
14.8
9.29
3.91
-1.02
-5.45
-9.5
-13.41
-17.49
-22.11
-27.62
-34.21
-41.69
-49.26
-55.57
-58.96
-58.03
-52.17
-41.84
-28.48
-14.01
-0.27
11.43
20.53
26.97
31
32.93
33.02
31.6
29.13
26.18
23.39
21.25
19.97
19.49
19.55
19.79
19.99
20.07
20.09
20.16
20.26
20.25
19.81
18.57
16.25
12.82
8.5
3.74
-0.99
-5.36
-9.29
-12.97
-16.76
-21.06
-26.24
-32.43
-39.36
-46.34
-52.17
-55.42
-54.83
-49.75
-40.38
-27.84
-13.83
-0.13
11.81
21.15
27.62
31.43
32.97
32.72
31.11
28.49
25.21
21.66
18.25
15.37
13.28
12.03
11.42
11.15
10.85
10.31
9.4
8.16
6.62
4.77
2.54
-0.13
-3.22
-6.69
-10.44
-14.45
-18.81
-23.76
-29.55
-36.14
-43.03
-49.13
-52.95
-53.07
-48.64
-39.78
-27.65
-14.08
-1
10.12
18.61
24.45
28.01
29.7
29.72
28.16
25.15
21.03
16.39
11.95
8.27
5.57
3.73
2.36
1.07
-0.37
-1.96
-3.56
-4.99
-6.26
-7.55
-9.16
-11.5
-14.88
-19.54
-25.55
-32.71
-40.44
-47.72
-53.22
-55.51
-53.55
-46.99
-36.41
-23.21
-9.2
3.92
14.94
23.29
28.91
32.03
32.91
31.83
29.12
25.28
21.02
17.04
13.91
11.83
10.55
9.59
8.45
6.82
4.75
2.54
0.52
-1.1
-2.4
-3.75
-5.68
-8.74
-13.37
-19.67
-27.44
-35.99
-44.17
-50.51
-53.48
-51.94
-45.6
-35.19
-22.33
-9.02
3.01
12.7
19.78
24.5
27.28
28.41
28.01
26.19
23.24
19.7
16.29
13.63
12.03
11.36
11.14
10.71
9.59
7.62
5.03
2.26
-0.23
-2.25
-3.98
-5.87
-8.5
-12.37
-17.85
-24.98
-33.4
-42.26
-50.2
-55.55
-56.76
-52.95
-44.24
-31.78
-17.46
-3.26
9.24
19.23
26.55
31.49
34.44
35.68
35.42
33.8
31.11
27.74
24.19
20.89
18.15
16.1
14.71
13.9
13.51
13.35
13.14
12.55
11.25
9.08
6.06
2.41
-1.61
-5.86
-10.39
-15.51
-21.64
-29.06
-37.62
-46.54
-54.4
-59.42
-60.01
-55.31
-45.58
-32.17
-17.14
-2.58
9.93
19.63
26.52
30.96
33.41
34.23
33.69
32.07
29.73
27.06
24.45
22.16
20.37
19.14
18.48
18.31
18.43
18.53
18.25
17.27
15.45
12.82
9.55
5.84
1.83
-2.41
-6.88
-11.64
-16.89
-22.84
-29.73
-37.39
-45.19
-51.91
-55.93
-55.8
-50.76
-41.04
-27.83
-12.98
1.6
14.37
24.44
31.47
35.61
37.16
36.53
34.21
30.73
26.75
22.94
19.87
17.89
17.04
17.04
17.46
17.83
17.78
17.1
15.77
13.82
11.36
8.47
5.25
1.74
-2.03
-6.08
-10.48
-15.45
-21.3
-28.28
-36.37
-45.02
-52.99
-58.57
-60.09
-56.47
-47.73
-35.02
-20.26
-5.48
7.71
18.44
26.51
32.06
35.33
36.46
35.71
33.46
30.35
27.07
24.21
22.07
20.66
19.8
19.29
19
18.85
18.75
18.48
17.71
16.14
13.6
10.14
6.03
1.65
-2.69
-6.9
-11.12
-15.73
-21.22
-28
-36.15
-45.23
-54.16
-61.38
-65.18
-64.17
-57.75
-46.41
-31.62
-15.45
0.02
13.25
23.43
30.48
34.76
36.79
37.09
36.14
34.42
32.42
30.62
29.33
28.63
28.38
28.29
28.12
27.86
27.64
27.66
27.96
28.27
28.03
26.57
23.43
18.54
12.35
5.63
-0.79
-6.37
-11.02
-15.11
-19.32
-24.42
-31
-39.17
-48.35
-57.21
-63.89
-66.48
-63.64
-55.08
-41.78
-25.69
-9.14
5.85
18.06
27.12
33.32
37.18
39.21
39.78
39.2
37.81
36.02
34.24
32.86
32.13
32.13
32.79
33.93
35.24
36.38
37.05
37.06
36.42
35.25
33.72
31.87
29.56
26.53
22.51
17.46
11.61
5.43
-0.57
-6.01
-10.79
-15.08
-19.22
-23.58
-28.51
-34.24
-40.85
-48.07
-55.23
-61.11
-64.24
-63.23
-57.32
-46.7
-32.58
-16.82
-1.43
11.97
22.47
29.82
34.26
36.22
36.14
34.5
31.82
28.75
26
24.15
23.48
23.8
24.61
25.3
25.46
25.08
24.46
24
23.89
23.94
23.66
22.48
20.02
16.27
11.57
6.45
1.42
-3.23
-7.46
-11.5
-15.76
-20.68
-26.63
-33.7
-41.56
-49.29
-55.56
-58.86
-57.91
-52.1
-41.74
-28.04
-12.8
2.01
14.78
24.51
30.92
34.31
35.3
34.59
32.75
30.19
27.26
24.22
21.34
18.87
16.97
15.68
14.94
14.63
14.59
14.7
14.75
14.52
13.7
12.01
9.25
5.43
0.75
-4.34
-9.4
-14.14
-18.6
-23.18
-28.47
-34.95
-42.53
-50.39
-56.96
-60.37
-59.02
-52.29
-40.77
-26.18
-10.78
3.34
14.78
23.06
28.46
31.54
32.82
32.63
31.16
28.61
25.36
21.92
18.79
16.3
14.54
13.38
12.56
11.86
11.1
10.2
9.09
7.73
6.08
4.12
1.83
-0.86
-4.04
-7.95
-12.82
-18.9
-26.16
-34.16
-41.96
-48.23
-51.53
-50.74
-45.43
-36.06
-23.81
-10.35
2.69
14.01
22.89
29.1
32.79
34.29
33.95
32.22
29.54
26.42
23.31
20.57
18.35
16.6
15.22
14.07
13.14
12.45
11.97
11.5
10.74
9.32
7.03
3.89
0.07
-4.14
-8.52
-12.97
-17.57
-22.48
-27.95
-34.16
-41.03
-48.04
-54.12
-57.83
-57.75
-52.98
-43.54
-30.43
-15.39
-0.32
13.21
24.18
32.2
37.28
39.66
39.66
37.76
34.55
30.73
27.04
23.98
21.8
20.44
19.66
19.19
18.9
18.72
18.67
18.66
18.45
17.72
16.16
13.62
10.22
6.26
2.14
-1.87
-5.7
-9.53
-13.79
-18.98
-25.44
-33.16
-41.56
-49.4
-55.02
-56.72
-53.36
-44.82
-32.13
-17.22
-2.32
10.67
20.6
27.24
30.97
32.5
32.49
31.34
29.29
26.41
22.82
18.82
14.87
11.54
9.31
8.34
8.41
9.02
9.51
9.45
8.67
7.26
5.47
3.45
1.25
-1.24
-4.18
-7.7
-11.9
-16.88
-22.76
-29.55
-37.02
-44.41
-50.45
-53.52
-52.24
-45.99
-35.23
-21.55
-7.11
6.02
16.48
23.82
28.28
30.38
30.56
29.02
25.89
21.48
16.4
11.43
7.33
4.59
3.24
2.94
3.12
3.2
2.77
1.69
0.09
-1.73
-3.49
-5.03
-6.46
-8.16
-10.64
-14.41
-19.78
-26.73
-34.75
-42.86
-49.66
-53.66
-53.57
-48.81
-39.69
-27.41
-13.72
-0.38
11.24
20.43
27.04
31.19
33.07
32.85
30.69
26.95
22.27
17.46
13.3
10.35
8.72
8.09
7.9
7.57
6.71
5.26
3.43
1.53
-0.18
-1.71
-3.29
-5.37
-8.43
-12.8
-18.65
-25.83
-33.85
-41.82
-48.52
-52.56
-52.68
-48.19
-39.2
-26.71
-12.39
1.88
14.52
24.51
31.51
35.62
37.2
36.67
34.46
31.04
26.93
22.67
18.72
15.46
13.11
11.69
11.1
11.08
11.23
11.14
10.43
8.91
6.63
3.8
0.7
-2.51
-5.88
-9.64
-14.13
-19.69
-26.51
-34.5
-43.15
-51.43
-57.91
-61
-59.44
-52.71
-41.36
-26.83
-11.11
3.88
16.68
26.55
33.33
37.22
38.58
37.79
35.32
31.7
27.57
23.53
20.09
17.53
15.94
15.18
14.98
14.99
14.81
14.15
12.81
10.83
8.36
5.65
2.85
-0.04
-3.2
-6.89
-11.35
-16.77
-23.22
-30.63
-38.67
-46.65
-53.39
-57.43
-57.36
-52.33
-42.49
-29.01
-13.79
1.17
14.3
24.76
32.36
37.22
39.56
39.57
37.57
34.1
29.92
25.86
22.49
20.06
18.45
17.36
16.55
15.92
15.51
15.34
15.29
15.08
14.3
12.6
9.79
5.99
1.49
-3.29
-7.98
-12.44
-16.75
-21.28
-26.54
-32.97
-40.64
-48.99
-56.7
-61.93
-62.83
-58.2
-48.03
-33.53
-16.85
-0.3
14.2
25.55
33.43
38.07
39.97
39.64
37.62
34.47
30.77
27.04
23.69
20.93
18.84
17.4
16.56
16.3
16.51
16.96
17.28
17.03
15.86
13.62
10.48
6.76
2.8
-1.2
-5.25
-9.49
-14.14
-19.47
-25.74
-33.1
-41.42
-50.05
-57.71
-62.68
-63.24
-58.36
-48.1
-33.76
-17.5
-1.65
11.97
22.4
29.58
33.98
36.12
36.33
34.73
31.41
26.77
21.51
16.56
12.77
10.58
9.94
10.35
11.15
11.71
11.69
11
9.7
7.94
5.79
3.23
0.23
-3.3
-7.42
-12.25
-17.99
-24.86
-32.91
-41.72
-50.27
-56.89
-59.73
-57.4
-49.52
-36.98
-21.64
-5.77
8.66
20.45
29.18
35.03
38.37
39.58
38.98
36.9
33.76
30.04
26.23
22.78
19.99
17.98
16.72
16.01
15.59
15.13
14.39
13.22
11.57
9.48
6.99
4.09
0.71
-3.23
-7.88
-13.38
-19.9
-27.55
-36.16
-45.12
-53.22
-58.82
-60.28
-56.45
-47.21
-33.59
-17.45
-0.93
14.11
26.49
35.68
41.66
44.62
44.93
43.07
39.75
35.79
31.97
28.82
26.5
24.88
23.69
22.7
21.77
20.91
20.1
19.25
18.15
16.55
14.23
11.09
7.2
2.78
-1.85
-6.47
-11.09
-16.02
-21.78
-28.92
-37.58
-47.25
-56.61
-63.77
-66.76
-64.14
-55.59
-42.04
-25.48
-8.3
7.34
20.03
29.24
35.2
38.5
39.76
39.43
37.82
35.2
31.91
28.37
25.08
22.45
20.73
19.91
19.76
19.89
19.88
19.38
18.22
16.4
13.98
11.07
7.7
3.85
-0.51
-5.41
-10.85
-16.89
-23.66
-31.32
-39.83
-48.7
-56.8
-62.49
-64.03
-60.21
-50.84
-36.96
-20.59
-4.05
10.64
22.28
30.54
35.74
38.44
39.13
38.16
35.8
32.39
28.44
24.54
21.26
18.96
17.71
17.34
17.53
17.91
18.12
17.91
17.1
15.59
13.39
10.55
7.15
3.31
-0.96
-5.68
-11
-17.12
-24.28
-32.55
-41.57
-50.42
-57.63
-61.45
-60.38
-53.73
-41.96
-26.63
-9.93
5.93
19.28
29.24
35.67
38.86
39.34
37.67
34.45
30.33
25.99
22
18.8
16.57
15.3
14.83
14.85
15.03
15.04
14.66
13.74
12.31
10.45
8.25
5.72
2.79
-0.66
-4.78
-9.73
-15.72
-22.86
-31.11
-40.02
-48.59
-55.34
-58.65
-57.25
-50.7
-39.61
-25.5
-10.29
4.15
16.48
26.03
32.63
36.46
37.84
37.14
34.81
31.37
27.37
