-20.2
-3.27
13.33
27.44
37.74
43.94
46.58
46.54
44.65
41.49
37.47
33.04
28.66
24.8
21.72
19.37
17.4
15.31
12.62
9.19
5.16
0.98
-2.87
-6.06
-8.67
-11.1
-13.9
-17.48
-21.88
-26.74
-31.39
-35.02
-36.88
-36.37
-33.05
-26.81
-18
-7.49
3.4
13.18
20.67
25.25
26.98
26.43
24.29
21.17
17.53
13.71
10.06
6.85
4.21
1.99
-0.21
-2.79
-6.01
-9.8
-13.77
-17.51
-20.73
-23.51
-26.2
-29.35
-33.49
-38.93
-45.58
-52.76
-59.07
-62.62
-61.41
-54.13
-40.71
-22.65
-2.59
16.43
31.97
42.72
48.58
50.24
48.66
44.77
39.41
33.43
27.68
22.82
19.11
16.19
13.37
9.85
5.22
-0.41
-6.45
-12.11
-16.76
-20.13
-22.47
-24.45
-26.97
-30.97
-37.1
-45.33
-54.61
-62.86
-67.26
-65.2
-55.23
-37.9
-15.74
7.5
28.16
43.82
53.86
59.09
60.85
60.23
57.63
53.06
46.73
39.33
32.02
25.94
21.66
18.91
16.73
13.99
9.93
4.51
-1.62
-7.53
-12.4
-15.91
-18.36
-20.51
-23.2
-27.04
-32.29
-38.76
-45.89
-52.71
-57.82
-59.58
-56.48
-47.63
-33.34
-15.17
4.37
22.57
37.37
47.8
53.98
56.59
56.42
53.99
49.71
44.03
37.66
31.43
26.11
22.1
19.31
17.33
15.54
13.48
10.88
7.77
4.37
0.92
-2.38
-5.5
-8.59
-11.94
-15.77
-20.15
-24.84
-29.24
-32.58
-34.01
-32.84
-28.75
-21.89
-12.84
-2.57
7.79
17.2
24.85
30.26
33.31
34.11
33
30.45
27.03
23.32
19.87
17.03
14.93
13.44
12.24
10.96
9.35
7.31
4.86
2.13
-0.76
-3.75
-6.83
-10.11
-13.61
-17.35
-21.18
-24.74
-27.45
-28.59
-27.38
-23.23
-15.96
-5.98
5.79
18.05
29.44
38.93
45.95
50.51
52.99
53.87
53.6
52.46
50.61
48.14
45.12
41.66
37.94
34.25
30.99
28.6
27.34
27.14
27.53
27.69
26.8
24.26
19.94
14.08
7.26
0.24
-6.14
-10.98
-13.5
-13.33
-10.67
-6.38
-1.76
1.84
3.35
2.3
-1.13
-6.27
-12.12
-17.56
-21.56
-23.39
-22.82
-20.13
-16
-11.26
-6.61
-2.44
1.22
4.53
7.75
10.99
14.15
16.86
18.57
18.71
16.94
13.3
8.39
3.14
-1.36
-4.28
-5.23
-4.34
-2.2
0.46
2.91
4.61
5.32
5.08
4.06
2.55
0.8
-0.93
-2.49
-3.72
-4.53
-4.92
-4.99
-5.02
-5.31
-6.07
-7.35
-8.88
-10.27
-11.14
-11.38
-11.14
-10.88
-11.06
-12.02
-13.73
-15.88
-17.94
-19.38
-19.83
-19.17
-17.56
-15.36
-13.01
-10.89
-9.23
-8.09
-7.38
-6.92
-6.58
-6.31
-6.17
-6.27
-6.64
-7.21
-7.87
-8.5
-9.12
-9.83
-10.74
-11.86
-13
-13.88
-14.24
-14.06
-13.59
-13.27
-13.56
-14.74
-16.8
-19.55
-22.57
-25.44
-27.73
-29.07
-29.21
-28.12
-25.99
-23.26
-20.51
-18.33
-17.16
-17.14
-18.13
-19.78
-21.7
-23.58
-25.37
-27.15
-29.12
-31.39
-33.97
-36.75
-39.6
-42.46
-45.33
-48.26
-51.27
-54.35
-57.49
-60.78
-64.36
-68.47
-73.24
-78.75
-84.91
-91.54
-98.42
-105.32
-112.05
-118.51
-124.71
-130.82
-137.08
-143.7
-150.74
-158.04
-165.29
-172.24
-178.85
-185.41
-192.45
-200.52
-209.93
-220.6
-232.04
-243.51
-254.12
-262.89
-268.79
-270.77
-267.96
-259.94
-247.02
-230.31
-211.46
-192.29
-174.24
-158.15
-144.17
-132.03
-121.3
-111.6
-102.7
-94.45
-86.79
-79.67
-73.12
-67.22
-62.05
-57.59
-53.73
-50.21
-46.81
-43.32
-39.74
-36.15
-32.7
-29.4
-26.11
-22.47
-18.1
-12.77
-6.52
0.31
7.2
13.66
19.46
24.67
29.61
34.67
40.21
46.49
53.62
61.46
69.29
75.83
79.43
78.74
73.48
64.84
55.23
47.37
43.23
43.34
46.8
52.08
57.84
63.53
69.25
75.31
81.72
88.08
93.8
98.56
102.46
106.04
109.9
114.43
119.55
124.76
129.37
132.83
134.97
136
136.39
136.56
136.58
136.09
134.3
130.31
123.48
113.61
101.12
86.84
71.79
56.75
42.15
28.01
14.2
0.72
-12.04
-23.26
-31.89
-37.02
-38.2
-35.71
-30.35
-23.2
-15.13
-6.53
2.81
13.56
26.69
43.19
63.82
88.65
116.65
145.34
171.04
189.76
198.47
196.29
184.98
168.35
150.97
136.61
127.29
123.13
122.9
124.94
127.74
130.21
131.61
131.37
129.04
124.33
117.31
108.42
98.58
88.9
80.34
73.49
68.37
64.56
61.55
59.06
57.2
56.28
56.45
57.22
57.34
55.12
49.02
38.5
24.5
9.43
-3.42
-10.87
-10.85
-3.03
11.17
29.05
47.51
63.89
76.47
84.68
88.87
89.86
88.66
86.08
82.7
78.83
74.64
70.23
65.73
61.26
56.82
52.29
47.42
42.01
35.96
29.28
21.96
13.88
4.85
-5.06
-15.21
-24.2
-30.14
-31.21
-26.42
-16.05
-1.63
14.6
30.43
44.28
55.43
63.97
70.35
75.22
79.1
82.39
85.31
87.93
90.16
91.77
92.5
92.14
90.66
88.21
85.21
82.25
79.94
78.7
78.57
79.11
79.52
79
77.09
74.04
70.78
68.58
68.54
71.11
75.81
81.49
86.69
90.17
91.23
89.77
86.16
81.1
75.53
70.6
67.46
67
69.36
73.75
78.47
81.44
80.85
75.81
66.65
54.65
41.47
28.44
16.19
4.69
-6.18
-16.13
-24.3
-29.55
-31.21
-29.72
-26.78
-24.72
-25.49
-29.73
-36.51
-43.94
-50.12
-53.99
-55.53
-55.41
-54.48
-53.53
-53.42
-55.27
-60.46
-69.9
-83.1
-97.66
-109.6
-114.74
-110.5
-97.17
-77.87
-57.23
-39.39
-26.43
-17.94
-11.9
-6.11
0.53
7.77
14.63
20.33
24.88
28.92
33.02
36.98
39.68
39.68
36.12
29.35
20.89
12.86
6.95
3.75
2.7
2.54
1.95
0.05
-3.49
-8.67
-15.32
-23.1
-31.32
-38.87
-44.43
-46.95
-46.17
-42.8
-38.12
-33.36
-29.09
-25.05
-20.67
-15.73
-10.85
-7.41
-6.9
-10.12
-16.61
-24.7
-32.14
-36.84
-37.48
-33.74
-26.17
-15.98
-4.75
5.8
14.11
19.02
20.09
17.66
12.69
6.35
-0.37
-6.99
-13.52
-20.23
-27.25
-34.35
-40.71
-45.03
-45.84
-41.84
-32.46
-18.19
-0.7
17.51
33.7
45.69
52.43
54.16
52.17
48.24
44.03
40.6
38.32
37.02
36.23
35.53
34.8
34.21
34.27
35.6
38.75
43.98
51.15
59.64
68.37
75.91
80.75
81.71
78.34
71.16
61.62
51.59
42.73
35.91
31.04
27.35
23.94
20.35
16.74
13.61
11.38
10
8.83
7.03
3.99
-0.19
-4.58
-7.69
-7.97
-4.39
3.14
13.72
25.72
37.39
47.37
55.1
60.84
65.28
69.08
72.55
75.52
77.61
78.5
78.18
77.01
75.55
74.26
73.29
72.39
71.01
68.48
64.19
57.7
48.87
37.88
25.21
11.58
-2.18
-15.42
-27.85
-39.73
-51.73
-64.58
-78.68
-93.79
-109.1
-123.56
-136.46
-147.69
-157.78
-167.35
-176.53
-184.65
-190.42
-192.71
-191.35
-187.57
-183.65
-181.97
-183.76
-188.53
-194.23
-198.43
-199.42
-196.96
-192.31
-187.65
-185.46
-187.86
-196.13
-210.12
-227.96
-246.01
-259.55
-264.03
-256.42
-236.2
-205.36
-167.55
-126.94
-87.23
-51.22
-21.01
1.81
16.12
21.68
19.58
12.44
4.14
-1.11
0.12
9.32
25.63
46.21
67.3
85.57
98.95
106.88
109.83
108.6
103.85
96.07
85.91
74.47
63.21
53.69
47.05
43.78
43.65
46.02
50.3
56.02
62.78
69.88
76.16
80.05
80.04
75.27
65.89
53.12
38.81
24.95
13.13
4.35
-0.98
-2.96
-2.07
0.91
5.01
9.21
12.74
15.15
16.41
16.69
16.15
14.82
12.56
9.28
5.1
0.47
-3.89
-7.19
-8.76
-8.29
-5.94
-2.27
1.73
4.89
6.25
5.31
2.31
-1.92
-6.33
-10.11
-13.03
-15.38
-17.59
-19.92
-22.22
-24.07
-25.02
-24.87
-23.68
-21.71
-19.19
-16.27
-12.93
-9.1
-4.6
0.76
7.19
14.65
22.83
31.13
38.83
45.36
50.48
54.22
56.79
58.35
59
58.83
58.14
57.44
57.34
58.32
60.41
63
65.01
65.16
62.48
56.57
47.71
36.64
24.3
11.53
-0.9
-12.33
-22.12
-29.78
-35.2
-38.78
-41.45
-44.34
-48.36
-53.71
-59.81
-65.47
-69.32
-70.33
-67.96
-62.28
-53.86
-43.72
-33.24
-24.08
-17.86
-15.64
-17.4
-21.95
-27.3
-31.58
-33.84
-34.44
-34.62
-35.67
-38.05
-41.15
-43.78
-44.89
-44.33
-42.9
-42
-43.06
-46.94
-53.64
-62.08
-70.25
-75.51
-75.39
-68.55
-55.51
-38.64
-21.42
-6.92
3.27
9.41
13.05
15.84
18.66
21.51
23.98
25.98
27.99
30.79
34.76
39.51
43.85
46.41
46.27
43.44
38.78
33.63
29.31
26.63
25.78
26.38
27.73
29.1
30.01
30.38
30.54
31.09
32.73
36
41.13
47.93
55.82
64.01
71.74
78.49
84.15
88.98
93.45
98.02
102.87
107.77
112.1
114.92
115.12
111.67
103.79
91.23
74.38
54.24
32.15
9.44
-12.83
-33.99
-53.6
-71.29
-86.71
-99.62
-110.04
-118.41
-125.47
-132.1
-138.88
-145.89
-152.67
-158.39
-162.15
-163.18
-160.97
-155.35
-146.56
-135.25
-122.45
-109.44
-97.38
-87.04
-78.64
-71.79
-65.72
-59.52
-52.37
-43.71
-33.33
-21.33
-8.16
5.48
18.78
31.04
41.86
51.26
59.56
67.14
74.25
80.89
86.91
92.25
97.05
101.67
106.48
111.64
116.89
121.64
125.17
126.94
126.91
125.51
123.64
122.44
123.17
127.03
134.82
146.71
161.93
178.77
194.89
207.92
216.09
218.61
215.64
208.06
197.07
183.9
169.72
155.57
142.27
130.29
119.62
109.75
99.92
89.39
77.6
64.26
49.14
31.9
12.03
-11.05
-37.54
-67.05
-98.5
-130.36
-161.15
-189.9
-216.48
-241.52
-266.24
-292.13
-320.96
-354.47
-393.94
-439.12
-487.24
-532.57
-567.26
-583.63
-576.71
-546.24
-496.67
-435.45
-370.24
-306.53
-246.77
-191.04
-138.56
-88.95
-42.63
-0.32
37.69
71.78
102.78
131.28
157.17
179.63
197.51
210.08
217.51
221.03
222.41
223.19
223.69
222.61
217.31
204.96
184.12
155.8
123.59
92.3
66.15
47.03
34.13
24.79
16.1
6.29
-4.88
-16.57
-27.92
-38.59
-48.76
-58.57
-67.57
-74.7
-78.56
-78.1
-73.09
-64.14
-52.49
-39.62
-26.81
-14.97
-4.55
4.35
11.9
18.3
23.83
28.71
33.27
37.88
42.85
48.29
53.86
58.85
62.31
63.41
61.76
57.53
51.37
44.09
36.44
28.93
21.9
15.56
10.04
5.26
0.95
-3.37
-8.08
-13.29
-18.67
-23.54
-27.12
-28.7
-27.74
-23.77
-16.29
-4.81
10.83
30.2
51.97
74.17
94.62
111.62
124.43
133.38
139.63
144.62
149.51
154.89
160.71
166.58
172.15
177.49
183.24
190.37
199.82
212.07
226.92
243.67
261.41
279.25
296.34
311.58
323.51
330.47
331.11
325.17
313.81
299.43
284.84
272.32
262.91
256.28
251.25
246.4
240.61
233.24
224.02
212.86
199.68
184.42
167.14
148.04
127.51
106.12
84.47
63.19
42.77
23.54
5.67
-10.88
-26.27
-40.71
-54.35
-67.27
-79.39
-90.6
-100.81
-110.11
-118.79
-127.33
-136.24
-145.9
-156.4
-167.51
-178.83
-189.94
-200.62
-210.92
-221.17
-231.9
-243.83
-257.85
-274.8
-294.95
-317.43
-339.92
-358.94
-371
-373.86
-367.53
-354.27
-337.59
-320.79
-305.88
-293.28
-282.41
-272.43
-262.77
-253.09
-243.02
-231.95
-219.32
-205.02
-189.73
-174.63
-160.85
-148.91
-138.41
-128.33
-117.57
-105.54
-92.36
-78.68
-65.27
-52.72
-41.27
-30.87
-21.38
-12.7
-4.76
2.48
9.09
15.15
20.62
25.27
28.71
30.46
30.09
27.44
22.64
16.1
8.45
0.33
-7.66
-15.02
-21.47
-26.89
-31.45
-35.6
-39.98
-45.24
-51.87
-59.94
-69.1
-78.74
-88.25
-97.37
-106.38
-116.06
-127.45
-141.4
-158.22
-177.41
-197.68
-217.31
-234.62
-248.58
-259.19
-267.5
-275.08
-283.1
-291.39
-298.09
-300.07
-293.99
-277.73
-251.2
-216.44
-176.74
-135.42
-94.86
-56.05
-18.89
17.25
53.07
89.34
127.09
167.8
212.99
263.34
317.8
373.09
424.32
466.45
496.04
512.41
517.44
514.34
505.94
493.52
476.85
455.04
427.79
396
361.55
326.46
292.02
258.54
225.65
192.93
160.3
128.1
96.5
65.14
33.04
-0.82
-36.69
-73.44
-108.42
-137.97
-158.37
-166.92
-162.63
-146.68
-122.08
-93.11
-64.22
-39.04
-19.49
-5.62
4.09
11.77
19.22
27.15
35.01
41.31
44.13
41.68
32.76
17.22
-3.67
-27.26
-49.97
-68.4
-80.51
-86.44
-88.52
-90.39
-95.48
-105.78
-121.13
-139.49
-157.85
-173.45
-184.59
-190.96
-193.31
-192.79
-190.55
-187.38
-183.72
-179.81
-175.79
-171.75
-167.74
-163.84
-160.28
-157.47
-155.95
-156.11
-157.75
-160.03
-161.65
-161.57
-159.8
-157.76
-157.88
-162.44
-172.21
-185.49
-198.26
-205.33
-202.15
-186.37
-158.7
-122.42
-82.22
-42.79
-7.71
20.95
42.45
57
65.38
68.84
69.05
68.12
68.27
71.31
78.03
87.77
98.54
107.78
113.4
114.61
112.15
107.63
102.56
97.6
92.4
86.24
78.77
70.53
62.69
56.5
52.51
50.38
49.17
47.89
46.08
43.8
41.37
38.87
35.93
31.87
26.2
19
11.14
3.98
-1.17
-3.5
-2.94
0.01
4.49
9.52
13.88
16.17
14.94
9.22
-1.05
-14.71
-29.66
-43.58
-54.55
-61.54
-64.38
-63.42
-59.2
-52.19
-42.93
-32.16
-20.89
-10.34
-1.74
3.97
6.4
5.84
3.24
-0.06
-2.7
-3.7
-2.62
0.5
5.37
11.72
19.38
28.21
37.88
47.8
57.06
64.61
69.65
71.89
71.84
70.68
69.88
70.53
72.7
75.22
76.07
73.3
66.08
55.26
43.3
33.42
28.41
29.62
36.5
46.93
58.13
67.56
73.65
75.97
75.01
71.77
67.45
63.33
60.65
60.6
64.03
71.13
81.15
92.43
102.83
110.38
113.73
112.51
107.16
98.67
88.19
76.81
65.34
54.33
44.06
34.6
25.95
18.07
11.02
4.93
-0.04
-3.75
-6.29
-7.97
-9.41
-11.39
-14.56
-19.17
-24.83
-30.58
-35.31
-38.26
-39.31
-38.95
-37.71
-35.85
-33.15
-29.2
-23.81
-17.23
-10.03
-2.8
4.2
10.93
17.41
23.32
28.16
31.41
32.94
33.14
32.69
32.2
32.03
32.1
32.19
32
31.4
30.36
29.04
27.75
26.86
26.73
27.52
29.09
31.05
32.82
33.94
34.13
33.41
32.01
30.29
28.6
27.23
26.33
25.99
26.21
27.05
28.67
31.3
35.13
40.13
45.82
51.06
54.26
53.86
49.14
40.81
31.02
22.8
18.93
20.77
27.67
37.07
45.33
49
45.78
35.13
18.23
-2.41
-23.63
-42.36
-56.16
-63.73
-64.95
-60.7
-52.4
-41.6
-29.58
-17.31
-5.38
5.9
16.39
25.95
34.41
41.62
47.54
52.41
56.79
61.35
66.6
72.49
78.37
83.15
85.73
85.4
81.92
75.54
66.72
56.13
44.6
32.97
21.75
10.6
-1.81
-17.3
-36.97
-60.13
-83.84
-103.73
-115.78
-118.04
-111.57
-99.86
-87.29
-77.28
-71.26
-68.7
-68.05
-67.94
-67.84
-68.11
-69.29
-71.46
-73.87
-75.18
-74
-69.74
-62.83
-54.57
-46.44
-39.44
-33.7
-28.71
-23.8
-18.77
-14.14
-10.92
-10.1
-12.13
-16.56
-22.22
-27.6
-31.43
-33.12
-32.9
-31.65
-30.56
-30.65
-32.44
-35.81
-40.14
-44.52
-47.99
-49.79
-49.43
-46.73
-41.72
-34.66
-25.94
-16.16
-6.1
3.32
11.19
16.78
19.73
20.18
18.8
16.69
15.11
15.22
17.67
22.44
28.9
35.99
42.74
48.55
53.37
57.59
61.67
65.84
69.9
73.27
75.22
75.17
72.85
68.39
62.21
54.85
46.78
38.43
30.2
22.61
16.36
12.13
10.32
10.8
12.83
15.35
17.36
18.34
18.31
17.67
16.87
16.21
15.78
15.63
15.89
16.83
18.7
21.53
25.07
28.83
32.32
35.17
37.3
38.83
40.01
40.98
41.69
41.87
41.14
39.14
35.79
31.28
26.15
21.08
16.73
13.58
11.86
11.59
12.71
15.37
19.95
27.12
37.58
51.78
69.58
89.94
110.99
130.32
145.55
154.98
158.09
155.8
150.43
145.16
143.34
147.64
159.29
177.64
200.11
222.72
241.12
251.85
253.25
245.97
232.54
216.41
200.73
187.58
177.64
170.6
165.7
162.25
159.79
157.86
155.8
152.52
146.77
137.35
123.69
105.92
84.88
61.82
37.87
13.64
-11.01
-36.81
-64.72
-95.32
-128.42
-162.97
-197.41
-230.22
-260.57
-288.68
-315.7
-343.51
-374.23
-409.94
-452.12
-500.94
-554.47
-608.23
-655.7
-689.82
-705.24
-700.06
-676.46
-639.6
-595.55
-549.28
-503.73
-460.03
-418.63
-380.04
-344.92
-313.4
-284.33
-255.24
-223.14
-185.83
-142.92
-95.95
-47.6
-0.44
44.32
87.32
130.74
177.61
230.99
293.16
364.76
443.82
525.15
600.75
661.56
700.13
713.2
702.75
674.98
637.68
597.3
557.32
518.37
479.71
440.86
402.23
364.67
328.55
293.12
256.78
217.95
176.05
131.75
86.68
42.63
0.7
-39.12
-77.73
-116.48
-156.54
-198.69
-243.15
-289.78
-338
-386.9
-435.21
-481.59
-524.64
-562.99
-595.09
-619.05
-632.86
-634.97
-625.27
-605.62
-579.72
-552.13
-526.74
-505.7
-488.98
-475
-461.78
-447.91
-432.86
-416.83
-400.21
-383.14
-365.33
-346.19
-325.07
-301.56
-275.66
-247.8
-218.66
-188.96
-159.14
-129.17
-98.57
-66.68
-33.01
2.39
38.78
74.96
109.58
141.64
170.85
197.61
222.9
248.06
274.62
304.01
336.94
372.61
408.03
438.18
457.21
460.68
447.43
420.51
386.13
351.34
321.5
298.85
282.64
270.56
260.26
250.24
239.81
228.59
216.24
202.73
188.71
175.67
165.37
159.12
157.02
157.79
159.3
159.3
156.07
148.71
137.13
122
104.53
86.42
69.46
55.25
44.64
37.57
33.22
30.39
28.07
25.78
23.47
21.32
19.36
17.36
14.93
11.73
7.71
3.13
-1.44
-5.49
-8.65
-10.86
-12.36
-13.51
-14.68
-16.18
-18.18
-20.77
-23.98
-27.88
-32.5
-37.85
-43.78
-50.06
-56.37
-62.5
-68.48
-74.6
-81.33
-89.04
-97.8
-107.21
-116.26
-123.46
-127
-125.08
-116.35
-100.49
-78.54
-52.89
-26.75
-3.29
15.21
27.83
34.92
37.58
37.1
34.57
30.8
26.53
22.5
19.37
17.49
16.77
16.55
15.85
13.61
9.05
1.87
-7.64
-18.74
-30.4
-41.69
-52.04
-61.48
-70.57
-80.19
-91.31
-104.72
-120.85
-139.49
-159.45
-178.53
-193.66
-201.6
-199.92
-187.84
-166.56
-138.83
-108.03
-77.04
-47.74
-20.93
3.17
24.42
42.44
56.75
66.95
73.06
75.58
75.31
73.15
69.8
65.72
61.11
56.06
50.67
45.07
39.38
33.55
27.33
20.33
12.33
3.72
-4.22
-9.4
-9.42
-2.31
12.8
35.4
63.63
94.77
125.8
153.99
177.31
194.75
206.42
213.47
217.65
220.75
223.97
227.63
231.37
234.53
236.54
237.03
235.53
231.38
223.92
212.92
199.01
183.55
168.02
153.1
138.27
122.05
103.02
80.64
55.66
29.69
4.31
-19.66
-42.28
-64.08
-85.41
-106.07
-125.26
-141.86
-154.76
-163.08
-166.33
-164.41
-157.68
-146.87
-133.04
-117.4
-101.21
-85.67
-71.78
-60.27
-51.45
-45.13
-40.72
-37.32
-34.04
-30.15
-25.37
-19.91
-14.43
-9.77
-6.64
-5.17
-4.89
-4.91
-4.38
-3.02
-1.35
-0.58
-2.03
-6.64
-14.5
-24.7
-35.34
-43.8
-47.23
-43.14
-30.28
-9.18
17.67
46.39
72.83
93.76
107.64
114.6
115.81
112.6
105.88
96.05
83.36
68.26
51.56
34.24
17.02
0.1
-16.91
-34.7
-53.92
-74.81
-97.1
-120.12
-142.86
-164.13
-182.66
-197.38
-207.64
-213.41
-215.17
-213.39
-207.97
-197.91
-181.68
-158.14
-127.55
-92.02
-54.99
-20.16
9.83
33.96
52.74
67.36
78.92
88.01
94.79
99.4
102.23
104.01
105.57
107.53
110.16
113.2
116.04
117.88
118.05
116.25
112.76
108.29
103.7
99.65
96.32
93.38
90.17
85.98
80.28
72.82
63.71
53.5
43.14
33.93
27.23
24.02
24.57
28.27
33.86
39.89
45.23
49.29
52.03
53.6
54.1
53.35
51.02
46.78
40.53
32.49
23.25
13.75
5.18
-1.11
-3.89
-2.33
3.66
13.3
25.06
36.97
47.16
54.17
57.16
55.95
50.88
42.72
32.61
21.99
12.46
5.49
2.08
2.47
6.04
11.48
17.28
22.13
25.33
26.85
27.12
26.69
25.92
24.86
23.36
21.18
18.15
14.16
9.15
3.01
-4.36
-12.92
-22.44
-32.5
-42.67
-52.76
-63.01
-74.02
-86.49
-100.75
-116.41
-132.3
-146.56
-157.28
-163.01
-163.11
-157.85
-148.03
-134.57
-118.2
-99.41
-78.72
-56.83
-34.69
-13.23
6.96
25.83
43.8
61.34
78.57
95.07
109.93
122.08
130.71
135.42
136.31
133.84
128.62
121.32
112.57
102.87
92.58
81.96
71.17
60.35
49.56
38.83
28.05
17.12
6.11
-4.61
-14.28
-21.92
-26.71
-28.23
-26.68
-22.75
-17.3
-11.09
-4.63
1.79
7.97
13.66
18.56
22.41
25.15
26.88
27.85
28.32
28.4
28.12
27.46
26.4
25.06
23.59
22.15
20.83
19.61
18.44
17.23
15.93
14.47
12.84
11.01
8.98
6.81
4.59
2.47
0.68
-0.55
-0.98
-0.38
1.36
4.23
8.04
12.48
17.26
22.2
27.33
32.87
39.07
46.04
53.6
61.27
68.36
74.25
78.62
81.54
83.52
85.34
87.87
91.74
97.04
103.13
108.63
111.6
110
102.17
87.44
66.4
40.94
13.89
-11.75
-33.41
-49.56
-59.73
-64.21
-63.66
-58.71
-49.94
-37.94
-23.58
-7.92
7.83
22.65
35.94
47.55
57.53
65.84
72.12
75.7
75.89
72.35
65.41
56.03
45.53
35.15
25.65
17.18
9.41
1.83
-5.95
-14.1
-22.57
-31.19
-39.64
-47.49
-54.18
-59.11
-61.86
-62.37
-60.98
-58.43
-55.61
-53.37
-52.35
-52.86
-54.87
-58.18
-62.48
-67.63
-73.71
-81.09
-90.31
-102.02
-116.81
-134.95
-156.13
-179.32
-202.63
-223.73
-240.26
-250.61
-254.22
-251.76
-244.65
-234.46
-222.39
-209.02
-194.44
-178.55
-161.37
-143.17
-124.42
-105.78
-87.98
-71.84
-58.15
-47.46
-39.83
-34.78
-31.31
-28.3
-24.92
-20.9
-16.55
-12.44
-9.16
-6.94
-5.7
-5.19
-5.17
-5.55
-6.42
-7.94
-10.38
-14.13
-19.82
-28.15
-39.62
-54
-70.03
-85.5
-97.9
-105.3
-107.02
-103.76
-97.04
-88.32
-78.39
-67.22
-54.46
-40
-24.31
-8.22
7.54
22.75
37.76
53.04
68.75
84.35
98.87
111.28
120.94
127.85
132.46
135.34
136.8
136.72
134.57
129.76
121.9
111.13
98.19
84.28
70.82
59.02
49.65
42.84
38.25
35.19
32.95
30.97
28.95
26.82
24.65
22.52
20.44
18.27
15.71
12.36
7.89
2.17
-4.61
-12.04
-19.54
-26.65
-33.08
-38.83
-44.14
-49.44
-55.2
-61.72
-68.87
-75.81
-81.11
-83.06
-80.26
-72.27
-59.83
-44.7
-29.05
-14.74
-2.87
6.33
13.23
18.4
22.3
25.17
27.17
28.41
29.02
29.15
28.93
28.42
27.65
26.56
25.05
23.02
20.39
17.09
13.05
8.19
2.44
-4.05
-10.74
-16.65
-20.45
-20.9
-17.32
-9.93
0.16
11.31
21.84
30.57
37.03
41.36
44.01
45.44
45.95
45.66
44.61
42.91
40.69
38.13
35.33
32.35
29.17
25.83
22.45
19.21
16.32
13.87
11.75
9.71
7.47
4.85
1.95
-0.9
-3.16
-4.4
-4.44
-3.57
-2.4
-1.68
-1.95
-3.31
-5.39
-7.56
-9.22
-10.16
-10.56
-10.88
-11.58
-12.87
-14.67
-16.66
-18.5
-19.98
-21.08
-21.97
-22.94
-24.28
-26.33
-29.53
-34.34
-41.09
-49.64
-59.06
-67.63
-73.18
-73.75
-68.37
-57.42
-42.56
-26.09
-10.14
3.9
15.55
24.94
32.37
37.98
41.72
43.5
43.43
41.92
39.56
36.93
34.44
32.25
30.3
28.45
26.58
24.64
22.55
20.11
16.93
12.54
6.67
-0.38
-7.55
-13.16
-15.4
-12.97
-5.6
5.74
19.28
33.02
45.39
55.51
63.18
68.56
71.84
73.12
72.49
70.14
66.44
61.88
56.94
51.97
47.17
42.58
38.22
34.06
30.01
25.92
21.42
16.04
9.27
0.83
-8.96
-19.07
-27.79
-33.13
-33.5
-28.28
-18.11
-4.71
9.72
23.21
34.48
43.08
49.09
52.78
54.31
53.7
51
46.4
40.38
33.52
26.44
19.63
13.38
7.75
2.66
-2.11
-6.89
-12.11
-18.29
-25.84
-34.76
-44.43
-53.45
-59.91
-61.89
-58.21
-48.85
-35.01
-18.74
-2.23
12.78
25.3
35.03
42.08
46.66
48.94
49.12
47.51
44.56
40.82
36.76
32.69
28.72
24.79
20.8
16.7
12.4
7.82
2.74
-3.13
-10.02
-17.81
-25.8
-32.68
-36.77
-36.6
-31.41
-21.56
-8.39
6.18
20.27
32.48
42.11
48.99
53.25
55.1
54.74
52.43
48.55
43.59
38.08
32.52
27.21
22.27
17.67
13.28
8.9
4.34
-0.57
-5.96
-11.83
-17.96
-23.85
-28.71
-31.58
-31.59
-28.19
-21.46
-12.1
-1.27
9.65
19.43
27.19
32.43
35
34.97
32.54
28.03
21.88
14.58
6.68
-1.34
-9.17
-16.61
-23.63
-30.28
-36.68
-43.01
-49.6
-56.82
-64.98
-74.1
-83.74
-92.9
-100.17
-104.11
-103.65
-98.55
-89.46
-77.78
-65.26
-53.5
-43.59
-36.06
-30.89
-27.83
-26.58
-26.91
-28.6
-31.36
-34.73
-38.14
-40.99
-42.8
-43.3
-42.43
-40.3
-37.22
-33.61
-30.11
-27.52
-26.61
-27.77
-30.67
-34.05
-35.93
-34.24
-27.61
-15.89
-0.28
17.13
34.17
49.23
61.52
70.96
77.7
81.84
83.31
82.17
78.72
73.63
67.75
61.82
56.3
51.29
46.65
42.13
37.51
32.6
27.2
21.07
13.86
5.29
-4.73
-15.86
-27.1
-36.87
-43.36
-45.05
-41.35
-32.83
-21.16
-8.52
3.08
12.34
18.81
22.7
24.48
24.45
22.7
19.13
13.68
6.58
-1.66
-10.34
-18.83
-26.77
-34.2
-41.45
-48.98
-57.2
-66.38
-76.65
-88.11
-100.83
-114.6
-128.71
-141.79
-151.96
-157.42
-157.09
-151.11
-140.75
-127.89
-114.21
-100.6
-86.99
-72.81
-57.46
-40.91
-23.69
-6.65
9.41
24.03
37.1
48.75
59.08
68.11
75.74
81.96
86.92
90.96
94.48
97.71
100.6
102.74
103.66
103.21
101.86
100.8
101.6
105.57
113.21
123.96
136.32
148.42
158.62
165.91
170.03
171.21
169.93
166.63
161.64
155.21
147.53
138.83
129.31
119.09
108.19
96.54
84.03
70.63
56.51
41.96
27.42
13.26
-0.32
-13.32
-25.91
-38.26
-50.42
-62.26
-73.47
-83.72
-92.69
-100.08
-105.66
-109.32
-111.09
-111.3
-110.54
-109.5
-108.73
-108.41
-108.22
-107.55
-105.86
-103.03
-99.53
-96.24
-94.05
-93.47
-94.39
-96.26
-98.4
-100.38
-102.18
-104.15
-106.8
-110.6
-116
-123.32
-132.56
-143.09
-153.21
-160.17
-160.68
-151.98
-132.94
-104.73
-70.6
-34.86
-1.6
26.41
48.13
63.9
74.83
82.2
87.05
90.23
92.41
94.08
95.53
96.74
97.41
97.17
95.81
93.46
90.59
87.81
85.6
84.06
82.69
80.59
76.62
70
60.69
49.75
39.24
31.73
29.45
33.51
43.25
56.39
69.66
79.87
84.89
84.24
78.89
70.69
61.53
52.69
44.63
37.2
30.05
22.95
15.92
9.13
2.76
-3.09
-8.32
-12.67
-15.7
-16.8
-15.52
-11.84
-6.28
0.18
6.4
11.46
14.94
17
18.14
19.03
20.19
21.85
23.97
26.31
28.47
30.07
30.8
30.49
29.27
27.46
25.58
24.05
23.07
22.5
21.88
20.69
18.59
15.52
11.72
7.55
3.24
-1.2
-6
-11.42
-17.49
-23.88
-29.92
-34.76
-37.75
-38.58
-37.38
-34.46
-30.02
-23.86
-15.42
-4
10.83
29.02
49.95
72.6
95.77
118.22
138.62
155.47
167.04
171.59
167.91
155.88
136.95
114.1
91.09
71.33
56.69
46.81
39.33
30.91
18.56
0.74
-22.28
-49.06
-77.81
-107.33
-137.47
-168.9
-202.86
-241.02
-285.34
-337.68
-398.58
-465.91
-533.88
-593.75
-636.13
-654.33
-646.76
-617.48
-574.19
-525.09
-475.96
-429.17
-384.46
-340.78
-297.79
-256.07
-216.47
-179.11
-143.05
-106.64
-68.32
-27.34
16.01
60.23
103.16
142.33
175.55
201.28
218.92
228.64
231.21
227.7
219.57
208.9
198.46
191.57
191.24
199.07
214.45
234.53
255.11
272.03
282.5
285.6
281.97
272.95
259.75
243.09
223.32
200.74
175.92
149.69
123.01
96.65
71.3
47.6
26.36
8.47
-5.36
-15.08
-21.53
-26.45
-32.01
-40.19
-52.36
-68.99
-89.84
-114
-140.04
-165.89
-188.89
-206.06
-214.64
-212.81
-200.22
-178.03
-148.59
-114.83
-79.82
-46.32
-16.58
7.85
26.21
38.72
46.38
50.71
53.21
54.98
56.55
58.02
59.38
60.73
62.28
64.09
65.92
67.12
66.92
64.71
60.31
54
46.42
38.26
30.2
22.73
16.21
10.82
6.56
3.29
0.93
-0.31
0.3
3.8
11.08
22.21
36
50.18
62.15
69.94
72.98
72.12
69.08
65.35
61.5
56.96
50.61
41.58
29.93
16.69
3.39
-8.68
-18.88
-27.22
-34.17
-40.21
-45.58
-50.17
-53.51
-54.9
-53.51
-48.65
-39.87
-27.19
-11.18
7.08
26.14
44.22
59.49
70.21
75.19
74.1
67.72
57.8
46.61
36.27
28.29
23.29
21.16
21.26
22.61
24.17
25.07
25.02
24.61
25.44
29.64
39.02
54.02
72.99
92.33
107.55
114.9
112.83
102.71
88.28
74.43
65.55
64.48
72.06
87.38
108.38
132.42
156.71
178.73
196.67
209.87
218.97
225.62
231.82
238.93
247.15
255.32
261.54
263.88
261.03
252.57
238.74
220.26
198.11
173.53
147.97
122.78
98.9
76.4
54.65
32.89
11.23
-8.64
-23.52
-29.75
-24.83
-8.81
15.13
41.4
63.47
75.69
74.64
59.79
33.37
-0.36
-36.26
-69.73
-97.75
-119.61
-136.79
-152.16
-168.62
-187.8
-209.31
-230.68
-248.17
-257.92
-257.21
-245.43
-224.32
-197.73
-170.7
-148.2
-133.95
-129.79
-135.62
-150.1
-171.5
-198.51
-230.54
-267.58
-309.46
-355.07
-401.72
-444.99
-479.52
-500.25
-503.93
-490.12
-461.25
-421.66
-376.22
-328.88
-282.05
-236.58
-192.43
-149.17
-106.54
-64.49
-23.28
16.37
53.37
86.4
114.19
135.93
151.51
161.43
166.6
168.02
166.57
163.03
158.07
152.37
146.61
141.45
137.46
135.04
134.4
135.38
137.53
140.09
142.23
143.21
142.48
139.71
134.79
127.84
119.19
109.45
99.39
89.72
80.82
72.62
64.56
55.91
46.08
34.9
22.74
10.39
-1.26
-11.47
-19.99
-27.05
-33.34
-39.7
-46.81
-54.77
-62.84
-69.5
-72.78
-70.97
-63.24
-49.94
-32.52
-13.02
6.47
24.1
38.51
48.73
54.34
55.63
53.67
50.07
46.43
43.76
42.36
42.12
43.13
45.93
51.17
58.83
67.65
75.35
79.59
79.2
74.78
68.28
61.89
56.83
52.96
49.24
44.55
38.41
30.98
22.72
13.93
4.6
-5.37
-15.96
-26.99
-38.18
-49.44
-60.86
-72.5
-83.99
-94.3
-101.76
-104.51
-101.04
-90.88
-74.85
-54.99
-34.07
-14.84
0.53
10.88
16.13
17.03
14.87
11.08
6.96
3.58
1.75
2.1
5.01
10.65
18.85
29.03
40.3
51.55
61.71
69.93
75.74
79.09
80.39
80.41
80.11
80.24
80.87
81.09
79.21
73.57
63.51
50.01
35.57
23.12
14.79
11.01
10.52
11.26
11.31
9.57
5.75
0.04
-7.15
-15.04
-22.14
-26.17
-24.5
-15.19
2.09
25.64
52.22
78.2
100.74
118.49
131.57
141.03
148.21
154.12
159.3
163.73
167.08
168.87
168.82
167.05
164.12
160.9
158.27
156.64
155.73
154.53
151.54
145.09
133.74
116.6
93.72
66.38
37.06
8.93
-15.18
-33.9
-48.11
-60.59
-74.69
-92.74
-115.01
-139.75
-164.42
-187.11
-207.29
-225.38
-241.6
-255
-263.43
-264.68
-257.82
-244.03
-226.22
-207.8
-191.43
-178.31
-168.45
-161.39
-156.8
-154.72
-155.3
-158.68
-165
-174.7
-188.74
-208.24
-233.51
-262.85
-292.04
-314.92
-325.08
-318.2
-293.68
-255.06
-208.7
-161.49
-118.72
-82.81
-53.63
-29.67
-9.45
7.8
22.28
34.13
43.96
52.72
61.29
69.86
77.84
84.08
87.45
87.39
84.1
78.4
71.35
63.83
56.41
49.34
42.82
37.25
33.38
32.09
34.18
39.86
48.57
58.99
69.38
78.09
83.94
86.47
85.84
82.64
77.67
71.79
65.83
60.5
56.29
53.28
51.09
48.99
46.12
41.82
35.84
28.48
20.44
12.5
5.23
-1.33
-7.61
-14.34
-22.31
-31.94
-43.13
-55.14
-66.63
-75.85
-81.03
-80.79
-74.52
-62.57
-46.18
-27.08
-7.05
12.44
30.39
46.17
59.31
69.47
76.5
80.57
82.27
82.52
82.2
81.88
81.68
81.33
80.5
79.11
77.47
76.11
75.46
75.51
75.69
74.99
72.29
66.79
58.16
46.76
33.58
20.16
8.3
-0.17
-3.83
-1.98
5.18
16.61
30.79
46.12
61.37
75.69
88.63
99.88
109.27
116.72
122.45
126.99
131.13
135.8
141.78
149.5
158.79
168.86
178.47
186.36
191.73
194.59
195.74
196.31
197.11
198.1
198.3
196.21
190.65
181.55
170.11
158.49
148.96
143.04
140.98
141.88
144.17
146.28
147.13
146.26
143.59
139.08
132.47
123.25
110.87
95.1
76.19
54.87
32.18
9.09
-13.74
-36.11
-58.22
-80.49
-103.24
-126.48
-149.79
-172.52
-194.02
-213.86
-231.97
-248.53
-263.86
-278.37
-292.66
-307.49
-323.63
-341.28
-359.41
-375.39
-385.32
-385.15
-372.14
-345.93
-308.69
-264.21
-216.57
-169.03
-123.73
-82.05
-45.22
-14.57
8.79
24.66
34.22
39.96
44.88
51.44
60.77
72.44
84.96
96.67
106.47
114.21
120.46
126.03
131.44
136.66
141.06
143.6
143.09
138.39
128.72
114.07
95.49
75.27
56.48
42.26
34.78
34.62
40.69
50.71
62.13
72.83
81.46
87.34
90.14
89.63
85.62
78.18
67.82
55.59
42.81
30.76
20.29
11.63
4.37
-2.25
-9.01
-16.41
-24.47
-32.88
-41.14
-48.93
-56.28
-63.6
-71.54
-80.71
-91.42
-103.41
-115.92
-127.8
-137.84
-145.19
-149.57
-151.43
-151.68
-151.45
-151.7
-152.98
-155.47
-159.19
-164.2
-170.79
-179.37
-190.24
-203.45
-218.71
-235.57
-253.53
-271.96
-289.94
-306.03
-318.42
-325.34
-325.7
-319.53
-307.88
-292.47
-274.98
-256.62
-237.91
-218.75
-198.59
-176.48
-151.19
-121.42
-86.29
-45.9
-1.79
43.19
85.57
122.26
151.47
173.13
188.59
199.81
208.43
215.09
219.42
220.66
218.36
212.91
205.54
197.89
191.7
188.66
190.24
197.19
208.6
221.35
230.4
230.45
218.25
194.47
163.93
133.87
111.12
99.77
100.26
110.38
126.93
147.17
169.19
191.51
212.42
229.99
242.35
248.33
247.74
241.29
230.01
214.67
195.21
170.7
139.86
102.04
58.24
11.5
-33.71
-72.88
-103.07
-123.96
-137.64
-147.47
-156.59
-166.9
-178.76
-191.36
-203.19
-212.41
-216.94
-214.78
-204.41
-185.53
-159.42
-128.78
-97.08
-67.48
-42.19
-22.07
-6.85
4.34
12.56
18.76
23.63
27.69
31.27
34.55
37.57
40.24
42.41
43.79
44.03
42.75
39.55
34.13
26.25
15.74
2.55
-13.14
-30.61
-48.47
-64.6
-76.48
-81.81
-79.25
-68.9
-52.34
-32.22
-11.5
7.28
22.37
32.97
39.02
40.97
39.62
35.98
31.14
26.14
21.72
18.19
15.39
12.89
10.25
7.29
4.12
1.08
-1.6
-4.01
-6.73
-10.69
-16.96
-26.34
-39.05
-54.37
-70.6
-85.15
-95.18
-98.31
-93.42
-81.09
-63.46
-43.47
-24
-7.1
6.26
15.99
22.44
26.06
27.31
26.74
25.07
23.15
21.67
20.94
20.81
20.82
20.46
19.45
17.89
16.06
14.2
12.23
9.62
5.48
-1.25
-11.36
-25.06
-41.56
-58.96
-74.49
-85.14
-88.49
-83.56
-71.17
-53.69
-34.19
-15.56
0.27
12.53
21.3
27.11
30.51
31.96
31.9
30.84
29.37
27.96
26.84
25.91
24.78
23.04
20.44
17.07
13.25
9.39
5.76
2.25
-1.69
-6.92
-14.29
-24.23
-36.37
-49.33
-60.89
-68.45
-69.79
-63.86
-51.11
-33.35
-13.15
7.03
25.38
40.96
53.45
62.79
68.92
71.77
71.49
68.58
63.91
58.51
53.19
48.36
43.95
39.63
35.1
30.32
25.5
20.97
16.88
12.94
8.43
2.29
-6.5
-18.54
-33.63
-50.53
-66.98
-80.1
-87.02
-85.73
-75.7
-58.1
-35.41
-10.72
13.2
34.39
51.84
65.17
74.3
79.2
79.94
76.92
71.04
63.56
55.82
48.75
42.62
37.02
31.16
24.39
16.54
8.07
-0.17
-7.39
-13.33
-18.35
-23.48
-29.89
-38.56
-49.84
-63.2
-77.15
-89.45
-97.55
-99.27
-93.44
-80.38
-61.76
-40.16
-18.2
2.11
19.67
34.13
45.44
53.49
58.08
59.11
56.94
52.51
47.18
42.28
38.67
36.42
34.93
33.27
30.71
27.03
22.6
18.01
13.78
9.95
6.12
1.51
-4.72
-13.2
-24.29
-37.84
-53.11
-68.59
-82.05
-90.99
-93.28
-87.93
-75.48
-57.91
-37.86
-17.79
0.71
17.09
31.45
44.03
54.8
63.35
69.24
72.31
72.92
71.92
70.34
69.1
68.7
69.1
69.85
70.27
69.78
68.07
65.18
61.45
57.24
52.79
48.09
42.92
36.97
29.97
21.66
11.78
-0.04
-14.06
-30.01
-46.68
-61.8
-72.54
-76.43
-72.41
-61.37
-45.79
-28.79
-12.87
0.85
12.56
23.04
32.76
41.34
47.7
50.58
49.18
43.44
34.01
21.89
8.14
-6.36
-21.01
-35.54
-49.99
-64.76
-80.53
-97.98
-117.52
-138.87
-160.81
-181.08
-196.75
-204.92
-203.65
-192.81
-174.41
-152.22
-130.58
-112.79
-99.92
-90.44
-81.05
-68.38
-50.59
-28.21
-3.82
19.35
38.85
53.96
65.5
74.97
83.44
90.9
96.52
99.33
99.03
96.23
92.27
88.52
85.81
84.19
83.04
81.47
78.74
74.48
68.73
61.81
54.1
45.93
37.46
28.68
19.51
9.74
-0.8
-12.32
-25.04
-39.07
-54.14
-69.38
-83.11
-93.1
-97.05
-93.35
-81.76
-63.6
-41.36
-18
3.95
22.89
38.24
50.09
58.76
64.45
67.27
67.38
65.23
61.61
57.5
53.76
50.87
48.78
47.1
45.3
43.09
40.44
37.62
34.86
32.16
29.16
25.31
20.02
12.87
3.73
-7.2
-19.32
-31.47
-41.98
-48.79
-49.92
-44.14
-31.44
-13.17
8.4
30.72
51.67
69.96
85.01
96.65
104.78
109.27
110.15
107.8
103.13
97.33
91.52
86.29
81.55
76.59
70.49
62.61
52.9
41.94
30.7
20.1
10.63
2.22
-5.75
-14.2
-24.03
-35.88
-49.89
-65.53
-81.55
-96.06
-106.84
-111.92
-110.27
-102.19
-89.41
-74.48
-59.89
-47.2
-36.62
-27.35
-18.29
-8.89
0.5
8.84
15.04
18.57
19.67
19.06
17.46
15.15
12
7.8
2.68
-2.77
-7.62
-11.12
-13.11
-14.19
-15.53
-18.49
-24.15
-32.99
-44.67
-57.96
-70.88
-80.91
-85.62
-83.28
-73.5
-57.34
-37.06
-15.33
5.47
23.86
39.21
51.46
60.67
66.82
69.85
69.97
67.84
64.55
61.31
58.96
57.68
56.99
56.1
54.43
51.93
49.13
46.77
45.29
44.45
43.37
40.75
35.42
26.71
14.8
0.72
-13.67
-25.99
-33.84
-35.45
-30.2
-18.96
-3.89
12.25
26.9
38.3
45.75
49.34
49.55
46.92
41.93
35.08
27
18.4
10.01
2.32
-4.42
-10.24
-15.28
-19.73
-23.77
-27.6
-31.46
-35.71
-40.82
-47.33
-55.69
-66.1
-78.21
-90.81
-101.91
-109.06
-109.98
-103.41
-89.6
-70.33
-48.32
-26.35
-6.46
10.39
24.13
35.1
43.57
49.5
52.71
53.13
51.01
46.96
41.76
36.2
30.82
25.92
21.53
17.53
13.68
9.67
5.14
-0.4
-7.53
-16.74
-28.15
-41.18
-54.32
-65.26
-71.51
-71.11
-63.44
-49.33
-30.86
-10.57
9.26
27.07
42.05
53.85
62.32
67.39
69.13
67.92
64.47
59.69
54.41
49.18
44.14
39.11
33.82
28.14
22.19
16.26
10.66
5.45
0.22
-5.81
-13.66
-24.1
-37.11
-51.63
-65.52
-76.05
-80.73
-78.13
-68.41
-53.27
-35.27
-16.98
-0.26
13.98
25.59
34.62
40.97
44.34
44.41
41.22
35.36
27.93
20.19
13.15
7.3
2.53
-1.79
-6.4
-11.83
-18.2
-25.22
-32.41
-39.43
-46.39
-53.81
-62.48
-73.15
-86.25
-101.7
-118.83
-136.43
-152.69
-165.46
-172.5
-172.04
-163.37
-147.13
-125.26
-100.53
-75.73
-53.06
-33.85
-18.69
-7.69
-0.84
1.93
0.92
-3.28
-9.74
-17.45
-25.59
-33.7
-41.58
-49.11
-56.01
-61.78
-65.76
-67.29
-65.96
-61.68
-54.68
-45.33
-33.84
-19.98
-2.85
19.05
47.41
83.47
127.26
177.15
229.88
281.1
326.27
361.71
385.41
397.45
399.92
396.19
389.87
383.75
379.19
376.21
374.12
372.29
370.39
368.19
364.9
358.88
347.87
329.91
304.36
272.35
236.52
200.03
165.44
134.08
105.87
79.7
54.09
27.63
-0.57
-30.75
-62.48
-94.9
-127.18
-158.8
-189.9
-221.16
-253.61
-288.37
-326.76
-370.08
-419.17
-473.25
-528.87
-579.64
-617.46
-634.9
-627.95
-597.42
-548.34
-487.68
-421.61
-353.88
-286.13
-219.53
-156.39
-100.36
-55.25
-23.01
-2.6
9.63
18.09
25.8
33.22
38.36
38.33
31.25
17.27
-1.48
-22
-41.81
-59.92
-76.86
-94.1
-113.24
-135.15
-159.63
-185.28
-209.8
-230.4
-244.52
-250.43
-247.7
-237.22
-220.76
-200.34
-177.65
-153.88
-129.78
-106.07
-83.64
-63.38
-45.86
-30.96
-17.75
-4.76
9.63
26.72
47.33
71.55
98.74
127.46
155.59
180.67
200.54
213.95
220.92
222.53
220.37
215.72
209.09
200.14
188.18
172.75
154.11
133.41
112.51
93.56
78.5
68.7
64.7
66.21
72.22
81.43
92.5
104.2
115.51
125.47
133.25
138.28
140.48
140.4
139.05
137.56
136.73
136.7
136.94
136.51
134.53
130.56
124.84
118.3
112.24
107.95
106.23
107.16
109.9
112.97
114.75
114.04
110.6
105.32
100.16
97.61
100.01
108.83
124.04
143.8
164.71
182.54
193.42
194.92
186.7
170.36
148.58
124.08
98.8
73.77
49.65
27.31
8.06
-6.79
-16.84
-23.14
-27.97
-33.86
-42.22
-52.56
-62.82
-70.45
-73.79
-72.71
-68.42
-62.6
-56.55
-51.01
-46.37
-43.15
-41.85
-42.52
-44.14
-44.64
-41.52
-33.03
-19.04
-1.17
17.82
35.15
48.92
58.32
63.37
64.4
61.7
55.5
46.22
34.6
21.65
8.38
-4.48
-16.68
-28.3
-39.53
-50.5
-61.24
-71.77
-82.25
-92.99
-104.26
-116.09
-128.11
-139.58
-149.51
-156.91
-160.87
-160.68
-156
-146.94
-134.24
-119.23
-103.59
-88.85
-75.89
-64.76
-54.76
-45.04
-35.06
-24.96
-15.41
-7.24
-0.96
3.36
6.07
7.54
7.95
7.29
5.59
3.12
0.55
-1.27
-1.59
-0.13
2.76
6.14
8.76
9.46
7.58
3.26
-2.49
-8.14
-12.18
-13.77
-13.06
-11.09
-9.26
-8.62
-9.49
-11.47
-13.87
-16.22
-18.57
-21.38
-25.2
-30.16
-35.88
-41.53
-46.23
-49.42
-51.11
-51.75
-52.03
-52.51
-53.46
-54.82
-56.5
-58.64
-61.61
-65.86
-71.35
-77.24
-81.78
-82.76
-78.36
-67.83
-51.82
-32.17
-11.23
8.96
27.08
42.72
56.05
67.52
77.51
86.22
93.61
99.49
103.59
105.72
105.91
104.47
102.02
99.23
96.64
94.38
92.19
89.33
84.77
77.26
65.62
49.08
27.69
2.63
-23.83
-48.93
-70.18
-86.2
-96.94
-103.46
-107.19
-109.15
-109.59
-108.11
-104.18
-97.68
-89.16
-79.78
-70.89
-63.58
-58.3
-54.72
-51.92
-48.87
-44.82
-39.64
-33.83
-28.23
-23.56
-20.24
-18.31
-17.62
-17.99
-19.13
-20.47
-20.86
-18.74
-12.58
-1.57
13.8
31.83
50.17
66.73
80.41
91.2
99.78
106.82
112.49
116.35
117.73
116.14
111.54
104.35
95.22
84.75
73.44
61.67
49.83
38.32
27.47
17.36
7.74
-1.95
-12.29
-23.52
-35.1
-45.62
-53.06
-55.41
-51.38
-40.95
-25.36
-6.63
13.21
32.74
51.33
68.91
85.41
100.5
113.52
123.73
130.61
133.97
133.81
130.04
122.3
109.99
92.57
70.04
43.31
14.27
-14.5
-40.28
-60.95
-75.48
-84.16
-88.39
-90.23
-91.75
-94.55
-99.36
-105.9
-113.06
-119.21
-122.67
-122.23
-117.36
-108.27
-95.57
-79.97
-62.02
-42.18
-21.06
0.36
20.7
38.35
51.92
60.74
65.09
66.04
65.03
63.26
61.18
58.45
54.27
47.98
39.56
29.68
19.39
9.6
0.58
-8.01
-16.84
-26.42
-36.79
-47.53
-58.08
-68.01
-77.09
-85.16
-91.86
-96.54
-98.3
-96.46
-90.85
-82.14
-71.71
-61.3
-52.47
-46.13
-42.36
-40.45
-39.16
-36.96
-32.21
-23.26
-8.74
11.99
38.42
68.46
98.68
125.02
143.88
153.22
152.96
144.75
131.1
114.29
95.66
75.46
53.3
28.94
2.88
-23.28
-47.07
-65.83
-77.51
-81.34
-78.11
-69.76
-58.71
-47.02
-35.92
-25.87
-16.99
-9.61
-4.49
-2.62
-4.64
-10.35
-18.6
-27.6
-35.67
-41.78
-45.84
-48.4
-50.28
-52.01
-53.71
-55.1
-55.85
-55.89
-55.53
-55.5
-56.75
-60.03
-65.54
-72.55
-79.39
-83.84
-83.85
-78.29
-67.36
-52.5
-35.71
-18.79
-2.84
11.76
24.82
35.93
44.27
48.97
49.67
47.04
42.67
38.52
36.19
36.23
38.12
40.62
42.47
42.91
42.02
40.54
39.68
40.67
44.57
51.89
62.36
74.69
86.75
96.14
101.11
101.41
98.61
95.65
95.73
101.16
112.47
128.41
146.61
164.27
178.88
188.3
190.74
184.85
170.04
146.93
117.58
85.19
53.32
24.87
1.39
-17.05
-31.46
-43.26
-53.6
-63.07
-71.78
-79.61
-86.53
-92.79
-98.93
-105.62
-113.43
-122.56
-132.63
-142.71
-151.42
-157.26
-158.93
-155.68
-147.46
-134.93
-119.27
-101.84
-83.91
-66.43
-50.09
-35.45
-23.1
-13.65
-7.58
-4.89
-4.9
-6.34
-7.72
-7.83
-6.16
-3.03
0.62
3.6
5.05
4.71
3.21
1.86
2.27
5.83
13.01
23.02
33.71
42.11
45.39
41.88
31.91
17.82
3.29
-7.91
-13.14
-11.64
-4.46
6.19
18.06
29.54
39.94
49.25
57.56
64.7
70.12
73.2
73.62
71.55
67.7
62.96
58.06
53.3
48.55
43.49
37.93
32.1
26.66
22.49
20.3
20.22
21.61
23.1
22.93
19.47
11.88
0.4
-13.53
-27.66
-39.68
-47.95
-52.12
-53.11
-52.65
-52.55
-54.1
-57.85
-63.88
-72.06
-82.24
-94.03
-106.61
-118.6
-128.35
-134.5
-136.35
-134.02
-128.03
-118.88
-106.82
-91.92
-74.47
-55.33
-35.94
-17.91
-2.63
9.13
17.2
21.83
23.38
22.22
18.78
13.77
8.45
4.59
4.25
9.24
20.41
37.2
57.62
78.72
97.46
111.68
120.54
124.46
124.58
121.97
117.2
110.36
101.4
90.61
78.76
66.97
56.3
47.32
40.03
33.88
28.16
22.36
16.42
10.67
5.73
2.08
-0.18
-1.53
-2.89
-5.36
-9.77
-16.44
-25.1
-35.08
-45.4
-54.82
-61.77
-64.46
-61.29
-51.59
-36.19
-17.52
1.02
16.22
26.13
30.55
30.72
28.44
25.1
21.22
16.68
11.2
4.86
-1.72
-7.73
-12.55
-16.11
-18.86
-21.67
-25.32
-30.3
-36.71
-44.3
-52.61
-60.95
-68.43
-73.92
-76.17
-74.12
-67.23
-55.84
-41.16
-25.03
-9.45
3.9
13.99
20.49
23.65
24.05
22.38
19.35
15.58
11.59
7.74
4.26
1.17
-1.59
-4.15
-6.63
-9.06
-11.46
-13.85
-16.42
-19.55
-23.7
-29.19
-35.8
-42.56
-47.77
-49.47
-46.06
-36.99
-23.02
-6
11.68
27.83
40.97
50.48
56.41
59.21
59.39
57.48
54.04
49.67
45.06
40.81
37.36
34.81
33.01
31.59
30.18
28.55
26.68
24.75
23.02
21.71
20.8
19.98
18.64
16.13
12.07
6.77
1.4
-2.25
-2.24
2.82
13.24
28.27
46.31
65.42
83.53
98.52
108.24
111
106.25
95.3
81.43
69.02
61.98
62.15
68.62
78.22
87.07
92.15
92.17
87.42
78.93
67.48
53.23
35.87
15.18
-8.48
-34.12
-60.35
-85.63
-108.37
-126.78
-138.65
-141.58
-133.89
-115.51
-88.64
-57.53
-27.11
-1.35
17.92
31.21
40.34
47.04
51.87
54.16
52.85
47.49
38.83
28.52
18.33
9.31
1.5
-5.81
-13.44
-21.73
-30.42
-38.83
-46.26
-52.33
-57.09
-60.92
-64.29
-67.65
-71.25
-75.25
-79.57
-83.89
-87.51
-89.46
-88.79
-84.87
-77.66
-67.67
-55.77
-42.84
-29.67
-16.96
-5.44
4.06
10.72
14.12
14.48
12.84
10.7
9.57
10.35
13
16.66
20.1
22.28
22.74
21.64
19.52
16.78
13.39
8.92
2.76
-5.42
-15.42
-26.56
-37.98
-48.85
-58.38
-65.71
-69.73
-69.3
-63.73
-53.35
-39.66
-25.04
-11.92
-1.87
4.84
9.17
12.58
16.17
20.25
24.33
27.68
29.95
31.54
33.48
36.91
42.44
49.78
57.83
65.29
71.33
76.05
80.49
85.92
93.05
101.48
109.61
115.28
116.68
113.08
105.19
94.72
83.67
73.55
64.86
57.25
49.95
42.47
34.97
28.17
22.88
19.42
17.4
15.96
14.46
13.07
12.87
15.37
21.51
30.84
41.31
49.78
53.08
49.08
37.25
18.65
-4.71
-30.51
-56.75
-82.09
-105.84
-127.75
-147.63
-164.91
-178.52
-187.08
-189.39
-185
-174.59
-159.76
-142.55
-124.8
-107.63
-91.5
-76.52
-62.91
-51.16
-41.9
-35.5
-31.73
-29.71
-28.23
-26.19
-23.01
-18.62
-13.33
-7.42
-0.89
6.63
15.68
26.62
39.31
52.89
65.95
76.84
84.32
88.04
88.83
88.52
89.29
92.82
99.76
109.51
120.53
130.96
139.05
143.53
143.68
139.28
130.48
117.66
101.26
81.72
59.46
35.06
9.46
-16.09
-40.23
-62
-81.21
-98.4
-114.45
-130.03
-145.19
-159.49
-172.45
-183.97
-194.4
-204.13
-213.01
-220.08
-223.7
-222.23
-214.66
-201.07
-182.47
-160.34
-136.21
-111.28
-86.53
-62.75
-40.77
-21.42
-5.48
6.47
14.31
18.47
20.14
21.04
23.03
27.49
34.75
43.91
53.22
60.71
64.94
65.32
62.01
55.48
46.12
34.16
19.89
4.07
-11.82
-25.81
-35.88
-40.65
-39.8
-34.12
-25.13
-14.47
-3.34
7.67
18.47
28.99
38.87
47.4
53.76
57.45
58.56
57.76
55.99
53.99
52.04
49.91
47.11
43.23
38.24
32.47
26.48
20.79
15.62
10.85
6.09
0.84
-5.3
-12.43
-20.18
-27.66
-33.47
-36.03
-33.9
-26.36
-13.65
2.98
21.66
40.42
57.76
72.74
84.95
94.16
100.1
102.51
101.34
97.02
90.48
82.96
75.56
68.94
63.12
57.69
52.12
46.14
39.85
33.73
28.32
23.99
20.71
18.12
15.64
12.75
9.11
4.67
-0.3
-5.23
-9.22
-11.13
-9.77
-4.3
5.37
18.31
32.62
45.87
55.76
60.79
60.59
55.89
48.01
38.43
28.28
18.28
8.81
0.09
-7.64
-14.22
-19.66
-24.25
-28.51
-32.98
-37.97
-43.39
-48.81
-53.67
-57.58
-60.6
-63.19
-66.07
-69.9
-75
-81.08
-87.3
-92.3
-94.52
-92.57
-85.63
-73.72
-57.76
-39.36
-20.38
-2.43
13.4
26.67
37.29
45.3
50.68
53.42
53.7
52.06
49.34
46.4
43.83
41.76
39.88
37.75
35.06
31.79
28.15
24.43
20.72
16.94
12.78
7.86
1.84
-5.53
-14.22
-23.8
-33.31
-41.3
-46.2
-46.74
-42.46
-33.91
-22.49
-9.98
2.05
12.59
21.18
27.73
32.23
34.59
34.75
32.89
29.49
25.31
21.08
17.29
13.95
10.79
7.43
3.72
-0.21
-4.03
-7.49
-10.52
-13.39
-16.6
-20.71
-26.13
-32.97
-40.86
-48.87
-55.54
-59.19
-58.34
-52.28
-41.37
-26.97
-11.06
4.5
18.45
30.29
40.11
48.14
54.47
58.94
61.39
61.92
61
59.4
57.88
56.89
56.41
56.05
55.28
53.69
51.23
48.15
44.83
41.55
38.25
34.5
29.52
22.46
12.69
0.07
-14.87
-30.94
-46.33
-58.93
-66.69
-68.09
-62.54
-50.67
-34.2
-15.51
2.98
19.49
33.13
43.91
52.35
59.11
64.72
69.47
73.6
77.36
80.99
84.63
88.07
90.68
91.52
89.68
84.64
76.53
66.12
54.56
42.91
31.83
21.38
11.23
0.84
-10.25
-22.27
-35.3
-49.03
-62.81
-75.51
-85.68
-91.99
-93.7
-91.07
-85.27
-77.99
-70.81
-64.8
-60.44
-57.79
-56.83
-57.5
-59.76
-63.44
-68.3
-74.09
-80.58
-87.57
-94.69
-101.36
-106.82
-110.34
-111.49
-110.22
-106.87
-101.92
-95.84
-88.97
-81.65
-74.25
-67.37
-61.71
-57.98
-56.65
-57.65
-60.22
-62.87
-63.66
-60.68
-52.63
-39.24
-21.38
-0.77
20.54
40.75
58.63
73.62
85.61
94.59
100.53
103.31
102.98
99.89
94.75
88.45
81.86
75.47
69.41
63.54
57.7
51.83
46.13
40.86
36.32
32.67
29.9
27.76
25.77
23.24
19.38
13.53
5.41
-4.65
-15.63
-26.01
-34.09
-38.47
-38.48
-34.3
-26.94
-17.87
-8.6
-0.28
6.42
11.29
14.27
15.31
14.26
11.03
5.71
-1.29
-9.29
-17.52
-25.27
-32.03
-37.48
-41.42
-43.61
-43.74
-41.44
-36.47
-28.96
-19.53
-9.32
0.33
8.25
13.72
16.58
17.03
15.44
12.24
7.98
3.44
-0.31
-2.11
-0.91
4.04
13.15
26.5
43.9
64.73
87.66
110.62
130.91
145.73
152.81
150.99
140.28
121.7
96.93
67.87
36.43
4.43
-26.43
-54.65
-79.03
-98.71
-113.32
-123.02
-128.65
-131.58
-133.5
-135.82
-139.07
-142.43
-143.86
-140.78
-131.18
-114.51
-92.06
-66.47
-40.75
-17.25
2.95
19.85
34.04
45.99
55.75
63.03
67.55
69.43
69.27
67.91
66.04
63.91
61.35
58.05
53.88
49.05
43.94
38.75
33.28
26.95
19.12
9.48
-1.71
-13.65
-25.26
-35.41
-43.05
-47.35
-47.77
-44.24
-37.34
-28.21
-18.25
-8.8
-0.66
5.84
10.79
14.35
16.62
17.56
17.11
15.28
12.22
8.17
3.45
-1.56
-6.43
-10.76
-14.18
-16.51
-17.74
-18.08
-17.85
-17.42
-17.18
-17.45
-18.53
-20.67
-23.95
-28.21
-32.84
-36.8
-38.76
-37.51
-32.39
-23.6
-12.2
0.36
12.66
23.83
33.46
41.46
47.66
51.65
52.99
51.49
47.52
41.99
36.09
30.81
26.67
23.64
21.32
19.24
17.03
14.59
12
9.5
7.25
5.31
3.56
1.66
-0.87
-4.49
-9.49
-15.78
-22.7
-29.09
-33.49
-34.48
-31.16
-23.4
-11.92
1.95
16.62
30.71
43.24
53.68
61.82
67.61
71.12
72.52
72.19
70.71
68.79
67.04
65.8
64.93
63.9
62.05
58.89
54.38
48.97
43.34
38.1
33.41
28.92
23.94
17.95
10.85
3.29
-3.49
-7.9
-8.35
-3.66
6.67
22.27
41.94
63.81
85.73
105.78
122.65
135.83
145.53
152.41
157.28
160.89
163.97
167.4
172.18
179.4
189.98
204.34
222.28
242.88
264.58
285.37
303.03
315.46
321.06
319.14
310.11
295.46
277.37
258.07
239.38
222.32
207.2
193.83
181.79
170.65
159.96
149.3
138.26
126.56
114.14
101.17
87.98
74.95
62.36
50.28
38.66
27.38
16.4
5.77
-4.42
-14.09
-23.27
-32.11
-40.83
-49.6
-58.44
-67.25
-75.83
-84.05
-91.96
-99.83
-108.03
-116.91
-126.59
-136.93
-147.62
-158.32
-168.86
-179.34
-190.12
-201.75
-214.94
-230.35
-248.46
-269.11
-291.21
-312.62
-330.61
-342.74
-347.84
-346.46
-340.62
-332.85
-325.18
-318.51
-312.69
-307.18
-301.62
-296.16
-291.15
-286.79
-282.86
-278.86
-274.33
-269.2
-263.86
-259.07
-255.72
-254.49
-255.73
-259.23
-264.24
-269.73
-274.75
-278.86
-282.38
-286.19
-291.32
-298.59
-308.42
-320.77
-335.1
-350.17
-363.8
-373.28
-376.06
-370.92
-358.68
-341.88
-323.64
-306.07
-289.4
-272.2
-252.64
-229.86
-204.58
-178.65
-153.89
-131.05
-109.52
-87.89
-64.81
-39.51
-11.97
17.28
47.39
77.19
105.17
129.61
148.99
162.52
170.51
174.43
176.38
178.52
182.47
189.2
199.09
212.3
228.95
249.09
272.58
298.97
327.43
356.99
386.66
415.63
443.21
468.78
491.61
510.71
524.87
532.83
533.56
526.57
512.13
491.22
465.36
436.2
405.12
373.06
340.46
307.47
274.15
240.51
206.51
172.18
137.96
105.15
76.11
53.78
40.72
37.9
44.15
56.52
71.43
86.02
99.01
110.51
121.31
132.08
142.98
153.81
164.28
173.99
182.21
187.68
188.76
184.02
172.87
155.88
134.62
110.95
86.49
62.25
38.71
16.18
-5.04
-24.68
-42.75
-59.72
-76.51
-94.19
-113.54
-134.66
-157.05
-179.76
-201.96
-223.33
-244.23
-265.6
-288.76
-315.15
-345.92
-381.62
-421.56
-463.56
-503.81
-537.44
-559.49
-566.18
-555.9
-529.64
-490.63
-443.49
-393.12
-343.83
-298.72
-259.74
-227.87
-203.45
-186.37
-176.04
-171.34
-170.65
-172.28
-175.05
-179.05
-185.62
-196.62
-213.17
-234.34
-256.79
-275.61
-285.99
-285.13
-273.15
-252.85
-228.31
-203.24
-179.83
-158.59
-138.94
-120.12
-101.75
-83.91
-66.78
-50.32
-34.1
-17.42
0.22
18.94
38.43
58.09
77.48
96.66
116.38
137.8
161.87
188.61
216.57
243.01
264.76
279.25
285.53
284.36
277.69
267.75
256.41
245.05
234.93
227.44
224.25
226.92
236.38
252.41
273.45
296.72
318.59
335.2
343.24
340.59
326.69
302.48
270.03
232.2
192.36
154.25
121.59
97.39
82.85
76.76
75.79
75.83
73.85
68.91
62.13
55.41
49.85
44.93
38.77
29.28
15.29
-3.13
-25.15
-50.11
-77.9
-108.68
-141.78
-174.83
-203.89
-224.56
-233.68
-230.65
-217.7
-198.86
-178.4
-159.56
-144.26
-133.47
-128.02
-128.67
-135.75
-148.26
-163.52
-177.45
-185.81
-185.51
-175.52
-156.82
-131.65
-102.36
-70.46
-36.44
-0.19
38.01
76.77
113.35
143.93
164.29
170.74
161.08
135.48
96.97
51.2
5.16
-34.67
-64.1
-81.93
-89.46
-89.31
-84.29
-76.76
-68.76
-62.04
-57.78
-55.96
-54.99
-52.26
-45.46
-33.99
-19.49
-5.08
6.26
12.99
15.34
14.72
12.67
10.18
7.52
4.33
-0.3
-7.63
-18.91
-34.71
-53.99
-73.77
-89.6
-96.79
-92.1
-74.83
-46.97
-12.41
24.41
59.76
91.28
117.91
139.48
156.22
168.5
176.91
182.19
185.23
186.73
187.01
185.95
183.24
178.82
173.03
166.4
159.1
150.49
139.5
125.51
109.48
94.1
82.89
78.44
80.98
87.95
95.14
98.5
95.83
87.29
74.9
61.31
48.74
38.52
31.13
26.31
23.17
20.24
15.8
8.41
-2.5
-16.22
-30.8
-43.41
-50.99
-51.13
-42.79
-26.81
-5.72
16.89
37.53
53.76
64.62
70.39
71.88
69.7
64
54.63
41.46
24.54
4.03
-19.75
-46.05
-73.19
-98.35
-118.11
-129.56
-131.63
-125.71
-115.12
-103.65
-93.96
-86.85
-81.48
-76.36
-70.38
-63.16
-54.82
-45.43
-34.71
-22.28
-8.12
7.07
21.87
34.56
43.72
48.65
49.39
46.55
40.98
33.49
24.82
15.51
5.92
-3.78
-13.46
-22.81
-31.08
-36.96
-38.86
-35.44
-26.29
-12.23
4.89
22.76
39.43
53.84
65.85
75.9
84.43
91.52
96.86
100.06
100.94
99.71
96.95
93.36
89.69
86.61
84.79
84.77
86.92
91.29
97.58
105.28
113.86
122.92
132.32
142.01
151.94
161.94
171.64
180.49
187.66
192
192.18
187.1
176.42
160.97
142.81
124.62
108.72
96.13
86.15
76.77
65.82
52.02
35.7
18.63
3.1
-9.12
-17.43
-22.54
-26.09
-30.11
-36.55
-46.85
-61.57
-80.11
-100.52
-119.8
-134.64
-142.54
-142.81
-136.8
-127.3
-117.36
-109
-102.59
-97.11
-90.99
-83.04
-72.89
-60.84
-47.32
-32.51
-16.38
0.96
18.79
35.62
49.71
59.75
65.51
67.98
68.86
69.77
71.5
73.81
75.71
76.09
74.27
70.32
64.96
59.2
53.84
49.21
44.95
40.15
33.68
24.61
12.72
-1.23
-15.43
-27.49
-35.05
-36.59
-31.92
-22.19
-9.48
4
16.47
27.01
35.47
42.21
47.66
52.04
55.25
56.95
56.79
54.66
50.84
45.92
40.66
35.63
31.13
27.09
23.3
19.7
16.43
13.75
11.7
9.81
7.14
2.54
-4.91
-15.46
-28.66
-43.54
-58.86
-73.39
-85.92
-95.23
-100.13
-99.72
-93.77
-83.07
-69.31
-54.65
-41.03
-29.59
-20.6
-13.74
-8.67
-5.32
-3.86
-4.22
-5.72
-6.93
-6.16
-2.11
5.48
15.72
27.08
38.05
47.9
56.83
65.62
75.11
85.61
96.68
107.3
116.19
122.33
125.26
125.25
123.18
120.24
117.58
115.93
115.22
114.41
111.53
104.11
90.09
68.79
41.54
11.52
-17.24
-41.29
-58.82
-69.97
-76.21
-79.26
-80.34
-79.99
-78.34
-75.61
-72.19
-68.49
-64.65
-60.52
-55.95
-51.1
-46.54
-42.94
-40.67
-39.54
-39.01
-38.65
-38.51
-39.2
-41.49
-45.84
-52.04
-59.25
-66.48
-73.01
-78.67
-83.81
-89.04
-94.91
-101.72
-109.43
-117.7
-126
-133.63
-139.99
-144.68
-147.68
-149.32
-150.25
-151.26
-153.16
-156.64
-162.19
-170.01
-179.95
-191.51
-203.91
-216.34
-228.13
-238.96
-248.87
-258.15
-267.11
-275.87
-284.13
-291.09
-295.54
-296.12
-291.67
-281.62
-266.19
-246.3
-223.27
-198.43
-172.8
-147.01
-121.39
-96.27
-72.06
-49.38
-28.95
-11.3
3.38
15.36
25.24
33.68
41.08
47.49
52.57
55.82
56.89
55.66
52.3
47.16
40.67
33.34
25.99
19.76
16.06
16.22
20.95
30.07
42.45
56.42
70.35
83.17
94.5
104.46
113.31
121.12
127.74
132.9
136.56
138.93
140.49
141.73
142.88
143.84
144.26
143.83
142.47
140.43
138.16
136.07
134.28
132.48
130.16
126.66
121.6
114.88
106.78
97.87
88.85
80.53
73.72
69.13
67.14
67.64
69.89
72.69
74.65
74.57
71.81
66.35
58.68
49.61
40.06
30.89
22.78
16.18
11.21
7.7
5.31
3.62
2.26
0.91
-0.72
-3.04
-6.63
-12.17
-20.27
-31.17
-44.44
-58.81
-72.3
-82.68
-88.12
-87.81
-82.24
-72.98
-62.14
-51.51
-42.14
-34.21
-27.27
-20.71
-14.12
-7.37
-0.49
6.4
13.25
20.01
26.62
32.84
38.32
42.53
44.99
45.35
43.48
39.41
33.16
24.64
13.71
0.47
-14.4
-29.59
-43.36
-54.16
-61.19
-64.72
-65.85
-65.98
-66.19
-66.89
-67.9
-68.84
-69.47
-69.86
-70.33
-71.15
-72.36
-73.62
-74.34
-73.87
-71.75
-67.88
-62.52
-56.15
-49.26
-42.29
-35.61
-29.72
-25.29
-23.12
-23.76
-27.06
-31.9
-36.19
-37.51
-33.86
-24.36
-9.52
9.05
29.36
49.7
69.06
87.11
103.83
119.17
132.84
144.46
153.84
161.21
167.13
172.27
177.1
181.67
185.66
188.64
190.36
190.95
190.86
190.61
190.42
189.98
188.43
184.54
177.09
165.26
148.95
129.07
107.54
87.05
70.34
59.38
54.57
54.53
56.59
57.99
56.91
53.16
47.91
42.8
38.95
36.38
34.09
30.6
24.68
15.78
4.05
-9.83
-25.07
-40.97
-57.09
-73.25
-89.39
-105.4
-121.11
-136.31
-151
-165.49
-180.3
-195.8
-211.68
-226.86
-239.77
-249.03
-254.08
-255.31
-253.68
-249.99
-244.34
-236.1
-224.44
-209.05
-190.45
-169.88
-148.76
-128.13
-108.48
-89.93
-72.55
-56.54
-42.23
-29.81
-19.11
-9.62
-0.54
8.97
19.53
31.25
43.59
55.3
64.77
70.52
71.82
69
63.26
56.1
48.62
41.13
33.18
24
12.98
0.01
-14.51
-29.76
-44.61
-57.67
-67.43
-72.47
-71.9
-65.69
-54.75
-40.66
-25.2
-9.94
4.03
16.03
25.66
32.69
36.99
38.75
38.53
37.24
35.92
35.4
36
37.45
39.07
40.16
40.28
39.5
38.24
36.94
35.79
34.6
32.91
30.19
26.04
20.31
13.05
4.52
-4.65
-13.48
-20.65
-24.81
-25.06
-21.28
-14.19
-5.05
4.85
14.6
23.75
32.15
39.7
46.23
51.5
55.39
57.93
59.35
59.88
59.74
59.09
58.06
56.8
55.44
54.03
52.56
51.05
49.54
48.15
46.98
45.97
44.84
43.09
40.18
35.72
29.7
22.57
15.19
8.74
4.39
3.05
5.09
10.27
17.86
26.83
36.28
45.55
54.33
62.41
69.55
75.26
78.91
80.02
78.53
74.97
70.33
65.66
61.69
58.58
55.96
53.21
49.8
45.5
40.37
34.64
28.5
22.06
15.32
8.25
0.82
-7.04
-15.37
-24.07
-32.68
-40.36
-45.93
-48.23
-46.57
-41.01
-32.36
-21.99
-11.29
-1.31
7.41
14.85
21.26
26.9
31.89
36.22
39.84
42.78
45.26
47.61
50.15
52.99
55.94
58.6
60.48
61.32
61.1
59.97
58.05
55.14
50.76
44.23
34.9
22.42
6.85
-11.33
-31.13
-51.14
-69.61
-84.71
-94.99
-99.76
-99.34
-94.98
-88.41
-81.31
-74.85
-69.63
-65.77
-63.14
-61.54
-60.66
-60.04
-59.18
-57.72
-55.69
-53.54
-51.88
-51
-50.38
-48.69
-44.18
-35.46
-22.29
-5.84
11.57
27.23
38.92
45.39
46.5
43
36.34
28.42
21.47
17.6
18.23
23.5
32.05
41.44
49.03
53.09
53.34
50.89
47.44
44.35
42.13
40.38
38.28
35.19
30.91
25.63
19.54
12.57
4.41
-5.19
-16.01
-27.21
-37.5
-45.65
-51.07
-54.08
-55.75
-57.53
-60.69
-66
-73.63
-83.23
-94.06
-105.03
-114.84
-122.12
-125.76
-125.29
-121.11
-114.46
-107.18
-101.09
-97.41
-96.35
-96.99
-97.58
-96.17
-91.26
-82.32
-69.92
-55.44
-40.62
-27.07
-15.98
-7.91
-2.84
-0.2
0.98
1.81
3.25
5.76
9.15
12.49
14.33
13.01
7.15
-3.96
-19.86
-38.62
-57.03
-71.3
-78.3
-76.86
-68.31
-56.1
-44.35
-36.23
-32.9
-33.38
-35.56
-37.37
-37.67
-36.42
-34.05
-30.88
-26.74
-21.11
-13.62
-4.42
5.65
15.29
23.19
28.51
31.2
31.97
31.97
32.26
33.36
35.01
36.41
36.62
35.04
31.69
27.21
22.62
19.07
17.59
19
23.73
31.7
42.33
54.62
67.46
79.8
90.85
99.98
106.73
110.72
111.86
110.48
107.45
103.9
100.81
98.59
96.98
95.29
92.88
89.63
86.02
82.87
80.94
80.5
81.3
82.59
83.33
82.32
78.51
71.33
61.04
48.86
36.76
26.79
20.23
17.07
16.04
15.29
13.25
9.35
4.11
-1.29
-5.68
-8.5
-9.92
-10.61
-11.45
-13.11
-15.99
-20.25
-25.9
-32.82
-40.69
-48.9
-56.48
-62.32
-65.41
-65.31
-62.3
-57.46
-52.3
-48.22
-46.01
-45.52
-45.67
-44.83
-41.33
-34.03
-22.71
-8.14
8.1
24.15
38.38
49.79
58.15
63.84
67.53
69.78
70.92
70.99
70
68.04
65.41
62.56
59.87
57.53
55.46
53.38
51.05
48.32
45.24
41.95
38.57
35.09
31.42
27.47
23.39
19.74
17.49
17.87
21.84
29.65
40.45
52.41
63.21
70.85
74.32
73.86
70.67
66.29
61.92
58.04
54.45
50.52
45.61
39.32
31.66
23.03
14.16
6
-0.54
-4.81
-6.68
-6.61
-5.62
-5.09
-6.41
-10.6
-17.85
-27.26
-36.86
-44.22
-47.31
-45.44
-39.58
-32.01
-25.31
-21.27
-20.5
-22.74
-27.62
-35.2
-45.98
-60.24
-77.23
-94.87
-110.17
-120.29
-123.67
-120.54
-112.65
-102.35
-91.64
-81.56
-72.24
-63.35
-54.63
-46.21
-38.49
-31.98
-27.01
-23.67
-21.82
-21.11
-20.93
-20.33
-18.03
-12.83
-3.98
8.42
23.5
40.02
56.87
73.37
89.32
104.71
119.42
133.25
146.06
157.98
169.52
181.35
193.98
207.32
220.52
232.15
240.52
244.15
242.08
234.06
220.47
202.14
180.19
155.87
130.51
105.45
82.01
61.34
44.27
31.32
22.6
17.79
15.94
15.38
13.79
8.75
-1.38
-16.74
-35.71
-55.44
-72.89
-85.92
-93.94
-97.68
-98.6
-98.2
-97.75
-98.24
-100.45
-104.83
-111.18
-118.42
-124.89
-129.06
-130.37
-129.55
-128.2
-127.95
-129.41
-131.94
-134.19
-134.99
-134.23
-133.08
-133.36
-136.4
-142.08
-148.48
-152.49
-150.97
-141.92
-125.12
-101.98
-74.94
-46.64
-19.34
5.34
26.41
43.37
56.17
65.15
70.98
74.52
76.51
77.35
76.96
74.86
70.35
62.82
51.96
37.99
21.76
4.71
-11.51
-25.49
-36.66
-45.48
-53.23
-61.48
-71.39
-83.26
-96.6
-110.4
-123.64
-135.53
-145.42
-152.6
-156.15
-155.17
-149.19
-138.62
-124.84
-109.79
-95.25
-82.2
-70.6
-59.7
-48.59
-36.65
-23.8
-10.41
2.84
15.1
25.45
33.02
37.18
37.79
35.22
30.19
23.42
15.23
5.52
-6.01
-19.48
-34.45
-50.06
-65.28
-79.24
-91.35
-101.1
-107.83
-110.7
-108.9
-101.99
-90.3
-74.9
-57.39
-39.45
-22.45
-7.2
6.01
17.27
26.81
34.84
41.48
46.84
51.06
54.38
57.02
59.15
60.81
61.89
62.19
61.45
59.42
55.87
50.76
44.25
36.86
29.42
22.89
18.15
15.71
15.77
18.41
23.77
32.13
43.66
58.13
74.67
91.74
107.38
119.59
126.71
127.83
123.16
114.02
102.57
91.18
81.61
74.49
69.31
64.97
60.48
55.5
50.28
45.18
40.09
34.26
26.53
15.96
2.37
-13.54
-30.33
-46.25
-59.63
-69.14
-73.88
-73.5
-68.43
-59.97
-50.13
-41.2
-35
-32.31
-32.71
-34.92
-37.48
-39.31
-39.97
-39.61
-38.62
-37.47
-36.6
-36.4
-37.12
-38.61
-40.19
-40.76
-39.26
-35.16
-28.89
-21.71
-15.27
-10.85
-8.84
-8.39
-7.64
-4.34
3.33
15.98
32.63
50.93
67.83
80.48
87.08
87.23
81.83
72.58
61.43
50.07
39.77
31.23
24.58
19.34
14.54
9
1.84
-7.15
-17.34
-27.64
-37.1
-45.49
-53.32
-61.37
-70.03
-78.91
-87.04
-93.53
-98.08
-101.05
-103.04
-104.23
-104.17
-101.9
-96.58
-87.89
-76.26
-62.67
-48.35
-34.58
-22.54
-13.22
-7.09
-3.88
-2.5
-1.37
1.08
5.87
13.15
22.33
32.37
42.16
50.57
56.36
58.09
54.33
44.13
27.56
5.97
-18.23
-42.23
-63.65
-81.02
-93.9
-102.42
-106.9
-107.53
-104.38
-97.77
-88.49
-77.88
-67.46
-58.46
-51.27
-45.43
-40
-34.25
-28.31
-23.13
-19.92
-19.33
-20.96
-23.54
-25.74
-26.95
-27.45
-28.05
-29.24
-30.76
-31.76
-31.4
-29.54
-26.83
-24.32
-22.9
-22.88
-23.89
-24.97
-24.77
-21.89
-15.31
-4.86
8.53
23.1
36.97
48.95
58.99
67.92
76.73
85.72
94.22
100.89
104.43
104.21
100.6
94.66
87.71
80.76
74.25
68.04
61.56
54.27
45.99
37.01
27.95
19.37
11.49
4.09
-3.22
-10.75
-18.52
-26.35
-34.03
-41.42
-48.34
-54.33
-58.56
-59.91
-57.28
-50.1
-38.59
-23.81
-7.33
9.23
24.67
38.42
50.44
60.94
70
77.52
83.25
87.14
89.47
90.83
91.87
93.01
94.41
96.11
98.24
101.06
104.77
109.24
113.82
117.46
119.08
117.89
113.58
106.2
95.91
82.92
67.53
50.32
32.32
14.95
-0.17
-11.49
-17.87
-18.88
-14.93
-7.31
2.13
11.44
19.14
24.47
27.36
28.08
26.8
23.4
17.71
9.94
0.93
-7.9
-15.01
-19.43
-21.04
-20.64
-19.46
-18.64
-18.86
-20.2
-22.28
-24.61
-26.84
-29.03
-31.55
-34.97
-39.83
-46.48
-54.94
-64.84
-75.28
-84.89
-91.96
-94.88
-92.62
-85.05
-72.97
-57.72
-40.71
-22.97
-5.17
12.25
28.64
43.09
54.54
62.11
65.45
64.83
61.12
55.59
49.64
44.48
40.79
38.49
36.81
34.68
31.3
26.57
21.04
15.49
10.26
4.94
-1.55
-10.34
-21.84
-35.44
-49.63
-62.66
-73.26
-80.94
-85.79
-88
-87.37
-83.18
-74.6
-61.29
-44.06
-24.96
-6.8
7.75
17.22
21.79
23.11
23.37
24.32
26.55
29.63
32.58
34.54
34.74
32.15
25.33
12.98
-4.7
-24.87
-42.11
-50.08
-43.89
-22.14
12.68
55.4
100.14
141.82
176.36
200.2
209.9
202.68
177.67
137.18
86.71
33.57
-15.34
-55.57
-86.03
-108.56
-126.56
-143.08
-159.36
-174.08
-183.82
-184.51
-173.29
-150.1
-118.19
-83.25
-51.56
-28.01
-14.87
-11.69
-16.11
-24.98
-35.21
-44.31
-50.75
-54.18
-55.55
-56.79
-59.95
-66.27
-75.49
-85.92
-95.19
-101.31
-103.36
-101.54
-96.79
-90.32
-83.37
-77.11
-72.51
-69.96
-68.97
-68.1
-65.42
-59.26
-48.87
-34.55
-17.27
1.81
21.74
41.68
60.73
77.77
91.72
102.01
108.92
113.65
117.8
122.67
128.78
135.84
143.25
150.69
158.53
167.77
179.45
193.97
210.64
227.79
243.3
255.21
262.18
263.46
258.62
247.33
229.35
204.79
174.33
139.17
100.48
58.68
13.22
-36.81
-91.27
-147.66
-200.83
-244.05
-271.14
-278.58
-266.5
-238.26
-198.79
-153.09
-105.34
-58.95
-17.15
16.77
40.05
51.52
52.37
46.2
37.76
31.27
28.91
30.34
33.31
35.15
34.34
31.11
27.12
24.22
23.43
24.61
27
30.13
34.43
41.03
50.93
64.1
79.23
94.12
106.58
115.27
120.04
121.73
121.61
120.79
119.88
118.88
117.28
114.34
109.43
102.35
93.45
83.59
73.82
64.99
57.58
51.63
46.92
43.18
40.15
37.56
35.06
32.3
29.01
25.32
21.69
18.84
17.27
16.98
17.36
17.51
16.66
14.42
10.83
6.04
0.09
-7.1
-15.47
-24.47
-33.11
-40.25
-45.26
-48.49
-51.16
-54.7
-59.9
-66.37
-72.82
-77.78
-80.56
-81.61
-82.24
-83.81
-87.02
-91.65
-96.98
-102.56
-108.51
-115.31
-123.11
-131.12
-137.7
-141.09
-140.22
-135.17
-126.89
-116.5
-104.86
-92.5
-80.08
-68.7
-59.81
-54.64
-53.52
-55.6
-59.21
-62.66
-64.95
-66.08
-66.83
-68.25
-71.18
-75.94
-82.44
-90.17
-98.51
-106.79
-114.51
-121.42
-127.57
-133.01
-137.57
-140.56
-140.88
-137.26
-128.76
-115.11
-96.86
-75.03
-50.67
-24.59
2.67
30.44
57.45
81.74
101.05
113.51
118.39
116.25
108.76
98.06
86.16
74.65
64.54
56.36
50.21
45.85
42.79
40.39
38.05
35.17
31.18
25.46
17.49
7.24
-4.42
-15.58
-23.6
-25.98
-21.3
-9.88
6.23
24.01
40.55
53.98
63.9
71
76.36
80.63
83.75
85.19
84.52
81.96
78.44
75.17
73
71.93
71.04
69.08
65.06
58.78
50.79
41.94
32.83
23.64
14.34
5.07
-3.62
-11.03
-16.8
-21.44
-26.21
-32.56
-41.13
-51.22
-60.66
-66.61
-66.58
-59.39
-45.56
-27.15
-7.16
11.41
26.34
36.8
43.3
47.16
49.66
51.39
52.07
51.09
48.21
44
39.65
36.28
34.22
32.85
31.01
27.83
23.26
18
12.97
8.64
4.67
0.13
-5.97
-14.11
-24.1
-35.33
-47.19
-59.38
-71.92
-84.8
-97.68
-109.66
-119.43
-125.85
-128.38
-127.49
-124.47
-121.03
-118.72
-118.42
-120.19
-123.14
-125.65
-125.61
-120.97
-110.22
-93.08
-70.7
-45.65
-21.21
-0.5
14.63
24.17
29.87
34.43
40.21
48.27
57.87
67.01
73.3
74.93
71.12
61.75
46.87
26.18
-0.61
-33.09
-69.36
-106.05
-139.28
-166.06
-185.3
-197.87
-205.56
-209.57
-209.65
-204.18
-191.21
-169.81
-140.63
-105.68
-67.33
-27.27
13.78
55.66
97.95
139.31
177.41
209.67
234.25
250.93
261.32
268.33
275.04
283.43
293.58
303.66
310.95
313.2
309.83
302.15
292.55
282.86
273.29
261.99
246.01
222.79
191.39
152.65
108.33
59.98
8.43
-45.26
-98.34
-145.36
-179.05
-193.09
-185.56
-160.71
-127.89
-97.86
-78.36
-71.55
-74.51
-82.2
-90.88
-99.82
-110.49
-124.19
-140.05
-154.73
-163.99
-165.02
-157.91
-145.66
-132.57
-122.14
-115.7
-112.16
-109.05
-104
-96.23
-86.99
-79.09
-75.54
-78.01
-85.84
-96.09
-104.6
-107.54
-102.7
-90.03
-71.32
-49.41
-27.17
-6.93
9.91
22.82
31.93
37.77
40.84
41.41
39.38
34.5
26.72
16.52
4.88
-7.02
-18.36
-28.86
-38.71
-48.17
-57.22
-65.57
-73.09
-80.21
-88.11
-98.39
-112.32
-130.04
-150.09
-169.41
-184.03
-190.02
-184.49
-166.44
-137.03
-99.27
-57.18
-14.81
24.74
59.69
89.55
114.55
135.09
151.37
163.41
171.34
175.71
177.5
177.79
177.26
175.81
172.66
166.81
157.82
146.19
133.19
120.32
108.52
97.72
86.89
74.6
59.79
42.29
23.21
4.74
-10.31
-19.32
-20.6
-13.98
-0.98
15.79
33.37
49.35
62.31
71.69
77.4
79.34
77.48
72.18
64.55
56.55
50.5
48.37
51.15
58.6
69.49
82.13
94.8
106.11
115.08
121.13
123.99
123.67
120.34
114.34
106.03
95.92
84.6
72.77
61.03
49.64
38.29
26.13
12.09
-4.73
-24.66
-47.3
-71.47
-95.3
-116.46
-132.55
-141.69
-143.2
-137.83
-127.63
-115.21
-102.86
-91.99
-83.07
-75.95
-70.39
-66.33
-63.98
-63.65
-65.74
-70.68
-78.9
-90.69
-105.72
-122.7
-139.28
-152.44
-159.19
-157.47
-146.67
-127.84
-103.26
-75.8
-48.14
-22.22
0.92
20.97
37.99
52.07
63.08
70.76
74.88
75.58
73.55
70.09
66.73
64.76
64.78
66.59
69.51
72.9
76.57
80.79
85.81
91.34
96.25
98.97
98.35
94.55
89.45
86.23
88.19
97.41
113.9
135.51
158.74
180.03
196.72
207.6
212.77
213.11
209.67
203.35
194.79
184.37
172.33
158.87
144.17
128.59
112.71
97.28
83.11
70.94
61.31
54.49
50.36
48.27
47.05
45.27
41.69
35.65
27.19
16.62
4.18
-10.07
-25.8
-41.84
-55.98
-65.55
-68.61
-65.13
-57.23
-48.36
-41.78
-39.23
-40.57
-44.45
-49.33
-54.23
-58.73
-62.51
-64.8
-64.47
-60.4
-52.11
-40.05
-25.53
-10.34
3.83
15.64
24.35
29.85
32.49
32.97
31.98
30.04
27.34
23.82
19.38
14.05
8.09
1.81
-4.66
-11.4
-18.68
-26.62
-34.97
-43.02
-49.79
-54.36
-56.23
-55.54
-53.03
-49.78
-46.9
-45.18
-45.04
-46.49
-49.39
-53.54
-58.81
-65.08
-72.24
-80.15
-88.7
-97.88
-107.73
-118.24
-129.28
-140.48
-151.38
-161.54
-170.71
-178.86
-186.12
-192.65
-198.52
-203.63
-207.77
-210.71
-212.36
-212.91
-212.89
-213.21
-214.91
-218.99
-226.14
-236.54
-249.5
-263.25
-274.89
-280.83
-277.85
-264.4
-241.52
-212.7
-182.58
-154.93
-131.09
-109.73
-88.03
-63.59
-36.01
-7.1
20.24
43.56
62.02
76.42
88.27
98.77
108.09
115.55
120.27
121.93
121.03
118.73
116.33
114.6
113.59
112.56
110.43
106.26
99.66
91.06
81.52
72.36
64.54
58.21
52.57
46.13
37.25
24.87
8.97
-9.27
-27.65
-43.51
-54.36
-58.51
-55.41
-45.76
-31.28
-14.2
3.22
19.21
32.77
43.65
52.23
59.14
64.91
69.82
73.81
76.68
78.26
78.56
77.83
76.37
74.42
71.98
68.86
64.8
59.56
52.96
44.81
34.85
22.74
8.23
-8.65
-27.36
-46.84
-65.76
-82.86
-97.35
-109.22
-119.23
-128.6
-138.63
-150.21
-163.34
-176.95
-188.92
-196.53
-197.22
-189.32
-172.56
-148.04
-117.77
-84.12
-49.32
-15.37
15.93
42.88
64.14
78.91
87.25
90.07
88.79
84.93
79.69
73.93
68.19
62.91
58.47
55.2
53.35
53.06
54.43
57.51
62.34
68.76
76.43
84.71
92.68
99.33
103.67
105.05
103.25
98.56
91.65
83.37
74.39
65.01
55.06
44.08
31.7
18.1
4.26
-8.08
-16.83
-20.24
-17.5
-9.02
3.77
18.85
34.29
48.56
60.7
70.27
77.18
81.61
83.92
84.61
84.16
83.01
81.48
79.77
78.02
76.38
75.01
74.05
73.46
72.93
71.95
69.88
66.18
60.6
53.27
44.57
35.07
25.31
15.72
6.59
-2.02
-10.28
-18.62
-27.5
-37.15
-47.2
-56.56
-63.57
-66.52
-64.28
-56.76
-44.97
-30.65
-15.73
-1.74
10.44
20.6
28.85
35.34
40.04
42.8
43.56
42.61
40.66
38.63
37.26
36.74
36.56
35.79
33.52
29.39
23.74
17.55
11.93
7.66
4.87
3
1.11
-1.82
-6.54
-13.31
-21.9
-31.5
-40.89
-48.45
-52.47
-51.59
-45.15
-33.55
-18.14
-0.88
16.24
31.74
44.85
55.54
64.21
71.46
77.89
84.05
90.38
97.13
104.3
111.55
118.32
124.07
128.63
132.49
136.75
142.78
151.65
163.61
177.78
192.41
205.39
215.09
220.9
223.46
224.48
226.31
231.35
241.36
256.71
275.89
295.57
311.4
319.38
317.28
305.45
286.54
264.31
242.23
222.38
205.34
190.68
177.76
166.13
155.47
145.28
134.71
122.73
108.55
91.93
73.35
53.66
33.7
13.9
-5.84
-26.05
-47.31
-69.96
-94.01
-119.08
-144.68
-170.3
-195.64
-220.69
-245.81
-271.75
-299.54
-329.95
-362.88
-396.83
-429.09
-456.54
-476.8
-489.16
-494.71
-495.58
-493.71
-489.98
-484
-474.81
-461.84
-445.52
-427.1
-407.78
-387.91
-366.7
-342.84
-315.57
-285.51
-254.71
-225.92
-201.31
-181.7
-166.51
-154.6
-145.3
-138.8
-135.67
-135.78
-137.5
-137.78
-133.27
-121.83
-103.47
-80.21
-54.99
-30.13
-6.46
16.88
41.56
68.93
99.07
130.43
160.31
185.84
204.98
217.18
223.46
225.78
226.07
225.35
223.38
218.98
210.83
198.25
181.54
161.81
140.4
118.45
96.63
75.36
55.05
36.27
19.76
6.18
-4.15
-11.39
-16.1
-18.88
-20.06
-19.53
-16.81
-11.35
-3.01
7.63
19.29
30.22
38.73
43.65
44.6
42
36.79
30.08
22.93
16.2
10.47
6.03
2.88
0.77
-0.69
-1.87
-3.03
-4.18
-5.27
-6.26
-7.25
-8.47
-10.12
-12.03
-13.55
-13.6
-10.99
-4.96
4.46
16.41
29.45
42.13
53.41
62.83
70.45
76.52
81.28
84.82
87.14
88.23
88.18
87.11
85.14
82.35
78.8
74.63
70.08
65.5
61.28
57.79
55.34
54.06
53.85
54.25
54.37
53.14
49.48
42.73
32.86
20.47
6.62
-7.41
-20.35
-30.95
-38.16
-41.16
-39.71
-34.33
-26.32
-17.46
-9.38
-3.08
1.29
4.31
6.71
8.97
11.07
12.56
12.95
12.08
10.29
8.32
7.05
7.08
8.54
11.02
13.87
16.41
18.27
19.46
20.26
21.05
22.11
23.45
24.86
25.88
25.96
24.54
21.31
16.36
10.45
4.86
1.18
0.77
4.3
11.49
21.23
32.05
42.64
52.19
60.41
67.32
73.04
77.96
82.98
89.65
99.79
114.84
135.21
160.23
188.62
219.17
251.03
283.29
314.31
341.27
360.77
370.05
368.38
357.57
341.22
323.16
305.95
290.29
275.54
260.77
245.53
230.1
214.9
200.03
184.96
168.86
151.11
131.8
111.75
92.24
74.38
58.63
44.6
31.3
17.61
2.89
-12.75
-28.55
-43.53
-57
-68.92
-79.92
-90.96
-103.04
-116.97
-133.21
-151.72
-171.62
-190.97
-207.02
-217.06
-219.52
-214.74
-204.77
-192.26
-179.08
-165.66
-151.34
-135.45
-118.21
-101
-85.69
-73.83
-66.17
-62.74
-63.13
-66.62
-72.11
-78.16
-83.44
-87.62
-91.9
-98.79
-110.98
-130
-155.52
-185.83
-219.16
-254.64
-292.37
-332.22
-372.59
-409.97
-439.96
-459.14
-466.68
-464.47
-455.77
-443.12
-427.03
-405.99
-377.82
-341.42
-297.51
-248.05
-194.97
-139.27
-81.33
-22.23
34.92
84.73
120.83
138.1
134.78
113.31
79.58
41.02
4.32
-26.19
-49.07
-65.27
-77.1
-87.1
-97.28
-108.73
-121.75
-136.17
-151.57
-167.36
-182.52
-195.37
-203.77
-205.64
-199.75
-186.48
-167.84
-146.89
-126.66
-109.16
-94.81
-82.67
-71.14
-58.71
-44.35
-27.5
-7.82
14.91
40.73
69.06
98.57
127.2
152.68
173.27
188.35
198.61
205.71
211.48
217.25
223.29
228.92
232.9
233.95
231.19
224.22
213.11
198.3
180.62
161.16
141.15
121.71
103.61
87.09
72.1
58.54
46.42
35.74
26.15
16.55
5.22
-9.6
-28.82
-51.87
-76.7
-100.29
-119.63
-132.41
-137.45
-134.74
-125.17
-110.31
-92.2
-73.03
-54.84
-39.1
-26.31
-16.01
-6.98
2.11
12.08
22.87
33.6
43.01
50.15
54.81
57.63
59.77
62.29
65.69
69.77
73.85
77.25
79.65
81.1
81.87
82.1
81.61
79.94
76.5
70.94
63.2
53.73
43.33
33.03
23.91
16.94
12.92
12.39
15.63
22.61
32.96
46.01
60.92
76.78
92.7
107.91
121.8
133.93
144.13
152.55
159.76
166.63
174.3
183.93
196.57
212.74
232.07
253.04
273.09
289.3
299.27
302.01
298.09
289.21
277.16
262.91
246.43
227.08
204.56
179.6
153.99
129.83
108.47
89.9
72.74
55.01
35
11.89
-14.33
-43.26
-74.81
-109.38
-147.72
-190.26
-236.43
-284.34
-330.98
-372.97
-407.38
-432.51
-448.1
-454.99
-454.57
-448.22
-437.03
-422.02
-404.53
-386.57
-370.51
-358.28
-350.49
-345.79
-341.25
-333.52
-320.11
-300.47
-276.09
-249.68
-223.94
-200.42
-179.26
-159.49
-139.73
-118.62
-95.12
-68.36
-37.61
-2.52
36.42
77.33
116.82
150.82
175.99
190.83
196.24
195.09
190.83
186.61
184.15
183.59
184.04
184.95
186.2
187.97
190.41
192.92
195.17
196.74
196.98
195.49
193.24
191.66
192
194.59
197.82
200.74
202.62
202.73
200.79
197.9
194.45
189.11
178.71
158.17
126.17
84.87
39.02
-4.79
-38.32
-55.26
-53.12
-33.83
-4.5
29.37
63.66
95.28
109.24
95.43
52.89
-8.47
-60.46
-96.54
-117.51
-126.08
-129.9
-132.76
-134.49
-133.48
-128.03
-117.81
-106.15
-94.7
-84.62
-77.03
-71.86
-67.06
-60.39
-50.75
-39.01
-28.96
-22.31
-19.21
-18.84
-19.46
-18.68
-14.92
-8.04
0.66
8.15
13.01
15.03
14.56
12.52
9.97
7.5
5
1.77
-3.44
-10.67
-18.95
-26.74
-32.29
-34.26
-32.26
-26.87
-19.39
-11.43
-4.02
2.5
8.17
13.25
17.76
21.47
23.98
24.88
24.02
21.58
18.05
14.02
9.97
6.19
2.69
-0.63
-3.83
-6.87
-9.58
-11.81
-13.46
-14.54
-15.18
-15.51
-15.7
-15.94
-16.42
-17.3
-18.5
-19.66
-20
-18.56
-14.5
-7.43
2.42
14.32
27.35
40.73
53.96
66.75
78.72
89.29
97.57
102.63
103.83
101.04
94.72
85.72
75.1
63.82
52.68
42.24
32.8
24.56
17.58
11.86
7.28
3.55
0.17
-3.5
-8.04
-13.8
-20.71
-28.34
-36.09
-43.32
-49.51
-54.14
-56.55
-56.02
-51.94
-44.2
-33.42
-20.85
-8.08
3.53
13.21
20.76
26.42
30.5
33.19
34.57
34.71
33.86
32.45
30.96
29.79
29.06
28.64
28.24
27.57
26.51
25.12
23.67
22.42
21.57
21.11
20.92
20.84
20.74
20.57
20.29
19.97
19.59
19.09
18.5
18.03
18.16
19.43
22.27
26.71
32.62
39.56
46.91
54.05
60.61
66.38
71.34
75.55
78.87
81.49
83.45
84.66
84.89
83.99
81.82
78.5
74.56
70.82
68.87
70.18
75.44
84.02
94.09
102.84
107.61
106.88
97.62
80.41
59.37
40.49
28.39
24.49
27.14
32.4
38.08
43.42
48.72
53.95
58.1
59.11
57.01
51.51
42.88
32.21
20.58
9.21
-1.24
-10.9
-20.47
-30.68
-42.24
-55.33
-69.71
-85.19
-101.41
-117.86
-133.73
-147.75
-158.26
-163.98
-164.21
-159.24
-150.39
-139.36
-127.74
-116.62
-106.5
-97.53
-89.82
-83.36
-77.97
-73.25
-68.57
-63.24
-56.81
-49.26
-40.97
-32.74
-25.38
-19.5
-15.46
-13.3
-12.81
-13.67
-15.46
-17.8
-20.31
-22.59
-24.24
-24.93
-24.51
-23.07
-21.23
-19.52
-18.08
-16.5
-14.01
-9.84
-3.52
4.94
14.99
25.24
34.19
40.78
44.93
47.8
51.7
59.61
74.31
97.42
127.69
162.11
196.69
227.42
250.83
264.31
266.58
257.9
240.02
213.41
179.79
142.3
104.75
70.03
39
10.93
-15.5
-41.25
-71.49
-109.16
-153.38
-199.92
-244.31
-284.39
-320.71
-355.24
-389.68
-432.11
-485.9
-547.16
-606.17
-653.64
-685.83
-705.42
-719.25
-735.01
-768.83
-829.98
-916.2
-1014.3
-1107.4
-1181.8
-1229.7
-1249.8
-1181
-998.22
-721.09
-406.53
-113.08
126.13
304.56
430.49
515.88
571.94
598.05
595.83
572.57
542.99
519.99
509.63
511.88
522.88
538.66
548.91
548.52
540.7
535.82
545.45
571.18
610.42
656.39
700.51
729.09
732.28
707.64
660.33
598.67
530
459.6
389.67
319.99
245.64
162.14
68.86
-29.67
-125.38
-209.31
-273.37
-313.29
-325.59
-313.48
-287.41
-260.19
-240.11
-228
-220.23
-212.86
-204.71
-197.11
-192.42
-191.41
-191.85
-190.02
-182.92
-169.89
-152.4
-133.19
-114.47
-97.24
-82.8
-69.7
-55.29
-37.36
-15.21
10.55
38.66
67.98
97.25
125.02
149.95
170.29
184.11
189.81
186.85
176.01
159.07
137.88
113.91
88.63
63.55
40.36
20.74
5.99
-3.56
-8.62
-10.76
-11.75
-12.6
-13.49
-13.97
-13.51
-12.03
-10.08
-8.55
-8.24
-9.41
-11.6
-14
-15.77
-16.4
-15.84
-14.32
-12.25
-10.02
-8.06
-6.76
-6.51
-7.55
-9.9
-13.32
-17.52
-22.26
-27.39
-32.71
-37.65
-41.18
-42.02
-39.07
-32.04
-21.65
-9.49
2.57
13.03
21.17
27.02
31.01
33.48
34.58
34.27
32.68
30.23
27.54
25.18
23.39
21.98
20.53
18.6
16.02
12.86
9.38
5.78
2.18
-1.5
-5.43
-9.83
-14.82
-20.23
-25.59
-30.01
-32.44
-31.93
-28
-20.92
-11.63
-1.44
8.4
17
23.99
29.39
33.33
35.92
37.17
37.08
35.76
33.51
30.8
28.21
26.22
25.1
24.82
25.06
25.3
24.99
23.68
21.14
17.3
12.19
5.96
-1.07
-8.29
-14.62
-18.76
-19.52
-16.33
-9.57
-0.51
9.16
17.94
25
30.32
34.37
37.65
40.43
42.69
44.26
45.1
45.33
45.15
44.73
44.14
43.44
42.73
42.23
42.12
42.45
42.94
43.15
42.57
40.86
38
34.28
30.28
26.7
24.18
23.26
24.2
27.02
31.41
36.95
43.14
49.63
56.14
62.43
68.06
72.32
74.22
72.8
67.44
58.17
45.78
31.63
17.34
4.38
-6.23
-14.07
-19.31
-22.6
-24.92
-27.29
-30.51
-35.09
-41.06
-48.17
-55.92
-63.65
-70.61
-75.87
-78.44
-77.52
-72.83
-64.76
-54.35
-42.97
-31.85
-21.81
-13.12
-5.73
0.51
5.64
9.63
12.46
14.23
15.2
15.66
15.87
15.94
15.86
15.55
14.93
14.04
12.97
11.85
10.76
9.65
8.36
6.66
4.27
1.03
-3.03
-7.58
-11.95
-15.25
-16.55
-15.18
-10.98
-4.37
3.74
12.19
20.01
26.58
31.75
35.67
38.6
40.73
42.13
42.8
42.77
42.19
41.25
40.16
39.07
37.98
36.84
35.63
34.45
33.48
32.91
32.83
33.11
33.44
33.35
32.38
30.17
26.57
21.74
16.16
10.54
5.71
2.42
1.18
2.21
5.32
10.06
15.64
21.12
25.5
27.87
27.69
24.8
19.51
12.39
4.14
-4.64
-13.43
-21.83
-29.55
-36.36
-42.17
-47.03
-51.08
-54.47
-57.26
-59.4
-60.78
-61.32
-61.07
-60.23
-59.13
-58.12
-57.46
-57.26
-57.52
-58.1
-58.79
-59.21
-58.8
-56.87
-52.66
-45.66
-35.78
-23.43
-9.47
5.11
19.51
33.29
46.38
58.87
70.79
81.91
91.82
100.06
106.36
110.73
113.48
115.11
116.1
116.81
117.34
117.65
117.58
117
115.81
114.01
111.66
108.88
105.81
102.57
99.22
95.72
91.96
87.74
82.96
77.61
71.94
66.42
61.69
58.48
57.34
58.41
61.25
64.79
67.59
68.21
65.72
59.89
51.22
40.55
28.7
16.06
2.61
-12.02
-28.15
-45.85
-64.72
-83.96
-102.52
-119.32
-133.59
-145.05
-153.94
-160.9
-166.67
-171.78
-176.34
-180.06
-182.43
-182.92
-181.23
-177.37
-171.66
-164.65
-156.97
-149.29
-142.09
-135.5
-129.18
-122.24
-113.44
-101.54
-85.8
-66.34
-44.22
-21.14
1.05
20.85
37.46
50.73
60.96
68.57
73.98
77.55
79.56
80.29
79.83
78.18
75.22
70.94
65.51
59.33
52.88
46.48
40.18
33.8
27.1
20.03
12.72
5.28
-2.44
-10.95
-20.9
-32.78
-46.53
-61.48
-76.55
-90.53
-102.39
-111.19
-116.08
-116.19
-110.87
-100.01
-84.36
-65.56
-45.78
-27.19
-11.34
1.09
10.26
16.94
22.17
26.94
32.05
38.01
44.95
52.69
60.76
68.56
75.52
81.17
85.18
87.38
87.75
86.48
83.96
80.76
77.41
74.13
70.66
66.36
60.48
52.57
42.76
31.7
20.33
9.58
0.15
-7.5
-13.05
-16.29
-17.17
-15.95
-13.27
-10.05
-7.24
-5.58
-5.42
-6.68
-8.96
-11.68
-14.18
-15.86
-16.26
-15.2
-12.8
-9.33
-5.08
-0.23
5.22
11.26
17.72
24.07
29.48
32.95
33.68
31.33
26.16
19.03
11.12
3.59
-2.73
-7.49
-10.84
-13.19
-14.91
-16.04
-16.26
-15
-11.7
-6.12
1.56
10.78
20.83
30.95
40.53
49.05
56.12
61.39
64.67
66
65.67
64.26
62.44
60.79
59.66
59.02
58.58
57.77
55.97
52.63
47.54
41.01
33.8
26.87
20.86
15.65
10.25
3.14
-7.05
-20.81
-37.41
-55.05
-71.57
-85.19
-95.06
-101.27
-104.49
-105.47
-104.67
-102.23
-98.19
-92.7
-86.26
-79.64
-73.67
-69.01
-65.9
-64.17
-63.42
-63.22
-63.19
-63.08
-62.61
-61.53
-59.56
-56.55
-52.53
-47.66
-42.23
-36.47
-30.63
-25.08
-20.4
-17.41
-16.84
-18.99
-23.35
-28.65
-33.14
-35.22
-33.99
-29.55
-22.82
-15.17
-7.86
-1.71
3.01
6.43
8.81
10.36
11.13
11.13
10.36
9.01
7.36
5.76
4.47
3.56
2.85
2.04
0.82
-0.91
-3.05
-5.34
-7.49
-9.36
-11.1
-13.06
-15.66
-19.15
-23.42
-27.93
-31.86
-34.29
-34.57
-32.47
-28.29
-22.74
-16.7
-10.98
-6.08
-2.17
0.84
3.09
4.62
5.39
5.36
4.58
3.29
1.85
0.59
-0.35
-1.06
-1.73
-2.56
-3.6
-4.79
-5.96
-7.07
-8.2
-9.64
-11.69
-14.54
-18.05
-21.72
-24.73
-26.17
-25.35
-22.04
-16.57
-9.69
-2.32
4.77
11.08
16.4
20.69
23.95
26.16
27.32
27.49
26.91
25.87
24.65
23.4
22.16
20.87
19.5
18.06
16.56
15.03
13.36
11.4
8.96
5.9
2.19
-2.05
-6.54
-10.86
-14.42
-16.6
-16.8
-14.68
-10.26
-3.97
3.46
11.23
18.67
25.36
31.13
35.94
39.74
42.45
44.02
44.47
44.02
43.04
41.9
40.89
40.05
39.21
38.06
36.35
34.03
31.26
28.3
25.37
22.54
19.6
16.19
11.87
6.36
-0.36
-7.91
-15.49
-22.03
-26.39
-27.74
-25.82
-21.1
-14.58
-7.44
-0.62
5.47
10.87
15.83
20.52
24.83
28.43
31.01
32.42
32.81
32.5
31.89
31.25
30.71
30.27
29.9
29.55
29.19
28.78
28.27
27.59
26.66
25.36
23.57
21.18
18.12
14.37
10.01
5.16
-0.03
-5.24
-9.97
-13.49
-14.99
-13.82
-9.79
-3.28
4.83
13.47
21.77
29.19
35.46
40.42
43.84
45.39
44.82
42.1
37.45
31.38
24.47
17.43
10.78
4.82
-0.27
-4.33
-7.28
-9.19
-10.3
-11
-11.72
-12.98
-15.3
-19.13
-24.65
-31.9
-40.93
-51.71
-64.06
-77.43
-91.36
-105.61
-120
-134.07
-146.71
-156.58
-161.91
-161
-152.25
-135.98
-114.19
-89.88
-65.66
-42.96
-23.06
-6.48
6.82
18.74
30.09
40.89
50.27
57.44
61.89
61.91
56.52
46.23
35.52
27.69
24.43
24.97
27.49
30
28.88
21.34
6.35
-12.3
-32.15
-52.11
-72.98
-95.99
-108.83
-101.6
-70.44
-38.27
-14.31
-1.71
5.77
9.59
8.59
1.38
-15.38
-44.54
-87.4
-139.73
-196.62
-251.49
-297.11
-326.95
-335.81
-323.92
-295.78
-258.52
-216.7
-174.29
-133.16
-85.2
-28.64
32.85
90.38
135.56
164.54
180.32
188.05
192.89
197.97
203.34
208.82
212.28
211.35
203.98
189.7
168.99
143.82
117.2
91.51
69
50.72
36.96
27.55
22.07
19.82
20.12
22.29
24.94
27.12
28.36
28.84
28.88
28.31
26.26
21.38
12.45
-1.22
-18.64
-37.21
-53.09
-62.34
-62.05
-51.14
-30.89
-4.79
22.07
44.49
58.6
63.01
59.02
49.81
39.07
29.52
22.15
16.34
10.88
4.95
-1.35
-7.34
-12.64
-17.78
-24.33
-34.1
-48.19
-66.06
-85.53
-103.36
-116.34
-122.18
-119.92
-109.89
-93.42
-72.63
-50.11
-28.53
-10.01
4.46
15.26
23.76
31.43
39.03
46.22
51.88
54.89
54.96
52.89
50.18
48.33
48.06
49.17
50.8
52.05
52.43
52.05
51.39
50.89
50.62
50.26
49.2
46.93
43.25
38.31
32.51
26.3
20.02
13.93
8.32
3.69
0.65
-0.13
1.79
6.42
13.31
21.56
30.14
38.06
44.6
49.38
52.37
53.71
53.72
52.76
51.24
49.56
47.99
46.64
45.42
44.06
42.21
39.6
36.1
31.79
26.95
21.94
17.05
12.39
7.83
3.12
-2.06
-7.91
-14.44
-21.41
-28.43
-34.88
-40.07
-43.3
-44.06
-42.2
-38.05
-32.33
-25.94
-19.62
-13.82
-8.63
-3.97
0.17
3.62
6.07
7.33
7.45
6.83
6.06
5.58
5.54
5.67
5.49
4.6
2.91
0.7
-1.52
-3.38
-4.79
-6.1
-7.97
-11.04
-15.67
-21.72
-28.44
-34.7
-39.19
-40.91
-39.48
-35.2
-28.99
-22.03
-15.35
-9.62
-5.13
-1.92
0.11
1.19
1.68
2.05
2.7
3.76
4.98
5.8
5.62
4.1
1.3
-2.39
-6.48
-10.63
-14.72
-18.8
-22.92
-26.97
-30.78
-34.21
-37.3
-40.21
-42.99
-45.35
-46.57
-45.62
-41.53
-33.84
-22.76
-9.21
5.51
20.01
33.14
