2023-01-28 14:37:10.098332,0.06399592012166973
2023-01-28 14:37:10.103332,0.037357169001489235
2023-01-28 14:37:10.108332,0.03454625606536857
2023-01-28 14:37:10.113332,0.022559226049807677
2023-01-28 14:37:10.118332,-0.005769729614257809
2023-01-28 14:37:10.123332,-0.02970257720082328
2023-01-28 14:37:10.128332,-0.03856102749705308
2023-01-28 14:37:10.133332,-0.04315244092808861
2023-01-28 14:37:10.138332,-0.05072554200887676
2023-01-28 14:37:10.143332,-0.05382516829563983
2023-01-28 14:37:10.148332,-0.04839360713958736
2023-01-28 14:37:10.153332,-0.04288497840333447
2023-01-28 14:37:10.158332,-0.04296044632792469
2023-01-28 14:37:10.163332,-0.042727147170121826
2023-01-28 14:37:10.168332,-0.03747920319437978
2023-01-28 14:37:10.173332,-0.032082991278276476
2023-01-28 14:37:10.178332,-0.030603608116507492
2023-01-28 14:37:10.183332,-0.028921404241281985
2023-01-28 14:37:10.188332,-0.023728013038635178
2023-01-28 14:37:10.193332,-0.019121141316826
2023-01-28 14:37:10.198332,-0.018439095467328973
2023-01-28 14:37:10.203332,-0.018021734411237302
2023-01-28 14:37:10.208332,-0.014520486816763788
2023-01-28 14:37:10.213332,-0.010788790540269055
2023-01-28 14:37:10.218332,-0.009351770393550295
2023-01-28 14:37:10.223332,-0.006991003264110096
2023-01-28 14:37:10.228332,-0.0008654594421386055
2023-01-28 14:37:10.233332,0.006261133036152794
2023-01-28 14:37:10.238332,0.01170774362981308
2023-01-28 14:37:10.243332,0.017998001030647002
2023-01-28 14:37:10.248332,0.02764662168920038
2023-01-28 14:37:10.253332,0.03820348528592189
2023-01-28 14:37:10.258332,0.04714350029826157
2023-01-28 14:37:10.263332,0.056777873495579154
2023-01-28 14:37:10.268332,0.0695733278989791
2023-01-28 14:37:10.273332,0.08289264676555091
2023-01-28 14:37:10.278332,0.09308497607707972
2023-01-28 14:37:10.283332,0.10120151581160822
2023-01-28 14:37:10.288332,0.11024992167949667
2023-01-28 14:37:10.293332,0.1198649159791765
2023-01-28 14:37:10.298332,0.12777547538280473
2023-01-28 14:37:10.303332,0.13385097540593802
2023-01-28 14:37:10.308332,0.13888220489025105
2023-01-28 14:37:10.313332,0.14160604575268196
2023-01-28 14:37:10.318332,0.1403006017208098
2023-01-28 14:37:10.323332,0.13537407045596078
2023-01-28 14:37:10.328332,0.1276071965694427
2023-01-28 14:37:10.333332,0.1159192435631611
2023-01-28 14:37:10.338332,0.099455714225769
2023-01-28 14:37:10.343332,0.07985462893475494
2023-01-28 14:37:10.348332,0.05911568924784658
2023-01-28 14:37:10.353332,0.03730108982625054
2023-01-28 14:37:10.358332,0.014496445655822678
2023-01-28 14:37:10.363332,-0.00717392923923973
2023-01-28 14:37:10.368332,-0.02574741840362532
2023-01-28 14:37:10.373332,-0.0416414274899467
2023-01-28 14:37:10.378332,-0.055677890777587793
2023-01-28 14:37:10.383332,-0.06698131200774596
2023-01-28 14:37:10.388332,-0.07483820617198936
2023-01-28 14:37:10.393332,-0.0805783514005971
2023-01-28 14:37:10.398332,-0.0855602845549583
2023-01-28 14:37:10.403332,-0.08916537921079908
2023-01-28 14:37:10.408332,-0.09065687656402578
2023-01-28 14:37:10.413332,-0.09110795454211093
2023-01-28 14:37:10.418332,-0.09161850064992902
2023-01-28 14:37:10.423332,-0.09148191553592831
2023-01-28 14:37:10.428332,-0.0899597033858299
2023-01-28 14:37:10.433332,-0.08808329987772809
2023-01-28 14:37:10.438332,-0.0869065523147583
2023-01-28 14:37:10.443332,-0.08569799286632161
2023-01-28 14:37:10.448332,-0.08358895778656003
2023-01-28 14:37:10.453332,-0.08132186860986275
2023-01-28 14:37:10.458332,-0.07969439029693601
2023-01-28 14:37:10.463332,-0.07795445190754807
2023-01-28 14:37:10.468332,-0.07541517913341517
2023-01-28 14:37:10.473332,-0.07305192248481387
2023-01-28 14:37:10.478332,-0.07185717672109598
2023-01-28 14:37:10.483332,-0.07114403903160336
2023-01-28 14:37:10.488332,-0.07003009319305403
2023-01-28 14:37:10.493332,-0.06906075056935936
2023-01-28 14:37:10.498332,-0.06882806867361055
2023-01-28 14:37:10.503332,-0.06851302217450876
2023-01-28 14:37:10.508332,-0.06736159324645986
2023-01-28 14:37:10.513332,-0.06617620769924298
2023-01-28 14:37:10.518332,-0.06584703922271717
2023-01-28 14:37:10.523332,-0.06579388035064394
2023-01-28 14:37:10.528332,-0.06529410928487767
2023-01-28 14:37:10.533332,-0.06495516305737786
2023-01-28 14:37:10.538332,-0.0654383525252342
2023-01-28 14:37:10.543332,-0.06608302238270053
2023-01-28 14:37:10.548332,-0.06620764732360829
2023-01-28 14:37:10.553332,-0.06645114471622986
2023-01-28 14:37:10.558332,-0.06743371486663811
2023-01-28 14:37:10.563332,-0.06837298363192351
2023-01-28 14:37:10.568332,-0.0683953389525413
2023-01-28 14:37:10.573332,-0.06798653593797213
2023-01-28 14:37:10.578332,-0.0678424090147018
2023-01-28 14:37:10.583332,-0.06753412396901785
2023-01-28 14:37:10.588332,-0.06661634147167206
2023-01-28 14:37:10.593332,-0.06582053593607921
2023-01-28 14:37:10.598332,-0.06582300364971153
2023-01-28 14:37:10.603332,-0.06599160211953894
2023-01-28 14:37:10.608332,-0.06563067436218263
2023-01-28 14:37:10.613332,-0.06532908301208995
2023-01-28 14:37:10.618332,-0.06582300364971157
2023-01-28 14:37:10.623332,-0.06662859467517133
2023-01-28 14:37:10.628332,-0.06700098514556882
2023-01-28 14:37:10.633332,-0.06711844988264354
2023-01-28 14:37:10.638332,-0.06709714978933325
2023-01-28 14:37:10.643332,-0.06593977300310026
2023-01-28 14:37:10.648332,-0.06272177398204799
2023-01-28 14:37:10.653332,-0.05785278357576709
2023-01-28 14:37:10.658332,-0.05207180976867668
2023-01-28 14:37:10.663332,-0.04529296921460182
2023-01-28 14:37:10.668332,-0.03764748573303223
2023-01-28 14:37:10.673332,-0.03065393962437839
2023-01-28 14:37:10.678332,-0.026132067665457698
2023-01-28 14:37:10.683332,-0.024776655295022605
2023-01-28 14:37:10.688332,-0.026709040626883496
2023-01-28 14:37:10.693332,-0.03226007563396763
2023-01-28 14:37:10.698332,-0.04096508026123038
2023-01-28 14:37:10.703332,-0.05073779925654576
2023-01-28 14:37:10.708332,-0.0593080148100852
2023-01-28 14:37:10.713332,-0.06585529786969124
2023-01-28 14:37:10.718332,-0.07046282291412345
2023-01-28 14:37:10.723332,-0.07306506102867016
2023-01-28 14:37:10.728332,-0.07402082532644273
2023-01-28 14:37:10.733332,-0.07470784215565521
2023-01-28 14:37:10.738332,-0.0762806385755537
2023-01-28 14:37:10.743332,-0.07845357913976474
2023-01-28 14:37:10.748332,-0.08031944930553428
2023-01-28 14:37:10.753332,-0.08139800767146368
2023-01-28 14:37:10.758332,-0.08087237924337372
2023-01-28 14:37:10.763332,-0.07675585273946403
2023-01-28 14:37:10.768332,-0.06704907119274128
2023-01-28 14:37:10.773332,-0.05123087604544552
2023-01-28 14:37:10.778332,-0.029978554695844584
2023-01-28 14:37:10.783332,-0.004473237144824715
2023-01-28 14:37:10.788332,0.023006796836852975
2023-01-28 14:37:10.793332,0.048783431843511436
2023-01-28 14:37:10.798332,0.06938099861145008
2023-01-28 14:37:10.803332,0.08309905160352521
2023-01-28 14:37:10.808332,0.08945485204458226
2023-01-28 14:37:10.813332,0.08805450802213521
2023-01-28 14:37:10.818332,0.07899721711874
2023-01-28 14:37:10.823332,0.06364302187002144
2023-01-28 14:37:10.828332,0.044042270630598
2023-01-28 14:37:10.833332,0.022219422622230315
2023-01-28 14:37:10.838332,0.000673135160468546
2023-01-28 14:37:10.843332,-0.01743720187986634
2023-01-28 14:37:10.848332,-0.029810270294546977
2023-01-28 14:37:10.853332,-0.03638031969831415
2023-01-28 14:37:10.858332,-0.038633149117231216
2023-01-28 14:37:10.863332,-0.038216519888355394
2023-01-28 14:37:10.868332,-0.03666182607412328
2023-01-28 14:37:10.873332,-0.03535022097796722
2023-01-28 14:37:10.878332,-0.03471454232931131
2023-01-28 14:37:10.883332,-0.03404008999678617
2023-01-28 14:37:10.888332,-0.03269513696432107
2023-01-28 14:37:10.893332,-0.030879690573880465
2023-01-28 14:37:10.898332,-0.028728445991873682
2023-01-28 14:37:10.903332,-0.02574083133048102
2023-01-28 14:37:10.908332,-0.021828811615705386
2023-01-28 14:37:10.913332,-0.017923166629888288
2023-01-28 14:37:10.918332,-0.014712810516357398
2023-01-28 14:37:10.923332,-0.011690203720211375
2023-01-28 14:37:10.928332,-0.008221864700317274
2023-01-28 14:37:10.933332,-0.0045895409454046075
2023-01-28 14:37:10.938332,-0.0011058648815377883
2023-01-28 14:37:10.943332,0.0028423846172797337
2023-01-28 14:37:10.948332,0.007909337989985913
2023-01-28 14:37:10.953332,0.013791349351040249
2023-01-28 14:37:10.958332,0.020025771111249875
2023-01-28 14:37:10.963332,0.02696267183626507
2023-01-28 14:37:10.968332,0.03502706810832021
2023-01-28 14:37:10.973332,0.04382008977879451
2023-01-28 14:37:10.978332,0.05288919061422338
2023-01-28 14:37:10.983332,0.06263126068391937
2023-01-28 14:37:10.988332,0.07349193096160878
2023-01-28 14:37:10.993332,0.08496137616886483
2023-01-28 14:37:10.998332,0.09623428434133519
2023-01-28 14:37:11.003332,0.1071451156738119
2023-01-28 14:37:11.008332,0.1175822839140892
2023-01-28 14:37:11.013332,0.12672601973619207
2023-01-28 14:37:11.018332,0.13380965590476973
2023-01-28 14:37:11.023332,0.13898701954628703
2023-01-28 14:37:11.028332,0.1425604075193404
2023-01-28 14:37:11.033332,0.14397440240362286
2023-01-28 14:37:11.038332,0.14239212870597823
2023-01-28 14:37:11.043332,0.1375928881756008
2023-01-28 14:37:11.048332,0.12948235869407645
2023-01-28 14:37:11.053332,0.11746206694436762
2023-01-28 14:37:11.058332,0.10125875473022458
2023-01-28 14:37:11.063332,0.08183685469211938
2023-01-28 14:37:11.068332,0.06067832559347148
2023-01-28 14:37:11.073332,0.038738903741447
2023-01-28 14:37:11.078332,0.01682837866246699
2023-01-28 14:37:11.083332,-0.003758324869651112
2023-01-28 14:37:11.088332,-0.021949013695120777
2023-01-28 14:37:11.093332,-0.037680635949866634
2023-01-28 14:37:11.098332,-0.051182311028242125
2023-01-28 14:37:11.103332,-0.062088034726671175
2023-01-28 14:37:11.108332,-0.07005413621664043
2023-01-28 14:37:11.113332,-0.07560941653749116
2023-01-28 14:37:11.118332,-0.07955014705657953
2023-01-28 14:37:11.123332,-0.08208074544887481
2023-01-28 14:37:11.128332,-0.08332451432943339
2023-01-28 14:37:11.133332,-0.08399969383825788
2023-01-28 14:37:11.138332,-0.08469482511281962
2023-01-28 14:37:11.143332,-0.08504371714927206
2023-01-28 14:37:11.148332,-0.08445441722869867
2023-01-28 14:37:11.153332,-0.08310728137667071
2023-01-28 14:37:11.158332,-0.08147339522838591
2023-01-28 14:37:11.163332,-0.0794898603863772
2023-01-28 14:37:11.168332,-0.07704993337392797
2023-01-28 14:37:11.173332,-0.07469411985253958
2023-01-28 14:37:11.178332,-0.0729390010237693
2023-01-28 14:37:11.183332,-0.07145252596609343
2023-01-28 14:37:11.188332,-0.06969352811574932
2023-01-28 14:37:11.193332,-0.06781010274191578
2023-01-28 14:37:11.198332,-0.0661355257034301
2023-01-28 14:37:11.203332,-0.06442059901927928
2023-01-28 14:37:11.208332,-0.06240924447774885
2023-01-28 14:37:11.213332,-0.06059646633141934
2023-01-28 14:37:11.218332,-0.05957245826721187
2023-01-28 14:37:11.223332,-0.05914781325555348
2023-01-28 14:37:11.228332,-0.05889932438731186
2023-01-28 14:37:11.233332,-0.058978934607259836
2023-01-28 14:37:11.238332,-0.05957245826721186
2023-01-28 14:37:11.243332,-0.06017493282846321
2023-01-28 14:37:11.248332,-0.060269635170698034
2023-01-28 14:37:11.253332,-0.06017604846430936
2023-01-28 14:37:11.258332,-0.06041387841105456
2023-01-28 14:37:11.263332,-0.060809248304596844
2023-01-28 14:37:11.268332,-0.06103893369436255
2023-01-28 14:37:11.273332,-0.06142906614568826
2023-01-28 14:37:11.278332,-0.06233712285757055
2023-01-28 14:37:11.283332,-0.06332728669117209
2023-01-28 14:37:11.288332,-0.063827633857727
2023-01-28 14:37:11.293332,-0.06403480147192751
2023-01-28 14:37:11.298332,-0.06433248519897455
2023-01-28 14:37:11.303332,-0.06444254579935006
2023-01-28 14:37:11.308332,-0.06404399871826173
2023-01-28 14:37:11.313332,-0.06361176480096188
2023-01-28 14:37:11.318332,-0.06370743364095678
2023-01-28 14:37:11.323332,-0.06400757382728327
2023-01-28 14:37:11.328332,-0.06392379850149149
2023-01-28 14:37:11.333332,-0.06356767362185092
2023-01-28 14:37:11.338332,-0.06317853927612299
2023-01-28 14:37:11.343332,-0.06223053212132574
2023-01-28 14:37:11.348332,-0.06007730960845948
2023-01-28 14:37:11.353332,-0.05687621906554225
2023-01-28 14:37:11.358332,-0.05293726921081541
2023-01-28 14:37:11.363332,-0.04787133644176935
2023-01-28 14:37:11.368332,-0.041493974626064335
2023-01-28 14:37:11.373332,-0.035001271347937825
2023-01-28 14:37:11.378332,-0.03019491955637931
2023-01-28 14:37:11.383332,-0.02807259820478698
2023-01-28 14:37:11.388332,-0.029040973633527728
2023-01-28 14:37:11.393332,-0.03358505430277435
2023-01-28 14:37:11.398332,-0.041397809982299784
2023-01-28 14:37:11.403332,-0.05052222119394248
2023-01-28 14:37:11.408332,-0.05873104184865955
2023-01-28 14:37:11.413332,-0.06532244185693903
2023-01-28 14:37:11.418332,-0.07053494453430167
2023-01-28 14:37:11.423332,-0.07410729893440321
2023-01-28 14:37:11.428332,-0.0758719444274902
2023-01-28 14:37:11.433332,-0.07692214208653739
2023-01-28 14:37:11.438332,-0.07844428718090052
2023-01-28 14:37:11.443332,-0.07998542172251324
2023-01-28 14:37:11.448332,-0.08055984973907468
2023-01-28 14:37:11.453332,-0.08068145192134017
2023-01-28 14:37:11.458332,-0.08113682270050042
2023-01-28 14:37:11.463332,-0.08029418465098799
2023-01-28 14:37:11.468332,-0.07522284984588626
2023-01-28 14:37:11.473332,-0.06553444491292174
2023-01-28 14:37:11.478332,-0.053514242172241155
2023-01-28 14:37:11.483332,-0.03999611825949087
2023-01-28 14:37:11.488332,-0.022886594757437685
2023-01-28 14:37:11.493332,-0.0011123944043470052
2023-01-28 14:37:11.498332,0.022189419716596614
2023-01-28 14:37:11.503332,0.04215288012134754
2023-01-28 14:37:11.508332,0.0563269853591918
2023-01-28 14:37:11.513332,0.06475918845273634
2023-01-28 14:37:11.518332,0.0673856362700462
2023-01-28 14:37:11.523332,0.06345147243942185
2023-01-28 14:37:11.528332,0.05308151245117174
2023-01-28 14:37:11.533332,0.037796381573057355
2023-01-28 14:37:11.538332,0.019569000229239415
2023-01-28 14:37:11.543332,0.0005060688567068656
2023-01-28 14:37:11.548332,-0.016780298203229932
2023-01-28 14:37:11.553332,-0.02978884615373073
2023-01-28 14:37:11.558332,-0.037503242492675705
2023-01-28 14:37:11.563332,-0.04068755014823517
2023-01-28 14:37:11.568332,-0.04089295864105219
2023-01-28 14:37:11.573332,-0.03960080604626169
2023-01-28 14:37:11.578332,-0.03798405453562731
2023-01-28 14:37:11.583332,-0.036663493365041204
2023-01-28 14:37:11.588332,-0.03550788015127183
2023-01-28 14:37:11.593332,-0.03402848150988705
2023-01-28 14:37:11.598332,-0.03199796006083478
2023-01-28 14:37:11.603332,-0.02949861005676885
2023-01-28 14:37:11.608332,-0.0265888385474681
2023-01-28 14:37:11.613332,-0.023274861615309533
2023-01-28 14:37:11.618332,-0.019689202308654705
2023-01-28 14:37:11.623332,-0.016004248103745705
2023-01-28 14:37:11.628332,-0.012260675430297803
2023-01-28 14:37:11.633332,-0.008475290336150266
2023-01-28 14:37:11.638332,-0.004760026931762605
2023-01-28 14:37:11.643332,-0.001132459415939498
2023-01-28 14:37:11.648332,0.0026444594841449932
2023-01-28 14:37:11.653332,0.006867113997100503
2023-01-28 14:37:11.658332,0.011683702468872004
2023-01-28 14:37:11.663332,0.017194774162590316
2023-01-28 14:37:11.668332,0.023559730499982796
2023-01-28 14:37:11.673332,0.030865401319099962
2023-01-28 14:37:11.678332,0.03906587883830063
2023-01-28 14:37:11.683332,0.048155471918244944
2023-01-28 14:37:11.688332,0.05820214748382558
2023-01-28 14:37:11.693332,0.06909991619873734
2023-01-28 14:37:11.698332,0.08046369254589075
2023-01-28 14:37:11.703332,0.091838151270431
2023-01-28 14:37:11.708332,0.10282139480113979
2023-01-28 14:37:11.713332,0.11294820549248875
2023-01-28 14:37:11.718332,0.12169321626424774
2023-01-28 14:37:11.723332,0.1286627349779238
2023-01-28 14:37:11.728332,0.13356924057006825
2023-01-28 14:37:11.733332,0.13596791875896935
2023-01-28 14:37:11.738332,0.13525208830833418
2023-01-28 14:37:11.743332,0.13098438350124764
2023-01-28 14:37:11.748332,0.12306352704763403
2023-01-28 14:37:11.753332,0.1115959595213527
2023-01-28 14:37:11.758332,0.09688337892293922
2023-01-28 14:37:11.763332,0.07957483065350053
2023-01-28 14:37:11.768332,0.06055812165141099
2023-01-28 14:37:11.773332,0.040611348025443354
2023-01-28 14:37:11.778332,0.020338296890258685
2023-01-28 14:37:11.783332,0.00042483238624630815
2023-01-28 14:37:11.788332,-0.01831889152526852
2023-01-28 14:37:11.793332,-0.03523019653524162
2023-01-28 14:37:11.798332,-0.049908161163330036
2023-01-28 14:37:11.803332,-0.06207597431036866
2023-01-28 14:37:11.808332,-0.07159273326396937
2023-01-28 14:37:11.813332,-0.07862264509569115
2023-01-28 14:37:11.818332,-0.08354087918996808
2023-01-28 14:37:11.823332,-0.08663200464430372
2023-01-28 14:37:11.828332,-0.08808454126119605
2023-01-28 14:37:11.833332,-0.08825922760829409
2023-01-28 14:37:11.838332,-0.08769989013671871
2023-01-28 14:37:11.843332,-0.0868516280693587
2023-01-28 14:37:11.848332,-0.08596897125244136
2023-01-28 14:37:11.853332,-0.0852455777671906
2023-01-28 14:37:11.858332,-0.08474290370941161
2023-01-28 14:37:11.863332,-0.08418708806527843
2023-01-28 14:37:11.868332,-0.08313219249248496
2023-01-28 14:37:11.873332,-0.08140720124174397
2023-01-28 14:37:11.878332,-0.07923762500286102
2023-01-28 14:37:11.883332,-0.07697383838032633
2023-01-28 14:37:11.888332,-0.0749343633651733
2023-01-28 14:37:11.893332,-0.07344336193442978
2023-01-28 14:37:11.898332,-0.07267455756664268
2023-01-28 14:37:11.903332,-0.07238566063041764
2023-01-28 14:37:11.908332,-0.07204949855804439
2023-01-28 14:37:11.913332,-0.07130933708433136
2023-01-28 14:37:11.918332,-0.07015030086040487
2023-01-28 14:37:11.923332,-0.06869794560480084
2023-01-28 14:37:11.928332,-0.0671211928129195
2023-01-28 14:37:11.933332,-0.06570306529590669
2023-01-28 14:37:11.938332,-0.0646930932998657
2023-01-28 14:37:11.943332,-0.06402721915563957
2023-01-28 14:37:11.948332,-0.06341894716024389
2023-01-28 14:37:11.953332,-0.06275348523824811
2023-01-28 14:37:11.958332,-0.06219287961721416
2023-01-28 14:37:11.963332,-0.0619298764089614
2023-01-28 14:37:11.968332,-0.062096714973449665
2023-01-28 14:37:11.973332,-0.06289129607853451
2023-01-28 14:37:11.978332,-0.06447672843933097
2023-01-28 14:37:11.983332,-0.0666741262576427
2023-01-28 14:37:11.988332,-0.0689723119139671
2023-01-28 14:37:11.993332,-0.07088823168901727
2023-01-28 14:37:11.998332,-0.07214566320180886
2023-01-28 14:37:12.003332,-0.07256113797388575
2023-01-28 14:37:12.008332,-0.0720735415816307
2023-01-28 14:37:12.013332,-0.07096341523680205
2023-01-28 14:37:12.018332,-0.06978969275951377
2023-01-28 14:37:12.023332,-0.06898304949329392
2023-01-28 14:37:12.028332,-0.06861170381307609
2023-01-28 14:37:12.033332,-0.06850683059705297
2023-01-28 14:37:12.038332,-0.06837129592895495
2023-01-28 14:37:12.043332,-0.06773057093448771
2023-01-28 14:37:12.048332,-0.06603936851024624
2023-01-28 14:37:12.053332,-0.06299214892954738
2023-01-28 14:37:12.058332,-0.05865892022848117
2023-01-28 14:37:12.063332,-0.0533581877467135
2023-01-28 14:37:12.068332,-0.04762431234121325
2023-01-28 14:37:12.073332,-0.042351970520742716
2023-01-28 14:37:12.078332,-0.03872931003570546
2023-01-28 14:37:12.083332,-0.03779824088207487
2023-01-28 14:37:12.088332,-0.0400034599006175
2023-01-28 14:37:12.093332,-0.045052447026218606
2023-01-28 14:37:12.098332,-0.052023731172084794
2023-01-28 14:37:12.103332,-0.059603475804439844
2023-01-28 14:37:12.108332,-0.06647209823131563
2023-01-28 14:37:12.113332,-0.07176032439187453
2023-01-28 14:37:12.118332,-0.07531901448965067
2023-01-28 14:37:12.123332,-0.07763284245288378
2023-01-28 14:37:12.128332,-0.07942994683980946
2023-01-28 14:37:12.133332,-0.08121678639290845
2023-01-28 14:37:12.138332,-0.0830841064453125
2023-01-28 14:37:12.143332,-0.08495068264323276
2023-01-28 14:37:12.148332,-0.08685847371816627
2023-01-28 14:37:12.153332,-0.08874378980154364
2023-01-28 14:37:12.158332,-0.08983950316905971
2023-01-28 14:37:12.163332,-0.08855319196348717
2023-01-28 14:37:12.168332,-0.08313219249248505
2023-01-28 14:37:12.173332,-0.07243646870224515
2023-01-28 14:37:12.178332,-0.056278906762599896
2023-01-28 14:37:12.183332,-0.03563709454024426
2023-01-28 14:37:12.188332,-0.012909770011901836
2023-01-28 14:37:12.193332,0.008443953663456037
2023-01-28 14:37:12.198332,0.025242567062377905
2023-01-28 14:37:12.203332,0.035932381499213024
2023-01-28 14:37:12.208332,0.040772758424282005
2023-01-28 14:37:12.213332,0.04099105547758728
2023-01-28 14:37:12.218332,0.03786385059356684
2023-01-28 14:37:12.223332,0.03214606745834105
2023-01-28 14:37:12.228332,0.023824175819754562
2023-01-28 14:37:12.233332,0.012468120808548254
2023-01-28 14:37:12.238332,-0.0017549594631417922
2023-01-28 14:37:12.243332,-0.01730940302313414
2023-01-28 14:37:12.248332,-0.03170947358012193
2023-01-28 14:37:12.253332,-0.04274891187323254
2023-01-28 14:37:12.258332,-0.049379270523786475
2023-01-28 14:37:12.263332,-0.05182454919265325
2023-01-28 14:37:12.268332,-0.05130251497030256
2023-01-28 14:37:12.273332,-0.049489118576772774
2023-01-28 14:37:12.278332,-0.04769643396139133
2023-01-28 14:37:12.283332,-0.046287734794416564
2023-01-28 14:37:12.288332,-0.0449077300727367
2023-01-28 14:37:12.293332,-0.04315197197507816
2023-01-28 14:37:12.298332,-0.040844880044460144
2023-01-28 14:37:12.303332,-0.03790024727157711
2023-01-28 14:37:12.308332,-0.03432989120483393
2023-01-28 14:37:12.313332,-0.030403806883769806
2023-01-28 14:37:12.318332,-0.026516716927289928
2023-01-28 14:37:12.323332,-0.022877098707512294
2023-01-28 14:37:12.328332,-0.019520919770002344
2023-01-28 14:37:12.333332,-0.016541095927530693
2023-01-28 14:37:12.338332,-0.014015635475516281
2023-01-28 14:37:12.343332,-0.011734208638589724
2023-01-28 14:37:12.348332,-0.009255608543753562
2023-01-28 14:37:12.353332,-0.00622277268144208
2023-01-28 14:37:12.358332,-0.0024040541611610802
2023-01-28 14:37:12.363332,0.002498077996807685
2023-01-28 14:37:12.368332,0.008774797432124596
2023-01-28 14:37:12.373332,0.016435649309808998
2023-01-28 14:37:12.378332,0.025242567062377895
2023-01-28 14:37:12.383332,0.03500759461556783
2023-01-28 14:37:12.388332,0.04562894627451891
2023-01-28 14:37:12.393332,0.05686382291502014
2023-01-28 14:37:12.398332,0.06832321733236305
2023-01-28 14:37:12.403332,0.07969339311332309
2023-01-28 14:37:12.408332,0.0907289981842041
2023-01-28 14:37:12.413332,0.10103333315259189
2023-01-28 14:37:12.418332,0.110081635415554
2023-01-28 14:37:12.423332,0.11746314740311704
2023-01-28 14:37:12.428332,0.12287120521068565
2023-01-28 14:37:12.433332,0.12585313520379032
2023-01-28 14:37:12.438332,0.1258041560649871
2023-01-28 14:37:12.443332,0.1222378214632694
2023-01-28 14:37:12.448332,0.11488974094390861
2023-01-28 14:37:12.453332,0.10362338460928609
2023-01-28 14:37:12.458332,0.0885413140058517
2023-01-28 14:37:12.463332,0.07026653778867012
2023-01-28 14:37:12.468332,0.04990816116333
2023-01-28 14:37:12.473332,0.02867806474966566
2023-01-28 14:37:12.478332,0.0076448917388916016
2023-01-28 14:37:12.483332,-0.012249644266211139
2023-01-28 14:37:12.488332,-0.030267041176557513
2023-01-28 14:37:12.493332,-0.0460711240858337
2023-01-28 14:37:12.498332,-0.05966862291097639
2023-01-28 14:37:12.503332,-0.07109375331617294
2023-01-28 14:37:12.508332,-0.08029540628194798
2023-01-28 14:37:12.513332,-0.08731699762758183
2023-01-28 14:37:12.518332,-0.09236375987529746
2023-01-28 14:37:12.523332,-0.09564876620572955
2023-01-28 14:37:12.528332,-0.09736418724060047
2023-01-28 14:37:12.533332,-0.09784356120006744
2023-01-28 14:37:12.538332,-0.09755651652812948
2023-01-28 14:37:12.543332,-0.09687284194866125
2023-01-28 14:37:12.548332,-0.09596984088420857
2023-01-28 14:37:12.553332,-0.0949782866541349
2023-01-28 14:37:12.558332,-0.09402255713939656
2023-01-28 14:37:12.563332,-0.09306646918606892
2023-01-28 14:37:12.568332,-0.09190698713064183
2023-01-28 14:37:12.573332,-0.0904098773443286
2023-01-28 14:37:12.578332,-0.0886374711990356
2023-01-28 14:37:12.583332,-0.08672801339515925
2023-01-28 14:37:12.588332,-0.08481502532958976
2023-01-28 14:37:12.593332,-0.0830997521212496
2023-01-28 14:37:12.598332,-0.08180996030569067
2023-01-28 14:37:12.603332,-0.08098702544811702
2023-01-28 14:37:12.608332,-0.08043964952230448
2023-01-28 14:37:12.613332,-0.07997773293611185
2023-01-28 14:37:12.618332,-0.07957419008016577
2023-01-28 14:37:12.623332,-0.07925292840842268
2023-01-28 14:37:12.628332,-0.07897317409515378
2023-01-28 14:37:12.633332,-0.07871041210399843
2023-01-28 14:37:12.638332,-0.07851640880107871
2023-01-28 14:37:12.643332,-0.07839544129343347
2023-01-28 14:37:12.648332,-0.0782279223203659
2023-01-28 14:37:12.653332,-0.07791853384760142
2023-01-28 14:37:12.658332,-0.07753074169158927
2023-01-28 14:37:12.663332,-0.07717968217473042
2023-01-28 14:37:12.668332,-0.0768816471099853
2023-01-28 14:37:12.673332,-0.07661876561536031
2023-01-28 14:37:12.678332,-0.07647296041250219
2023-01-28 14:37:12.683332,-0.07656181763008361
2023-01-28 14:37:12.688332,-0.0768816471099853
2023-01-28 14:37:12.693332,-0.07733671306556063
2023-01-28 14:37:12.698332,-0.07789134979248037
2023-01-28 14:37:12.703332,-0.07855625775191703
2023-01-28 14:37:12.708332,-0.07923762500286098
2023-01-28 14:37:12.713332,-0.07976379242531856
2023-01-28 14:37:12.718332,-0.08010308444499963
2023-01-28 14:37:12.723332,-0.08040457834086526
2023-01-28 14:37:12.728332,-0.08075217902660362
2023-01-28 14:37:12.733332,-0.08101950113557788
2023-01-28 14:37:12.738332,-0.08104066550731646
2023-01-28 14:37:12.743332,-0.08072203763587976
2023-01-28 14:37:12.748332,-0.07981459796428685
2023-01-28 14:37:12.753332,-0.07777569219036856
2023-01-28 14:37:12.758332,-0.07414102554321275
2023-01-28 14:37:12.763332,-0.06893458640199661
2023-01-28 14:37:12.768332,-0.062481366097927024
2023-01-28 14:37:12.773332,-0.05507927734943593
2023-01-28 14:37:12.778332,-0.04738390445709223
2023-01-28 14:37:12.783332,-0.04098160309563288
2023-01-28 14:37:12.788332,-0.037767689675092656
2023-01-28 14:37:12.793332,-0.03841659507108255
2023-01-28 14:37:12.798332,-0.042022865265607806
2023-01-28 14:37:12.803332,-0.047553948140584036
2023-01-28 14:37:12.808332,-0.05493263527750965
2023-01-28 14:37:12.813332,-0.06406226741673986
2023-01-28 14:37:12.818332,-0.07346789538860318
2023-01-28 14:37:12.823332,-0.08099137513488926
2023-01-28 14:37:12.828332,-0.08572857081890106
2023-01-28 14:37:12.833332,-0.08841864559313686
2023-01-28 14:37:12.838332,-0.08998374640941612
2023-01-28 14:37:12.843332,-0.09063084556239456
2023-01-28 14:37:12.848332,-0.09053667634725575
2023-01-28 14:37:12.853332,-0.09041319504301543
2023-01-28 14:37:12.858332,-0.09080111980438227
2023-01-28 14:37:12.863332,-0.09129331590830211
2023-01-28 14:37:12.868332,-0.09077708423137659
2023-01-28 14:37:12.873332,-0.08787747321790185
2023-01-28 14:37:12.878332,-0.08084833621978749
2023-01-28 14:37:12.883332,-0.06782268996624712
2023-01-28 14:37:12.888332,-0.048105120658874484
2023-01-28 14:37:12.893332,-0.023271635565472015
2023-01-28 14:37:12.898332,0.003269513603299818
2023-01-28 14:37:12.903332,0.02767227366838816
2023-01-28 14:37:12.908332,0.04671077057719224
2023-01-28 14:37:12.913332,0.0583948431425806
2023-01-28 14:37:12.918332,0.06245732307434078
2023-01-28 14:37:12.923332,0.060155904444729645
2023-01-28 14:37:12.928332,0.05305747315287588
2023-01-28 14:37:12.933332,0.041968227340793626
2023-01-28 14:37:12.938332,0.027213891968131003
2023-01-28 14:37:12.943332,0.009656793016995081
2023-01-28 14:37:12.948332,-0.008943080902099637
2023-01-28 14:37:12.953332,-0.026363833540646007
2023-01-28 14:37:12.958332,-0.04043618962168688
2023-01-28 14:37:12.963332,-0.04956792175957913
2023-01-28 14:37:12.968332,-0.05346616357564924
2023-01-28 14:37:12.973332,-0.0533993128316719
2023-01-28 14:37:12.978332,-0.05135059356689444
2023-01-28 14:37:12.983332,-0.04880358096407455
2023-01-28 14:37:12.988332,-0.046374201774597126
2023-01-28 14:37:12.993332,-0.044209358889290035
2023-01-28 14:37:12.998332,-0.042239230126142474
2023-01-28 14:37:13.003332,-0.04017394989523322
2023-01-28 14:37:13.008332,-0.03774365037679671
2023-01-28 14:37:13.013332,-0.03500075521864656
2023-01-28 14:37:13.018332,-0.032142203301191295
2023-01-28 14:37:13.023332,-0.029142552039704967
2023-01-28 14:37:13.028332,-0.025867622345685907
2023-01-28 14:37:13.033332,-0.022437472937200973
2023-01-28 14:37:13.038332,-0.019136270508170104
2023-01-28 14:37:13.043332,-0.016022384067184675
2023-01-28 14:37:13.048332,-0.012909770011901807
2023-01-28 14:37:13.053332,-0.00962478271930387
2023-01-28 14:37:13.058332,-0.005962054245173879
2023-01-28 14:37:13.063332,-0.0014901515852382469
2023-01-28 14:37:13.068332,0.00423113536089653
2023-01-28 14:37:13.073332,0.011246338138033815
2023-01-28 14:37:13.078332,0.019280513748526514
2023-01-28 14:37:13.083332,0.028151950318932317
2023-01-28 14:37:13.088332,0.03783981129527089
2023-01-28 14:37:13.093332,0.048241976062526254
2023-01-28 14:37:13.098332,0.0591878108680248
2023-01-28 14:37:13.103332,0.07063175445465858
2023-01-28 14:37:13.108332,0.08250713348388672
2023-01-28 14:37:13.113332,0.0943951152255531
2023-01-28 14:37:13.118332,0.10561009496450409
2023-01-28 14:37:13.123332,0.11559762413938353
2023-01-28 14:37:13.128332,0.1240251511335372
2023-01-28 14:37:13.133332,0.13057136073943212
2023-01-28 14:37:13.138332,0.13491551578044886
2023-01-28 14:37:13.143332,0.13687057712369272
2023-01-28 14:37:13.148332,0.13621370494365687
2023-01-28 14:37:13.153332,0.1323954290352167
2023-01-28 14:37:13.158332,0.12469828128814686
2023-01-28 14:37:13.163332,0.11272094770611227
2023-01-28 14:37:13.168332,0.09657084941864005
2023-01-28 14:37:13.173332,0.07675328129573225
2023-01-28 14:37:13.178332,0.054211419075727345
2023-01-28 14:37:13.183332,0.030414072600064783
2023-01-28 14:37:13.188332,0.007019837852567354
2023-01-28 14:37:13.193332,-0.014686465781975624
2023-01-28 14:37:13.198332,-0.03394524380564679
2023-01-28 14:37:13.203332,-0.050292885222163644
2023-01-28 14:37:13.208332,-0.06351511180400837
2023-01-28 14:37:13.213332,-0.07378565702109692
2023-01-28 14:37:13.218332,-0.08152147382497778
2023-01-28 14:37:13.223332,-0.08704214986566211
2023-01-28 14:37:13.228332,-0.09056071937084183
2023-01-28 14:37:13.233332,-0.09244129785384693
2023-01-28 14:37:13.238332,-0.09318113327026359
2023-01-28 14:37:13.243332,-0.09313790036709163
2023-01-28 14:37:13.248332,-0.09250800311565384
2023-01-28 14:37:13.253332,-0.09153699043512994
2023-01-28 14:37:13.258332,-0.09048859775066372
2023-01-28 14:37:13.263332,-0.0894187467190617
2023-01-28 14:37:13.268332,-0.08822878450155247
2023-01-28 14:37:13.273332,-0.08693151289092413
2023-01-28 14:37:13.278332,-0.08563240617513651
2023-01-28 14:37:13.283332,-0.08428121618992099
2023-01-28 14:37:13.288332,-0.08269946277141565
2023-01-28 14:37:13.293332,-0.08084924198560771
2023-01-28 14:37:13.298332,-0.07885297387838358
2023-01-28 14:37:13.303332,-0.07679184658906511
2023-01-28 14:37:13.308332,-0.07474204152822486
2023-01-28 14:37:13.313332,-0.07297824342750041
2023-01-28 14:37:13.318332,-0.071857176721096
2023-01-28 14:37:13.323332,-0.07146675016311499
2023-01-28 14:37:13.328332,-0.07159273326396937
2023-01-28 14:37:13.333332,-0.07199798876109197
2023-01-28 14:37:13.338332,-0.07250627130269997
2023-01-28 14:37:13.343332,-0.07287466554989733
2023-01-28 14:37:13.348332,-0.07289092242717736
2023-01-28 14:37:13.353332,-0.0726276194183829
2023-01-28 14:37:13.358332,-0.0723620280623435
2023-01-28 14:37:13.363332,-0.07223381531186199
2023-01-28 14:37:13.368332,-0.07219374179840073
2023-01-28 14:37:13.373332,-0.07225056200082569
2023-01-28 14:37:13.378332,-0.07250627130269995
2023-01-28 14:37:13.383332,-0.07295709075710571
2023-01-28 14:37:13.388332,-0.07351597398519502
2023-01-28 14:37:13.393332,-0.07422677793128822
2023-01-28 14:37:13.398332,-0.0751988142728805
2023-01-28 14:37:13.403332,-0.07632519463005397
2023-01-28 14:37:13.408332,-0.07731437683105452
2023-01-28 14:37:13.413332,-0.07800780697476262
2023-01-28 14:37:13.418332,-0.07844428718090049
2023-01-28 14:37:13.423332,-0.07865642199238186
2023-01-28 14:37:13.428332,-0.07868468761444086
2023-01-28 14:37:13.433332,-0.07876661720035852
2023-01-28 14:37:13.438332,-0.0791895389556884
2023-01-28 14:37:13.443332,-0.07991243833096602
2023-01-28 14:37:13.448332,-0.0806079357862472
2023-01-28 14:37:13.453332,-0.08110670435809135
2023-01-28 14:37:13.458332,-0.0815214738249778
2023-01-28 14:37:13.463332,-0.08190630239734954
2023-01-28 14:37:13.468332,-0.08209844678640366
2023-01-28 14:37:13.473332,-0.08195446784711512
2023-01-28 14:37:13.478332,-0.08142530918121332
2023-01-28 14:37:13.483332,-0.08027488657609994
2023-01-28 14:37:13.488332,-0.07798751443624488
2023-01-28 14:37:13.493332,-0.07410564390359616
2023-01-28 14:37:13.498332,-0.0685155391693115
2023-01-28 14:37:13.503332,-0.06141755241711499
2023-01-28 14:37:13.508332,-0.053345959633588694
2023-01-28 14:37:13.513332,-0.04536986209863022
2023-01-28 14:37:13.518332,-0.0390177965164184
2023-01-28 14:37:13.523332,-0.03574232285013367
2023-01-28 14:37:13.528332,-0.03639737889170641
2023-01-28 14:37:13.533332,-0.04105696772972538
2023-01-28 14:37:13.538332,-0.048970580101013086
2023-01-28 14:37:13.543332,-0.05859405706723139
2023-01-28 14:37:13.548332,-0.06801068782806392
2023-01-28 14:37:13.553332,-0.07568595195616111
2023-01-28 14:37:13.558332,-0.08094450086355194
2023-01-28 14:37:13.563332,-0.0838838035557114
2023-01-28 14:37:13.568332,-0.08510351181030268
2023-01-28 14:37:13.573332,-0.08551613601491709
2023-01-28 14:37:13.578332,-0.08604109287261959
2023-01-28 14:37:13.583332,-0.08718074691776781
2023-01-28 14:37:13.588332,-0.08887787908315649
2023-01-28 14:37:13.593332,-0.0907105175802119
2023-01-28 14:37:13.598332,-0.09195506572723379
2023-01-28 14:37:13.603332,-0.09138033654872699
2023-01-28 14:37:13.608332,-0.08726716041564939
2023-01-28 14:37:13.613332,-0.07793759721318405
2023-01-28 14:37:13.618332,-0.06243328377604479
2023-01-28 14:37:13.623332,-0.040992271646453644
2023-01-28 14:37:13.628332,-0.01533786486834284
2023-01-28 14:37:13.633332,0.011371450752313833
2023-01-28 14:37:13.638332,0.03531555458903305
2023-01-28 14:37:13.643332,0.053318872538621165
2023-01-28 14:37:13.648332,0.06377955526113512
2023-01-28 14:37:13.653332,0.06664792932637852
2023-01-28 14:37:13.658332,0.06281793117523188
2023-01-28 14:37:13.663332,0.05353258145302544
2023-01-28 14:37:13.668332,0.04000345990061753
2023-01-28 14:37:13.673332,0.023323269774281962
2023-01-28 14:37:13.678332,0.00478406762704253
2023-01-28 14:37:13.683332,-0.013717838734856215
2023-01-28 14:37:13.688332,-0.029858350753784114
2023-01-28 14:37:13.693332,-0.04173057941691354
2023-01-28 14:37:13.698332,-0.04860997200012195
2023-01-28 14:37:13.703332,-0.05103034885873537
2023-01-28 14:37:13.708332,-0.0503408908843994
2023-01-28 14:37:13.713332,-0.04813705821423441
2023-01-28 14:37:13.718332,-0.0456770285964011
2023-01-28 14:37:13.723332,-0.043453286634538915
2023-01-28 14:37:13.728332,-0.04127760976552962
2023-01-28 14:37:13.733332,-0.03882505434321347
2023-01-28 14:37:13.738332,-0.03603677079081521
2023-01-28 14:37:13.743332,-0.03305432305461462
2023-01-28 14:37:13.748332,-0.030026635155081704
2023-01-28 14:37:13.753332,-0.027102722525301746
2023-01-28 14:37:13.758332,-0.024425189942121495
2023-01-28 14:37:13.763332,-0.021974712940162597
2023-01-28 14:37:13.768332,-0.0195209197700023
2023-01-28 14:37:13.773332,-0.01681542964953962
2023-01-28 14:37:13.778332,-0.013727148994803415
2023-01-28 14:37:13.783332,-0.010144028110915481
2023-01-28 14:37:13.788332,-0.00591397285461417
2023-01-28 14:37:13.793332,-0.0009842281862498887
2023-01-28 14:37:13.798332,0.004543662071227995
2023-01-28 14:37:13.803332,0.010604984673811782
2023-01-28 14:37:13.808332,0.01730918884277343
2023-01-28 14:37:13.813332,0.024821675958780966
2023-01-28 14:37:13.818332,0.033248066902160575
2023-01-28 14:37:13.823332,0.04270693504621414
2023-01-28 14:37:13.828332,0.05334595963358872
2023-01-28 14:37:13.833332,0.06514006967426392
2023-01-28 14:37:13.838332,0.07774710655212397
2023-01-28 14:37:13.843332,0.09062537605012135
2023-01-28 14:37:13.848332,0.10318200290203097
2023-01-28 14:37:13.853332,0.11476184737294337
2023-01-28 14:37:13.858332,0.12467424571514119
2023-01-28 14:37:13.863332,0.13238382939032736
2023-01-28 14:37:13.868332,0.13760805130004877
2023-01-28 14:37:13.873332,0.14016303606248676
2023-01-28 14:37:13.878332,0.13981978595256797
2023-01-28 14:37:13.883332,0.1363670586008189
2023-01-28 14:37:13.888332,0.12967467308044428
2023-01-28 14:37:13.893332,0.11961327378523318
2023-01-28 14:37:13.898332,0.10606686770915981
2023-01-28 14:37:13.903332,0.08917352112460021
2023-01-28 14:37:13.908332,0.06950120627880092
2023-01-28 14:37:13.913332,0.04793612895597801
2023-01-28 14:37:13.918332,0.025507014244794797
2023-01-28 14:37:13.923332,0.0033556481644634317
2023-01-28 14:37:13.928332,-0.01733323000371447
2023-01-28 14:37:13.933332,-0.035601353056032806
2023-01-28 14:37:13.938332,-0.05094190686941137
2023-01-28 14:37:13.943332,-0.06324984922986518
2023-01-28 14:37:13.948332,-0.07267455756664268
2023-01-28 14:37:13.953332,-0.07958964396089478
2023-01-28 14:37:13.958332,-0.0845505818724632
2023-01-28 14:37:13.963332,-0.08809363207872055
2023-01-28 14:37:13.968332,-0.09056071937084183
2023-01-28 14:37:13.973332,-0.0921505079006245
2023-01-28 14:37:13.978332,-0.09306093305349339
2023-01-28 14:37:13.983332,-0.09350984618849816
2023-01-28 14:37:13.988332,-0.09366194903850547
2023-01-28 14:37:13.993332,-0.09357238714310767
2023-01-28 14:37:13.998332,-0.0931570976972579
2023-01-28 14:37:14.003332,-0.09223478680947683
2023-01-28 14:37:14.008332,-0.09070496261119833
2023-01-28 14:37:14.013332,-0.08869617174611161
2023-01-28 14:37:14.018332,-0.08644978702068315
2023-01-28 14:37:14.023332,-0.08410205507851484
2023-01-28 14:37:14.028332,-0.08173783868551246
2023-01-28 14:37:14.033332,-0.07960586081558027
2023-01-28 14:37:14.038332,-0.0780115574598312
2023-01-28 14:37:14.043332,-0.07693013333734945
2023-01-28 14:37:14.048332,-0.07596810907125465
2023-01-28 14:37:14.053332,-0.07482766033289168
2023-01-28 14:37:14.058332,-0.07361213862895961
2023-01-28 14:37:14.063332,-0.07256531489882559
2023-01-28 14:37:14.068332,-0.07173697650432576
2023-01-28 14:37:14.073332,-0.07107656476767846
2023-01-28 14:37:14.078332,-0.07065515220165249
2023-01-28 14:37:14.083332,-0.07056705306603878
2023-01-28 14:37:14.088332,-0.07072727382183067
2023-01-28 14:37:14.093332,-0.07096131519641984
2023-01-28 14:37:14.098332,-0.07120808213949198
2023-01-28 14:37:14.103332,-0.07147374763025803
2023-01-28 14:37:14.108332,-0.07168889045715325
2023-01-28 14:37:14.113332,-0.07179174948044802
2023-01-28 14:37:14.118332,-0.07188121974468231
2023-01-28 14:37:14.123332,-0.07212572553668305
2023-01-28 14:37:14.128332,-0.07257839292287817
2023-01-28 14:37:14.133332,-0.07320884026248846
2023-01-28 14:37:14.138332,-0.07402082532644266
2023-01-28 14:37:14.143332,-0.074975509866901
2023-01-28 14:37:14.148332,-0.07587194442749018
2023-01-28 14:37:14.153332,-0.07647272563607439
2023-01-28 14:37:14.158332,-0.07671336829662319
2023-01-28 14:37:14.163332,-0.07667319180800064
2023-01-28 14:37:14.168332,-0.07642488181591028
2023-01-28 14:37:14.173332,-0.07605983954783992
2023-01-28 14:37:14.178332,-0.07577578723430622
2023-01-28 14:37:14.183332,-0.07574992882554016
2023-01-28 14:37:14.188332,-0.07594406604766836
2023-01-28 14:37:14.193332,-0.07616571122540923
2023-01-28 14:37:14.198332,-0.07628063857555378
2023-01-28 14:37:14.203332,-0.0762530619104945
2023-01-28 14:37:14.208332,-0.0760642737150192
2023-01-28 14:37:14.213332,-0.0757528058641604
2023-01-28 14:37:14.218332,-0.07546325773000712
2023-01-28 14:37:14.223332,-0.07525914943780626
2023-01-28 14:37:14.228332,-0.07488628476858132
2023-01-28 14:37:14.233332,-0.0738423871177443
2023-01-28 14:37:14.238332,-0.07164081186056123
2023-01-28 14:37:14.243332,-0.06790921451016585
2023-01-28 14:37:14.248332,-0.0623852014541625
2023-01-28 14:37:14.253332,-0.05511790662724508
2023-01-28 14:37:14.258332,-0.04675885289907446
2023-01-28 14:37:14.263332,-0.03854182342601085
2023-01-28 14:37:14.268332,-0.03194987773895261
2023-01-28 14:37:14.273332,-0.028386292851891533
2023-01-28 14:37:14.278332,-0.02887268923223009
2023-01-28 14:37:14.283332,-0.03362337467585454
2023-01-28 14:37:14.288332,-0.041758418083190925
2023-01-28 14:37:14.293332,-0.05159024507594239
2023-01-28 14:37:14.298332,-0.06132742017507549
2023-01-28 14:37:14.303332,-0.06960085238294161
2023-01-28 14:37:14.308332,-0.07563154399394975
2023-01-28 14:37:14.313332,-0.07930613177874353
2023-01-28 14:37:14.318332,-0.08116086572408662
2023-01-28 14:37:14.323332,-0.0820239652295806
2023-01-28 14:37:14.328332,-0.08250713348388666
2023-01-28 14:37:14.333332,-0.0828614747791792
2023-01-28 14:37:14.338332,-0.08318027108907677
2023-01-28 14:37:14.343332,-0.08341414486785283
2023-01-28 14:37:14.348332,-0.08308410644531242
2023-01-28 14:37:14.353332,-0.0811625040472707
2023-01-28 14:37:14.358332,-0.0763287171721457
2023-01-28 14:37:14.363332,-0.06730534546610757
2023-01-28 14:37:14.368332,-0.053177677094936274
2023-01-28 14:37:14.373332,-0.03390917193123008
2023-01-28 14:37:14.378332,-0.01084228418767449
2023-01-28 14:37:14.383332,0.013445020066984408
2023-01-28 14:37:14.388332,0.035988688468933126
2023-01-28 14:37:14.393332,0.054279684326640806
2023-01-28 14:37:14.398332,0.06661634147167197
2023-01-28 14:37:14.403332,0.07217735291113991
2023-01-28 14:37:14.408332,0.07099171727895731
2023-01-28 14:37:14.413332,0.06365039544659774
2023-01-28 14:37:14.418332,0.05094190686941139
2023-01-28 14:37:14.423332,0.03395750071773705
2023-01-28 14:37:14.428332,0.01456856727600085
2023-01-28 14:37:14.433332,-0.004584499806907121
2023-01-28 14:37:14.438332,-0.020915269851684504
2023-01-28 14:37:14.443332,-0.03277240763187095
2023-01-28 14:37:14.448332,-0.03971497341990466
2023-01-28 14:37:14.453332,-0.04238492242859956
2023-01-28 14:37:14.458332,-0.04223923012614246
2023-01-28 14:37:14.463332,-0.04092407334320795
2023-01-28 14:37:14.468332,-0.03942648693919178
2023-01-28 14:37:14.473332,-0.037810104229882596
2023-01-28 14:37:14.478332,-0.03579636663198464
2023-01-28 14:37:14.483332,-0.03333829134536094
2023-01-28 14:37:14.488332,-0.030555527657270397
2023-01-28 14:37:14.493332,-0.027526430374722532
2023-01-28 14:37:14.498332,-0.024425189942121426
2023-01-28 14:37:14.503332,-0.0215573398759084
2023-01-28 14:37:14.508332,-0.018967986106872444
2023-01-28 14:37:14.513332,-0.016265126882454205
2023-01-28 14:37:14.518332,-0.013078054413199392
2023-01-28 14:37:14.523332,-0.009420402281392579
2023-01-28 14:37:14.528332,-0.005385081283748062
2023-01-28 14:37:14.533332,-0.0008506378450100579
2023-01-28 14:37:14.538332,0.00420709466561676
2023-01-28 14:37:14.543332,0.009502134313790371
2023-01-28 14:37:14.548332,0.014929175376892052
2023-01-28 14:37:14.553332,0.020929842596191118
2023-01-28 14:37:14.558332,0.027983188629150266
2023-01-28 14:37:14.563332,0.036086638846888903
2023-01-28 14:37:14.568332,0.04512409493327141
2023-01-28 14:37:14.573332,0.05527579880615955
2023-01-28 14:37:14.578332,0.06652017682790748
2023-01-28 14:37:14.583332,0.07816418032045838
2023-01-28 14:37:14.588332,0.08947889506816868
2023-01-28 14:37:14.593332,0.10037796764363172
2023-01-28 14:37:14.598332,0.11082689464092245
2023-01-28 14:37:14.603332,0.12011520786855973
2023-01-28 14:37:14.608332,0.1275591105222702
2023-01-28 14:37:14.613332,0.13340956006210744
2023-01-28 14:37:14.618332,0.13804078102111805
2023-01-28 14:37:14.623332,0.14071862065282906
2023-01-28 14:37:14.628332,0.14037272334098805
2023-01-28 14:37:14.633332,0.13708832541946492
2023-01-28 14:37:14.638332,0.13128539919853202
2023-01-28 14:37:14.643332,0.12184220840196697
2023-01-28 14:37:14.648332,0.10719677060842506
2023-01-28 14:37:14.653332,0.08855902658779886
2023-01-28 14:37:14.658332,0.06969352811574929
2023-01-28 14:37:14.663332,0.052502653437843196
2023-01-28 14:37:14.668332,0.0349068641662597
2023-01-28 14:37:14.673332,0.014606988271582973
2023-01-28 14:37:14.678332,-0.006875594612210922
2023-01-28 14:37:14.683332,-0.025917282023939146
2023-01-28 14:37:14.688332,-0.04120548814535138
2023-01-28 14:37:14.693332,-0.0541078772318747
2023-01-28 14:37:14.698332,-0.06539027392864222
2023-01-28 14:37:14.703332,-0.07408996637804358
2023-01-28 14:37:14.708332,-0.07971843332052227
2023-01-28 14:37:14.713332,-0.08337903401971482
2023-01-28 14:37:14.718332,-0.0861132144927978
2023-01-28 14:37:14.723332,-0.08780302414231533
2023-01-28 14:37:14.728332,-0.0883489847183227
2023-01-28 14:37:14.733332,-0.08850882422934452
2023-01-28 14:37:14.738332,-0.08880575746297828
2023-01-28 14:37:14.743332,-0.0887206204863647
2023-01-28 14:37:14.748332,-0.08769989013671864
2023-01-28 14:37:14.753332,-0.08606719586706989
2023-01-28 14:37:14.758332,-0.0843101739883422
2023-01-28 14:37:14.763332,-0.08231529357541799
2023-01-28 14:37:14.768332,-0.07995884120464315
2023-01-28 14:37:14.773332,-0.07771008906608386
2023-01-28 14:37:14.778332,-0.07599215209484095
2023-01-28 14:37:14.783332,-0.07456101170125161
2023-01-28 14:37:14.788332,-0.073107287287712
2023-01-28 14:37:14.793332,-0.07189961091452882
2023-01-28 14:37:14.798332,-0.07125616073608393
2023-01-28 14:37:14.803332,-0.07089250177446381
2023-01-28 14:37:14.808332,-0.07034262269735327
2023-01-28 14:37:14.813332,-0.06956224330078746
2023-01-28 14:37:14.818332,-0.06861170381307602
2023-01-28 14:37:14.823332,-0.0672258086545977
2023-01-28 14:37:14.828332,-0.06527006626129148
2023-01-28 14:37:14.833332,-0.06325538543619863
2023-01-28 14:37:14.838332,-0.061880350112914984
2023-01-28 14:37:14.843332,-0.06135898002875375
2023-01-28 14:37:14.848332,-0.06159186363220205
2023-01-28 14:37:14.853332,-0.0625869029009662
2023-01-28 14:37:14.858332,-0.06421228498220435
2023-01-28 14:37:14.863332,-0.0658757117162128
2023-01-28 14:37:14.868332,-0.06697694957256306
2023-01-28 14:37:14.873332,-0.06747937610793599
2023-01-28 14:37:14.878332,-0.0676741227507591
2023-01-28 14:37:14.883332,-0.06768537806080692
2023-01-28 14:37:14.888332,-0.06760200113058087
2023-01-28 14:37:14.893332,-0.0677590524763922
2023-01-28 14:37:14.898332,-0.0683953389525413
2023-01-28 14:37:14.903332,-0.06923867486692314
2023-01-28 14:37:14.908332,-0.06983777135610578
2023-01-28 14:37:14.913332,-0.0701030700750414
2023-01-28 14:37:14.918332,-0.07017433643341062
2023-01-28 14:37:14.923332,-0.07002493859647738
2023-01-28 14:37:14.928332,-0.0695973634719848
2023-01-28 14:37:14.933332,-0.06907978259311162
2023-01-28 14:37:14.938332,-0.06861170381307596
2023-01-28 14:37:14.943332,-0.06788721183482183
2023-01-28 14:37:14.948332,-0.06642401218414301
2023-01-28 14:37:14.953332,-0.0640502342330382
2023-01-28 14:37:14.958332,-0.06079852581024158
2023-01-28 14:37:14.963332,-0.0565779630730953
2023-01-28 14:37:14.968332,-0.05139867588877668
2023-01-28 14:37:14.973332,-0.04579919699036341
2023-01-28 14:37:14.978332,-0.04070063680410377
2023-01-28 14:37:14.983332,-0.03696692401107684
2023-01-28 14:37:14.988332,-0.035363636910915326
2023-01-28 14:37:14.993332,-0.0366239886858352
2023-01-28 14:37:14.998332,-0.04101316258311269
2023-01-28 14:37:15.003332,-0.04784391278977133
2023-01-28 14:37:15.008332,-0.05575001239776611
2023-01-28 14:37:15.013332,-0.06340172569469125
2023-01-28 14:37:15.018332,-0.06981372833251949
2023-01-28 14:37:15.023332,-0.07432489222188221
2023-01-28 14:37:15.028332,-0.07680952548980709
2023-01-28 14:37:15.033332,-0.0778632566499094
2023-01-28 14:37:15.038332,-0.07839620113372796
2023-01-28 14:37:15.043332,-0.07901034338578726
2023-01-28 14:37:15.048332,-0.07991075515747068
2023-01-28 14:37:15.053332,-0.08114308968657101
2023-01-28 14:37:15.058332,-0.08248309791088096
2023-01-28 14:37:15.063332,-0.0831469936067326
2023-01-28 14:37:15.068332,-0.08193016052246085
2023-01-28 14:37:15.073332,-0.07761917488157227
2023-01-28 14:37:15.078332,-0.06916463375091549
2023-01-28 14:37:15.083332,-0.05582801488982657
2023-01-28 14:37:15.088332,-0.03771960735321038
2023-01-28 14:37:15.093332,-0.016259563750702147
2023-01-28 14:37:15.098332,0.006154378410428698
2023-01-28 14:37:15.103332,0.026979890557658943
2023-01-28 14:37:15.108332,0.044066309928894
2023-01-28 14:37:15.113332,0.055845588573500395
2023-01-28 14:37:15.118332,0.06154378503561008
2023-01-28 14:37:15.123332,0.06120699321096761
2023-01-28 14:37:15.128332,0.0552692040801048
2023-01-28 14:37:15.133332,0.04422167100787932
2023-01-28 14:37:15.138332,0.028968852013349495
2023-01-28 14:37:15.143332,0.011318721539616591
2023-01-28 14:37:15.148332,-0.00627458095550533
2023-01-28 14:37:15.153332,-0.02150665523616065
2023-01-28 14:37:15.158332,-0.03276725858449926
2023-01-28 14:37:15.163332,-0.03936932288690722
2023-01-28 14:37:15.168332,-0.04175841808319093
2023-01-28 14:37:15.173332,-0.04136400522091453
2023-01-28 14:37:15.178332,-0.03976305574178687
2023-01-28 14:37:15.183332,-0.03785973793130843
2023-01-28 14:37:15.188332,-0.03591656684875481
2023-01-28 14:37:15.193332,-0.03404659031975664
2023-01-28 14:37:15.198332,-0.03231048583984363
2023-01-28 14:37:15.203332,-0.03056231747977723
2023-01-28 14:37:15.208332,-0.028632283210754304
2023-01-28 14:37:15.213332,-0.026568608069849384
2023-01-28 14:37:15.218332,-0.02440114878118027
2023-01-28 14:37:15.223332,-0.02186302108712986
2023-01-28 14:37:15.228332,-0.018703540787100677
2023-01-28 14:37:15.233332,-0.015091322788989378
2023-01-28 14:37:15.238332,-0.011347135528922048
2023-01-28 14:37:15.243332,-0.007478274354411752
2023-01-28 14:37:15.248332,-0.003341635223478003
2023-01-28 14:37:15.253332,0.0009909987713325658
2023-01-28 14:37:15.258332,0.00548124313354487
2023-01-28 14:37:15.263332,0.010506504188394444
2023-01-28 14:37:15.268332,0.016515851020812874
2023-01-28 14:37:15.273332,0.023522953150711748
2023-01-28 14:37:15.278332,0.031420987099409055
2023-01-28 14:37:15.283332,0.040497585858418596
2023-01-28 14:37:15.288332,0.05098998546600337
2023-01-28 14:37:15.293332,0.06234912980368143
2023-01-28 14:37:15.298332,0.07366021722555159
2023-01-28 14:37:15.303332,0.08462686295105117
2023-01-28 14:37:15.308332,0.09534478187561027
2023-01-28 14:37:15.313332,0.1052388913496112
2023-01-28 14:37:15.318332,0.11325498670339575
2023-01-28 14:37:15.323332,0.11929652136827924
2023-01-28 14:37:15.328332,0.12448191642761226
2023-01-28 14:37:15.333332,0.12949648985577653
2023-01-28 14:37:15.338332,0.13342499732971183
2023-01-28 14:37:15.343332,0.13470419481018286
2023-01-28 14:37:15.348332,0.13255953788757316
2023-01-28 14:37:15.353332,0.1269274363515644
2023-01-28 14:37:15.358332,0.1175822839140892
2023-01-28 14:37:15.363332,0.10417830952290762
2023-01-28 14:37:15.368332,0.08697867393493647
2023-01-28 14:37:15.373332,0.06695109442220418
2023-01-28 14:37:15.378332,0.04524429887533181
2023-01-28 14:37:15.383332,0.023005681528388718
2023-01-28 14:37:15.388332,0.0015385946026071431
2023-01-28 14:37:15.393332,-0.01791637558936329
2023-01-28 14:37:15.398332,-0.03466646000742909
2023-01-28 14:37:15.403332,-0.04861509033188123
2023-01-28 14:37:15.408332,-0.05990902706980693
2023-01-28 14:37:15.413332,-0.06878021673851724
2023-01-28 14:37:15.418332,-0.07560750097036353
2023-01-28 14:37:15.423332,-0.08079729400093708
2023-01-28 14:37:15.428332,-0.08457462489604939
2023-01-28 14:37:15.433332,-0.08706053291832211
2023-01-28 14:37:15.438332,-0.08849322795867909
2023-01-28 14:37:15.443332,-0.08919726762638754
2023-01-28 14:37:15.448332,-0.08940677344799033
2023-01-28 14:37:15.453332,-0.08928393945676605
2023-01-28 14:37:15.458332,-0.08902212232351303
2023-01-28 14:37:15.463332,-0.08874670870595948
2023-01-28 14:37:15.468332,-0.08837302774190894
2023-01-28 14:37:15.473332,-0.087719502216659
2023-01-28 14:37:15.478332,-0.08671423047780995
2023-01-28 14:37:15.483332,-0.08538272866024886
2023-01-28 14:37:15.488332,-0.08373320102691648
2023-01-28 14:37:15.493332,-0.0817992855420681
2023-01-28 14:37:15.498332,-0.07971843332052228
2023-01-28 14:37:15.503332,-0.07763005116505915
2023-01-28 14:37:15.508332,-0.07555942237377157
2023-01-28 14:37:15.513332,-0.07351742295326716
2023-01-28 14:37:15.518332,-0.07164081186056127
2023-01-28 14:37:15.523332,-0.07011577134768561
2023-01-28 14:37:15.528332,-0.06902039051055894
2023-01-28 14:37:15.533332,-0.06832632497265101
2023-01-28 14:37:15.538332,-0.06796260923147203
2023-01-28 14:37:15.543332,-0.06777282956818051
2023-01-28 14:37:15.548332,-0.06750583648681635
2023-01-28 14:37:15.553332,-0.06699207970954686
2023-01-28 14:37:15.558332,-0.06630381196737284
2023-01-28 14:37:15.563332,-0.06567049675762085
2023-01-28 14:37:15.568332,-0.06529410928487771
2023-01-28 14:37:15.573332,-0.06529618970043201
2023-01-28 14:37:15.578332,-0.06572683900594706
2023-01-28 14:37:15.583332,-0.06650133611702272
2023-01-28 14:37:15.588332,-0.06738563627004614
2023-01-28 14:37:15.593332,-0.06814905912206017
2023-01-28 14:37:15.598332,-0.06870786845684049
2023-01-28 14:37:15.603332,-0.06908033058644587
2023-01-28 14:37:15.608332,-0.06928484141826619
2023-01-28 14:37:15.613332,-0.0693550576541391
2023-01-28 14:37:15.618332,-0.06938099861145006
2023-01-28 14:37:15.623332,-0.0694564847737569
2023-01-28 14:37:15.628332,-0.06964544951915734
2023-01-28 14:37:15.633332,-0.07006114777408767
2023-01-28 14:37:15.638332,-0.07089555263519276
2023-01-28 14:37:15.643332,-0.07226318413002862
2023-01-28 14:37:15.648332,-0.07402082532644269
2023-01-28 14:37:15.653332,-0.07575921506285069
2023-01-28 14:37:15.658332,-0.07690569013357158
2023-01-28 14:37:15.663332,-0.07681337198076592
2023-01-28 14:37:15.668332,-0.07488628476858135
2023-01-28 14:37:15.673332,-0.07078730591860447
2023-01-28 14:37:15.678332,-0.06459693610668177
2023-01-28 14:37:15.683332,-0.056821330641983546
2023-01-28 14:37:15.688332,-0.04834552854299541
2023-01-28 14:37:15.693332,-0.040401488126705465
2023-01-28 14:37:15.698332,-0.0344260558485984
2023-01-28 14:37:15.703332,-0.03172064833795369
2023-01-28 14:37:15.708332,-0.03305574506521225
2023-01-28 14:37:15.713332,-0.038410345513600626
2023-01-28 14:37:15.718332,-0.046903096139430875
2023-01-28 14:37:15.723332,-0.056947676904679174
2023-01-28 14:37:15.728332,-0.06668846309185018
2023-01-28 14:37:15.733332,-0.0745972416274807
2023-01-28 14:37:15.738332,-0.0799107551574707
2023-01-28 14:37:15.743332,-0.08270401030656038
2023-01-28 14:37:15.748332,-0.08368512243032447
2023-01-28 14:37:15.753332,-0.08387810499749493
2023-01-28 14:37:15.758332,-0.08426209539175022
2023-01-28 14:37:15.763332,-0.08543484853472516
2023-01-28 14:37:15.768332,-0.08741140365600575
2023-01-28 14:37:15.773332,-0.08956331992111878
2023-01-28 14:37:15.778332,-0.09060879796743387
2023-01-28 14:37:15.783332,-0.08870580505259533
2023-01-28 14:37:15.788332,-0.08185803890228269
2023-01-28 14:37:15.793332,-0.068673979146563
2023-01-28 14:37:15.798332,-0.04916290566325181
2023-01-28 14:37:15.803332,-0.02511750540672112
2023-01-28 14:37:15.808332,0.0001923243253257804
2023-01-28 14:37:15.813332,0.02299002359042502
2023-01-28 14:37:15.818332,0.04026790708303449
2023-01-28 14:37:15.823332,0.05073310037802326
2023-01-28 14:37:15.828332,0.0548605136573314
2023-01-28 14:37:15.833332,0.05403759949034753
2023-01-28 14:37:15.838332,0.049427352845668696
2023-01-28 14:37:15.843332,0.04135198228853465
2023-01-28 14:37:15.848332,0.02956986427307121
2023-01-28 14:37:15.853332,0.014148048193657519
2023-01-28 14:37:15.858332,-0.0037743649445473957
2023-01-28 14:37:15.863332,-0.02191265291478492
2023-01-28 14:37:15.868332,-0.037527285516262
2023-01-28 14:37:15.873332,-0.04847629121319183
2023-01-28 14:37:15.878332,-0.054043136537074994
2023-01-28 14:37:15.883332,-0.05505958336028669
2023-01-28 14:37:15.888332,-0.053225755691528265
2023-01-28 14:37:15.893332,-0.050118096989925844
2023-01-28 14:37:15.898332,-0.04666268825530996
2023-01-28 14:37:15.903332,-0.04332173167830717
2023-01-28 14:37:15.908332,-0.04041215032339085
2023-01-28 14:37:15.913332,-0.03801414006326452
2023-01-28 14:37:15.918332,-0.035796366631984634
2023-01-28 14:37:15.923332,-0.033331533471507545
2023-01-28 14:37:15.928332,-0.030603608116507537
2023-01-28 14:37:15.933332,-0.027918363110357204
2023-01-28 14:37:15.938332,-0.02531468868255605
2023-01-28 14:37:15.943332,-0.022413695078948335
2023-01-28 14:37:15.948332,-0.01894394680857646
2023-01-28 14:37:15.953332,-0.015078214236522659
2023-01-28 14:37:15.958332,-0.011082689277827644
2023-01-28 14:37:15.963332,-0.006934661413239501
2023-01-28 14:37:15.968332,-0.0025002162437884816
2023-01-28 14:37:15.973332,0.002188224041115954
2023-01-28 14:37:15.978332,0.007116000168025427
2023-01-28 14:37:15.983332,0.012561949794856616
2023-01-28 14:37:15.988332,0.018919905647635422
2023-01-28 14:37:15.993332,0.02636941358555794
2023-01-28 14:37:15.998332,0.034930907189845935
2023-01-28 14:37:16.003332,0.04467243238887761
2023-01-28 14:37:16.008332,0.055581729859113624
2023-01-28 14:37:16.013332,0.06732616004625512
2023-01-28 14:37:16.018332,0.07938186824321737
2023-01-28 14:37:16.023332,0.09133502392808884
2023-01-28 14:37:16.028332,0.1028694733977317
2023-01-28 14:37:16.033332,0.11357674084262741
2023-01-28 14:37:16.038332,0.12301544845104206
2023-01-28 14:37:16.043332,0.13088332671306718
2023-01-28 14:37:16.048332,0.13691088557243333
2023-01-28 14:37:16.053332,0.1406412782266943
2023-01-28 14:37:16.058332,0.14150261878967274
2023-01-28 14:37:16.063332,0.13903167730609792
2023-01-28 14:37:16.068332,0.13287207484245292
2023-01-28 14:37:16.073332,0.1226989210689055
2023-01-28 14:37:16.078332,0.10842283815145487
2023-01-28 14:37:16.083332,0.09046661204566261
2023-01-28 14:37:16.088332,0.06969352811574928
2023-01-28 14:37:16.093332,0.04713844739685961
2023-01-28 14:37:16.098332,0.023944377899169877
2023-01-28 14:37:16.103332,0.0013833241368796957
2023-01-28 14:37:16.108332,-0.01937667652964586
2023-01-28 14:37:16.113332,-0.03756735746145836
2023-01-28 14:37:16.118332,-0.05279302597045891
2023-01-28 14:37:16.123332,-0.06485352458331535
2023-01-28 14:37:16.128332,-0.07380446046590795
2023-01-28 14:37:16.133332,-0.08008840580169276
2023-01-28 14:37:16.138332,-0.08435826003551479
2023-01-28 14:37:16.143332,-0.08717091072135336
2023-01-28 14:37:16.148332,-0.08895000070333478
2023-01-28 14:37:16.153332,-0.09007767253612875
2023-01-28 14:37:16.158332,-0.0907770842313766
2023-01-28 14:37:16.163332,-0.09098472245777679
2023-01-28 14:37:16.168332,-0.0905607193708419
2023-01-28 14:37:16.173332,-0.0895784303540402
2023-01-28 14:37:16.178332,-0.0882528275251388
2023-01-28 14:37:16.183332,-0.08670279310829505
2023-01-28 14:37:16.188332,-0.08498331159353248
2023-01-28 14:37:16.193332,-0.08323718006602579
2023-01-28 14:37:16.198332,-0.08159359544515597
2023-01-28 14:37:16.203332,-0.08000649551756507
2023-01-28 14:37:16.208332,-0.07839620113372794
2023-01-28 14:37:16.213332,-0.07685375701252742
2023-01-28 14:37:16.218332,-0.07551133632659904
2023-01-28 14:37:16.223332,-0.07433031436915097
2023-01-28 14:37:16.228332,-0.07322748750448219
2023-01-28 14:37:16.233332,-0.07228609732687688
2023-01-28 14:37:16.238332,-0.07161676883697497
2023-01-28 14:37:16.243332,-0.07112725786841331
2023-01-28 14:37:16.248332,-0.07065515220165243
2023-01-28 14:37:16.253332,-0.0702098415267774
2023-01-28 14:37:16.258332,-0.06986181437969197
2023-01-28 14:37:16.263332,-0.06952909867381896
2023-01-28 14:37:16.268332,-0.06911655515432347
2023-01-28 14:37:16.273332,-0.0687394000999112
2023-01-28 14:37:16.278332,-0.06856362521648403
2023-01-28 14:37:16.283332,-0.06854632745421749
2023-01-28 14:37:16.288332,-0.06856362521648394
2023-01-28 14:37:16.293332,-0.06864777113722631
2023-01-28 14:37:16.298332,-0.06885211169719688
2023-01-28 14:37:16.303332,-0.06904221643388075
2023-01-28 14:37:16.308332,-0.0690925121307373
2023-01-28 14:37:16.313332,-0.06914431274507073
2023-01-28 14:37:16.318332,-0.06940504163503636
2023-01-28 14:37:16.323332,-0.06984472323438422
2023-01-28 14:37:16.328332,-0.07034262269735322
2023-01-28 14:37:16.333332,-0.07093465348306148
2023-01-28 14:37:16.338332,-0.07161676883697501
2023-01-28 14:37:16.343332,-0.07210005056981963
2023-01-28 14:37:16.348332,-0.0720975846052169
2023-01-28 14:37:16.353332,-0.07170749816000596
2023-01-28 14:37:16.358332,-0.07123212516307822
2023-01-28 14:37:16.363332,-0.070821702112962
2023-01-28 14:37:16.368332,-0.0705830305814743
2023-01-28 14:37:16.373332,-0.07075044195898919
2023-01-28 14:37:16.378332,-0.07132828235626217
2023-01-28 14:37:16.383332,-0.0717527575080571
2023-01-28 14:37:16.388332,-0.07128020375967017
2023-01-28 14:37:16.393332,-0.0695123730607204
2023-01-28 14:37:16.398332,-0.06623169034719457
2023-01-28 14:37:16.403332,-0.061099286999542354
2023-01-28 14:37:16.408332,-0.054067175835370976
2023-01-28 14:37:16.413332,-0.045904468042370486
2023-01-28 14:37:16.418332,-0.03788789361715308
2023-01-28 14:37:16.423332,-0.03121859611384441
2023-01-28 14:37:16.428332,-0.027093689888715734
2023-01-28 14:37:16.433332,-0.026785760910454003
2023-01-28 14:37:16.438332,-0.030819972977042087
2023-01-28 14:37:16.443332,-0.03822151242809403
2023-01-28 14:37:16.448332,-0.04716753959655756
2023-01-28 14:37:16.453332,-0.05615690360863868
2023-01-28 14:37:16.458332,-0.06409208476543417
2023-01-28 14:37:16.463332,-0.06990203671713657
2023-01-28 14:37:16.468332,-0.07315536588430396
2023-01-28 14:37:16.473332,-0.07474977187741758
2023-01-28 14:37:16.478332,-0.07596810907125465
2023-01-28 14:37:16.483332,-0.07708367313697446
2023-01-28 14:37:16.488332,-0.07786731421947463
2023-01-28 14:37:16.493332,-0.07893997881568592
2023-01-28 14:37:16.498332,-0.08104066550731648
2023-01-28 14:37:16.503332,-0.0830610968826136
2023-01-28 14:37:16.508332,-0.08255521953105911
2023-01-28 14:37:16.513332,-0.07846062889952586
2023-01-28 14:37:16.518332,-0.07149656862020486
2023-01-28 14:37:16.523332,-0.0612902054849972
2023-01-28 14:37:16.528332,-0.045220255851745585
2023-01-28 14:37:16.533332,-0.021736903316986588
2023-01-28 14:37:16.538332,0.006370743270963473
2023-01-28 14:37:16.543332,0.033576532929766444
2023-01-28 14:37:16.548332,0.05572597309947017
2023-01-28 14:37:16.553332,0.07133241255133953
2023-01-28 14:37:16.558332,0.0799107551574707
2023-01-28 14:37:16.563332,0.08111876552280073
2023-01-28 14:37:16.568332,0.0755113363265991
2023-01-28 14:37:16.573332,0.06448160299058732
2023-01-28 14:37:16.578332,0.04906674474477758
2023-01-28 14:37:16.583332,0.02989857750559954
2023-01-28 14:37:16.588332,0.00858247280120836
2023-01-28 14:37:16.593332,-0.011895224474399021
2023-01-28 14:37:16.598332,-0.028584202751517126
2023-01-28 14:37:16.603332,-0.03989059727048333
2023-01-28 14:37:16.608332,-0.0455808639526367
2023-01-28 14:37:16.613332,-0.04643603962766902
2023-01-28 14:37:16.618332,-0.04418651387095446
2023-01-28 14:37:16.623332,-0.04093940634286593
2023-01-28 14:37:16.628332,-0.038032136857509544
2023-01-28 14:37:16.633332,-0.0356208408071454
2023-01-28 14:37:16.638332,-0.0334163531661032
2023-01-28 14:37:16.643332,-0.03132274811281891
2023-01-28 14:37:16.648332,-0.02925733849406239
2023-01-28 14:37:16.653332,-0.026946688308718325
2023-01-28 14:37:16.658332,-0.024232864379882802
2023-01-28 14:37:16.663332,-0.021244557217108096
2023-01-28 14:37:16.668332,-0.018078487366437922
2023-01-28 14:37:16.673332,-0.014640618314512053
2023-01-28 14:37:16.678332,-0.01093844603747121
2023-01-28 14:37:16.683332,-0.007179070060913493
2023-01-28 14:37:16.688332,-0.003413756843656292
2023-01-28 14:37:16.693332,0.0006219815350403574
2023-01-28 14:37:16.698332,0.0051927566528320165
2023-01-28 14:37:16.703332,0.010368527541654113
2023-01-28 14:37:16.708332,0.016227364540100018
2023-01-28 14:37:16.713332,0.022936588253080748
2023-01-28 14:37:16.718332,0.03050744533538806
2023-01-28 14:37:16.723332,0.03874331263099945
2023-01-28 14:37:16.728332,0.04755219072103499
2023-01-28 14:37:16.733332,0.05707400200722071
2023-01-28 14:37:16.738332,0.06740967929363247
2023-01-28 14:37:16.743332,0.07845190004288363
2023-01-28 14:37:16.748332,0.09003182500600812
2023-01-28 14:37:16.753332,0.1019511401041013
2023-01-28 14:37:16.758332,0.1137598380446433
2023-01-28 14:37:16.763332,0.12473892855713006
2023-01-28 14:37:16.768332,0.13421833515167225
2023-01-28 14:37:16.773332,0.1417380408896565
2023-01-28 14:37:16.778332,0.14686366915702803
2023-01-28 14:37:16.783332,0.14909310736081294
2023-01-28 14:37:16.788332,0.14804165065288535
2023-01-28 14:37:16.793332,0.143518098241625
2023-01-28 14:37:16.798332,0.13534824550151814
2023-01-28 14:37:16.803332,0.12334916670000043
2023-01-28 14:37:16.808332,0.10760545730590816
2023-01-28 14:37:16.813332,0.08863556763188217
2023-01-28 14:37:16.818332,0.06724139302968969
2023-01-28 14:37:16.823332,0.04437558324954787
2023-01-28 14:37:16.828332,0.021203756332397433
2023-01-28 14:37:16.833332,-0.0009452946009451845
2023-01-28 14:37:16.838332,-0.020891230553388464
2023-01-28 14:37:16.843332,-0.03785709826544208
2023-01-28 14:37:16.848332,-0.05147079750895496
2023-01-28 14:37:16.853332,-0.061736346187767695
2023-01-28 14:37:16.858332,-0.06909251213073732
2023-01-28 14:37:16.863332,-0.07431958802983132
2023-01-28 14:37:16.868332,-0.0782038792967796
2023-01-28 14:37:16.873332,-0.08125587026771477
2023-01-28 14:37:16.878332,-0.08368512243032444
2023-01-28 14:37:16.883332,-0.08548399089456021
2023-01-28 14:37:16.888332,-0.08649786561727515
2023-01-28 14:37:16.893332,-0.0865719947465944
2023-01-28 14:37:16.898332,-0.08575260639190671
2023-01-28 14:37:16.903332,-0.08432519172645678
2023-01-28 14:37:16.908332,-0.08265137672424305
2023-01-28 14:37:16.913332,-0.08102476626549747
2023-01-28 14:37:16.918332,-0.07964631170034406
2023-01-28 14:37:16.923332,-0.07859560007439258
2023-01-28 14:37:16.928332,-0.0777711495757102
2023-01-28 14:37:16.933332,-0.07693640205720982
2023-01-28 14:37:16.938332,-0.0758719444274902
2023-01-28 14:37:16.943332,-0.07446239886190362
2023-01-28 14:37:16.948332,-0.07267455756664266
2023-01-28 14:37:16.953332,-0.07055456671936423
2023-01-28 14:37:16.958332,-0.0682751387357711
2023-01-28 14:37:16.963332,-0.06612382070938719
2023-01-28 14:37:16.968332,-0.06440460681915278
2023-01-28 14:37:16.973332,-0.06333969521067581
2023-01-28 14:37:16.978332,-0.0630102604627609
2023-01-28 14:37:16.983332,-0.06332131122182451
2023-01-28 14:37:16.988332,-0.06401996314525593
2023-01-28 14:37:16.993332,-0.06478696470701972
2023-01-28 14:37:16.998332,-0.06534218788146968
2023-01-28 14:37:17.003332,-0.0655189437771827
2023-01-28 14:37:17.008332,-0.06531815230846397
2023-01-28 14:37:17.013332,-0.06490257028173815
2023-01-28 14:37:17.018332,-0.06447672843933096
2023-01-28 14:37:17.023332,-0.06415490260519803
2023-01-28 14:37:17.028332,-0.06397187709808339
2023-01-28 14:37:17.033332,-0.06396729086320661
2023-01-28 14:37:17.038332,-0.06416420638561238
2023-01-28 14:37:17.043332,-0.06449993519152059
2023-01-28 14:37:17.048332,-0.06488542258739471
2023-01-28 14:37:17.053332,-0.06530074227004114
2023-01-28 14:37:17.058332,-0.06572683900594709
2023-01-28 14:37:17.063332,-0.06604691290735976
2023-01-28 14:37:17.068332,-0.06615956872701631
2023-01-28 14:37:17.073332,-0.06613110585613285
2023-01-28 14:37:17.078332,-0.06608744710683817
2023-01-28 14:37:17.083332,-0.06604632699164018
2023-01-28 14:37:17.088332,-0.06603936851024617
2023-01-28 14:37:17.093332,-0.0662735296353156
2023-01-28 14:37:17.098332,-0.0669048279523849
2023-01-28 14:37:17.103332,-0.06773021241036639
2023-01-28 14:37:17.108332,-0.06834726035594937
2023-01-28 14:37:17.113332,-0.06846749844095058
2023-01-28 14:37:17.118332,-0.06774624437093721
2023-01-28 14:37:17.123332,-0.06550540031311078
2023-01-28 14:37:17.128332,-0.061135094612836796
2023-01-28 14:37:17.133332,-0.0547239354231142
2023-01-28 14:37:17.138332,-0.04687905311584467
2023-01-28 14:37:17.143332,-0.03817113590309899
2023-01-28 14:37:17.148332,-0.029473703354597054
2023-01-28 14:37:17.153332,-0.022660750879867825
2023-01-28 14:37:17.158332,-0.01983344554901114
2023-01-28 14:37:17.163332,-0.021454698881228217
2023-01-28 14:37:17.168332,-0.02608398720622059
2023-01-28 14:37:17.173332,-0.03233066519669068
2023-01-28 14:37:17.178332,-0.04009962081909169
2023-01-28 14:37:17.183332,-0.04928185697651122
2023-01-28 14:37:17.188332,-0.058274269104003885
2023-01-28 14:37:17.193332,-0.06502209935655553
2023-01-28 14:37:17.198332,-0.06909251213073722
2023-01-28 14:37:17.203332,-0.07164355158274557
2023-01-28 14:37:17.208332,-0.07361213862895957
2023-01-28 14:37:17.213332,-0.0749831147249299
2023-01-28 14:37:17.218332,-0.07570366561412807
2023-01-28 14:37:17.223332,-0.07615510086552808
2023-01-28 14:37:17.228332,-0.07642488181591024
2023-01-28 14:37:17.233332,-0.07587848315022364
2023-01-28 14:37:17.238332,-0.07366021722555158
2023-01-28 14:37:17.243332,-0.06893149688105023
2023-01-28 14:37:17.248332,-0.06046196073293677
2023-01-28 14:37:17.253332,-0.04682267086671427
2023-01-28 14:37:17.258332,-0.027574500069022064
2023-01-28 14:37:17.263332,-0.004051613066691634
2023-01-28 14:37:17.268332,0.021131634712219228
2023-01-28 14:37:17.273332,0.0449911209883018
2023-01-28 14:37:17.278332,0.06471713632345191
2023-01-28 14:37:17.283332,0.0782116703779757
2023-01-28 14:37:17.288332,0.0846948251128196
2023-01-28 14:37:17.293332,0.08456780974431677
2023-01-28 14:37:17.298332,0.07846832275390615
2023-01-28 14:37:17.303332,0.0667583374917735
2023-01-28 14:37:17.308332,0.05007644742727268
2023-01-28 14:37:17.313332,0.029998900479664452
2023-01-28 14:37:17.318332,0.008919040672481036
2023-01-28 14:37:17.323332,-0.010490260708458488
2023-01-28 14:37:17.328332,-0.025747418403625398
2023-01-28 14:37:17.333332,-0.03521274199056971
2023-01-28 14:37:17.338332,-0.03884951397776596
2023-01-28 14:37:17.343332,-0.03821894373957899
2023-01-28 14:37:17.348332,-0.035435758531093445
2023-01-28 14:37:17.353332,-0.032110092385987825
2023-01-28 14:37:17.358332,-0.029113095253705874
2023-01-28 14:37:17.363332,-0.026759906282088283
2023-01-28 14:37:17.368332,-0.024857919663190804
2023-01-28 14:37:17.373332,-0.022882882674354798
2023-01-28 14:37:17.378332,-0.020482540130615148
2023-01-28 14:37:17.383332,-0.017746950266126684
2023-01-28 14:37:17.388332,-0.014905135147273459
2023-01-28 14:37:17.393332,-0.012011227113644489
2023-01-28 14:37:17.398332,-0.009063283912837495
2023-01-28 14:37:17.403332,-0.006128743565655635
2023-01-28 14:37:17.408332,-0.003125270362943368
2023-01-28 14:37:17.413332,0.00029796300115239187
2023-01-28 14:37:17.418332,0.004447500221431222
2023-01-28 14:37:17.423332,0.009321432089091815
2023-01-28 14:37:17.428332,0.01478493213653562
2023-01-28 14:37:17.433332,0.0207796277425052
2023-01-28 14:37:17.438332,0.027213891968131027
2023-01-28 14:37:17.443332,0.03391097914994616
2023-01-28 14:37:17.448332,0.04089295864105219
2023-01-28 14:37:17.453332,0.04854052892700768
2023-01-28 14:37:17.458332,0.057288609445094965
2023-01-28 14:37:17.463332,0.06730690030869471
2023-01-28 14:37:17.468332,0.0785644873976707
2023-01-28 14:37:17.473332,0.09092824146047242
2023-01-28 14:37:17.478332,0.10397534072399121
2023-01-28 14:37:17.483332,0.11690099197232058
2023-01-28 14:37:17.488332,0.12883326411247245
2023-01-28 14:37:17.493332,0.13913357681707955
2023-01-28 14:37:17.498332,0.1472963988780974
2023-01-28 14:37:17.503332,0.15279136294760595
2023-01-28 14:37:17.508332,0.15520572662353502
2023-01-28 14:37:17.513332,0.15437916773207
2023-01-28 14:37:17.518332,0.15022933483123763
2023-01-28 14:37:17.523332,0.1426092281551289
2023-01-28 14:37:17.528332,0.1315017640590666
2023-01-28 14:37:17.533332,0.11719982908688206
2023-01-28 14:37:17.538332,0.10015289485454548
2023-01-28 14:37:17.543332,0.08082264134466982
2023-01-28 14:37:17.548332,0.059860944747924805
2023-01-28 14:37:17.553332,0.03825154784220551
2023-01-28 14:37:17.558332,0.01706878468394269
2023-01-28 14:37:17.563332,-0.0028132421748263423
2023-01-28 14:37:17.568332,-0.020698904991149864
2023-01-28 14:37:17.573332,-0.0360146806517235
2023-01-28 14:37:17.578332,-0.0485138110816478
2023-01-28 14:37:17.583332,-0.058409227836282475
2023-01-28 14:37:17.588332,-0.0661114901304244
2023-01-28 14:37:17.593332,-0.07192653719340125
2023-01-28 14:37:17.598332,-0.07611235231161101
2023-01-28 14:37:17.603332,-0.07902510841018878
2023-01-28 14:37:17.608332,-0.08099257946014397
2023-01-28 14:37:17.613332,-0.08216324949282132
2023-01-28 14:37:17.618332,-0.08265137672424307
2023-01-28 14:37:17.623332,-0.08269717114108383
2023-01-28 14:37:17.628332,-0.08250713348388669
2023-01-28 14:37:17.633332,-0.0820651395948469
2023-01-28 14:37:17.638332,-0.08128106594085685
2023-01-28 14:37:17.643332,-0.08020866947011186
2023-01-28 14:37:17.648332,-0.07894913852214804
2023-01-28 14:37:17.653332,-0.07747239944253008
2023-01-28 14:37:17.658332,-0.07572770118713368
2023-01-28 14:37:17.663332,-0.07382592368072836
2023-01-28 14:37:17.668332,-0.0719292983412742
2023-01-28 14:37:17.673332,-0.07005795765411418
2023-01-28 14:37:17.678332,-0.06817897409200657
2023-01-28 14:37:17.683332,-0.06638337141645909
2023-01-28 14:37:17.688332,-0.06478925794363015
2023-01-28 14:37:17.693332,-0.06335603460780827
2023-01-28 14:37:17.698332,-0.06197651475667951
2023-01-28 14:37:17.703332,-0.06068513344667913
2023-01-28 14:37:17.708332,-0.05962054058909399
2023-01-28 14:37:17.713332,-0.058870582750425775
2023-01-28 14:37:17.718332,-0.05851467698812477
2023-01-28 14:37:17.723332,-0.05871348366775347
2023-01-28 14:37:17.728332,-0.05954841896891584
2023-01-28 14:37:17.733332,-0.0608158474918769
2023-01-28 14:37:17.738332,-0.06214479729533188
2023-01-28 14:37:17.743332,-0.0632740943819967
2023-01-28 14:37:17.748332,-0.06409208476543413
2023-01-28 14:37:17.753332,-0.0645275786625521
2023-01-28 14:37:17.758332,-0.06462097167968746
2023-01-28 14:37:17.763332,-0.06464621272130648
2023-01-28 14:37:17.768332,-0.06493350118398651
2023-01-28 14:37:17.773332,-0.06554794705941205
2023-01-28 14:37:17.778332,-0.06627976894378657
2023-01-28 14:37:17.783332,-0.06691364668247016
2023-01-28 14:37:17.788332,-0.06733755767345417
2023-01-28 14:37:17.793332,-0.06741887050770368
2023-01-28 14:37:17.798332,-0.06700098514556879
2023-01-28 14:37:17.803332,-0.06611688547337607
2023-01-28 14:37:17.808332,-0.06510178744792933
2023-01-28 14:37:17.813332,-0.06442294650948226
2023-01-28 14:37:17.818332,-0.0644046068191528
2023-01-28 14:37:17.823332,-0.06503665120373982
2023-01-28 14:37:17.828332,-0.06589512526988982
2023-01-28 14:37:17.833332,-0.06621449398823767
2023-01-28 14:37:17.838332,-0.06514986604452126
2023-01-28 14:37:17.843332,-0.062095491783464254
2023-01-28 14:37:17.848332,-0.056879919022321715
2023-01-28 14:37:17.853332,-0.049842557522207315
2023-01-28 14:37:17.858332,-0.04185458272695543
2023-01-28 14:37:17.863332,-0.03420151103418654
2023-01-28 14:37:17.868332,-0.028271675109863222
2023-01-28 14:37:17.873332,-0.0252147610793115
2023-01-28 14:37:17.878332,-0.025723379105329514
2023-01-28 14:37:17.883332,-0.029867278946799677
2023-01-28 14:37:17.888332,-0.03695031255483619
2023-01-28 14:37:17.893332,-0.04560795350056585
2023-01-28 14:37:17.898332,-0.054259501397609745
2023-01-28 14:37:17.903332,-0.061628250343841146
2023-01-28 14:37:17.908332,-0.06700098514556882
2023-01-28 14:37:17.913332,-0.07025634173476694
2023-01-28 14:37:17.918332,-0.07180909812450396
2023-01-28 14:37:17.923332,-0.07240631360995177
2023-01-28 14:37:17.928332,-0.0727466791868209
2023-01-28 14:37:17.933332,-0.073195145846547
2023-01-28 14:37:17.938332,-0.073804460465908
2023-01-28 14:37:17.943332,-0.07443138348622234
2023-01-28 14:37:17.948332,-0.07466991990804664
2023-01-28 14:37:17.953332,-0.07372033332809264
2023-01-28 14:37:17.958332,-0.07046282291412345
2023-01-28 14:37:17.963332,-0.06371827421076215
2023-01-28 14:37:17.968332,-0.052552621811628314
2023-01-28 14:37:17.973332,-0.03665836913394523
2023-01-28 14:37:17.978332,-0.016780298203229876
2023-01-28 14:37:17.983332,0.005174339892783416
2023-01-28 14:37:17.988332,0.026612877845764094
2023-01-28 14:37:17.993332,0.045037686757855695
2023-01-28 14:37:17.998332,0.05861083790659899
2023-01-28 14:37:18.003332,0.06633209997989775
2023-01-28 14:37:18.008332,0.0679626092314719
2023-01-28 14:37:18.013332,0.06379161526047304
2023-01-28 14:37:18.018332,0.05437970161437971
2023-01-28 14:37:18.023332,0.040558213649675906
2023-01-28 14:37:18.028332,0.023728013038635178
2023-01-28 14:37:18.033332,0.006008953047503534
2023-01-28 14:37:18.038332,-0.010169148445129313
2023-01-28 14:37:18.043332,-0.022823617810042045
2023-01-28 14:37:18.048332,-0.0309882573783397
2023-01-28 14:37:18.053332,-0.03485677638876952
2023-01-28 14:37:18.058332,-0.03555595874786373
2023-01-28 14:37:18.063332,-0.034596934153281314
2023-01-28 14:37:18.068332,-0.03317594528198237
2023-01-28 14:37:18.073332,-0.03176882586695049
2023-01-28 14:37:18.078332,-0.03029108047485351
2023-01-28 14:37:18.083332,-0.0285203740144875
2023-01-28 14:37:18.088332,-0.026324391365051207
2023-01-28 14:37:18.093332,-0.023672524363209324
2023-01-28 14:37:18.098332,-0.020650824531912786
2023-01-28 14:37:18.103332,-0.017456837326865336
2023-01-28 14:37:18.108332,-0.014256040565669512
2023-01-28 14:37:18.113332,-0.011053039306530926
2023-01-28 14:37:18.118332,-0.007765094749629417
2023-01-28 14:37:18.123332,-0.004342398077682827
2023-01-28 14:37:18.128332,-0.0007212162017822052
2023-01-28 14:37:18.133332,0.0032423649919707184
2023-01-28 14:37:18.138332,0.00764489173889157
2023-01-28 14:37:18.143332,0.012394561012454048
2023-01-28 14:37:18.148332,0.01733323000371449
2023-01-28 14:37:18.153332,0.022476799790102368
2023-01-28 14:37:18.158332,0.0280553102493286
2023-01-28 14:37:18.163332,0.03439375579068506
2023-01-28 14:37:18.168332,0.041854582726955365
2023-01-28 14:37:18.173332,0.050770387758102845
2023-01-28 14:37:18.178332,0.06120721623301497
2023-01-28 14:37:18.183332,0.07276502605856937
2023-01-28 14:37:18.188332,0.08471886813640594
2023-01-28 14:37:18.193332,0.0963574928220946
2023-01-28 14:37:18.198332,0.10714869201183301
2023-01-28 14:37:18.203332,0.11671571535058248
2023-01-28 14:37:18.208332,0.12484252452850332
2023-01-28 14:37:18.213332,0.13145852664056368
2023-01-28 14:37:18.218332,0.13643006980419145
2023-01-28 14:37:18.223332,0.13933147831753387
2023-01-28 14:37:18.228332,0.13950726389884932
2023-01-28 14:37:18.233332,0.1363400530858826
2023-01-28 14:37:18.238332,0.12941023707389823
2023-01-28 14:37:18.243332,0.1185491660291143
2023-01-28 14:37:18.248332,0.10397534072399124
2023-01-28 14:37:18.253332,0.08639662739044002
2023-01-28 14:37:18.258332,0.06683270633220667
2023-01-28 14:37:18.263332,0.04630627955909409
2023-01-28 14:37:18.268332,0.02574741840362539
2023-01-28 14:37:18.273332,0.0060632690837030215
2023-01-28 14:37:18.278332,-0.011924108490347791
2023-01-28 14:37:18.283332,-0.027637364549656304
2023-01-28 14:37:18.288332,-0.04074871540069576
2023-01-28 14:37:18.293332,-0.051102667968381976
2023-01-28 14:37:18.298332,-0.05880316346883766
2023-01-28 14:37:18.303332,-0.06433095370843768
2023-01-28 14:37:18.308332,-0.06837129592895501
2023-01-28 14:37:18.313332,-0.07147267068259486
2023-01-28 14:37:18.318332,-0.07392466068267815
2023-01-28 14:37:18.323332,-0.07583958451365877
2023-01-28 14:37:18.328332,-0.07714609801769245
2023-01-28 14:37:18.333332,-0.07757614309037604
2023-01-28 14:37:18.338332,-0.07692973315715784
2023-01-28 14:37:18.343332,-0.07540844798845697
2023-01-28 14:37:18.348332,-0.07354001700878135
2023-01-28 14:37:18.353332,-0.07179926080286077
2023-01-28 14:37:18.358332,-0.0704628229141235
2023-01-28 14:37:18.363332,-0.06971785338144891
2023-01-28 14:37:18.368332,-0.06957332789897906
2023-01-28 14:37:18.373332,-0.06963564976831037
2023-01-28 14:37:18.378332,-0.06930887699127189
2023-01-28 14:37:18.383332,-0.06835552314128347
2023-01-28 14:37:18.388332,-0.06702502816915507
2023-01-28 14:37:18.393332,-0.06554323879612126
2023-01-28 14:37:18.398332,-0.06377955526113512
2023-01-28 14:37:18.403332,-0.06160199481785583
2023-01-28 14:37:18.408332,-0.05928397178649898
2023-01-28 14:37:18.413332,-0.05727649098551105
2023-01-28 14:37:18.418332,-0.05572597309947009
2023-01-28 14:37:18.423332,-0.05446280247713353
2023-01-28 14:37:18.428332,-0.05334595963358866
2023-01-28 14:37:18.433332,-0.0523607964757533
2023-01-28 14:37:18.438332,-0.051446758210659006
2023-01-28 14:37:18.443332,-0.05050496825631421
2023-01-28 14:37:18.448332,-0.04961967468261706
2023-01-28 14:37:18.453332,-0.04909717606526148
2023-01-28 14:37:18.458332,-0.04923502728342997
2023-01-28 14:37:18.463332,-0.05014015621474889
2023-01-28 14:37:18.468332,-0.05173524469137184
2023-01-28 14:37:18.473332,-0.053785023648790266
2023-01-28 14:37:18.478332,-0.055894255638122406
2023-01-28 14:37:18.483332,-0.05762121953953342
2023-01-28 14:37:18.488332,-0.058682959526777115
2023-01-28 14:37:18.493332,-0.05903865635774927
2023-01-28 14:37:18.498332,-0.05880316346883766
2023-01-28 14:37:18.503332,-0.05815525219695637
2023-01-28 14:37:18.508332,-0.05731264874339095
2023-01-28 14:37:18.513332,-0.05649243174729471
2023-01-28 14:37:18.518332,-0.055846177041530595
2023-01-28 14:37:18.523332,-0.05544818329898237
2023-01-28 14:37:18.528332,-0.05531728267669665
2023-01-28 14:37:18.533332,-0.055384378702788103
2023-01-28 14:37:18.538332,-0.055437486618757206
2023-01-28 14:37:18.543332,-0.05514810916642359
2023-01-28 14:37:18.548332,-0.054163336753845194
2023-01-28 14:37:18.553332,-0.05217377846332591
2023-01-28 14:37:18.558332,-0.04897058010101303
2023-01-28 14:37:18.563332,-0.04455627643517045
2023-01-28 14:37:18.568332,-0.039258204400539315
2023-01-28 14:37:18.573332,-0.033734986990061
2023-01-28 14:37:18.578332,-0.02887268923223009
2023-01-28 14:37:18.583332,-0.025627957903085388
2023-01-28 14:37:18.588332,-0.02480983734130854
2023-01-28 14:37:18.593332,-0.026806012429483033
2023-01-28 14:37:18.598332,-0.03139694780111303
2023-01-28 14:37:18.603332,-0.0378132022533655
2023-01-28 14:37:18.608332,-0.04500389099121091
2023-01-28 14:37:18.613332,-0.05195093361170143
2023-01-28 14:37:18.618332,-0.0579136610031127
2023-01-28 14:37:18.623332,-0.06255673036473115
2023-01-28 14:37:18.628332,-0.06591916084289548
2023-01-28 14:37:18.633332,-0.06824573271315913
2023-01-28 14:37:18.638332,-0.06981372833251948
2023-01-28 14:37:18.643332,-0.07086397757646071
2023-01-28 14:37:18.648332,-0.07159273326396937
2023-01-28 14:37:18.653332,-0.07209939614453272
2023-01-28 14:37:18.658332,-0.0722658634185791
2023-01-28 14:37:18.663332,-0.07161357206742897
2023-01-28 14:37:18.668332,-0.06921271979808799
2023-01-28 14:37:18.673332,-0.06377964823614143
2023-01-28 14:37:18.678332,-0.054091215133666916
2023-01-28 14:37:18.683332,-0.03962596219480072
2023-01-28 14:37:18.688332,-0.021083554252982115
2023-01-28 14:37:18.693332,-0.0004455055519234795
2023-01-28 14:37:18.698332,0.01949687860906111
2023-01-28 14:37:18.703332,0.03596735568797007
2023-01-28 14:37:18.708332,0.04704733937978734
2023-01-28 14:37:18.713332,0.05212948039841217
2023-01-28 14:37:18.718332,0.05173524469137183
2023-01-28 14:37:18.723332,0.04688799082991199
2023-01-28 14:37:18.728332,0.03856102749705308
2023-01-28 14:37:18.733332,0.027551558588629215
2023-01-28 14:37:18.738332,0.014688770286738753
2023-01-28 14:37:18.743332,0.001072569570121147
2023-01-28 14:37:18.748332,-0.011876027099788088
2023-01-28 14:37:18.753332,-0.022651540162726493
2023-01-28 14:37:18.758332,-0.030146837234496994
2023-01-28 14:37:18.763332,-0.034095548798418994
2023-01-28 14:37:18.768332,-0.035099189728498355
2023-01-28 14:37:18.773332,-0.03419539496632998
2023-01-28 14:37:18.778332,-0.03233452886343001
2023-01-28 14:37:18.783332,-0.030102799099812654
2023-01-28 14:37:18.788332,-0.027694702148437465
2023-01-28 14:37:18.793332,-0.025013334332605542
2023-01-28 14:37:18.798332,-0.021876892074942457
2023-01-28 14:37:18.803332,-0.018264520049769202
2023-01-28 14:37:18.808332,-0.014400283806025906
2023-01-28 14:37:18.813332,-0.010607724009403066
2023-01-28 14:37:18.818332,-0.007140040397643986
2023-01-28 14:37:18.823332,-0.00415127262756215
2023-01-28 14:37:18.828332,-0.00170687842182807
2023-01-28 14:37:18.833332,0.0002758088458136664
2023-01-28 14:37:18.838332,0.002043446060270033
2023-01-28 14:37:18.843332,0.003883153832234079
2023-01-28 14:37:18.848332,0.0060101351700723475
2023-01-28 14:37:18.853332,0.00861132511005728
2023-01-28 14:37:18.858332,0.01192410849034778
2023-01-28 14:37:18.863332,0.01619310478472489
2023-01-28 14:37:18.868332,0.021588405594229594
2023-01-28 14:37:18.873332,0.02821497192923749
2023-01-28 14:37:18.878332,0.03613293170928945
2023-01-28 14:37:18.883332,0.045287565838807074
2023-01-28 14:37:18.888332,0.05546152591705318
2023-01-28 14:37:18.893332,0.06636050966230352
2023-01-28 14:37:18.898332,0.07769902795553192
2023-01-28 14:37:18.903332,0.08914772593697803
2023-01-28 14:37:18.908332,0.10027309507131563
2023-01-28 14:37:18.913332,0.11062490986002442
2023-01-28 14:37:18.918332,0.1198420971632002
2023-01-28 14:37:18.923332,0.12759826482800232
2023-01-28 14:37:18.928332,0.13349711894989008
2023-01-28 14:37:18.933332,0.13710306453267457
2023-01-28 14:37:18.938332,0.13801674544811232
2023-01-28 14:37:18.943332,0.13583309644814154
2023-01-28 14:37:18.948332,0.1301074028015135
2023-01-28 14:37:18.953332,0.12052933607117554
2023-01-28 14:37:18.958332,0.10717272758483876
2023-01-28 14:37:18.963332,0.090545721462856
2023-01-28 14:37:18.968332,0.07147252559661857
2023-01-28 14:37:18.973332,0.05101770860307647
2023-01-28 14:37:18.978332,0.030411284416913903
2023-01-28 14:37:18.983332,0.010797267680488509
2023-01-28 14:37:18.988332,-0.007067918777465768
2023-01-28 14:37:18.993332,-0.022860235684513265
2023-01-28 14:37:18.998332,-0.036493539810180574
2023-01-28 14:37:19.003332,-0.047982571635464
2023-01-28 14:37:19.008332,-0.05743285268545143
2023-01-28 14:37:19.013332,-0.06497157722791591
2023-01-28 14:37:19.018332,-0.07063110917806616
2023-01-28 14:37:19.023332,-0.07441460520054399
2023-01-28 14:37:19.028332,-0.07652103900909418
2023-01-28 14:37:19.033332,-0.07740723868417003
2023-01-28 14:37:19.038332,-0.07757882773876187
2023-01-28 14:37:19.043332,-0.07738269120407307
2023-01-28 14:37:19.048332,-0.07700185477733605
2023-01-28 14:37:19.053332,-0.07652730914827621
2023-01-28 14:37:19.058332,-0.0759681090712547
2023-01-28 14:37:19.063332,-0.07527373756797606
2023-01-28 14:37:19.068332,-0.0744295120239257
2023-01-28 14:37:19.073332,-0.07351494825122405
2023-01-28 14:37:19.078332,-0.07265051454305638
2023-01-28 14:37:19.083332,-0.07191880508890933
2023-01-28 14:37:19.088332,-0.07132828235626212
2023-01-28 14:37:19.093332,-0.07078681065007095
2023-01-28 14:37:19.098332,-0.07010221481323237
2023-01-28 14:37:19.103332,-0.06907955500612874
2023-01-28 14:37:19.108332,-0.06765007972717277
2023-01-28 14:37:19.113332,-0.06587957141625839
2023-01-28 14:37:19.118332,-0.06387571990489949
2023-01-28 14:37:19.123332,-0.0617565995447412
2023-01-28 14:37:19.128332,-0.05969266220927229
2023-01-28 14:37:19.133332,-0.05788397190135589
2023-01-28 14:37:19.138332,-0.056471228599548284
2023-01-28 14:37:19.143332,-0.05552054494085629
2023-01-28 14:37:19.148332,-0.05507687851786606
2023-01-28 14:37:19.153332,-0.05514041253529907
2023-01-28 14:37:19.158332,-0.0555817298591136
2023-01-28 14:37:19.163332,-0.05616893613934115
2023-01-28 14:37:19.168332,-0.0567116364836691
2023-01-28 14:37:19.173332,-0.057138032983915885
2023-01-28 14:37:19.178332,-0.05745689198374736
2023-01-28 14:37:19.183332,-0.05773482921328557
2023-01-28 14:37:19.188332,-0.058105986565351334
2023-01-28 14:37:19.193332,-0.05869677643500886
2023-01-28 14:37:19.198332,-0.05950033664703352
2023-01-28 14:37:19.203332,-0.06037468193289453
2023-01-28 14:37:19.208332,-0.061159133911132715
2023-01-28 14:37:19.213332,-0.06173293996572297
2023-01-28 14:37:19.218332,-0.06200055405497548
2023-01-28 14:37:19.223332,-0.06194176358312098
2023-01-28 14:37:19.228332,-0.06168802827596659
2023-01-28 14:37:19.233332,-0.061444316750632805
2023-01-28 14:37:19.238332,-0.06130337715148917
2023-01-28 14:37:19.243332,-0.06119212775426686
2023-01-28 14:37:19.248332,-0.060966812074184376
2023-01-28 14:37:19.253332,-0.06044562772548935
2023-01-28 14:37:19.258332,-0.05935609340667715
2023-01-28 14:37:19.263332,-0.057388057940170614
2023-01-28 14:37:19.268332,-0.05435566231608391
2023-01-28 14:37:19.273332,-0.05027166726696531
2023-01-28 14:37:19.278332,-0.045340459793805944
2023-01-28 14:37:19.283332,-0.04005793399768528
2023-01-28 14:37:19.288332,-0.03533959388732905
2023-01-28 14:37:19.293332,-0.032363500475023024
2023-01-28 14:37:19.298332,-0.032118164002895314
2023-01-28 14:37:19.303332,-0.035012325515342474
2023-01-28 14:37:19.308332,-0.04074871540069577
2023-01-28 14:37:19.313332,-0.04836659680906968
2023-01-28 14:37:19.318332,-0.05644718930125226
2023-01-28 14:37:19.323332,-0.06358254188855345
2023-01-28 14:37:19.328332,-0.0689001902937889
2023-01-28 14:37:19.333332,-0.07222800200019885
2023-01-28 14:37:19.338332,-0.07387658208608623
2023-01-28 14:37:19.343332,-0.0744122426993231
2023-01-28 14:37:19.348332,-0.07454971969127647
2023-01-28 14:37:19.353332,-0.07494684395760788
2023-01-28 14:37:19.358332,-0.07589598745107644
2023-01-28 14:37:19.363332,-0.07717714413367224
2023-01-28 14:37:19.368332,-0.07805963605642309
2023-01-28 14:37:19.373332,-0.07721005141921312
2023-01-28 14:37:19.378332,-0.07269859313964838
2023-01-28 14:37:19.383332,-0.06261984123521291
2023-01-28 14:37:19.388332,-0.04622995853424075
2023-01-28 14:37:19.393332,-0.02475770608518105
2023-01-28 14:37:19.398332,-0.0012981891632079959
2023-01-28 14:37:19.403332,0.020059109215941447
2023-01-28 14:37:19.408332,0.03553191944956766
2023-01-28 14:37:19.413332,0.04308152764602385
2023-01-28 14:37:19.418332,0.04327297210693345
2023-01-28 14:37:19.423332,0.03873337893073906
2023-01-28 14:37:19.428332,0.03243068978190418
2023-01-28 14:37:19.433332,0.026113220206056158
2023-01-28 14:37:19.438332,0.019905567169189415
2023-01-28 14:37:19.443332,0.012873437572234456
2023-01-28 14:37:19.448332,0.003966689109802204
2023-01-28 14:37:19.453332,-0.006999929306469873
2023-01-28 14:37:19.458332,-0.01882374286651612
2023-01-28 14:37:19.463332,-0.029447165911770042
2023-01-28 14:37:19.468332,-0.037238799035549074
2023-01-28 14:37:19.473332,-0.04179772074998743
2023-01-28 14:37:19.478332,-0.043681662529706934
2023-01-28 14:37:19.483332,-0.04375352019984502
2023-01-28 14:37:19.488332,-0.042840242385864175
2023-01-28 14:37:19.493332,-0.041505564195586354
2023-01-28 14:37:19.498332,-0.03976305574178689
2023-01-28 14:37:19.503332,-0.03719764156185511
2023-01-28 14:37:19.508332,-0.03358463570475564
2023-01-28 14:37:19.513332,-0.029211237760005292
2023-01-28 14:37:19.518332,-0.024521350860595693
2023-01-28 14:37:19.523332,-0.019819764253163362
2023-01-28 14:37:19.528332,-0.015506148338317781
2023-01-28 14:37:19.533332,-0.012162894944458864
2023-01-28 14:37:19.538332,-0.010048946365713992
2023-01-28 14:37:19.543332,-0.00876549875391747
2023-01-28 14:37:19.548332,-0.0076689324341714165
2023-01-28 14:37:19.553332,-0.006301757970409717
2023-01-28 14:37:19.558332,-0.004207094665616709
2023-01-28 14:37:19.563332,-0.0007889289043770067
2023-01-28 14:37:19.568332,0.004231135360896526
2023-01-28 14:37:19.573332,0.010558426028826218
2023-01-28 14:37:19.578332,0.01788616180419918
2023-01-28 14:37:19.583332,0.026344037139100548
2023-01-28 14:37:19.588332,0.03603677079081527
2023-01-28 14:37:19.593332,0.046593667646505736
2023-01-28 14:37:19.598332,0.057625174522399854
2023-01-28 14:37:19.603332,0.06915338073023096
2023-01-28 14:37:19.608332,0.08106470108032211
2023-01-28 14:37:19.613332,0.09262889338804385
2023-01-28 14:37:19.618332,0.10318200290203089
2023-01-28 14:37:19.623332,0.11280473752365376
2023-01-28 14:37:19.628332,0.12164513766765579
2023-01-28 14:37:19.633332,0.12909628415425456
2023-01-28 14:37:19.638332,0.13443470001220692
2023-01-28 14:37:19.643332,0.13767883880939963
2023-01-28 14:37:19.648332,0.13881008327007288
2023-01-28 14:37:19.653332,0.13673119695575553
2023-01-28 14:37:19.658332,0.13027569651603688
2023-01-28 14:37:19.663332,0.11980321262443942
2023-01-28 14:37:19.668332,0.10635535418987259
2023-01-28 14:37:19.673332,0.08970844404204159
2023-01-28 14:37:19.678332,0.06926079839467998
2023-01-28 14:37:19.683332,0.0468433012224958
2023-01-28 14:37:19.688332,0.02625226974487295
2023-01-28 14:37:19.693332,0.00907359240802422
2023-01-28 14:37:19.698332,-0.006995797157287494
2023-01-28 14:37:19.703332,-0.024340394788918907
2023-01-28 14:37:19.708332,-0.04171033948659891
2023-01-28 14:37:19.713332,-0.05602346026136355
2023-01-28 14:37:19.718332,-0.06644805520772931
2023-01-28 14:37:19.723332,-0.07455616603494308
2023-01-28 14:37:19.728332,-0.0812329873442649
2023-01-28 14:37:19.733332,-0.08573636323255893
2023-01-28 14:37:19.738332,-0.08774797618389119
2023-01-28 14:37:19.743332,-0.08831826353065025
2023-01-28 14:37:19.748332,-0.08834898471832266
2023-01-28 14:37:19.753332,-0.08769346190874622
2023-01-28 14:37:19.758332,-0.08628150075674047
2023-01-28 14:37:19.763332,-0.08484683641257006
2023-01-28 14:37:19.768332,-0.08392553031444536
2023-01-28 14:37:19.773332,-0.08313973754260919
2023-01-28 14:37:19.778332,-0.08205036818981172
2023-01-28 14:37:19.783332,-0.08088263165114509
2023-01-28 14:37:19.788332,-0.079886719584465
2023-01-28 14:37:19.793332,-0.0787489091540018
2023-01-28 14:37:19.798332,-0.07719417661428452
2023-01-28 14:37:19.803332,-0.07554833502306445
2023-01-28 14:37:19.808332,-0.07418911159038534
2023-01-28 14:37:19.813332,-0.07297634319766307
2023-01-28 14:37:19.818332,-0.07168889045715329
2023-01-28 14:37:19.823332,-0.07052318917248242
2023-01-28 14:37:19.828332,-0.06969352811574932
2023-01-28 14:37:19.833332,-0.06897406258254467
2023-01-28 14:37:19.838332,-0.06808280944824213
2023-01-28 14:37:19.843332,-0.06714798965481748
2023-01-28 14:37:19.848332,-0.0663999766111373
2023-01-28 14:37:19.853332,-0.06576747863257645
2023-01-28 14:37:19.858332,-0.06517390906810759
2023-01-28 14:37:19.863332,-0.06489602954171798
2023-01-28 14:37:19.868332,-0.06522198766469951
2023-01-28 14:37:19.873332,-0.0660180300311631
2023-01-28 14:37:19.878332,-0.06697694957256312
2023-01-28 14:37:19.883332,-0.06802038577332344
2023-01-28 14:37:19.888332,-0.06911655515432352
2023-01-28 14:37:19.893332,-0.06997769614876066
2023-01-28 14:37:19.898332,-0.07031857967376698
2023-01-28 14:37:19.903332,-0.07022490363375714
2023-01-28 14:37:19.908332,-0.06995797157287587
2023-01-28 14:37:19.913332,-0.06960069341109289
2023-01-28 14:37:19.918332,-0.06918867677450176
2023-01-28 14:37:19.923332,-0.06895555406952558
2023-01-28 14:37:19.928332,-0.06909251213073728
2023-01-28 14:37:19.933332,-0.06941151343537086
2023-01-28 14:37:19.938332,-0.06954928487539282
2023-01-28 14:37:19.943332,-0.06937796507784566
2023-01-28 14:37:19.948332,-0.06897231191396708
2023-01-28 14:37:19.953332,-0.0683573025865884
2023-01-28 14:37:19.958332,-0.0675779581069946
2023-01-28 14:37:19.963332,-0.0668529015373872
2023-01-28 14:37:19.968332,-0.06632785499095906
2023-01-28 14:37:19.973332,-0.06574240679902077
2023-01-28 14:37:19.978332,-0.0645728930830955
2023-01-28 14:37:19.983332,-0.06240409291334822
2023-01-28 14:37:19.988332,-0.058971446007490144
2023-01-28 14:37:19.993332,-0.054059470358216656
2023-01-28 14:37:19.998332,-0.04774451255798328
2023-01-28 14:37:20.003332,-0.040740969500784756
2023-01-28 14:37:20.008332,-0.034281812608242014
2023-01-28 14:37:20.013332,-0.029665308855681055
2023-01-28 14:37:20.018332,-0.027983188629150304
2023-01-28 14:37:20.023332,-0.029968779657609787
2023-01-28 14:37:20.028332,-0.035628080368041916
2023-01-28 14:37:20.033332,-0.043946333035388335
2023-01-28 14:37:20.038332,-0.05322575569152825
2023-01-28 14:37:20.043332,-0.061852080498465356
2023-01-28 14:37:20.048332,-0.06877999007701868
2023-01-28 14:37:20.053332,-0.07358168873202615
2023-01-28 14:37:20.058332,-0.07642488181591026
2023-01-28 14:37:20.063332,-0.07800502008232724
2023-01-28 14:37:20.068332,-0.07916550338268281
2023-01-28 14:37:20.073332,-0.08040668090568717
2023-01-28 14:37:20.078332,-0.08178591728210438
2023-01-28 14:37:20.083332,-0.08314409469424265
2023-01-28 14:37:20.088332,-0.08411785215139381
2023-01-28 14:37:20.093332,-0.08385774747163123
2023-01-28 14:37:20.098332,-0.08094450086355198
2023-01-28 14:37:20.103332,-0.07374401241000743
2023-01-28 14:37:20.108332,-0.0609427690505981
2023-01-28 14:37:20.113332,-0.042075962658608655
2023-01-28 14:37:20.118332,-0.01805444620549674
2023-01-28 14:37:20.123332,0.008598012610056514
2023-01-28 14:37:20.128332,0.03428181260824197
2023-01-28 14:37:20.133332,0.05553308850603573
2023-01-28 14:37:20.138332,0.07010221481323237
2023-01-28 14:37:20.143332,0.07725383596378291
2023-01-28 14:37:20.148332,0.07738649845123285
2023-01-28 14:37:20.153332,0.07143209446502129
2023-01-28 14:37:20.158332,0.06036579608917224
2023-01-28 14:37:20.163332,0.04505023844704242
2023-01-28 14:37:20.168332,0.02654075622558588
2023-01-28 14:37:20.173332,0.006578446151081152
2023-01-28 14:37:20.178332,-0.012356838211417132
2023-01-28 14:37:20.183332,-0.027737062801102448
2023-01-28 14:37:20.188332,-0.03796001523733132
2023-01-28 14:37:20.193332,-0.04286882678673813
2023-01-28 14:37:20.198332,-0.04356145858764643
2023-01-28 14:37:20.203332,-0.0417782256463728
2023-01-28 14:37:20.208332,-0.03921012207865712
2023-01-28 14:37:20.213332,-0.036922427392423754
2023-01-28 14:37:20.218332,-0.035123229026794406
2023-01-28 14:37:20.223332,-0.03346568959858905
2023-01-28 14:37:20.228332,-0.0316373519599437
2023-01-28 14:37:20.233332,-0.029638840564988934
2023-01-28 14:37:20.238332,-0.027550458908081006
2023-01-28 14:37:20.243332,-0.02528366905939335
2023-01-28 14:37:20.248332,-0.022718310356140137
2023-01-28 14:37:20.253332,-0.019865237329746956
2023-01-28 14:37:20.258332,-0.01663605496287342
2023-01-28 14:37:20.263332,-0.012652466827756876
2023-01-28 14:37:20.268332,-0.007668932434171414
2023-01-28 14:37:20.273332,-0.002053817583366097
2023-01-28 14:37:20.278332,0.0036301217041908983
2023-01-28 14:37:20.283332,0.009430233764403847
2023-01-28 14:37:20.288332,0.01572251319885251
2023-01-28 14:37:20.293332,0.022101416008504793
2023-01-28 14:37:20.298332,0.027526419609785004
2023-01-28 14:37:20.303332,0.03209881094279546
2023-01-28 14:37:20.308332,0.037767689675092586
2023-01-28 14:37:20.313332,0.04625851495473659
2023-01-28 14:37:20.318332,0.056855879724025685
2023-01-28 14:37:20.323332,0.06742650005045134
2023-01-28 14:37:20.328332,0.07733841985464092
2023-01-28 14:37:20.333332,0.08791767659188357
2023-01-28 14:37:20.338332,0.09981632232666007
2023-01-28 14:37:20.343332,0.11142145563587079
2023-01-28 14:37:20.348332,0.1207075566053389
2023-01-28 14:37:20.353332,0.1275969360832801
2023-01-28 14:37:20.358332,0.13337692618370042
2023-01-28 14:37:20.363332,0.13839122539614632
2023-01-28 14:37:20.368332,0.14145454764366136
2023-01-28 14:37:20.373332,0.14132166320854117
2023-01-28 14:37:20.378332,0.13768017292022697
2023-01-28 14:37:20.383332,0.13062527372891056
2023-01-28 14:37:20.388332,0.12005846202373499
2023-01-28 14:37:20.393332,0.10596853106299976
2023-01-28 14:37:20.398332,0.08880575746297825
2023-01-28 14:37:20.403332,0.0693023456022055
2023-01-28 14:37:20.408332,0.048249363899230915
2023-01-28 14:37:20.413332,0.02660554001331735
2023-01-28 14:37:20.418332,0.0055052838288247585
2023-01-28 14:37:20.423332,-0.01404463247959409
2023-01-28 14:37:20.428332,-0.03134886547923075
2023-01-28 14:37:20.433332,-0.04593263961654199
2023-01-28 14:37:20.438332,-0.0575530529022216
2023-01-28 14:37:20.443332,-0.06636796621512091
2023-01-28 14:37:20.448332,-0.07286687940359102
2023-01-28 14:37:20.453332,-0.07755780518547954
2023-01-28 14:37:20.458332,-0.08084833621978747
2023-01-28 14:37:20.463332,-0.08315716028436972
2023-01-28 14:37:20.468332,-0.0848631113767623
2023-01-28 14:37:20.473332,-0.08609842704771081
2023-01-28 14:37:20.478332,-0.08678635209798809
2023-01-28 14:37:20.483332,-0.0868937410904303
2023-01-28 14:37:20.488332,-0.08647382259368887
2023-01-28 14:37:20.493332,-0.08551102750061157
2023-01-28 14:37:20.498332,-0.08397360891103742
2023-01-28 14:37:20.503332,-0.08203519444943644
2023-01-28 14:37:20.508332,-0.0800309628248214
2023-01-28 14:37:20.513332,-0.07817533497335616
2023-01-28 14:37:20.518332,-0.07649700343608849
2023-01-28 14:37:20.523332,-0.0750128604007509
2023-01-28 14:37:20.528332,-0.07373233884572972
2023-01-28 14:37:20.533332,-0.07249670191505773
2023-01-28 14:37:20.538332,-0.07106383889913548
2023-01-28 14:37:20.543332,-0.06940605425043171
2023-01-28 14:37:20.548332,-0.0677462443709373
2023-01-28 14:37:20.553332,-0.06629301993926133
2023-01-28 14:37:20.558332,-0.06512582302093503
2023-01-28 14:37:20.563332,-0.0643174384346071
2023-01-28 14:37:20.568332,-0.06392379850149149
2023-01-28 14:37:20.573332,-0.06381441473327482
2023-01-28 14:37:20.578332,-0.0637314766645431
2023-01-28 14:37:20.583332,-0.06357646066979916
2023-01-28 14:37:20.588332,-0.06346702575683592
2023-01-28 14:37:20.593332,-0.06349000176071488
2023-01-28 14:37:20.598332,-0.06358723342418672
2023-01-28 14:37:20.603332,-0.06370504231321342
2023-01-28 14:37:20.608332,-0.06385167688131327
2023-01-28 14:37:20.613332,-0.06396845133776594
2023-01-28 14:37:20.618332,-0.06394784152507776
2023-01-28 14:37:20.623332,-0.06384443965713908
2023-01-28 14:37:20.628332,-0.06389975547790516
2023-01-28 14:37:20.633332,-0.06430470549217875
2023-01-28 14:37:20.638332,-0.06507774442434303
2023-01-28 14:37:20.643332,-0.06617060540226917
2023-01-28 14:37:20.648332,-0.06748180091381065
2023-01-28 14:37:20.653332,-0.0687210061297926
2023-01-28 14:37:20.658332,-0.06947716325521457
2023-01-28 14:37:20.663332,-0.0695386696248097
2023-01-28 14:37:20.668332,-0.06904443353414531
2023-01-28 14:37:20.673332,-0.06830531759813875
2023-01-28 14:37:20.678332,-0.06762604415416706
2023-01-28 14:37:20.683332,-0.06728246131528795
2023-01-28 14:37:20.688332,-0.06740967929363251
2023-01-28 14:37:20.693332,-0.0677725302141601
2023-01-28 14:37:20.698332,-0.06777028739452359
2023-01-28 14:37:20.703332,-0.0667519280195449
2023-01-28 14:37:20.708332,-0.06426036357879633
2023-01-28 14:37:20.713332,-0.060037426274013185
2023-01-28 14:37:20.718332,-0.05406717583537097
2023-01-28 14:37:20.723332,-0.0467613504680548
2023-01-28 14:37:20.728332,-0.038993757218122364
2023-01-28 14:37:20.733332,-0.031878432554659206
2023-01-28 14:37:20.738332,-0.026564797386527002
2023-01-28 14:37:20.743332,-0.02412697679301067
2023-01-28 14:37:20.748332,-0.02529064938426013
2023-01-28 14:37:20.753332,-0.030029831726825506
2023-01-28 14:37:20.758332,-0.03747920319437978
2023-01-28 14:37:20.763332,-0.046306261515649434
2023-01-28 14:37:20.768332,-0.05514900013804426
2023-01-28 14:37:20.773332,-0.06285492791310472
2023-01-28 14:37:20.778332,-0.06868382543325421
2023-01-28 14:37:20.783332,-0.0725132361136918
2023-01-28 14:37:20.788332,-0.0747660845518112
2023-01-28 14:37:20.793332,-0.07604258367586665
2023-01-28 14:37:20.798332,-0.07685761153697955
2023-01-28 14:37:20.803332,-0.07763849536166645
2023-01-28 14:37:20.808332,-0.0786606520414352
2023-01-28 14:37:20.813332,-0.07976769915516951
2023-01-28 14:37:20.818332,-0.08017520606517792
2023-01-28 14:37:20.823332,-0.078551262681133
2023-01-28 14:37:20.828332,-0.07322748750448224
2023-01-28 14:37:20.833332,-0.06254905045287742
2023-01-28 14:37:20.838332,-0.04558086395263669
2023-01-28 14:37:20.843332,-0.02293178066590992
2023-01-28 14:37:20.848332,0.003029108047485323
2023-01-28 14:37:20.853332,0.028852040541019825
2023-01-28 14:37:20.858332,0.05106210708618159
2023-01-28 14:37:20.863332,0.0670183259646743
2023-01-28 14:37:20.868332,0.07543921470642079
2023-01-28 14:37:20.873332,0.0764840281127128
2023-01-28 14:37:20.878332,0.07120808213949198
2023-01-28 14:37:20.883332,0.06074371265393879
2023-01-28 14:37:20.888332,0.04601359367370598
2023-01-28 14:37:20.893332,0.028171825924396442
2023-01-28 14:37:20.898332,0.009039243683218852
2023-01-28 14:37:20.903332,-0.009067216075555478
2023-01-28 14:37:20.908332,-0.0238962974399328
2023-01-28 14:37:20.913332,-0.03383144649092197
2023-01-28 14:37:20.918332,-0.0384167842566967
2023-01-28 14:37:20.923332,-0.03862705474624893
2023-01-28 14:37:20.928332,-0.036397378891706356
2023-01-28 14:37:20.933332,-0.03355255508874235
2023-01-28 14:37:20.938332,-0.031084418296813906
2023-01-28 14:37:20.943332,-0.029277964712891662
2023-01-28 14:37:20.948332,-0.028079351410269678
2023-01-28 14:37:20.953332,-0.027119806973494233
2023-01-28 14:37:20.958332,-0.02574741840362539
2023-01-28 14:37:20.963332,-0.02347361130248023
2023-01-28 14:37:20.968332,-0.02036233805119995
2023-01-28 14:37:20.973332,-0.01681030730322111
2023-01-28 14:37:20.978332,-0.013102094642817936
2023-01-28 14:37:20.983332,-0.009380742322612661
2023-01-28 14:37:20.988332,-0.005841851234436016
2023-01-28 14:37:20.993332,-0.002617171932986499
2023-01-28 14:37:20.998332,0.0004808108205906857
2023-01-28 14:37:21.003332,0.0038484404277018026
2023-01-28 14:37:21.008332,0.0077650947496293934
2023-01-28 14:37:21.013332,0.012359399118351395
2023-01-28 14:37:21.018332,0.017790000885725
2023-01-28 14:37:21.023332,0.024208654919761954
2023-01-28 14:37:21.028332,0.031589269638061496
2023-01-28 14:37:21.033332,0.03981444011959902
2023-01-28 14:37:21.038332,0.04889845848083489
2023-01-28 14:37:21.043332,0.058924715805140845
2023-01-28 14:37:21.048332,0.0697896927595138
2023-01-28 14:37:21.053332,0.0811800364286359
2023-01-28 14:37:21.058332,0.09274840354919428
2023-01-28 14:37:21.063332,0.10413158767764683
2023-01-28 14:37:21.068332,0.11486570537090293
2023-01-28 14:37:21.073332,0.12451017329340378
2023-01-28 14:37:21.078332,0.13284802436828602
2023-01-28 14:37:21.083332,0.1397846651745213
2023-01-28 14:37:21.088332,0.14506062865257258
2023-01-28 14:37:21.093332,0.1482059995343125
2023-01-28 14:37:21.098332,0.14871478080749506
2023-01-28 14:37:21.103332,0.14609502975958016
2023-01-28 14:37:21.108332,0.13984382152557365
2023-01-28 14:37:21.113332,0.1296500628386421
2023-01-28 14:37:21.118332,0.11568307876586906
2023-01-28 14:37:21.123332,0.0985594414425653
2023-01-28 14:37:21.128332,0.07906933873891828
2023-01-28 14:37:21.133332,0.05808518400369996
2023-01-28 14:37:21.138332,0.036637783050537144
2023-01-28 14:37:21.143332,0.015799601915214075
2023-01-28 14:37:21.148332,-0.0035820405464619016
2023-01-28 14:37:21.153332,-0.020936359485711268
2023-01-28 14:37:21.158332,-0.03584444522857656
2023-01-28 14:37:21.163332,-0.04808983881089972
2023-01-28 14:37:21.168332,-0.0578175000846385
2023-01-28 14:37:21.173332,-0.06542446185923478
2023-01-28 14:37:21.178332,-0.0712561607360839
2023-01-28 14:37:21.183332,-0.07553576223525083
2023-01-28 14:37:21.188332,-0.07851640880107878
2023-01-28 14:37:21.193332,-0.08046873860995578
2023-01-28 14:37:21.198332,-0.08152147382497783
2023-01-28 14:37:21.203332,-0.08172555446122229
2023-01-28 14:37:21.208332,-0.08128106594085688
2023-01-28 14:37:21.213332,-0.08050135432094686
2023-01-28 14:37:21.218332,-0.07955014705657953
2023-01-28 14:37:21.223332,-0.07840663763254484
2023-01-28 14:37:21.228332,-0.07707397639751426
2023-01-28 14:37:21.233332,-0.07560407926875365
2023-01-28 14:37:21.238332,-0.07392466068267821
2023-01-28 14:37:21.243332,-0.07188707326956695
2023-01-28 14:37:21.248332,-0.06952524185180656
2023-01-28 14:37:21.253332,-0.06706530705102369
2023-01-28 14:37:21.258332,-0.06466905772685995
2023-01-28 14:37:21.263332,-0.06238673577188073
2023-01-28 14:37:21.268332,-0.060365796089172266
2023-01-28 14:37:21.273332,-0.05884606523253749
2023-01-28 14:37:21.278332,-0.05788962170481678
2023-01-28 14:37:21.283332,-0.057330679593676194
2023-01-28 14:37:21.288332,-0.05702416226267807
2023-01-28 14:37:21.293332,-0.056916828235749464
2023-01-28 14:37:21.298332,-0.05685587972402565
2023-01-28 14:37:21.303332,-0.0566022867342798
2023-01-28 14:37:21.308332,-0.05611062049865723
2023-01-28 14:37:21.313332,-0.055569556659688824
2023-01-28 14:37:21.318332,-0.055124960839748306
2023-01-28 14:37:21.323332,-0.05481222400699505
2023-01-28 14:37:21.328332,-0.05478839203715319
2023-01-28 14:37:21.333332,-0.05531777722260993
2023-01-28 14:37:21.338332,-0.056423150002956314
2023-01-28 14:37:21.343332,-0.05781037880890991
2023-01-28 14:37:21.348332,-0.05921185016632081
2023-01-28 14:37:21.353332,-0.06052949704003525
2023-01-28 14:37:21.358332,-0.06159186363220205
2023-01-28 14:37:21.363332,-0.062131545789290914
2023-01-28 14:37:21.368332,-0.06214479729533184
2023-01-28 14:37:21.373332,-0.061952919341067114
2023-01-28 14:37:21.378332,-0.0617601498961448
2023-01-28 14:37:21.383332,-0.061460997971192415
2023-01-28 14:37:21.388332,-0.06101489067077625
2023-01-28 14:37:21.393332,-0.060652876503804576
2023-01-28 14:37:21.398332,-0.060534082353114936
2023-01-28 14:37:21.403332,-0.06054703915164935
2023-01-28 14:37:21.408332,-0.060630243271589106
2023-01-28 14:37:21.413332,-0.06088896898734778
2023-01-28 14:37:21.418332,-0.06113509461283674
2023-01-28 14:37:21.423332,-0.06067432328891647
2023-01-28 14:37:21.428332,-0.05882720276713369
2023-01-28 14:37:21.433332,-0.055346009653511066
2023-01-28 14:37:21.438332,-0.050148569047451
2023-01-28 14:37:21.443332,-0.043171760459711626
2023-01-28 14:37:21.448332,-0.03490686416625971
2023-01-28 14:37:21.453332,-0.026694342558709422
2023-01-28 14:37:21.458332,-0.020073851570487012
2023-01-28 14:37:21.463332,-0.016122915802313932
2023-01-28 14:37:21.468332,-0.015602311119437256
2023-01-28 14:37:21.473332,-0.019036281747199457
2023-01-28 14:37:21.478332,-0.026011865586042383
2023-01-28 14:37:21.483332,-0.03486884477461579
2023-01-28 14:37:21.488332,-0.043753784149885136
2023-01-28 14:37:21.493332,-0.051692928197451825
2023-01-28 14:37:21.498332,-0.0582502298057078
2023-01-28 14:37:21.503332,-0.06289279481045985
2023-01-28 14:37:21.508332,-0.06555855274200428
2023-01-28 14:37:21.513332,-0.06723111115057055
2023-01-28 14:37:21.518332,-0.06887614727020258
2023-01-28 14:37:21.523332,-0.07024279658019271
2023-01-28 14:37:21.528332,-0.0707753524184226
2023-01-28 14:37:21.533332,-0.0710640153246184
2023-01-28 14:37:21.538332,-0.07178505510091779
2023-01-28 14:37:21.543332,-0.07152279373505903
2023-01-28 14:37:21.548332,-0.06760200113058087
2023-01-28 14:37:21.553332,-0.059291395510515016
2023-01-28 14:37:21.558332,-0.04815320298075669
2023-01-28 14:37:21.563332,-0.034590532063417126
2023-01-28 14:37:21.568332,-0.016323527321219423
2023-01-28 14:37:21.573332,0.00803398484035127
2023-01-28 14:37:21.578332,0.03538767620921128
2023-01-28 14:37:21.583332,0.060046211897631714
2023-01-28 14:37:21.588332,0.07832407951354975
2023-01-28 14:37:21.593332,0.0895996647814464
2023-01-28 14:37:21.598332,0.09375810623168934
2023-01-28 14:37:21.603332,0.09000902400219055
2023-01-28 14:37:21.608332,0.0784683227539062
2023-01-28 14:37:21.613332,0.061076252971105596
2023-01-28 14:37:21.618332,0.040364068001508664
2023-01-28 14:37:21.623332,0.018553030283780608
2023-01-28 14:37:21.628332,-0.0018030405044554716
2023-01-28 14:37:21.633332,-0.017769665529040007
2023-01-28 14:37:21.638332,-0.02762258052825922
2023-01-28 14:37:21.643332,-0.0318809880638787
2023-01-28 14:37:21.648332,-0.03228644654154767
2023-01-28 14:37:21.653332,-0.030395260499202957
2023-01-28 14:37:21.658332,-0.027430256828665674
2023-01-28 14:37:21.663332,-0.02449380789575958
2023-01-28 14:37:21.668332,-0.022093256935477142
2023-01-28 14:37:21.673332,-0.019899354963764417
2023-01-28 14:37:21.678332,-0.017525553703308105
2023-01-28 14:37:21.683332,-0.015164469254597739
2023-01-28 14:37:21.688332,-0.013078054413199425
2023-01-28 14:37:21.693332,-0.010975087187882555
2023-01-28 14:37:21.698332,-0.008390149101614923
2023-01-28 14:37:21.703332,-0.0052806698135542925
2023-01-28 14:37:21.708332,-0.0018030405044555096
2023-01-28 14:37:21.713332,0.0021144329791708476
2023-01-28 14:37:21.718332,0.006514986511319857
2023-01-28 14:37:21.723332,0.011073466903331261
2023-01-28 14:37:21.728332,0.01548210810869934
2023-01-28 14:37:21.733332,0.019924633044793173
2023-01-28 14:37:21.738332,0.02478579804301258
2023-01-28 14:37:21.743332,0.030175175076766227
2023-01-28 14:37:21.748332,0.036132931709289495
2023-01-28 14:37:21.753332,0.04302076361847291
2023-01-28 14:37:21.758332,0.05125443264842029
2023-01-28 14:37:21.763332,0.06081912537661856
2023-01-28 14:37:21.768332,0.07140040397644047
2023-01-28 14:37:21.773332,0.08277159959596919
2023-01-28 14:37:21.778332,0.09467165172100064
2023-01-28 14:37:21.783332,0.1065118708506403
2023-01-28 14:37:21.788332,0.11763036251068104
2023-01-28 14:37:21.793332,0.12773075906650005
2023-01-28 14:37:21.798332,0.13674259185791005
2023-01-28 14:37:21.803332,0.1443955943168339
2023-01-28 14:37:21.808332,0.15025338530540458
2023-01-28 14:37:21.813332,0.15398920090843088
2023-01-28 14:37:21.818332,0.15525381267070765
2023-01-28 14:37:21.823332,0.15340321157175127
2023-01-28 14:37:21.828332,0.1477531641721725
2023-01-28 14:37:21.833332,0.13808585994740566
2023-01-28 14:37:21.838332,0.12467424571514112
2023-01-28 14:37:21.843332,0.10798138146646011
2023-01-28 14:37:21.848332,0.0886855572462081
2023-01-28 14:37:21.853332,0.0678721632068933
2023-01-28 14:37:21.858332,0.04678289219737051
2023-01-28 14:37:21.863332,0.026330904890038965
2023-01-28 14:37:21.868332,0.00706791877746583
2023-01-28 14:37:21.873332,-0.01051040583219275
2023-01-28 14:37:21.878332,-0.02596378326416006
2023-01-28 14:37:21.883332,-0.039143166971488244
2023-01-28 14:37:21.888332,-0.050100486725568646
2023-01-28 14:37:21.893332,-0.05879387333594739
2023-01-28 14:37:21.898332,-0.06517390906810755
2023-01-28 14:37:21.903332,-0.06952624530024169
2023-01-28 14:37:21.908332,-0.07243414968252179
2023-01-28 14:37:21.913332,-0.0744008934138498
2023-01-28 14:37:21.918332,-0.07572770118713365
2023-01-28 14:37:21.923332,-0.07666310786484277
2023-01-28 14:37:21.928332,-0.07733841985464081
2023-01-28 14:37:21.933332,-0.07756085961090799
2023-01-28 14:37:21.938332,-0.0769778117537498
2023-01-28 14:37:21.943332,-0.07550383665406757
2023-01-28 14:37:21.948332,-0.07339577376842489
2023-01-28 14:37:21.953332,-0.07095729895465143
2023-01-28 14:37:21.958332,-0.06841938197612761
2023-01-28 14:37:21.963332,-0.06605796310681906
2023-01-28 14:37:21.968332,-0.06411612033843983
2023-01-28 14:37:21.973332,-0.06256990437322696
2023-01-28 14:37:21.978332,-0.061207216233014984
2023-01-28 14:37:21.983332,-0.05994974996167374
2023-01-28 14:37:21.988332,-0.05887528508901587
2023-01-28 14:37:21.993332,-0.05794533423446531
2023-01-28 14:37:21.998332,-0.056976079940795794
2023-01-28 14:37:22.003332,-0.05589855587879244
2023-01-28 14:37:22.008332,-0.05481243133544918
2023-01-28 14:37:22.013332,-0.05377417499059146
2023-01-28 14:37:22.018332,-0.05276898667216301
2023-01-28 14:37:22.023332,-0.051896290982510924
2023-01-28 14:37:22.028332,-0.05132655426859851
2023-01-28 14:37:22.033332,-0.051036913709006836
2023-01-28 14:37:22.038332,-0.05082170292735093
2023-01-28 14:37:22.043332,-0.050607998493958015
2023-01-28 14:37:22.048332,-0.050557255744934027
2023-01-28 14:37:22.053332,-0.050839321667563615
2023-01-28 14:37:22.058332,-0.05151887983083715
2023-01-28 14:37:22.063332,-0.052661164846322585
2023-01-28 14:37:22.068332,-0.05428354069590554
2023-01-28 14:37:22.073332,-0.056135661719429776
2023-01-28 14:37:22.078332,-0.05774537846446032
2023-01-28 14:37:22.083332,-0.05875910984001496
2023-01-28 14:37:22.088332,-0.05909164994955064
2023-01-28 14:37:22.093332,-0.05877128781762132
2023-01-28 14:37:22.098332,-0.05788962170481677
2023-01-28 14:37:22.103332,-0.05674014654703927
2023-01-28 14:37:22.108332,-0.05575001239776612
2023-01-28 14:37:22.113332,-0.05515818936361174
2023-01-28 14:37:22.118332,-0.05488455295562737
2023-01-28 14:37:22.123332,-0.05469062973566127
2023-01-28 14:37:22.128332,-0.05423545837402342
2023-01-28 14:37:22.133332,-0.05295834877865817
2023-01-28 14:37:22.138332,-0.050196647644042865
2023-01-28 14:37:22.143332,-0.04558698681145718
2023-01-28 14:37:22.148332,-0.0392822436988353
2023-01-28 14:37:22.153332,-0.0318473390512267
2023-01-28 14:37:22.158332,-0.0242088250815868
2023-01-28 14:37:22.163332,-0.017713903623220215
2023-01-28 14:37:22.168332,-0.01387139223515976
2023-01-28 14:37:22.173332,-0.013737054403333946
2023-01-28 14:37:22.178332,-0.017501514405012072
2023-01-28 14:37:22.183332,-0.024544808571102493
2023-01-28 14:37:22.188332,-0.03363271802663798
2023-01-28 14:37:22.193332,-0.043119353112897954
2023-01-28 14:37:22.198332,-0.05142271518707265
2023-01-28 14:37:22.203332,-0.05765368083363857
2023-01-28 14:37:22.208332,-0.0617841891944408
2023-01-28 14:37:22.213332,-0.06423226166322314
2023-01-28 14:37:22.218332,-0.06548643112182607
2023-01-28 14:37:22.223332,-0.06609882708737817
2023-01-28 14:37:22.228332,-0.06664037704467769
2023-01-28 14:37:22.233332,-0.06739287045122522
2023-01-28 14:37:22.238332,-0.06820301711559289
2023-01-28 14:37:22.243332,-0.0687099358547259
2023-01-28 14:37:22.248332,-0.06846746057271952
2023-01-28 14:37:22.253332,-0.066676595810137
2023-01-28 14:37:22.258332,-0.06202459335327141
2023-01-28 14:37:22.263332,-0.05308810046941004
2023-01-28 14:37:22.268332,-0.038993757218122406
2023-01-28 14:37:22.273332,-0.01984611655604181
2023-01-28 14:37:22.278332,0.0031012296676634983
2023-01-28 14:37:22.283332,0.027481080462086346
2023-01-28 14:37:22.288332,0.05029281228780737
2023-01-28 14:37:22.293332,0.0687975688582396
2023-01-28 14:37:22.298332,0.08120894432067866
2023-01-28 14:37:22.303332,0.08673285317287979
2023-01-28 14:37:22.308332,0.08527179807424538
2023-01-28 14:37:22.313332,0.07727538490475236
2023-01-28 14:37:22.318332,0.06373147666454307
2023-01-28 14:37:22.323332,0.04613048848850677
2023-01-28 14:37:22.328332,0.026468634605407656
2023-01-28 14:37:22.333332,0.007230370898644982
2023-01-28 14:37:22.338332,-0.009015202522277813
2023-01-28 14:37:22.343332,-0.02043043897700384
2023-01-28 14:37:22.348332,-0.02651671692728989
2023-01-28 14:37:22.353332,-0.02802186911852243
2023-01-28 14:37:22.358332,-0.026396512985229374
2023-01-28 14:37:22.363332,-0.023262684489786214
2023-01-28 14:37:22.368332,-0.019977688789367582
2023-01-28 14:37:22.373332,-0.01730186316754896
2023-01-28 14:37:22.378332,-0.015409986488520934
2023-01-28 14:37:22.383332,-0.014250254003856214
2023-01-28 14:37:22.388332,-0.013775229454040437
2023-01-28 14:37:22.393332,-0.013775926390336837
2023-01-28 14:37:22.398332,-0.013703107833862308
2023-01-28 14:37:22.403332,-0.012856252555945455
2023-01-28 14:37:22.408332,-0.01072208117693666
2023-01-28 14:37:22.413332,-0.007123572546175445
2023-01-28 14:37:22.418332,-0.0022598109208047056
2023-01-28 14:37:22.423332,0.003247090058709948
2023-01-28 14:37:22.428332,0.008534392341971305
2023-01-28 14:37:22.433332,0.013007269794100681
2023-01-28 14:37:22.438332,0.016732215881347615
2023-01-28 14:37:22.443332,0.020328928612134464
2023-01-28 14:37:22.448332,0.0245934724807739
2023-01-28 14:37:22.453332,0.030238431837911063
2023-01-28 14:37:22.458332,0.03771960735321041
2023-01-28 14:37:22.463332,0.04703911644591495
2023-01-28 14:37:22.468332,0.057745378464460304
2023-01-28 14:37:22.473332,0.0692551447480596
2023-01-28 14:37:22.478332,0.08113682270050038
2023-01-28 14:37:22.483332,0.09304133351694391
2023-01-28 14:37:22.488332,0.10452827066183086
2023-01-28 14:37:22.493332,0.11511934617439223
2023-01-28 14:37:22.498332,0.12443383783102027
2023-01-28 14:37:22.503332,0.13216321318288626
2023-01-28 14:37:22.508332,0.1380407810211181
2023-01-28 14:37:22.513332,0.1419825043599828
2023-01-28 14:37:22.518332,0.14414708316326133
2023-01-28 14:37:22.523332,0.14467770745662845
2023-01-28 14:37:22.528332,0.1434018313884735
2023-01-28 14:37:22.533332,0.13984098376943455
2023-01-28 14:37:22.538332,0.1334009617567062
2023-01-28 14:37:22.543332,0.12348518019180206
2023-01-28 14:37:22.548332,0.10964890569448471
2023-01-28 14:37:22.553332,0.09193352070766458
2023-01-28 14:37:22.558332,0.07108788192272175
2023-01-28 14:37:22.563332,0.04838449946065125
2023-01-28 14:37:22.568332,0.025266608223319
2023-01-28 14:37:22.573332,0.0031773990454977506
2023-01-28 14:37:22.578332,-0.016539892181754074
2023-01-28 14:37:22.583332,-0.03290388966824499
2023-01-28 14:37:22.588332,-0.04553278535604464
2023-01-28 14:37:22.593332,-0.05458963470969509
2023-01-28 14:37:22.598332,-0.060606203973293304
2023-01-28 14:37:22.603332,-0.06443906397210997
2023-01-28 14:37:22.608332,-0.0671692714095115
2023-01-28 14:37:22.613332,-0.06970630011228234
2023-01-28 14:37:22.618332,-0.07238607108592979
2023-01-28 14:37:22.623332,-0.07498764199129807
2023-01-28 14:37:22.628332,-0.07704993337392801
