-24.81
-29.62
-33.35
-35.17
-34.36
-30.63
-24.27
-16.15
-7.51
0.47
6.96
11.71
14.91
16.99
18.35
19.22
19.6
19.42
18.73
17.62
16.33
15.06
13.94
13
12.2
11.48
10.77
10.05
9.23
8.21
6.89
5.21
3.13
0.67
-2.17
-5.4
-9.03
-13.08
-17.48
-22.08
-26.51
-30.23
-32.5
-32.66
-30.27
-25.39
-18.6
-10.86
-3.16
3.71
9.36
13.77
17.11
19.48
20.87
21.22
20.47
18.8
16.59
14.33
12.52
11.43
11.11
11.34
11.82
12.16
12.1
11.47
10.27
8.59
6.59
4.38
2.05
-0.4
-3.05
-6.04
-9.5
-13.57
-18.16
-22.98
-27.44
-30.69
-31.9
-30.47
-26.3
-19.88
-12.13
-4.21
2.93
8.72
13.02
16.03
18.01
19.14
19.45
18.9
17.53
15.57
13.46
11.7
10.62
10.31
10.52
10.84
10.87
10.39
9.41
8.05
6.45
4.67
2.69
0.44
-2.12
-5.01
-8.26
-11.89
-15.95
-20.34
-24.69
-28.33
-30.33
-29.87
-26.55
-20.66
-13.09
-5.07
2.3
8.35
12.95
16.28
18.61
20.03
20.46
19.78
18.03
15.51
12.73
10.3
8.65
8
8.2
8.9
9.57
9.74
9.1
7.59
5.39
2.84
0.26
-2.15
-4.4
-6.74
-9.47
-12.91
-17.14
-21.93
-26.68
-30.53
-32.53
-32
-28.7
-22.95
-15.59
-7.64
-0.08
6.43
11.62
15.51
18.26
20
20.8
20.67
19.7
18.08
16.12
14.18
12.58
11.49
10.87
10.51
10.15
9.53
8.54
7.21
5.69
4.12
2.55
0.88
-1.06
-3.51
-6.61
-10.39
-14.76
-19.48
-24.16
-28.25
-31.07
-31.92
-30.29
-26.05
-19.58
-11.72
-3.52
4.03
10.26
14.95
18.2
20.26
21.36
21.61
21.03
19.69
17.75
15.56
13.53
11.98
11.05
10.61
10.39
10.04
9.32
8.16
6.64
4.93
3.12
1.25
-0.74
-2.98
-5.53
-8.48
-11.89
-15.82
-20.22
-24.85
-29.14
-32.29
-33.44
-31.91
-27.54
-20.77
-12.54
-4.05
3.61
9.7
13.98
16.63
18.08
18.76
18.98
18.87
18.42
17.58
16.39
14.97
13.51
12.2
11.11
10.22
9.41
8.53
7.46
6.2
4.79
3.33
1.8
0.13
-1.85
-4.31
-7.34
-10.95
-15.05
-19.53
-24.17
-28.58
-32.17
-34.17
-33.85
-30.82
-25.17
-17.57
-9.08
-0.81
6.34
11.9
15.84
18.4
19.91
20.66
20.82
20.51
19.77
18.73
17.52
16.32
15.29
14.51
13.95
13.48
12.93
12.11
10.92
9.38
7.54
5.55
3.48
1.32
-1.01
-3.67
-6.77
-10.35
-14.41
-18.83
-23.41
-27.73
-31.15
-32.9
-32.21
-28.7
-22.52
-14.48
-5.79
2.3
8.87
13.57
16.57
18.32
19.24
19.57
19.3
18.36
16.79
14.86
12.97
11.57
10.88
10.81
10.99
10.95
10.32
9.07
7.38
5.64
4.13
2.92
1.82
0.53
-1.25
-3.68
-6.74
-10.31
-14.2
-18.22
-22
-25.04
-26.71
-26.41
-23.81
-19.02
-12.61
-5.42
1.64
7.87
12.86
16.48
18.75
19.75
19.6
18.47
16.64
14.43
12.2
10.26
8.81
7.93
7.54
7.46
7.43
7.19
6.52
5.36
3.77
1.94
0.04
-1.81
-3.68
-5.74
-8.21
-11.31
-15.08
-19.4
-23.86
-27.81
-30.43
-30.92
-28.76
-23.94
-17.02
-9.03
-1.12
5.71
10.97
14.59
16.81
17.94
18.2
17.66
16.38
14.52
12.4
10.41
8.88
7.94
7.5
7.3
7.07
6.62
5.9
4.99
4.01
3
1.92
0.62
-1.06
-3.27
-6.1
-9.58
-13.68
-18.32
-23.21
-27.83
-31.44
-33.18
-32.35
-28.67
-22.46
-14.57
-6.15
1.71
8.23
13.09
16.33
18.19
18.92
18.72
17.73
16.13
14.15
12.1
10.29
8.96
8.24
8.05
8.14
8.16
7.77
6.8
5.26
3.34
1.26
-0.82
-2.93
-5.2
-7.84
-10.98
-14.68
-18.85
-23.29
-27.59
-31.15
-33.16
-32.87
-29.83
-24.15
-16.52
-8.03
0.2
7.3
12.87
16.89
19.57
21.16
21.84
21.75
21.02
19.78
18.17
16.38
14.61
13.03
11.75
10.76
9.97
9.18
8.23
7.01
5.56
3.97
2.31
0.56
-1.37
-3.66
-6.45
-9.84
-13.84
-18.34
-23.08
-27.63
-31.37
-33.56
-33.55
-30.94
-25.8
-18.72
-10.63
-2.64
4.33
9.76
13.55
15.94
17.33
18.04
18.22
17.88
16.99
15.6
13.95
12.36
11.15
10.48
10.27
10.28
10.16
9.66
8.68
7.26
5.51
3.52
1.36
-0.93
-3.34
-5.86
-8.56
-11.6
-15.16
-19.36
-24.02
-28.6
-32.23
-33.94
-32.95
-29
-22.45
-14.23
-5.55
2.48
9.1
14.03
17.34
19.33
20.25
20.31
19.57
18.08
15.98
13.52
11.06
8.96
7.51
6.82
6.74
6.99
7.22
7.15
6.66
5.75
4.53
3.08
1.42
-0.53
-2.88
-5.74
-9.17
-13.15
-17.54
-22
-25.99
-28.75
-29.54
-27.79
-23.38
-16.73
-8.74
-0.48
7.06
13.21
17.76
20.76
22.43
22.92
22.32
20.69
18.19
15.15
12.01
9.22
7.1
5.72
4.94
4.47
4.01
3.38
2.55
1.59
0.57
-0.54
-1.88
-3.64
-5.97
-8.91
-12.39
-16.34
-20.64
-25.07
-29.2
-32.33
-33.57
-32.21
-27.97
-21.3
-13.23
-5.03
2.24
8
12.24
15.24
17.29
18.53
18.87
18.21
16.63
14.43
12.06
10.02
8.62
7.86
7.54
7.32
6.89
6.12
5.05
3.8
2.48
1.13
-0.35
-2.11
-4.32
-7.08
-10.44
-14.4
-18.84
-23.47
-27.79
-31.07
-32.5
-31.45
-27.71
-21.63
-14.06
-6.08
1.31
7.49
12.26
15.73
18.1
19.52
20.04
19.65
18.45
16.68
14.71
12.93
11.64
10.92
10.62
10.44
10.07
9.3
8.15
6.77
5.36
4.05
2.77
1.25
-0.83
-3.78
-7.7
-12.46
-17.61
-22.51
-26.36
-28.39
-28.08
-25.24
-20.19
-13.62
-6.44
0.54
6.7
11.79
15.73
18.59
20.4
21.18
20.94
19.84
18.13
16.18
14.36
12.91
11.91
11.25
10.7
10
8.98
7.62
6.03
4.38
2.79
1.24
-0.41
-2.43
-5.09
-8.56
-12.81
-17.61
-22.48
-26.71
-29.56
-30.3
-28.5
-24.12
-17.61
-9.8
-1.68
5.81
12.04
16.7
19.81
21.57
22.21
21.94
20.9
19.24
17.16
14.94
12.9
11.33
10.35
9.87
9.61
9.24
8.45
7.17
5.52
3.71
1.96
0.37
-1.18
-2.92
-5.15
-8.11
-11.94
-16.57
-21.63
-26.48
-30.23
-31.9
-30.7
-26.41
-19.44
-10.85
-1.98
5.95
12.2
16.61
19.44
21.11
21.91
21.92
21.14
19.61
17.59
15.5
13.77
12.68
12.23
12.18
12.18
11.96
11.37
10.41
9.17
7.73
6.12
4.3
2.21
-0.18
-2.9
-5.97
-9.42
-13.33
-17.67
-22.28
-26.69
-30.16
-31.81
-30.93
-27.2
-20.87
-12.77
-4.01
4.23
11.11
16.19
19.48
21.25
21.91
21.78
21.09
19.95
18.44
16.67
14.86
13.23
11.99
11.18
10.72
10.37
9.93
9.25
8.36
7.37
6.4
5.44
4.39
3.04
1.26
-1
-3.74
-6.93
-10.58
-14.67
-19.04
-23.23
-26.51
-28.01
-27.02
-23.29
-17.14
-9.42
-1.23
6.39
12.71
17.37
20.37
21.88
22.16
21.49
20.09
18.2
16.09
14.02
12.24
10.92
10.13
9.79
9.72
9.72
9.61
9.3
8.7
7.78
6.5
4.81
2.72
0.29
-2.37
-5.16
-8.02
-11.01
-14.26
-17.84
-21.67
-25.3
-28.02
-28.97
-27.42
-23.1
-16.42
-8.33
-0.1
7.12
12.65
16.36
18.53
19.55
19.76
19.3
18.16
16.4
14.2
11.85
9.7
7.97
6.75
5.92
5.29
4.69
4.04
3.34
2.61
1.89
1.12
0.21
-0.92
-2.34
-4.09
-6.24
-8.86
-11.99
-15.55
-19.25
-22.59
-24.91
-25.54
-24.01
-20.25
-14.61
-7.83
-0.86
5.46
10.52
14.09
16.21
17.05
16.77
15.5
13.44
10.84
8.12
5.73
4
3.06
2.76
2.82
2.88
2.69
2.14
1.29
0.31
-0.68
-1.6
-2.56
-3.75
-5.39
-7.59
-10.35
-13.47
-16.67
-19.6
-21.87
-23.05
-22.71
-20.52
-16.41
-10.73
-4.19
2.29
7.84
11.93
14.47
15.68
15.95
15.55
14.62
13.17
11.27
9.1
7
5.25
4.06
3.46
3.27
3.23
3.1
2.69
1.92
0.84
-0.45
-1.8
-3.14
-4.55
-6.18
-8.32
-11.16
-14.72
-18.68
-22.46
-25.27
-26.39
-25.28
-21.85
-16.47
-9.86
-2.95
3.36
8.37
11.76
13.51
13.86
13.22
11.98
10.43
8.78
7.11
5.52
4.12
3.06
2.45
2.31
2.5
2.72
2.67
2.13
1.1
-0.26
-1.7
-3.08
-4.36
-5.7
-7.33
-9.48
-12.26
-15.66
-19.48
-23.35
-26.68
-28.77
-28.95
-26.79
-22.26
-15.9
-8.6
-1.44
4.71
9.29
12.26
13.88
14.57
14.72
14.51
13.98
13.06
11.74
10.11
8.45
7.05
6.13
5.73
5.68
5.67
5.42
4.77
3.71
2.35
0.8
-0.85
-2.64
-4.65
-6.97
-9.67
-12.78
-16.27
-20.06
-23.92
-27.43
-29.97
-30.88
-29.61
-26.02
-20.45
-13.68
-6.71
-0.45
4.51
7.97
10.1
11.27
11.87
12.18
12.32
12.24
11.82
10.96
9.73
8.32
7.06
6.22
5.94
6.11
6.51
6.85
6.88
6.44
5.4
3.74
1.47
-1.26
-4.2
-7.04
-9.58
-11.8
-13.89
-16.19
-19.01
-22.46
-26.29
-29.84
-32.25
-32.68
-30.57
-25.91
-19.24
-11.52
-3.87
2.77
7.83
11.14
12.88
13.41
13.15
12.49
11.7
10.94
10.3
9.79
9.42
9.2
9.12
9.13
9.11
8.97
8.59
7.96
7.14
6.18
5.08
3.79
2.18
0.19
-2.15
-4.69
-7.22
-9.59
-11.85
-14.2
-16.91
-20.15
-23.81
-27.43
-30.28
-31.58
-30.76
-27.66
-22.56
-16.08
-9.02
-2.14
3.95
8.82
12.29
14.34
15.19
15.17
14.67
14.04
13.46
12.97
12.49
11.97
11.42
10.97
10.74
10.75
10.87
10.89
10.65
10.04
9.11
7.95
6.64
5.17
3.48
1.56
-0.57
-2.85
-5.26
-7.85
-10.75
-14.05
-17.6
-21.01
-23.56
-24.48
-23.08
-19.13
-12.92
-5.21
2.92
10.43
16.55
20.91
23.54
24.81
25.16
25.04
24.72
24.34
23.96
23.63
23.48
23.75
24.65
26.26
28.53
31.14
33.69
35.8
37.19
37.83
37.8
37.29
36.53
35.68
34.78
33.73
32.31
30.15
26.88
22.3
16.56
10.28
4.54
0.67
-0.16
2.61
8.65
16.76
25.09
31.65
34.75
33.46
27.74
18.43
7
-4.84
-15.57
-24.1
-29.95
-33.19
-34.25
-33.67
-32.06
-29.97
-27.94
-26.47
-25.91
-26.32
-27.44
-28.74
-29.73
-30.1
-29.9
-29.46
-29.25
-29.65
-30.81
-32.66
-34.97
-37.51
-40.07
-42.45
-44.37
-45.4
-45.06
-42.92
-38.84
-33.12
-26.46
-19.87
-14.29
-10.36
-8.15
-7.24
-6.91
-6.51
-5.72
-4.66
-3.72
-3.27
-3.38
-3.75
-3.86
-3.31
-2.01
-0.34
1.13
1.96
2.07
1.78
1.6
1.83
2.34
2.65
2.15
0.5
-2.21
-5.52
-8.92
-12.12
-15.08
-17.8
-20.03
-21.15
-20.33
-16.96
-11.04
-3.31
4.99
12.56
18.57
22.77
25.38
26.81
27.34
27.01
25.78
23.67
20.93
17.98
15.37
13.48
12.4
11.86
11.4
10.51
8.92
6.69
4.13
1.62
-0.62
-2.66
-4.82
-7.57
-11.23
-15.9
-21.33
-26.97
-32.04
-35.66
-36.98
-35.45
-30.98
-24.02
-15.5
-6.62
1.57
8.34
13.48
17.07
19.31
20.29
20
18.39
15.63
12.18
8.71
5.89
4.16
3.48
3.44
3.43
2.93
1.75
0.07
-1.7
-3.21
-4.37
-5.42
-6.82
-8.98
-12.09
-16.05
-20.46
-24.81
-28.5
-30.91
-31.48
-29.74
-25.57
-19.24
-11.45
-3.13
4.78
11.61
17
20.83
23.1
23.85
23.19
21.41
18.96
16.44
14.4
13.21
12.91
13.27
13.87
14.24
14.01
12.98
11.2
8.9
6.42
4.05
1.92
-0.16
-2.55
-5.77
-10.12
-15.57
-21.57
-27.16
-31.14
-32.45
-30.5
-25.33
-17.6
-8.4
1.04
9.66
16.76
22.03
25.41
27.05
27.11
25.82
23.51
20.65
17.77
15.34
13.7
12.84
12.55
12.44
12.18
11.54
10.48
9.12
7.6
5.99
4.25
2.2
-0.42
-3.86
-8.21
-13.33
-18.82
-24.04
-28.21
-30.53
-30.36
-27.43
-21.92
-14.48
-6.05
2.35
9.91
16.18
20.97
24.32
26.24
26.74
25.87
23.83
21.04
18.12
15.65
14.01
13.24
13.03
12.89
12.36
11.17
9.37
7.2
5
2.97
1.12
-0.72
-2.84
-5.52
-8.96
-13.28
-18.41
-24.02
-29.41
-33.56
-35.36
-33.97
-29.2
-21.64
-12.56
-3.43
4.57
10.86
15.46
18.73
21.01
22.46
23.03
22.69
21.52
19.86
18.13
16.74
15.92
15.66
15.76
15.96
15.95
15.5
14.48
12.93
10.95
8.71
6.38
3.97
1.42
-1.49
-4.99
-9.28
-14.39
-20.03
-25.63
-30.27
-32.92
-32.72
-29.3
-22.97
-14.69
-5.76
2.59
9.52
14.77
18.5
21.02
22.57
23.24
23.06
22.09
20.55
18.74
16.97
15.45
14.31
13.58
13.19
13.04
12.9
12.54
11.73
10.4
8.65
6.69
4.69
2.67
0.47
-2.15
-5.42
-9.43
-14.13
-19.33
-24.61
-29.35
-32.69
-33.73
-31.8
-26.75
-19.16
-10.16
-1.11
6.89
13.22
17.84
21.06
23.21
24.45
24.8
24.22
22.83
20.91
18.93
17.3
16.22
15.71
15.58
15.6
15.54
15.23
14.54
13.4
11.75
9.61
7.08
4.32
1.48
-1.37
-4.23
-7.19
-10.36
-13.87
-17.77
-21.92
-25.97
-29.25
-30.94
-30.23
-26.71
-20.56
-12.57
-3.97
4
10.44
14.98
17.77
19.25
19.82
19.75
19.11
17.92
16.26
14.34
12.47
10.93
9.89
9.32
9.12
9.09
9.07
8.92
8.52
7.76
6.59
5.01
3.08
0.89
-1.5
-4.16
-7.21
-10.77
-14.85
-19.25
-23.51
-26.95
-28.84
-28.57
-25.82
-20.7
-13.79
-6
1.68
8.38
13.63
17.31
19.53
20.49
20.37
19.28
17.39
14.97
12.42
10.15
8.48
7.49
7.1
7.03
6.98
6.68
5.96
4.79
3.24
1.47
-0.37
-2.16
-3.96
-5.9
-8.22
-11.09
-14.61
-18.69
-23.08
-27.37
-31
-33.29
-33.57
-31.35
-26.51
-19.45
-11.06
-2.5
5.15
11.17
15.36
18
19.53
20.36
20.66
20.38
19.42
17.8
15.74
13.64
11.92
10.84
10.36
10.24
10.09
9.61
8.66
7.28
5.6
3.76
1.81
-0.25
-2.43
-4.76
-7.24
-9.92
-12.94
-16.48
-20.64
-25.23
-29.73
-33.21
-34.66
-33.27
-28.82
-21.76
-13.19
-4.39
3.43
9.55
13.8
16.45
17.97
18.77
19.06
18.85
18.08
16.75
15.05
13.29
11.85
10.95
10.64
10.72
10.91
10.92
10.58
9.84
8.77
7.4
5.72
3.67
1.19
-1.67
-4.8
-8.03
-11.26
-14.53
-17.99
-21.72
-25.52
-28.83
-30.77
-30.45
-27.33
-21.48
-13.63
-4.99
3.14
9.76
14.35
16.95
17.96
17.92
17.33
16.49
15.51
14.42
13.25
12.05
10.97
10.13
9.64
9.48
9.54
9.63
9.5
8.97
7.9
6.32
4.32
2.07
-0.24
-2.47
-4.59
-6.68
-8.9
-11.5
-14.64
-18.39
-22.58
-26.75
-30.15
-31.93
-31.34
-28.02
-22.21
-14.67
-6.49
1.25
7.81
12.88
16.51
18.96
20.47
21.14
20.98
20.04
18.46
16.52
14.61
13.05
12.04
11.59
11.48
11.46
11.29
10.82
10.04
8.98
7.63
5.93
3.81
1.23
-1.73
-4.89
-8.1
-11.28
-14.54
-18.04
-21.88
-25.84
-29.35
-31.56
-31.59
-28.98
-23.77
-16.65
-8.68
-0.99
5.55
10.48
13.76
15.62
16.39
16.34
15.66
14.54
13.09
11.52
10.01
8.78
7.97
7.61
7.62
7.8
7.89
7.62
6.83
5.51
3.8
1.9
-0.05
-2.01
-4.07
-6.4
-9.16
-12.46
-16.24
-20.27
-24.08
-27.03
-28.4
-27.57
-24.3
-18.83
-11.89
-4.48
2.41
8.09
12.26
15.02
16.62
17.24
16.96
15.73
13.6
10.83
7.9
5.43
3.9
3.5
3.96
4.76
5.32
5.23
4.41
3.02
1.36
-0.35
-2.02
-3.77
-5.78
-8.27
-11.4
-15.21
-19.6
-24.31
-28.83
-32.45
-34.36
-33.8
-30.36
-24.21
-16.07
-7.08
1.52
8.79
14.21
17.78
19.76
20.5
20.27
19.22
17.5
15.34
13.06
11.02
9.48
8.56
8.11
7.87
7.52
6.9
5.96
4.82
3.58
2.28
0.78
-1.11
-3.57
-6.68
-10.43
-14.71
-19.37
-24.16
-28.66
-32.19
-33.98
-33.35
-30
-24.17
-16.65
-8.47
-0.6
6.26
11.82
16.09
19.15
21.08
21.9
21.57
20.17
17.93
15.25
12.65
10.58
9.25
8.6
8.35
8.11
7.59
6.68
5.46
4.06
2.6
1.09
-0.57
-2.56
-5.04
-8.13
-11.88
-16.22
-20.95
-25.66
-29.72
-32.39
-32.95
-30.93
-26.32
-19.6
-11.68
-3.64
3.59
9.41
13.67
16.54
18.32
19.24
19.41
18.83
17.54
15.75
13.79
12.09
10.98
10.57
10.66
10.91
10.91
10.41
9.33
7.84
6.15
4.45
2.77
1
-1.09
-3.73
-7.03
-11.01
-15.52
-20.25
-24.69
-28.18
-29.99
-29.49
-26.4
-20.92
-13.76
-5.95
1.42
7.62
12.35
15.74
18.17
19.92
21.08
21.53
21.1
19.77
17.79
15.63
13.79
12.61
12.11
12
11.82
11.17
9.89
8.07
5.92
3.64
1.33
-1.06
-3.68
-6.64
-10.07
-14
-18.42
-23.25
-28.23
-32.86
-36.46
-38.26
-37.62
-34.32
-28.61
-21.26
-13.28
-5.67
0.87
6.06
9.94
12.76
14.68
15.72
15.79
14.88
13.19
11.19
9.53
8.72
8.99
10.16
11.71
13.06
13.78
13.73
12.99
11.77
10.23
8.42
6.28
3.68
0.57
-3.08
-7.2
-11.72
-16.49
-21.28
-25.62
-28.85
-30.2
-29.11
-25.42
-19.55
-12.36
-4.91
1.87
7.45
11.65
14.54
16.2
16.64
15.86
13.94
11.2
8.15
5.38
3.33
2.19
1.83
1.87
1.87
1.48
0.56
-0.79
-2.31
-3.69
-4.76
-5.55
-6.3
-7.41
-9.25
-12.07
-15.9
-20.47
-25.22
-29.4
-32.12
-32.68
-30.69
-26.28
-20.04
-12.8
-5.41
1.51
7.57
12.58
16.43
19.02
20.29
20.35
19.41
17.86
16.12
14.54
13.33
12.58
12.21
12.09
12.02
11.84
11.43
10.73
9.7
8.36
6.7
4.74
2.42
-0.3
-3.54
-7.48
-12.21
-17.7
-23.57
-29.04
-33.05
-34.58
-32.95
-28.14
-20.86
-12.3
-3.83
3.53
9.24
13.34
16.19
18.19
19.58
20.41
20.66
20.35
19.6
18.63
17.65
16.79
16.11
15.57
15.1
14.6
13.94
12.99
11.63
9.84
7.7
5.32
2.79
0.1
-2.86
-6.24
-10.19
-14.73
-19.75
-24.93
-29.63
-33.07
-34.38
-32.92
-28.59
-21.88
-13.81
-5.54
1.94
8.11
12.91
16.53
19.23
21.11
22.15
22.29
21.57
20.2
18.54
16.97
15.79
15.13
14.9
14.86
14.71
14.18
13.14
11.63
9.75
7.62
5.35
2.95
0.45
-2.16
-4.88
-7.8
-11.11
-15
-19.51
-24.33
-28.73
-31.66
-32.17
-29.74
-24.56
-17.4
-9.43
-1.71
5.02
10.45
14.63
17.73
19.88
21.14
21.47
20.91
19.65
18.02
16.39
15.12
14.36
14.11
14.19
14.36
14.38
14.09
13.41
12.33
10.9
9.16
7.18
5.01
2.65
0.08
-2.74
-5.9
-9.52
-13.71
-18.47
-23.56
-28.41
-32.15
-33.86
-32.86
-28.97
-22.61
-14.72
-6.43
1.24
7.67
12.63
16.25
18.8
20.47
21.37
21.52
20.96
19.8
18.27
16.68
15.31
14.32
13.82
13.75
13.99
14.35
14.54
14.33
13.53
12.05
9.96
7.4
4.57
1.64
-1.27
-4.11
-6.97
-10.01
-13.38
-17.14
-21.07
-24.62
-27.01
-27.37
-25.15
-20.34
-13.53
-5.75
1.86
8.4
13.43
16.94
19.15
20.31
20.58
20.02
18.69
16.76
14.56
12.49
10.92
10.06
9.89
10.26
10.85
11.34
11.43
10.94
9.83
8.17
6.15
3.96
1.75
-0.45
-2.7
-5.1
-7.81
-10.94
-14.5
-18.35
-22.18
-25.44
-27.43
-27.43
-24.96
-19.97
-12.98
-4.92
3.1
10.12
15.58
19.43
21.93
23.44
24.26
24.5
24.18
23.35
22.16
20.9
19.86
19.29
19.3
19.83
20.68
21.59
22.29
22.57
22.33
21.52
20.22
18.55
16.65
14.71
12.84
11.05
9.17
6.77
3.19
-2.16
-9.6
-18.79
-28.68
-37.77
-44.49
-47.82
-47.55
-44.32
-39.31
-33.81
-28.73
-24.45
-20.93
-17.89
-15.17
-12.79
-10.96
-9.83
-9.36
-9.23
-8.92
-7.97
-6.15
-3.64
-0.88
1.58
3.32
4.19
4.27
3.79
2.93
1.82
0.43
-1.31
-3.45
-6.06
-9.16
-12.74
-16.77
-21.08
-25.3
-28.81
-30.86
-30.74
-28.07
-22.94
-15.97
-8.1
-0.36
6.45
11.89
15.88
18.58
20.24
21.09
21.3
21.02
20.35
19.43
18.33
17.15
15.96
14.82
13.85
13.08
12.5
11.98
11.34
10.39
8.99
7.13
4.88
2.37
-0.27
-3
-5.84
-8.87
-12.17
-15.81
-19.82
-24.08
-28.23
-31.71
-33.72
-33.52
-30.67
-25.28
-18.01
-9.97
-2.3
4.13
8.96
12.3
14.48
15.9
16.77
17.15
17.02
16.37
15.3
14.01
12.76
11.8
11.28
11.14
11.21
11.22
10.95
10.3
9.32
8.11
6.75
5.24
3.48
1.37
-1.12
-3.96
-7.06
-10.43
-14.07
-17.98
-21.98
-25.58
-28.01
-28.44
-26.31
-21.61
-14.92
-7.33
-0.02
6.1
10.62
13.61
15.43
16.43
16.84
16.65
15.82
14.35
12.45
10.49
8.94
8.1
8.06
8.58
9.25
9.68
9.62
9.07
8.18
7.08
5.78
4.18
2.15
-0.36
-3.3
-6.53
-9.96
-13.62
-17.55
-21.67
-25.62
-28.71
-30.11
-29.1
-25.38
-19.21
-11.47
-3.29
4.23
10.32
14.66
17.34
18.67
18.96
18.41
17.11
15.19
12.89
10.63
8.83
7.8
7.56
7.86
8.27
8.4
8.04
7.23
6.14
4.93
3.63
2.11
0.17
-2.34
-5.41
-8.93
-12.75
-16.72
-20.8
-24.83
-28.46
-31.08
-31.89
-30.26
-25.95
-19.41
-11.58
-3.66
3.35
8.86
12.8
15.43
17.08
17.94
18.08
17.54
16.38
14.83
13.14
11.55
10.26
9.34
8.8
8.54
8.41
8.19
7.65
6.62
5
2.88
0.4
-2.23
-4.86
-7.48
-10.19
-13.19
-16.65
-20.65
-24.98
-29.17
-32.44
-33.95
-32.98
-29.3
-23.22
-15.59
-7.53
-0.15
5.83
10.19
13.15
15.12
16.49
17.4
17.76
17.42
16.32
14.63
12.71
11
9.77
9.09
8.82
8.68
8.42
7.88
6.99
5.79
4.29
2.51
0.47
-1.82
-4.37
-7.22
-10.42
-14.06
-18.18
-22.72
-27.36
-31.49
-34.31
-34.99
-32.99
-28.27
-21.42
-13.41
-5.39
1.76
7.54
11.87
14.96
17.05
18.32
18.81
18.56
17.62
16.18
14.54
13.06
12.04
11.66
11.83
12.26
12.53
12.3
11.37
9.79
7.75
5.48
3.12
0.7
-1.81
-4.49
-7.38
-10.55
-14.05
-17.89
-22
-26.05
-29.41
-31.33
-31.07
-28.24
-22.97
-15.92
-8.11
-0.59
5.8
10.66
13.96
16
17.1
17.58
17.58
17.17
16.4
15.3
14.03
12.79
11.82
11.31
11.29
11.64
12.04
12.17
11.73
10.61
8.86
6.65
4.16
1.51
-1.23
-4.1
-7.15
-10.48
-14.18
-18.34
-22.89
-27.5
-31.51
-34
-34.1
-31.32
-25.82
-18.35
-10.1
-2.23
4.46
9.64
13.41
16.04
17.77
18.71
18.91
18.4
17.32
15.91
14.46
13.21
12.33
11.86
11.73
11.76
11.74
11.47
10.88
9.94
8.76
7.39
5.85
4.04
1.87
-0.77
-3.89
-7.48
-11.51
-15.89
-20.45
-24.74
-28.05
-29.52
-28.39
-24.39
-17.89
-9.87
-1.59
5.79
11.59
15.63
18.11
19.4
19.77
19.4
18.39
16.92
15.2
13.47
11.93
10.67
9.72
9.03
8.55
8.2
7.81
7.21
6.23
4.83
3.13
1.3
-0.55
-2.44
-4.57
-7.22
-10.56
-14.56
-18.92
-23.14
-26.56
-28.51
-28.39
-25.91
-21.14
-14.62
-7.25
-0.01
6.24
11.05
14.35
16.36
17.37
17.57
17.02
15.75
13.88
11.71
9.68
8.22
7.56
7.64
8.15
8.62
8.66
8.08
6.95
5.49
3.92
2.32
0.59
-1.48
-4.07
-7.29
-11.11
-15.43
-19.96
-24.31
-27.84
-29.81
-29.52
-26.6
-21.23
-14.15
-6.46
0.77
6.78
11.31
14.51
16.71
18.15
18.92
18.96
18.19
16.7
14.75
12.72
10.99
9.76
9.05
8.67
8.37
7.91
7.18
6.19
4.98
3.6
2.01
0.15
-2.07
-4.74
-7.91
-11.61
-15.8
-20.37
-24.93
-28.88
-31.43
-31.77
-29.42
-24.42
-17.37
-9.34
-1.44
5.42
10.76
14.52
16.93
18.31
18.89
18.81
18.15
17
15.52
13.97
12.62
11.66
11.16
10.97
10.83
10.41
9.52
8.12
6.39
4.51
2.65
0.82
-1.09
-3.31
-6.03
-9.39
-13.4
-17.93
-22.63
-26.92
-30.02
-31.15
-29.72
-25.6
-19.24
-11.54
-3.59
3.65
9.57
13.98
17.03
18.99
20.11
20.54
20.33
19.54
18.28
16.72
15.05
13.45
12.07
10.97
10.14
9.51
8.94
8.24
7.25
5.9
4.18
2.21
0.11
-2.04
-4.3
-6.8
-9.77
-13.41
-17.77
-22.65
-27.5
-31.52
-33.82
-33.64
-30.69
-25.18
-17.87
-9.78
-1.94
4.85
10.17
13.96
16.38
17.73
18.29
18.33
18.04
17.56
17
16.41
15.83
15.28
14.74
14.21
13.62
12.9
11.97
10.8
9.38
7.79
6.09
4.31
2.43
0.32
-2.14
-5.07
-8.5
-12.4
-16.69
-21.18
-25.56
-29.27
-31.59
-31.8
-29.41
-24.41
-17.37
-9.33
-1.47
5.25
10.36
13.83
16
17.3
18.03
18.35
18.23
17.62
16.53
15.1
13.6
12.31
11.43
11
10.88
10.83
10.57
9.95
8.97
7.77
6.47
5.11
3.58
1.67
-0.77
-3.75
-7.17
-10.87
-14.71
-18.61
-22.33
-25.44
-27.24
-26.99
-24.2
-18.93
-11.87
-4.12
3.14
9.06
13.3
16
17.46
17.99
17.74
16.75
15.12
13.03
10.8
8.82
7.38
6.62
6.46
6.66
6.96
7.12
7.03
6.65
5.96
5
3.75
2.23
0.4
-1.75
-4.27
-7.21
-10.63
-14.51
-18.69
-22.83
-26.35
-28.56
-28.82
-26.73
-22.28
-15.86
-8.28
-0.52
6.48
12.03
15.87
18.16
19.34
19.89
20.11
20.08
19.72
18.93
17.76
16.5
15.49
15.02
15.14
15.61
16.04
16.11
15.68
14.82
13.75
12.55
11.06
8.95
5.82
1.49
-3.89
-9.85
-15.82
-21.25
-25.73
-28.94
-30.53
-30.11
-27.37
-22.31
-15.38
-7.51
0.22
6.87
11.93
15.41
17.67
19.13
20.04
20.34
19.75
18
15.03
11.13
6.86
2.94
-0.04
-1.82
-2.49
-2.52
-2.47
-2.83
-3.81
-5.41
-7.44
-9.69
-12.06
-14.58
-17.35
-20.46
-23.92
-27.57
-31.11
-34.12
-36.09
-36.51
-35
-31.41
-25.94
-19.15
-11.85
-4.86
1.19
6
9.58
12.11
13.86
14.97
15.51
15.49
14.97
14.06
12.95
11.82
10.8
9.94
9.24
8.7
8.3
8.04
7.78
7.3
6.32
4.62
2.15
-0.9
-4.24
-7.56
-10.78
-14
-17.41
-21.05
-24.66
-27.63
-29.19
-28.68
-25.8
-20.79
-14.33
-7.41
-0.99
4.19
7.82
9.93
10.79
10.76
10.13
9.12
7.92
6.74
5.84
5.44
5.64
6.34
7.25
7.99
8.24
7.86
6.91
5.65
4.38
3.33
2.56
1.92
1.05
-0.43
-2.9
-6.48
-11.04
-16.07
-20.84
-24.47
-26.19
-25.51
-22.34
-17.06
-10.39
-3.2
3.7
9.7
14.46
17.91
20.04
21
20.88
19.85
18.14
16.03
13.86
11.97
10.59
9.79
9.47
9.37
9.17
8.6
7.56
6.11
4.44
2.73
1.03
-0.76
-2.92
-5.7
-9.26
-13.51
-18.1
-22.46
-25.93
-27.87
-27.78
-25.45
-21.03
-15.05
-8.32
-1.67
4.22
8.97
12.49
14.85
16.15
16.41
15.7
14.19
12.26
10.41
9.04
8.3
8.03
7.83
7.34
6.35
4.98
3.48
2.13
1.09
0.31
-0.44
-1.49
-3.17
-5.73
-9.24
-13.51
-18.05
-22.13
-24.91
-25.69
-24.12
-20.31
-14.76
-8.27
-1.68
4.3
9.24
12.92
15.31
16.49
16.58
15.73
14.12
11.97
9.59
7.33
5.5
4.27
3.62
3.35
3.18
2.89
2.38
1.67
0.83
-0.16
-1.44
-3.23
-5.74
-9.1
-13.2
-17.68
-21.96
-25.31
-26.99
-26.44
-23.46
-18.34
-11.77
-4.67
2.08
7.79
12.1
14.9
16.22
16.2
15.03
12.99
10.46
7.85
5.62
4.05
3.22
3.04
3.2
3.36
3.2
2.56
1.46
0.05
-1.52
-3.19
-5.13
-7.62
-10.98
-15.29
-20.26
-25.2
-29.17
-31.24
-30.82
-27.85
-22.76
-16.35
-9.51
-2.97
2.8
7.61
11.4
14.16
15.82
16.32
15.64
13.93
11.53
8.94
6.65
5.01
4.08
3.68
3.49
3.22
2.72
1.99
1.12
0.14
-1.04
-2.61
-4.76
-7.67
-11.36
-15.74
-20.5
-25.18
-29.12
-31.61
-32.05
-30.13
-26.01
-20.27
-13.74
-7.25
-1.39
3.54
7.56
10.78
13.27
15
15.83
15.68
14.63
12.99
11.23
9.8
8.97
8.68
8.63
8.45
7.87
6.86
5.57
4.24
3
1.75
0.23
-1.9
-4.87
-8.74
-13.36
-18.44
-23.53
-28.01
-31.18
-32.29
-30.84
-26.73
-20.45
-12.92
-5.28
1.54
7.05
11.2
14.2
16.31
17.6
18.02
17.56
16.38
14.88
13.54
12.78
12.67
12.98
13.27
13.1
12.29
10.94
9.29
7.62
6.06
4.53
2.87
0.86
-1.69
-4.9
-8.85
-13.54
-18.69
-23.77
-27.95
-30.32
-30.2
-27.33
-22.03
-15.06
-7.37
0.19
7.01
12.79
17.38
20.74
22.86
23.75
23.51
22.34
20.57
18.56
16.7
15.3
14.56
14.48
14.86
15.35
15.54
15.15
14.09
12.45
10.46
8.3
6.01
3.48
0.56
-2.88
-6.79
-11.02
-15.32
-19.42
-23.1
-26.08
-28.08
-28.74
-27.76
-25.03
-20.73
-15.35
-9.52
-3.87
1.19
5.47
8.92
11.58
13.42
14.41
14.6
14.19
13.55
13.15
13.31
14.11
15.32
16.53
17.28
17.29
16.49
15.03
13.13
10.99
8.68
6.2
3.47
0.42
-3
-6.87
-11.25
-16.16
-21.44
-26.61
-30.95
-33.55
-33.65
-30.91
-25.55
-18.27
-10.1
-2.06
5.04
10.78
15.1
18.18
20.33
21.79
22.71
23.12
23.02
22.44
21.52
20.46
19.5
18.76
18.25
17.88
17.54
17.11
16.49
15.59
14.24
12.29
9.67
6.45
2.85
-0.78
-4.15
-7.14
-9.87
-12.73
-16.15
-20.44
-25.56
-30.98
-35.72
-38.67
-38.87
-35.86
-29.87
-21.79
-12.81
-4.12
3.44
9.5
14.13
17.56
20.06
21.77
22.72
22.99
22.7
22.1
21.45
20.93
20.58
20.3
19.92
19.36
18.64
17.87
17.17
16.53
15.81
14.7
12.87
10.12
6.53
2.43
-1.69
-5.4
-8.49
-11.13
-13.74
-16.86
-20.86
-25.69
-30.82
-35.35
-38.18
-38.46
-35.74
-30.19
-22.48
-13.64
-4.72
3.4
10.2
15.5
19.39
22.08
23.82
24.77
25.03
24.72
24
23.07
22.18
21.5
21.1
20.87
20.67
20.34
19.86
19.25
18.56
17.74
16.61
14.92
12.47
9.25
5.49
1.62
-1.93
-4.91
-7.35
-9.58
-12.09
-15.38
-19.66
-24.73
-29.94
-34.3
-36.77
-36.54
-33.34
-27.46
-19.69
-11.09
-2.68
4.76
10.77
15.25
18.29
20.11
20.93
20.95
20.35
19.25
17.81
16.21
14.71
13.57
13.02
13.11
13.66
14.35
14.8
14.73
14.02
12.72
10.94
8.74
6.18
3.28
0.17
-2.95
-5.92
-8.76
-11.66
-14.97
-18.93
-23.42
-27.84
-31.2
-32.45
-30.84
-26.26
-19.24
-10.84
-2.26
5.46
11.7
16.23
19.19
20.83
21.38
21.02
19.89
18.2
16.22
14.27
12.65
11.53
10.9
10.64
10.56
10.48
10.26
9.8
9.03
7.9
6.39
4.53
2.35
-0.11
-2.81
-5.73
-8.91
-12.42
-16.38
-20.86
-25.73
-30.55
-34.55
-36.82
-36.53
-33.34
-27.46
-19.63
-10.86
-2.15
5.71
12.21
17.1
20.28
21.86
22.08
21.29
19.91
18.29
16.67
15.18
13.89
12.87
12.2
11.95
12.08
12.44
12.71
12.57
11.76
10.15
7.81
4.94
1.81
-1.36
-4.47
-7.53
-10.67
-14.07
-17.94
-22.36
-27.25
-32.24
-36.65
-39.53
-39.95
-37.28
-31.5
-23.25
-13.7
-4.18
4.21
10.83
15.59
18.72
20.58
21.52
21.8
21.64
21.16
20.53
19.84
19.12
18.41
17.72
17.09
16.56
16.18
15.88
15.55
15
14.04
12.5
10.31
7.49
4.17
0.61
-2.96
-6.33
-9.47
-12.5
-15.71
-19.43
-23.87
-28.96
-34.18
-38.68
-41.37
-41.31
-38
-31.58
-22.88
-13.11
-3.65
4.46
10.58
14.69
17.1
18.32
18.8
18.83
18.59
18.17
17.69
17.25
16.95
16.77
16.65
16.55
16.41
16.29
16.2
16.11
15.84
15.15
13.79
11.64
8.78
5.45
1.96
-1.4
-4.49
-7.32
-10.06
-12.98
-16.38
-20.41
-25.05
-29.92
-34.31
-37.29
-37.95
-35.71
-30.52
-22.99
-14.17
-5.29
2.64
9.04
13.76
17.01
19.05
20.11
20.35
19.89
18.92
17.64
16.3
15.07
14.1
13.41
12.98
12.74
12.62
12.53
12.36
11.99
11.32
10.22
8.63
6.54
4.02
1.24
-1.66
-4.56
-7.48
-10.55
-13.99
-17.91
-22.25
-26.56
-30.12
-32.06
-31.63
-28.49
-22.9
-15.64
-7.79
-0.41
5.84
10.74
14.38
16.93
18.46
18.85
18.05
16.18
13.67
11.13
9.15
8.06
7.85
8.26
8.91
9.48
9.79
9.78
9.38
8.55
7.23
5.42
3.14
0.48
-2.5
-5.76
-9.29
-13.15
-17.4
-21.98
-26.63
-30.8
-33.7
-34.48
-32.53
-27.74
-20.69
-12.41
-4.09
3.28
9.15
13.45
16.35
18.08
18.78
18.49
17.34
15.57
13.59
11.82
10.57
9.95
9.85
10.04
10.23
10.22
9.86
9.09
7.9
6.35
4.48
2.34
-0.02
-2.64
-5.57
-8.88
-12.65
-16.91
-21.59
-26.53
-31.33
-35.44
-38.09
-38.52
-36.2
-31.05
-23.58
-14.81
-5.97
1.85
8
12.35
15.21
17.07
18.36
19.3
19.88
19.94
19.37
18.2
16.64
15.02
13.68
12.82
12.46
12.41
12.39
12.08
11.28
9.89
7.91
5.44
2.59
-0.49
-3.7
-6.9
-10.1
-13.36
-16.81
-20.62
-24.81
-29.12
-32.97
-35.51
-35.85
-33.37
-28.01
-20.34
-11.46
-2.62
5.15
11.25
15.58
18.4
20.11
21.06
21.52
21.62
21.43
21.01
20.37
19.54
18.55
17.42
16.22
15.01
13.82
12.7
11.63
10.61
9.54
8.28
6.63
4.42
1.62
-1.61
-4.97
-8.13
-10.94
-13.55
-16.36
-19.84
-24.17
-29.09
-33.77
-37.06
-37.9
-35.65
-30.39
-22.86
-14.22
-5.66
1.89
7.99
12.6
15.94
18.29
19.83
20.66
20.82
20.39
19.55
18.52
17.51
16.7
16.14
15.8
15.56
15.31
14.95
14.43
13.68
12.66
11.29
9.48
7.22
4.56
1.65
-1.39
-4.48
-7.69
-11.19
-15.14
-19.52
-24.04
-28.12
-31.02
-32.03
-30.69
-26.93
-21.14
-14.04
-6.54
0.51
6.49
11.12
14.38
16.46
17.6
17.97
17.67
16.76
15.35
13.65
11.98
10.66
9.93
9.82
10.14
10.59
10.78
10.46
9.49
7.93
5.86
3.42
0.74
-2.08
-4.87
-7.5
-9.93
-12.27
-14.81
-17.9
-21.74
-26.14
-30.46
-33.68
-34.74
-32.95
-28.21
-21.13
-12.76
-4.3
3.28
9.39
13.85
16.77
18.37
18.89
18.58
17.7
16.52
15.26
14.08
13.05
12.17
11.43
10.85
10.44
10.2
10.06
9.83
9.31
8.29
6.7
4.59
2.15
-0.42
-2.97
-5.48
-8.05
-10.87
-14.11
-17.86
-22.05
-26.38
-30.35
-33.27
-34.43
-33.25
-29.55
-23.61
-16.12
-8.06
-0.41
6.12
11.12
14.58
16.73
17.93
18.48
18.63
18.51
18.18
17.71
17.17
16.66
16.21
15.81
15.38
14.85
14.19
13.49
12.84
12.22
11.5
10.41
8.7
6.21
3.03
-0.55
-4.17
-7.51
-10.5
-13.32
-16.36
-20.06
-24.62
-29.88
-35.2
-39.61
-42.04
-41.64
-38.09
-31.7
-23.33
-14.15
-5.25
2.57
8.93
13.84
17.46
19.97
21.5
22.12
21.96
21.24
20.29
19.4
18.77
18.41
18.16
17.83
17.28
16.53
15.68
14.91
14.27
13.68
12.95
11.81
10.04
7.55
4.38
0.78
-2.96
-6.5
-9.63
-12.27
-14.54
-16.74
-19.24
-22.38
-26.24
-30.56
-34.66
-37.62
-38.5
-36.7
-32.12
-25.32
-17.24
-8.99
-1.48
4.74
9.56
13.13
15.71
17.46
18.42
18.59
18.01
16.9
15.63
14.62
14.17
14.32
14.84
15.36
15.57
15.34
14.8
14.18
13.66
13.19
12.49
11.18
8.99
5.91
2.24
-1.51
-4.86
-7.58
-9.75
-11.78
-14.15
-17.23
-21.05
-25.26
-29.16
-31.91
-32.7
-31.01
-26.77
-20.44
-12.85
-5.05
2.02
7.76
11.95
14.67
16.14
16.6
16.23
15.2
13.72
12.09
10.63
9.58
9.01
8.89
9.07
9.38
9.69
9.88
9.84
9.49
8.78
7.66
6.15
4.27
2.1
-0.3
-2.85
-5.51
-8.33
-11.42
-14.92
-18.92
-23.3
-27.61
-31.1
-32.89
-32.24
-28.84
-22.95
-15.38
-7.19
0.57
7.1
11.98
15.16
16.85
17.36
16.98
15.99
14.56
12.86
11.08
9.42
8.1
7.26
6.93
6.97
7.12
7.14
6.87
6.29
5.43
4.31
2.91
1.18
-0.88
-3.16
-5.56
-8.04
-10.73
-13.89
-17.75
-22.29
-27.05
-31.23
-33.82
-33.96
-31.24
-25.8
-18.37
-9.98
-1.72
5.5
11.14
15.04
17.34
18.4
18.62
18.32
17.69
16.82
15.7
14.35
12.92
11.61
10.67
10.23
10.22
10.36
10.28
9.64
8.28
6.27
3.81
1.13
-1.65
-4.44
-7.23
-10.06
-12.96
-16.04
-19.48
-23.4
-27.73
-32.07
-35.65
-37.53
-36.9
-33.39
-27.24
-19.29
-10.67
-2.5
4.43
9.83
13.76
16.53
18.44
19.66
20.2
19.98
18.99
17.34
15.32
13.32
11.7
10.64
10.17
10.09
10.19
10.26
10.15
9.8
9.08
7.89
6.09
3.62
0.56
-2.85
-6.34
-9.7
-12.95
-16.33
-20.14
-24.54
-29.28
-33.64
-36.6
-37.16
-34.7
-29.31
-21.72
-13.09
-4.63
2.74
8.59
12.87
15.76
17.53
18.42
18.66
18.45
17.98
17.37
16.63
15.73
14.65
13.47
12.36
11.5
10.97
10.69
10.43
9.91
8.91
7.36
5.32
2.94
0.37
-2.23
-4.79
-7.28
-9.79
-12.55
-15.82
-19.79
-24.34
-28.96
-32.77
-34.77
-34.18
-30.72
-24.74
-17.13
-8.99
-1.32
5.25
10.46
14.38
17.19
19.04
20.05
20.32
19.94
19.07
17.92
16.7
15.58
14.72
14.18
13.99
14.08
14.32
14.48
14.3
13.55
12.12
10.02
7.41
4.49
1.46
-1.57
-4.53
-7.47
-10.46
-13.65
-17.17
-21
-24.87
-28.21
-30.23
-30.19
-27.67
-22.77
-16.13
-8.69
-1.42
4.94
9.99
13.66
16.04
17.33
17.72
17.4
16.52
15.28
13.85
12.43
11.22
10.34
9.87
9.75
9.86
10.01
9.97
9.55
8.64
7.18
5.23
2.91
0.4
-2.18
-4.77
-7.43
-10.31
-13.58
-17.35
-21.5
-25.68
-29.28
-31.53
-31.75
-29.51
-24.84
-18.24
-10.54
-2.73
4.35
10.16
14.43
17.21
18.6
18.82
18.09
16.74
15.1
13.52
12.25
11.39
10.91
10.68
10.6
10.58
10.55
10.42
10
9.1
7.57
5.43
2.86
0.09
-2.72
-5.54
-8.54
-11.9
-15.83
-20.36
-25.26
-30.04
-33.94
-36.12
-35.85
-32.75
-27.01
-19.33
-10.79
-2.46
4.74
10.37
14.39
17.05
18.72
19.73
20.25
20.31
19.86
18.86
17.38
15.62
13.89
12.51
11.66
11.36
11.42
11.5
11.29
10.54
9.17
7.2
4.77
2
-1
-4.17
-7.45
-10.81
-14.32
-18.07
-22.17
-26.57
-30.93
-34.59
-36.65
-36.29
-33.08
-27.19
-19.43
-10.9
-2.76
4.17
9.51
13.28
15.78
17.33
18.24
18.68
18.75
18.49
17.94
17.14
16.17
15.19
14.33
13.72
13.41
13.38
13.45
13.38
12.9
11.79
9.95
7.44
4.49
1.4
-1.53
-4.15
-6.49
-8.85
-11.63
-15.14
-19.47
-24.26
-28.79
-32.13
-33.4
-32.07
-28.1
-21.97
-14.48
-6.57
0.94
7.44
12.56
16.18
18.4
19.47
19.74
19.53
19.12
18.63
18.06
17.4
16.69
16.02
15.54
15.32
15.34
15.41
15.28
14.69
13.52
11.72
9.37
6.62
3.62
0.55
-2.47
-5.36
-8.14
-10.93
-13.94
-17.43
-21.48
-25.96
-30.34
-33.78
-35.3
-34.16
-30.07
-23.42
-15.12
-6.39
1.67
8.33
13.34
16.86
19.19
20.59
21.19
21
20.07
18.55
16.71
14.9
13.37
12.26
11.56
11.17
10.98
10.89
10.77
10.48
9.87
8.81
7.28
5.35
3.16
0.85
-1.57
-4.2
-7.24
-10.88
-15.19
-19.96
-24.69
-28.61
-30.81
-30.59
-27.59
-22.04
-14.67
-6.5
1.44
8.33
13.75
17.61
20.01
21.16
21.22
20.31
18.52
16.06
13.24
10.5
8.28
6.91
6.47
6.75
7.31
7.7
7.59
6.88
5.69
4.22
2.63
0.95
-0.95
-3.26
-6.14
-9.63
-13.66
-18.04
-22.49
-26.65
-29.95
-31.76
-31.41
-28.51
-23.13
-15.88
-7.82
-0.05
6.56
11.6
15.12
17.42
18.74
19.17
18.67
17.24
15.07
12.55
10.21
8.49
7.64
7.59
8.03
8.52
8.68
8.31
7.38
6
4.34
2.5
0.49
-1.76
-4.32
-7.24
-10.52
-14.11
-18.01
-22.14
-26.31
-30.04
-32.62
-33.22
-31.19
-26.33
-19.07
-10.43
-1.68
5.97
11.8
15.64
17.81
18.87
19.3
19.36
19.09
18.39
17.21
15.65
13.98
12.53
11.56
11.13
11.09
11.14
10.96
10.31
9.14
7.54
5.66
3.55
1.17
-1.62
-4.97
-8.92
-13.35
-18.03
-22.73
-27.15
-30.99
-33.77
-34.93
-33.91
-30.35
-24.38
-16.66
-8.22
-0.22
6.45
11.39
14.7
16.77
18.08
18.95
19.49
19.63
19.26
18.37
17.12
15.77
14.61
13.81
13.37
13.13
12.78
12.08
10.85
9.05
6.77
4.13
1.26
-1.7
-4.61
-7.41
-10.15
-13.02
-16.38
-20.51
-25.39
-30.56
-35.11
-37.96
-38.19
-35.39
-29.75
-22.05
-13.35
-4.71
3.01
9.28
13.88
16.93
18.72
19.65
20.08
20.21
20.13
19.8
19.19
18.29
17.2
16.06
14.98
14.1
13.47
13.05
12.69
12.15
11.13
9.4
6.89
3.73
0.24
-3.23
-6.46
-9.39
-12.18
-15.09
-18.34
-22.04
-26.03
-29.88
-32.92
-34.38
-33.55
-30.1
-24.19
-16.54
-8.21
-0.33
6.23
11.06
14.24
16.09
17.03
17.38
17.28
16.82
16.06
15.08
14.02
13.01
12.15
11.53
11.21
11.17
11.3
11.4
11.26
10.68
9.57
7.94
5.89
3.57
1.09
-1.49
-4.18
-7.05
-10.26
-13.95
-18.09
-22.37
-26.12
-28.49
-28.7
-26.31
-21.46
-14.79
-7.27
0.09
6.52
11.6
15.28
17.66
18.95
19.3
18.85
17.7
15.98
13.94
11.89
10.2
9.16
8.92
9.35
10.1
10.69
10.67
9.81
8.11
5.88
3.53
1.37
-0.5
-2.24
-4.19
-6.74
-10.15
-14.49
-19.57
-24.93
-29.87
-33.52
-35
-33.69
-29.44
-22.7
-14.44
-5.86
1.94
8.25
12.84
15.89
17.73
18.67
18.88
18.44
17.45
16.07
14.58
13.27
12.34
11.82
11.61
11.52
11.41
11.18
10.8
10.25
9.43
8.22
6.51
4.26
1.55
-1.47
-4.66
-7.92
-11.33
-15.02
-19.14
-23.7
-28.4
-32.6
-35.44
-36.05
-33.84
-28.78
-21.44
-12.84
-4.17
3.57
9.76
14.21
17.05
18.63
19.28
19.3
18.94
18.3
17.49
16.55
15.56
14.6
13.79
13.24
13.01
13.05
13.17
13.13
12.68
11.65
10.01
7.85
5.31
2.52
-0.42
-3.47
-6.63
-9.97
-13.55
-17.49
-21.84
-26.46
-30.99
-34.71
-36.73
-36.27
-32.93
-26.93
-19.04
-10.4
-2.06
5.2
11.02
15.37
18.4
20.3
21.21
21.31
20.84
20.07
19.21
18.42
17.71
17.06
16.44
15.9
15.46
15.14
14.83
14.31
13.35
11.81
9.72
7.24
4.58
1.89
-0.73
-3.3
-5.93
-8.72
-11.85
-15.48
-19.64
-24.13
-28.44
-31.81
-33.38
-32.46
-28.8
-22.71
-14.96
-6.66
1.12
7.56
12.29
15.38
17.15
18.05
18.37
18.18
17.47
16.24
14.64
12.98
11.63
10.82
10.6
10.86
11.36
11.85
12.1
11.9
11.11
9.62
7.42
4.66
1.57
-1.61
-4.67
-7.55
-10.34
-13.24
-16.47
-20.21
-24.33
-28.35
-31.5
-32.87
-31.75
-27.92
-21.73
-14
-5.78
1.95
8.5
13.52
16.99
19.07
20.01
20.09
19.47
18.33
16.8
15.04
13.29
11.78
10.7
10.09
9.85
9.8
9.69
9.35
8.65
7.5
5.91
3.91
1.58
-0.93
-3.51
-6.11
-8.8
-11.75
-15.15
-19.13
-23.62
-28.26
-32.43
-35.3
-36.05
-34.13
-29.47
-22.57
-14.35
-5.95
1.66
7.86
12.48
15.68
17.76
19
19.56
19.54
19.01
18.08
16.92
15.74
14.71
13.95
13.47
13.21
13.05
12.84
12.44
11.7
10.51
8.83
6.68
4.13
1.3
-1.71
-4.83
-8.04
-11.36
-14.91
-18.78
-23.01
-27.47
-31.74
-35.15
-36.9
-36.29
-32.97
-27.12
-19.38
-10.75
-2.27
5.17
11.02
15.08
17.48
18.58
18.84
18.63
18.23
17.7
17.05
16.28
15.46
14.77
14.37
14.31
14.45
14.57
14.44
13.91
12.89
11.35
9.28
6.69
3.69
0.47
-2.73
-5.73
-8.51
-11.28
-14.37
-18.07
-22.45
-27.19
-31.58
-34.65
-35.5
-33.55
-28.79
-21.82
-13.65
-5.41
1.96
7.92
12.33
15.31
17.12
18.02
18.19
17.8
17.02
16.01
14.95
13.97
13.17
12.61
12.25
12.02
11.79
11.42
10.8
9.84
8.52
6.89
5.02
2.98
0.83
-1.42
-3.79
-6.37
-9.25
-12.57
-16.36
-20.48
-24.5
-27.74
-29.34
-28.6
-25.23
-19.47
-12.14
-4.32
2.97
8.98
13.43
16.36
17.98
18.52
18.13
16.97
15.22
13.16
11.18
9.61
8.69
8.44
8.68
9.07
9.27
9.03
8.3
7.19
5.82
4.27
2.52
0.47
-1.91
-4.57
-7.35
-10.12
-12.89
-15.81
-19.04
-22.55
-25.99
-28.67
-29.79
-28.68
-25.14
-19.49
-12.5
-5.15
1.64
7.27
11.46
14.3
16.01
16.84
16.98
16.53
15.61
14.37
13.05
11.87
10.95
10.28
9.71
9.1
8.4
7.66
6.98
6.38
5.7
4.65
2.98
0.61
-2.27
-5.35
-8.35
-11.2
-14.11
-17.44
-21.41
-25.93
-30.48
-34.19
-36.11
-35.53
-32.23
-26.51
-19.12
-11.06
-3.3
3.39
8.61
12.32
14.75
16.24
17.06
17.37
17.24
16.67
15.75
14.66
13.62
12.86
12.5
12.49
12.67
12.81
12.69
12.13
11.03
9.37
7.19
4.6
1.78
-1.06
-3.77
-6.3
-8.74
-11.37
-14.51
-18.41
-23.02
-27.9
-32.21
-34.9
-35.07
-32.23
-26.57
-18.83
-10.19
-1.83
5.31
10.75
14.47
16.78
18.14
18.97
19.5
19.81
19.85
19.55
18.89
17.99
16.98
16.06
15.34
14.89
14.66
14.51
14.27
13.72
12.68
11.03
8.75
5.92
2.67
-0.73
-4.05
-7.08
-9.77
-12.26
-14.92
-18.13
-22.05
-26.46
-30.67
-33.71
-34.64
-32.91
-28.56
-22.15
-14.6
-6.91
0.14
6.04
10.64
14.03
16.42
18.02
18.96
19.28
18.99
18.14
16.9
15.55
14.39
13.62
13.33
13.42
13.67
13.8
13.55
12.79
11.5
9.73
7.61
5.26
2.75
0.08
-2.74
-5.74
-8.95
-12.44
-16.3
-20.48
-24.7
-28.39
-30.73
-30.92
-28.49
-23.5
-16.61
-8.84
-1.26
5.26
10.32
13.88
16.22
17.62
18.34
18.49
18.07
17.05
15.52
13.69
11.94
10.65
10.06
10.16
10.69
11.27
11.48
11.06
9.92
8.15
5.91
3.36
0.7
-1.96
-4.55
-7.06
-9.6
-12.37
-15.62
-19.52
-23.93
-28.37
-31.98
-33.78
-33
-29.36
-23.26
-15.61
-7.55
-0.08
6.13
10.85
14.14
16.22
17.35
17.81
17.82
17.57
17.14
16.57
15.79
14.76
13.53
12.23
11.09
10.31
10.01
10.09
10.25
10.1
9.27
7.57
5.06
2.05
-1.09
-4.04
-6.7
-9.18
-11.73
-14.61
-18
-21.89
-26.05
-29.99
-33.03
-34.4
-33.46
-29.93
-24.08
-16.61
-8.53
-0.79
5.92
11.27
15.29
18.17
20.11
21.27
21.76
21.67
21.19
20.54
19.91
19.4
19.03
18.67
18.15
17.4
16.4
15.25
14.05
12.86
11.65
10.27
8.54
6.33
3.62
0.54
-2.68
-5.77
-8.53
-10.94
-13.14
-15.45
-18.23
-21.8
-26.17
-30.93
-35.28
-38.14
-38.57
-36.05
-30.79
-23.61
-15.66
-8.02
-1.35
4.14
8.6
12.26
15.23
17.5
18.98
19.66
19.68
19.34
18.96
18.75
18.8
18.99
19.12
19.01
18.57
17.85
17
16.15
15.36
14.55
13.52
12.04
9.89
7.08
3.78
0.35
-2.79
-5.4
-7.48
-9.29
-11.27
-13.79
-17.04
-20.93
-25.13
-29.15
-32.4
-34.27
-34.14
-31.64
-26.76
-19.96
-12.17
-4.46
2.26
7.48
11.18
13.61
15.14
16.05
16.46
16.42
15.99
15.32
14.65
14.15
13.92
13.91
13.98
14.01
13.95
13.85
13.78
13.74
13.6
13.09
11.93
9.96
7.22
4.03
0.83
-2.04
-4.44
-6.5
-8.56
-11
-14.08
-17.87
-22.1
-26.23
-29.48
-31.02
-30.22
-26.8
-21.05
-13.71
-5.85
1.51
7.61
12.07
14.94
16.45
16.91
16.56
15.59
14.16
12.5
10.84
9.46
8.55
8.17
8.23
8.55
8.92
9.18
9.24
9.07
8.62
7.81
6.51
4.66
2.27
-0.48
-3.35
-6.1
-8.64
-11.11
-13.77
-16.92
-20.65
-24.75
-28.62
-31.43
-32.3
-30.61
-26.22
-19.55
-11.48
-3.15
4.37
10.35
14.52
17.01
18.23
18.58
18.36
17.72
16.69
15.3
13.65
11.94
10.39
9.22
8.5
8.19
8.13
8.08
7.78
7.04
5.75
3.93
1.69
-0.81
-3.43
-6.05
-8.66
-11.31
-14.13
-17.29
-20.94
-25.09
-29.51
-33.69
-36.83
-38.05
-36.67
-32.41
-25.61
-17.14
-8.18
0.12
6.93
11.92
15.18
17.07
17.99
18.23
17.96
17.28
16.34
15.35
14.53
14.03
13.87
13.89
13.89
13.65
13.05
12.07
10.71
9.04
7.11
5.03
2.87
0.68
-1.6
-4.07
-6.89
-10.16
-13.9
-18.08
-22.51
-26.86
-30.59
-32.94
-33.15
-30.67
-25.46
-18.12
-9.79
-1.74
4.98
9.91
13.15
15.23
16.67
17.79
18.56
18.76
18.21
16.93
15.21
13.43
11.95
10.94
10.38
10.1
9.92
9.73
9.4
8.85
7.93
6.54
4.63
2.23
-0.54
-3.57
-6.79
-10.24
-14.02
-18.18
-22.61
-26.89
-30.38
-32.24
-31.78
-28.7
-23.26
-16.18
-8.51
-1.22
5
9.84
13.3
15.56
16.83
17.21
16.77
15.59
13.89
11.99
10.3
9.24
8.97
9.39
10.09
10.58
10.46
9.63
8.27
6.73
5.29
4.03
2.78
1.22
-0.96
-3.96
-7.83
-12.4
-17.31
-21.98
-25.68
-27.65
-27.27
-24.32
-19.09
-12.33
-4.99
1.95
7.81
12.27
15.34
17.25
18.26
18.53
18.15
17.12
15.51
13.53
11.56
10.05
9.28
9.3
9.8
10.3
10.35
9.74
8.59
7.17
5.81
4.61
3.43
1.99
-0.02
-2.83
-6.49
-10.86
-15.62
-20.19
-23.83
-25.73
-25.23
-22.12
-16.71
-9.79
-2.37
4.64
10.68
15.63
19.65
22.97
25.69
27.75
28.96
29.24
28.72
27.82
27.11
27.11
28.08
29.87
31.96
33.72
34.65
34.61
33.88
32.94
32.28
32.22
32.75
33.57
34.12
33.59
31.07
25.73
17.18
5.87
-6.77
-18.61
-27.47
-31.88
-31.63
-27.83
-22.35
-17.07
-13.15
-10.73
-9.2
-7.75
-5.92
-3.82
-1.99
-1.04
-1.19
-2.19
-3.38
-4.1
-4.01
-3.22
-2.2
-1.53
-1.54
-2.23
-3.34
-4.54
-5.66
-6.76
-8.12
-10.08
-12.85
-16.46
-20.82
-25.82
-31.42
-37.53
-43.88
-49.82
-54.31
-56.27
-54.89
-50.09
-42.56
-33.63
-24.79
-17.18
-11.38
-7.33
-4.64
-2.91
-1.99
-1.92
-2.85
-4.78
-7.49
-10.6
-13.72
-16.63
-19.26
-21.68
-23.95
-26.05
-27.97
-29.75
-31.51
-33.45
-35.57
-37.66
-39.21
-39.64
-38.62
-36.28
-33.29
-30.63
-29.17
-29.23
-30.37
-31.5
-31.28
-28.64
-23.24
-15.53
-6.5
2.67
11.11
18.37
24.41
29.28
32.97
35.26
35.93
34.95
32.69
29.8
27.07
25.05
23.91
23.43
23.15
22.68
21.85
20.74
19.53
18.34
17.09
15.54
13.37
10.41
6.69
2.43
-2.07
-6.6
-11.16
-15.81
-20.54
-25.02
-28.53
-30.21
-29.29
-25.43
-19
-10.9
-2.34
5.56
12.05
16.9
20.23
22.36
23.56
23.94
23.51
22.32
20.56
18.58
16.83
15.66
15.2
15.32
15.66
15.82
15.51
14.62
13.29
11.76
10.2
8.64
6.89
4.65
1.69
-2.07
-6.53
-11.46
-16.61
-21.7
-26.36
-30.07
-32.12
-31.78
-28.63
-22.75
-14.86
-6.07
2.44
9.74
15.43
19.55
22.37
24.18
25.17
25.36
24.81
23.69
22.29
20.98
20.1
19.83
20.14
20.8
21.5
21.9
21.77
20.99
19.55
17.55
15.09
12.28
9.2
5.93
2.53
-0.98
-4.64
-8.62
-13.08
-18
-23.08
-27.71
-31.11
-32.55
-31.66
-28.5
-23.54
-17.45
-10.92
-4.48
1.49
6.76
11.21
14.79
17.52
19.49
20.82
21.61
21.91
21.75
21.14
20.17
18.98
17.78
16.78
16.06
15.54
14.95
13.92
12.12
9.42
5.92
1.97
-2.04
-5.78
-9.14
-12.18
-15.17
-18.39
-22.08
-26.34
-30.92
-35.25
-38.45
-39.51
-37.69
-32.75
-25.14
-15.91
-6.35
2.39
9.55
14.95
18.76
21.41
23.25
24.56
25.43
25.89
25.92
25.54
24.83
23.93
22.98
22.11
21.4
20.85
20.39
19.9
19.19
18.05
16.3
13.82
10.64
6.92
2.92
-1.1
-4.89
-8.41
-11.74
-15.12
-18.84
-23.08
-27.78
-32.43
-36.18
-38.01
-37.05
-32.92
-25.94
-17.06
-7.58
1.21
8.42
13.73
17.3
19.58
21.03
21.93
22.33
22.18
21.44
20.21
18.79
17.49
16.63
16.33
16.52
16.93
17.24
17.14
16.39
14.96
12.93
10.53
7.93
5.26
2.53
-0.31
-3.28
-6.39
-9.61
-12.99
-16.62
-20.56
-24.6
-28.21
-30.49
-30.52
-27.69
-22
-14.18
-5.42
2.98
9.99
15.1
18.28
19.89
20.37
20.09
19.28
18.05
16.46
14.61
12.71
11
9.73
9.01
8.86
9.06
9.36
9.45
9.11
8.23
6.79
4.89
2.62
0.1
-2.57
-5.31
-8.1
-11
-14.18
-17.83
-22
-26.47
-30.63
-33.57
-34.35
-32.32
-27.43
-20.27
-11.89
-3.49
3.97
9.95
14.31
17.18
18.76
19.25
18.82
17.69
16.17
14.59
13.21
12.18
11.5
11.12
10.94
10.91
10.96
10.96
10.68
9.9
8.46
6.35
3.73
0.86
-2.01
-4.76
-7.43
-10.22
-13.36
-17.09
-21.45
-26.25
-30.96
-34.78
-36.86
-36.51
-33.43
-27.84
-20.36
-11.9
-3.36
4.47
11.02
15.97
19.25
20.99
21.52
21.22
20.45
19.46
18.4
17.31
16.25
15.3
14.56
14.12
13.94
13.84
13.57
12.89
11.67
9.92
7.76
5.38
2.91
0.39
-2.24
-5.04
-8.09
-11.46
-15.21
-19.38
-23.95
-28.61
-32.8
-35.69
-36.46
-34.53
-29.85
-22.94
-14.7
-6.21
1.58
8.06
12.97
16.38
18.49
19.6
19.97
19.75
19.06
17.97
16.63
15.23
14
13.14
12.75
12.75
12.95
13.05
12.79
11.98
10.56
8.61
6.26
3.65
0.9
-1.86
-4.58
-7.22
-9.86
-12.68
-15.92
-19.78
-24.16
-28.62
-32.3
-34.21
-33.51
-29.9
-23.74
-15.92
-7.63
0.05
6.4
11.14
14.38
16.48
17.79
18.55
18.83
18.55
17.61
16.02
14
11.93
10.25
9.25
8.97
9.17
9.49
9.57
9.24
8.48
7.34
5.89
4.14
2.07
-0.27
-2.8
-5.48
-8.34
-11.51
-15.09
-19.07
-23.09
-26.45
-28.31
-27.88
-24.83
-19.4
-12.34
-4.72
2.43
8.37
12.74
15.54
16.98
17.32
16.81
15.62
13.93
11.94
9.89
8.05
6.65
5.8
5.49
5.58
5.86
6.06
5.97
5.46
4.49
3.11
1.4
-0.57
-2.79
-5.34
-8.37
-11.99
-16.23
-20.95
-25.77
-30.1
-33.24
-34.48
-33.28
-29.47
-23.3
-15.49
-7.02
1.05
7.88
13.01
16.39
18.31
19.18
19.28
18.76
17.63
15.93
13.83
11.68
9.87
8.68
8.14
8.02
7.94
7.52
6.56
5.1
3.33
1.47
-0.41
-2.35
-4.51
-7.03
-10.01
-13.44
-17.29
-21.49
-25.9
-30.22
-33.87
-36.08
-36.05
-33.32
-27.93
-20.5
-12.05
-3.71
3.6
9.35
13.44
16.03
17.45
17.98
17.84
17.18
16.11
14.8
13.44
12.24
11.36
10.87
10.68
10.6
10.41
9.92
9.04
7.78
6.17
4.28
2.11
-0.34
-3.08
-6.11
-9.44
-13.09
-17.12
-21.59
-26.36
-31.05
-35
-37.38
-37.45
-34.84
-29.69
-22.66
-14.71
-6.81
0.29
6.2
10.9
14.51
17.24
19.19
20.41
20.84
20.54
19.61
18.23
16.64
15.06
13.66
12.52
11.73
11.24
10.97
10.74
10.3
9.39
7.82
5.58
2.77
-0.33
-3.44
-6.36
-9.03
-11.61
-14.41
-17.73
-21.69
-26.03
-30.1
-32.94
-33.59
-31.36
-26.2
-18.71
-10.01
-1.36
6.2
12.1
16.28
19.04
20.75
21.68
21.95
21.54
20.49
18.94
17.18
15.54
14.29
13.56
13.28
13.31
13.39
13.31
12.89
12.02
10.67
8.86
6.62
4.01
1.06
-2.21
-5.76
-9.56
-13.57
-17.75
-21.94
-25.83
-28.86
-30.33
-29.54
-26.12
-20.21
-12.56
-4.32
3.29
9.41
13.73
16.48
18.15
19.16
19.65
19.49
18.49
16.64
14.24
11.84
10.01
9.06
8.95
9.31
9.64
9.57
8.94
7.81
6.38
4.8
3.1
1.21
-0.97
-3.55
-6.55
-9.99
-13.9
-18.32
-23.19
-28.17
-32.59
-35.45
-35.76
-32.88
-26.93
-18.79
-9.83
-1.49
5.28
10.19
13.54
15.89
17.68
19.05
19.85
19.87
19.02
17.49
15.63
13.86
12.46
11.56
11.07
10.79
10.49
9.95
9.02
7.66
5.95
3.99
1.86
-0.38
-2.79
-5.44
-8.46
-11.9
-15.79
-20.08
-24.6
-28.95
-32.51
-34.51
-34.2
-31.16
-25.55
-18.08
-9.85
-1.99
4.68
9.81
13.48
16.05
17.87
19.18
20.01
20.32
20.01
19.16
17.94
16.62
15.45
14.58
14
13.56
13.08
12.41
11.46
10.17
8.53
6.53
4.24
1.76
-0.78
-3.34
-6.01
-8.99
-12.53
-16.76
-21.58
-26.63
-31.31
-34.87
-36.53
-35.68
-32.08
-25.97
-18.1
-9.54
-1.4
5.51
10.82
14.59
17.12
18.75
19.71
20.18
20.28
20.16
19.93
19.65
19.27
18.72
17.96
17.06
16.14
15.3
14.54
13.74
12.69
11.22
9.27
6.91
4.3
1.59
-1.14
-3.89
-6.73
-9.77
-13.16
-17.05
-21.44
-26.1
-30.42
-33.49
-34.35
-32.33
-27.35
-20.05
-11.61
-3.36
3.68
9
12.72
15.27
17.13
18.56
19.56
19.92
19.51
18.38
16.77
15.1
13.74
12.88
12.48
12.32
12.14
11.74
11.02
10.01
8.78
7.36
5.77
4.01
2.06
-0.08
-2.45
-5.14
-8.28
-12
-16.3
-20.89
-25.14
-28.2
-29.19
-27.54
-23.23
-16.83
-9.33
-1.79
4.92
10.3
14.22
16.85
18.42
19.15
19.18
18.57
17.36
15.66
13.66
11.69
10.12
9.2
8.93
9.06
9.21
8.98
8.17
6.76
4.91
2.84
0.65
-1.64
-4.12
-6.91
-10.11
-13.8
-17.94
-22.4
-26.84
-30.73
-33.36
-33.99
-32.07
-27.47
-20.6
-12.37
-3.97
3.52
9.42
13.53
16.06
17.43
17.98
17.94
17.37
16.31
14.86
13.21
11.58
10.18
9.16
8.54
8.28
8.22
8.13
7.76
6.89
5.43
3.47
1.18
-1.28
-3.81
-6.48
-9.46
-12.93
-16.97
-21.5
-26.18
-30.42
-33.48
-34.56
-33.08
-28.91
-22.43
-14.5
-6.24
1.32
7.49
12.02
15.04
16.88
17.85
18.21
18.1
17.59
16.79
15.82
14.83
13.94
13.21
12.63
12.1
11.51
10.75
9.79
8.61
7.19
5.56
3.71
1.67
-0.57
-3.01
-5.69
-8.67
-12.05
-15.92
-20.31
-25.1
-29.9
-34.05
-36.65
-36.89
-34.25
-28.78
-21.11
-12.29
-3.48
4.4
10.79
15.56
18.8
20.75
21.68
21.88
21.62
21.11
20.47
19.73
18.84
17.76
16.51
15.23
14.09
13.2
12.59
12.13
11.59
10.73
9.33
7.3
4.65
1.53
-1.81
-5.08
-8.09
-10.85
-13.54
-16.51
-20.09
-24.37
-29.07
-33.43
-36.41
-37.01
-34.62
-29.3
-21.76
-13.16
-4.7
2.7
8.57
12.91
15.95
18.01
19.31
19.92
19.83
19.06
17.74
16.1
14.5
13.28
12.64
12.55
12.77
12.93
12.7
11.9
10.56
8.86
6.95
4.95
2.85
0.56
-1.95
-4.69
-7.6
-10.67
-13.93
-17.44
-21.17
-24.84
-27.9
-29.55
-29.01
-25.83
-20.11
-12.56
-4.32
3.41
9.75
14.33
17.27
18.91
19.59
19.47
18.55
16.84
14.5
11.93
9.61
7.95
7.1
6.94
7.18
7.48
7.59
7.39
6.84
5.98
4.82
3.37
1.59
-0.56
-3.11
-6.08
-9.47
-13.19
-17.18
-21.33
-25.42
-29.09
-31.75
-32.7
-31.29
-27.23
-20.79
-12.8
-4.4
3.27
9.44
13.87
16.74
18.46
19.36
19.61
19.23
18.18
16.58
14.66
12.76
11.18
10.11
9.55
9.38
9.44
9.54
9.48
9.07
8.1
6.46
4.16
1.35
-1.67
-4.62
-7.41
-10.12
-13.05
-16.51
-20.68
-25.38
-30.08
-33.89
-35.83
-35.06
-31.21
-24.54
-15.9
-6.54
2.27
9.52
14.76
18
19.63
20.16
20.06
19.67
19.15
18.54
17.78
16.84
15.74
14.57
13.5
12.65
12.05
11.59
11.1
10.35
9.22
7.67
5.73
3.49
1.02
-1.61
-4.35
-7.13
-9.97
-13.01
-16.43
-20.41
-24.93
-29.61
-33.75
-36.4
-36.68
-34.03
-28.48
-20.64
-11.58
-2.52
5.49
11.81
16.26
19.06
20.59
21.2
21.13
20.47
19.32
17.83
16.24
14.83
13.77
13.08
12.63
12.21
11.66
10.96
10.21
9.52
8.87
8.12
7
5.28
2.9
-0.03
-3.23
-6.46
-9.58
-12.66
-15.93
-19.54
-23.39
-27.04
-29.71
-30.52
-28.78
-24.31
-17.54
-9.41
-1.09
6.42
12.47
16.87
19.74
21.3
21.71
21.06
19.46
17.09
14.32
11.59
9.31
7.76
7
6.91
7.21
7.64
7.88
7.73
7.05
5.82
4.15
2.18
0.06
-2.15
-4.47
-7.01
-9.93
-13.35
-17.32
-21.71
-26.15
-29.97
-32.33
-32.41
-29.74
-24.36
-16.96
-8.62
-0.49
6.5
11.92
15.73
18.15
19.43
19.72
19.09
17.65
15.62
13.35
11.26
9.71
8.87
8.68
8.89
9.17
9.2
8.79
7.86
6.42
4.58
2.49
0.27
-2.02
-4.39
-6.95
-9.87
-13.31
-17.37
-21.98
-26.88
-31.5
-35.09
-36.81
-35.96
-32.25
-25.9
-17.7
-8.75
-0.22
7
12.47
16.22
18.53
19.77
20.21
19.95
19.02
17.49
15.54
13.49
11.72
10.49
9.89
9.8
9.94
10.01
9.8
9.16
8.08
6.55
4.62
2.33
-0.21
-2.95
-5.82
-8.84
-12.12
-15.81
-20.03
-24.72
-29.57
-33.94
-37
-37.85
-35.88
-30.97
-23.63
-14.89
-6.05
1.74
7.79
11.96
14.59
16.19
17.22
17.94
18.36
18.36
17.84
16.83
15.5
14.1
12.88
11.96
11.36
10.95
10.59
10.11
9.38
8.28
6.75
4.76
2.35
-0.35
-3.16
-5.91
-8.53
-11.16
-14.07
-17.59
-21.86
-26.62
-31.14
-34.36
-35.22
-32.99
-27.64
-19.84
-10.8
-1.86
5.87
11.79
15.84
18.32
19.69
20.34
20.52
20.3
19.65
18.58
17.19
15.64
14.2
13.08
12.39
12.1
12.01
11.86
11.41
10.52
9.18
7.51
5.59
3.47
1.13
-1.45
-4.28
-7.27
-10.39
-13.7
-17.34
-21.34
-25.45
-28.93
-30.8
-30.08
-26.32
-19.81
-11.56
-2.86
5.1
11.6
16.46
19.8
21.83
22.64
22.25
20.73
18.34
15.5
12.74
10.53
9.09
8.45
8.46
8.85
9.37
9.85
10.13
10.1
9.68
8.81
7.49
5.73
3.62
1.27
-1.27
-4.03
-7.16
-10.85
-15.21
-20.06
-24.84
-28.59
-30.25
-29.04
-24.76
-17.95
-9.72
-1.4
5.93
11.66
15.74
18.43
20.1
20.98
21.17
20.73
19.77
18.5
17.18
15.98
14.94
13.94
12.82
11.37
9.47
7.04
4.09
0.72
-2.86
-6.37
-9.49
-12.06
-14.08
-15.77
-17.49
-19.59
-22.39
-25.95
-30.1
-34.26
-37.54
-38.87
-37.39
-32.75
-25.36
-16.32
-7.05
1.16
7.56
11.99
14.76
16.29
16.88
16.68
15.72
14.11
12.11
10.1
8.46
7.44
7.05
7.07
7.18
7.06
6.52
5.6
4.48
3.35
2.35
1.37
0.18
-1.59
-4.2
-7.79
-12.25
-17.27
-22.38
-26.95
-30.35
-31.92
-31.2
-28.04
-22.69
-15.79
-8.17
-0.72
5.92
11.39
15.6
18.62
20.51
21.32
21.1
19.93
18.03
15.75
13.48
11.54
10.13
9.24
8.71
8.27
7.7
6.89
5.83
4.62
3.31
1.89
0.17
-2.11
-5.27
-9.45
-14.53
-20.08
-25.37
-29.54
-31.74
-31.41
-28.38
-22.91
-15.75
-7.84
-0.16
6.53
11.85
15.76
18.38
19.86
20.27
19.62
18.02
15.78
13.4
11.38
10.03
9.33
8.95
8.48
7.57
6.12
4.24
2.22
0.3
-1.45
-3.15
-5.08
-7.63
-11.06
-15.42
-20.4
-25.39
-29.59
-32.15
-32.42
-30.14
-25.48
-19
-11.54
-4
2.88
8.65
13.12
16.35
18.48
19.6
19.79
19.11
17.78
16.08
14.39
12.99
11.99
11.27
10.58
9.65
8.38
6.85
5.28
3.86
2.6
1.3
-0.38
-2.81
-6.22
-10.62
-15.8
-21.33
-26.59
-30.78
-33.06
-32.75
-29.55
-23.76
-16.22
-8.06
-0.4
6.03
10.97
14.57
17.14
18.89
19.88
20.04
19.33
17.88
16.01
14.16
12.72
11.87
11.47
11.16
10.54
9.4
7.81
6.11
4.68
3.7
3.06
2.32
0.89
-1.71
-5.68
-10.81
-16.53
-22.02
-26.38
-28.79
-28.7
-25.94
-20.85
-14.08
-6.56
0.81
7.32
12.58
16.44
19.02
20.49
21
20.67
19.57
17.85
15.82
13.85
12.33
11.49
11.29
11.47
11.63
11.42
10.65
9.35
7.66
5.71
3.61
1.35
-1.12
-3.83
-6.85
-10.27
-14.16
-18.54
-23.24
-27.76
-31.3
-32.94
-31.93
-27.98
-21.46
-13.3
-4.73
3.13
9.54
14.3
17.58
19.74
21.04
21.62
21.46
20.59
19.12
17.34
15.62
14.31
13.58
13.4
13.51
13.55
13.22
12.33
10.89
9.07
7.02
4.88
2.63
0.23
-2.42
-5.39
-8.74
-12.53
-16.78
-21.44
-26.2
-30.5
-33.53
-34.48
-32.77
-28.33
-21.64
-13.63
-5.41
2.1
8.31
13.08
16.54
18.96
20.55
21.48
21.78
21.55
20.88
19.91
18.77
17.58
16.4
15.3
14.37
13.74
13.47
13.56
13.81
13.89
13.4
12.04
9.74
6.68
3.25
-0.13
-3.18
-5.87
-8.39
-11.12
-14.43
-18.57
-23.51
-28.88
-33.92
-37.67
-39.15
-37.71
-33.22
-26.21
-17.65
-8.79
-0.69
5.99
11.06
14.7
17.25
19.02
20.22
20.89
21.08
20.91
20.56
20.27
20.19
20.29
20.42
20.38
20.04
19.41
18.62
17.77
16.9
15.89
14.53
12.61
10.07
6.98
3.58
0.15
-3.09
-6.05
-8.81
-11.57
-14.59
-18.1
-22.1
-26.37
-30.38
-33.43
-34.8
-33.93
-30.69
-25.33
-18.5
-11
-3.59
3.13
8.84
13.39
16.73
18.87
19.9
20
19.46
18.62
17.76
17.03
16.44
15.92
15.41
14.92
14.48
14.14
13.83
13.41
12.7
11.54
9.91
7.83
5.42
2.78
0.01
-2.78
-5.5
-8.1
-10.61
-13.21
-16.14
-19.54
-23.31
-26.97
-29.72
-30.68
-29.22
-25.18
-18.99
-11.57
-3.92
3.02
8.68
12.85
15.58
17.04
17.44
16.96
15.82
14.27
12.56
10.97
9.68
8.81
8.36
8.23
8.31
8.44
8.53
8.44
8.05
7.22
5.86
3.97
1.66
-0.83
-3.28
-5.54
-7.62
-9.67
-11.94
-14.66
-17.94
-21.7
-25.61
-29.11
-31.42
-31.76
-29.61
-24.9
-18.16
-10.38
-2.73
3.83
8.8
12.18
14.3
15.63
16.48
16.96
17.02
16.59
15.72
14.58
13.46
12.62
12.18
12.08
12.11
12.05
11.76
11.26
10.6
9.8
8.72
7.11
4.79
1.78
-1.66
-5.1
-8.15
-10.68
-12.88
-15.18
-18
-21.59
-25.89
-30.47
-34.58
-37.35
-37.96
-35.94
-31.29
-24.58
-16.75
-8.85
-1.72
4.21
8.9
12.53
15.28
17.23
18.32
18.52
17.97
16.94
15.81
14.9
14.35
14.11
13.97
13.76
13.35
12.72
11.95
11.1
10.21
9.24
8.1
6.66
4.83
2.56
-0.06
-2.89
-5.72
-8.36
-10.85
-13.4
-16.39
-20.16
-24.69
-29.49
-33.65
-36.13
-36.09
-33.22
-27.83
-20.7
-12.83
-5.16
1.57
6.97
10.9
13.52
15.14
16.15
16.8
17.2
17.28
16.91
16.13
15.11
14.17
13.55
13.32
13.3
13.22
12.88
12.16
11.11
9.8
8.2
6.25
3.95
1.42
-1.13
-3.45
-5.5
-7.45
-9.66
-12.5
-16.14
-20.4
-24.75
-28.37
-30.36
-30
-26.95
-21.44
-14.2
-6.27
1.23
7.46
12.02
14.9
16.38
16.83
16.52
15.65
14.35
12.75
11.05
9.48
8.25
7.48
7.19
7.26
7.46
7.55
7.27
6.45
5.04
3.1
0.78
-1.71
-4.16
-6.42
-8.48
-10.45
-12.6
-15.17
-18.29
-21.82
-25.33
-28.15
-29.54
-28.9
-25.95
-20.86
-14.19
-6.77
0.52
6.93
12
15.57
17.71
18.65
18.63
17.89
16.61
14.98
13.14
11.26
9.57
8.25
7.51
7.42
7.9
8.66
9.27
9.28
8.36
6.5
3.89
0.98
-1.89
-4.52
-6.99
-9.59
-12.63
-16.34
-20.71
-25.51
-30.22
-34.17
-36.57
-36.71
-34.14
-28.87
-21.43
-12.78
-4.07
3.69
9.87
14.3
17.2
18.95
19.89
20.25
20.11
19.51
18.52
17.25
15.91
14.69
13.74
13.13
12.79
12.6
12.36
11.9
11.06
9.71
7.8
5.37
2.59
-0.33
-3.2
-5.98
-8.77
-11.88
-15.63
-20.22
-25.49
-30.9
-35.53
-38.4
-38.69
-36.02
-30.59
-23.12
-14.64
-6.21
1.28
7.35
11.87
15.04
17.18
18.62
19.55
20.04
20.1
19.75
19.09
18.27
17.41
16.59
15.85
15.17
14.63
14.29
14.15
14.06
13.7
12.74
10.88
8.11
4.69
1.02
-2.53
-5.78
-8.85
-12.05
-15.75
-20.17
-25.18
-30.28
-34.6
-37.14
-37.06
-33.96
-28.02
-20.01
-11.03
-2.26
5.39
11.36
15.53
18.09
19.37
19.72
19.42
18.7
17.73
16.66
15.66
14.85
14.28
13.94
13.77
13.73
13.79
13.92
14
13.85
13.22
11.94
9.96
7.43
4.62
1.76
-1.06
-3.94
-7.13
-10.92
-15.45
-20.51
-25.59
-29.82
-32.24
-32.02
-28.8
-22.84
-14.98
-6.41
1.68
8.42
13.46
16.82
18.81
19.7
19.66
18.79
17.18
15.07
12.81
10.78
9.32
8.54
8.38
8.6
8.9
8.98
8.65
7.81
6.54
4.99
3.33
1.65
-0.1
-2.05
-4.41
-7.38
-11.07
-15.49
-20.46
-25.56
-30.11
-33.22
-34.01
-31.87
-26.75
-19.26
-10.52
-1.88
5.53
11.09
14.78
16.96
18.17
18.8
18.99
18.69
17.82
16.4
14.7
13.06
11.8
11.1
10.88
10.92
10.94
10.73
10.17
9.2
7.8
5.92
3.56
0.77
-2.33
-5.58
-8.86
-12.17
-15.7
-19.67
-24.19
-29.07
-33.74
-37.29
-38.75
-37.4
-33.1
-26.32
-18.05
-9.47
-1.62
4.87
9.8
13.33
15.74
17.35
18.38
18.93
19.08
18.93
18.59
18.17
17.73
17.3
16.88
16.43
15.89
15.19
14.24
12.93
11.2
9.06
6.6
3.96
1.26
-1.5
-4.37
-7.46
-10.88
-14.74
-19.1
-23.92
-28.92
-33.51
-36.85
-37.98
-36.21
-31.4
-24.07
-15.29
-6.27
1.97
8.85
14.2
18.12
20.79
22.34
22.86
22.52
21.57
20.35
19.21
18.34
17.75
17.29
16.75
16.01
15.1
14.2
13.45
12.92
12.44
11.71
10.47
8.56
6.07
3.25
0.35
-2.46
-5.22
-8.09
-11.31
-15.07
-19.44
-24.25
-29.03
-33.09
-35.51
-35.49
-32.54
-26.78
-18.94
-10.15
-1.63
5.67
11.28
15.16
17.57
18.9
19.43
19.39
18.86
17.93
16.68
15.28
13.94
12.91
12.33
12.25
12.52
12.9
13.13
13.02
12.49
11.53
10.17
8.35
6.06
3.27
0.04
-3.49
-7.2
-11.01
-14.98
-19.14
-23.4
-27.38
-30.4
-31.58
-30.23
-26.1
-19.58
-11.58
-3.3
4.2
10.23
14.57
17.34
18.87
19.46
19.3
18.47
17.03
15.1
12.92
10.83
9.21
8.31
8.17
8.59
9.2
9.58
9.41
8.55
7.08
5.15
2.97
0.65
-1.79
-4.41
-7.33
-10.63
-14.41
-18.67
-23.33
-28.12
-32.49
-35.65
-36.7
-34.92
-30.1
-22.71
-13.84
-4.86
3.02
9.07
13.19
15.76
17.31
18.32
18.98
19.28
19.12
18.46
17.4
16.16
14.98
14.04
13.4
12.99
12.66
12.3
11.8
11.07
9.97
8.39
6.22
3.48
0.34
-2.96
-6.19
-9.26
-12.28
-15.49
-19.15
-23.36
-27.87
-32.06
-35.03
-35.82
-33.72
-28.57
-20.83
-11.54
-1.95
6.81
14
19.44
23.32
25.94
27.53
28.11
27.61
25.97
23.29
19.9
16.24
12.77
9.84
7.63
6.14
5.29
4.96
4.99
5.18
5.31
5.13
4.46
3.16
1.22
-1.29
-4.23
-7.39
-10.66
-14.03
-17.63
-21.57
-25.87
-30.16
-33.73
-35.62
-34.93
-31.22
-24.72
-16.3
-7.25
1.21
8.22
13.48
17.16
19.66
21.33
22.34
22.67
22.24
21.06
19.31
17.27
15.27
13.58
12.36
11.62
11.3
11.18
11.01
10.5
9.43
7.74
5.53
3.01
0.38
-2.23
-4.77
-7.29
-9.86
-12.58
-15.63
-19.14
-23.1
-27.21
-30.79
-32.9
-32.66
-29.6
-23.92
-16.4
-8.21
-0.5
5.95
10.87
14.34
16.64
17.98
18.48
18.13
16.98
15.22
13.15
11.16
9.57
8.54
8.05
7.96
8.1
8.25
8.27
8.05
7.52
6.67
5.49
3.99
2.14
-0.09
-2.75
-5.87
-9.46
-13.52
-17.98
-22.67
-27.19
-30.92
-33.07
-32.89
-29.97
-24.41
-16.88
-8.48
-0.33
6.63
11.88
15.4
17.46
18.44
18.66
18.27
17.32
15.85
14.02
12.14
10.57
9.6
9.28
9.44
9.75
9.82
9.42
8.47
7.07
5.35
3.44
1.39
-0.82
-3.25
-5.99
-9.12
-12.7
-16.75
-21.24
-25.99
-30.62
-34.51
-36.91
-37.08
-34.55
-29.3
-21.84
-13.07
-4.13
3.95
10.47
15.08
17.88
19.19
19.46
19.08
18.34
17.38
16.31
15.19
14.13
13.23
12.6
12.26
12.14
12.13
12.05
11.72
10.95
9.64
7.72
5.27
2.46
-0.45
-3.24
-5.81
-8.26
-10.85
-13.92
-17.74
-22.4
-27.61
-32.76
-36.89
-38.99
-38.25
-34.33
-27.58
-18.89
-9.54
-0.78
6.53
11.99
15.72
18.11
19.6
20.54
21.09
21.28
21.11
20.56
19.68
18.52
17.21
15.89
14.72
13.84
13.34
13.13
13.04
12.76
11.98
10.5
8.32
5.63
2.67
-0.3
-3.21
-6.07
-9.01
-12.17
-15.71
-19.74
-24.28
-29.14
-33.79
-37.4
-38.92
-37.5
-32.78
-25.15
-15.67
-5.75
3.3
10.6
15.88
19.37
21.53
22.84
23.58
23.85
23.66
23.04
22.11
21.06
20.05
19.17
18.39
17.64
16.83
15.93
14.99
14.07
13.15
12.09
10.67
8.65
5.97
2.73
-0.73
-4.05
-7
-9.61
-12.16
-15.04
-18.65
-23.07
-28.04
-32.87
-36.62
-38.34
-37.3
-33.24
-26.52
-18.01
-8.86
-0.22
7.1
12.75
16.74
19.3
20.73
21.23
20.94
19.96
18.45
16.64
14.78
13.1
11.77
10.88
10.44
10.38
10.53
10.67
10.55
10
8.93
7.4
5.54
3.47
1.25
-1.11
-3.64
-6.37
-9.35
-12.69
-16.44
-20.58
-24.77
-28.34
-30.35
-29.9
-26.46
-20.19
-11.94
-2.97
5.44
12.32
17.3
20.41
21.94
22.16
21.3
19.52
17.06
14.24
11.49
9.2
7.62
6.8
6.56
6.62
6.7
6.55
6.04
5.13
3.88
2.37
0.68
-1.11
-3.02
-5.12
-7.52
-10.34
-13.71
-17.68
-22.15
-26.8
-30.97
-33.82
-34.51
-32.47
-27.69
-20.74
-12.59
-4.35
3.08
9.19
13.81
16.99
18.84
19.43
18.86
17.28
14.99
12.42
10.01
8.15
7.09
6.8
7.05
7.46
7.63
7.28
6.34
4.9
3.18
1.36
-0.52
-2.55
-4.92
-7.81
-11.3
-15.39
-19.97
-24.78
-29.47
-33.46
-36
-36.36
-34
-28.84
-21.42
-12.67
-3.76
4.31
10.85
15.65
18.87
20.81
21.82
22.16
21.94
21.18
19.89
18.17
16.27
14.51
13.22
12.55
12.37
12.35
12.06
11.19
9.68
7.69
5.5
3.3
1.12
-1.2
-3.93
-7.32
-11.48
-16.32
-21.54
-26.66
-30.99
-33.74
-34.2
-31.93
-26.99
-19.95
-11.79
-3.63
3.62
9.45
13.79
16.9
19.1
20.6
21.49
21.7
21.23
20.13
18.64
17.04
15.59
14.42
13.53
12.81
12.11
11.33
10.44
9.38
8.09
6.44
4.35
1.78
-1.18
-4.36
-7.61
-10.87
-14.27
-18.05
-22.41
-27.31
-32.36
-36.83
-39.73
-40.17
-37.6
-32.05
-24.17
-15.05
-5.92
2.18
8.65
13.34
16.5
18.52
19.76
20.45
20.7
20.57
20.12
19.51
18.88
18.3
17.75
17.17
16.53
15.85
15.2
14.63
14.02
13.15
11.77
9.7
6.93
3.66
0.2
-3.14
-6.25
-9.19
-12.24
-15.73
-19.99
-25.06
-30.63
-35.92
-39.78
-41.07
-39.01
-33.51
-25.3
-15.65
-5.99
2.52
9.29
14.25
17.68
19.92
21.24
21.74
21.52
20.73
19.63
18.51
17.59
16.94
16.48
16.08
15.62
15.06
14.4
13.68
12.85
11.82
10.41
8.49
6.02
3.13
0.04
-3.04
-5.99
-8.89
-11.95
-15.5
-19.71
-24.47
-29.23
-33.03
-34.81
-33.72
-29.47
-22.47
-13.74
-4.59
3.8
10.64
15.67
19.01
20.98
21.85
21.81
21.01
19.57
17.73
15.73
13.86
12.34
11.32
10.82
10.74
10.86
10.9
10.62
9.84
8.55
6.83
4.81
2.56
0.1
-2.65
-5.7
-9
-12.47
-16.02
-19.65
-23.38
-27.13
-30.53
-32.9
-33.35
-31.13
-25.98
-18.34
-9.3
-0.24
7.62
13.6
17.55
19.77
20.68
20.63
19.8
18.31
16.29
13.95
11.62
9.63
8.25
7.65
7.72
8.23
8.79
9.04
8.75
7.89
6.6
5.02
3.31
1.47
-0.56
-2.89
-5.65
-8.96
-12.91
-17.46
-22.34
-26.86
-30.08
-31.01
-28.99
-23.97
-16.62
-8.07
0.43
7.95
13.92
18.23
20.91
22.1
21.87
20.37
17.85
14.73
11.52
8.7
6.61
5.37
4.89
4.89
5.02
4.96
4.55
3.77
2.72
1.51
0.19
-1.33
-3.18
-5.54
-8.52
-12.15
-16.42
-21.19
-26.16
-30.74
-34.13
-35.38
-33.78
-29.12
-21.91
-13.2
-4.31
3.66
10.04
14.73
17.93
19.97
21
21.05
20.07
18.12
15.52
12.76
10.42
8.89
8.27
8.32
8.55
8.51
7.91
6.8
5.44
4.12
2.96
1.83
0.4
-1.72
-4.78
-8.85
-13.74
-19.17
-24.73
-29.88
-33.91
-36
-35.36
-31.54
-24.69
-15.64
-5.72
3.58
11.13
16.35
19.34
20.6
20.77
20.32
19.5
18.32
16.79
15.01
13.17
11.58
10.48
9.92
9.78
9.76
9.55
8.96
7.95
6.62
5.1
3.49
1.75
-0.26
-2.68
-5.6
-9.05
-13.04
-17.54
-22.48
-27.64
-32.51
-36.23
-37.82
-36.43
-31.71
-24.06
-14.57
-4.68
4.31
11.53
16.72
20.1
22.08
23.02
23.17
22.74
21.88
20.83
19.78
18.83
17.95
17.1
16.2
15.35
14.66
14.19
13.89
13.55
12.86
11.61
9.68
7.11
4.06
0.69
-2.8
-6.29
-9.72
-13.14
-16.75
-20.81
-25.5
-30.69
-35.8
-39.82
-41.56
-40.09
-35.12
-27.16
-17.4
-7.35
1.71
8.96
14.23
17.82
20.17
21.66
22.48
22.66
22.23
21.34
20.21
19.12
18.26
17.69
17.31
16.96
16.53
16.01
15.5
15.08
14.73
14.26
13.35
11.72
9.21
5.97
2.34
-1.24
-4.46
-7.21
-9.66
-12.15
-15.06
-18.67
-23.05
-27.92
-32.65
-36.31
-37.85
-36.45
-31.82
-24.37
-15.16
-5.55
3.17
10.2
15.28
18.6
20.5
21.35
21.36
20.69
19.55
18.14
16.73
15.56
14.75
14.33
14.21
14.28
14.43
14.54
14.52
14.25
13.63
12.56
10.94
8.74
5.98
2.79
-0.56
-3.74
-6.48
-8.7
-10.66
-12.89
-15.93
-20.04
-24.89
-29.61
-32.96
-33.79
-31.52
-26.26
-18.78
-10.25
-1.81
5.62
11.53
15.77
18.42
19.74
20.01
19.5
18.42
16.92
15.12
13.17
11.26
9.6
8.34
7.56
7.22
7.17
7.23
7.21
6.96
6.34
5.28
3.74
1.73
-0.71
-3.41
-6.23
-9.04
-11.85
-14.8
-18.17
-22.12
-26.59
-31.07
-34.66
-36.29
-35.1
-30.8
-23.84
-15.26
-6.36
1.69
8.2
12.91
15.96
17.62
18.16
17.74
16.54
14.77
12.73
10.79
9.3
8.47
8.32
8.63
9.07
9.25
8.92
8.01
6.64
5.02
3.32
1.59
-0.23
-2.27
-4.67
-7.48
-10.71
-14.37
-18.46
-22.88
-27.32
-31.17
-33.58
-33.75
-31.2
-26.01
-18.85
-10.77
-2.87
4.03
9.52
13.6
16.48
18.42
19.6
20.07
19.87
19.02
17.6
15.85
14.05
12.53
11.54
11.11
11.06
11.05
10.7
9.78
8.28
6.37
4.27
2.14
-0.03
-2.36
-4.99
-8.08
-11.69
-15.84
-20.47
-25.35
-29.95
-33.45
-34.92
-33.57
-29.13
-22.05
-13.37
-4.43
3.61
10.06
14.78
18.04
20.22
21.57
22.18
22.04
21.14
19.69
17.97
16.34
15.03
14.17
13.7
13.52
13.48
13.44
13.23
12.67
11.59
9.92
7.75
5.28
2.74
0.27
-2.14
-4.69
-7.66
-11.28
-15.66
-20.69
-25.99
-30.96
-34.83
-36.83
-36.31
-33.03
-27.16
-19.34
-10.53
-1.76
6.02
12.2
16.52
19.07
20.19
20.34
19.95
19.3
18.57
17.78
16.95
16.1
15.25
14.47
13.79
13.24
12.81
12.46
12.06
11.44
10.37
8.64
6.18
3.11
-0.31
-3.79
-7.14
-10.32
-13.46
-16.8
-20.59
-24.98
-29.91
-34.98
-39.38
-42.03
-41.84
-38.15
-31.04
-21.4
-10.68
-0.41
8.26
14.83
19.37
22.28
23.94
24.56
24.23
23.05
21.27
19.25
17.39
15.96
15.04
14.54
14.31
14.21
14.16
14.07
13.79
13.12
11.86
9.92
7.35
4.31
1.11
-1.99
-4.85
-7.49
-10.11
-13.06
-16.69
-21.19
-26.37
-31.63
-35.98
-38.32
-37.75
-33.85
-26.89
-17.68
-7.46
2.49
11.09
17.63
21.84
23.92
24.29
23.51
22.07
20.3
18.43
16.59
14.95
13.65
12.8
12.38
12.25
12.25
12.22
12.09
11.86
11.45
10.74
9.56
7.74
5.3
2.4
-0.72
-3.85
-6.89
-9.97
-13.3
-17.16
-21.68
-26.72
-31.75
-35.86
-37.97
-37.14
-32.92
-25.59
-16.14
-5.96
3.55
11.35
16.94
20.36
21.94
22.11
21.31
19.85
17.99
15.98
14.04
12.39
11.18
10.5
10.31
10.47
10.8
11.06
11.06
10.63
9.71
8.28
6.4
4.2
1.85
-0.52
-2.83
-5.1
-7.48
-10.22
-13.56
-17.61
-22.21
-26.88
-30.77
-32.84
-32.19
-28.37
-21.64
-12.9
-3.49
5.2
12.21
17.07
19.87
21
20.9
19.94
18.38
16.43
14.31
12.24
10.44
9.11
8.32
8.1
8.33
8.8
9.24
9.38
8.99
7.97
6.36
4.28
1.89
-0.68
-3.35
-6.12
-9.04
-12.27
-15.97
-20.19
-24.75
-29.1
-32.34
-33.5
-31.8
-27.02
-19.62
-10.67
-1.51
6.59
12.8
16.84
18.87
19.31
18.57
16.95
14.65
11.84
8.78
5.89
3.6
2.23
1.87
2.33
3.26
4.21
4.82
4.82
4.11
2.68
0.66
-1.75
-4.38
-7.13
-10.05
-13.31
-17.09
-21.42
-26.05
-30.44
-33.8
-35.32
-34.38
-30.74
-24.61
-16.66
-7.86
0.75
8.26
14.13
18.16
20.46
21.3
20.96
19.64
17.53
14.85
11.93
9.21
7.15
6.02
5.85
6.36
7.06
7.47
7.29
6.46
5.13
3.5
1.75
-0.13
-2.22
-4.69
-7.71
-11.36
-15.65
-20.4
-25.25
-29.57
-32.55
-33.34
-31.32
-26.34
-18.9
-10.03
-1.07
6.77
12.73
16.61
18.71
19.58
19.7
19.39
18.75
17.76
16.42
14.82
13.2
11.78
10.76
10.16
9.9
9.75
9.48
8.91
7.94
6.56
4.79
2.69
0.28
-2.38
-5.26
-8.3
-11.53
-15.05
-19.01
-23.5
-28.33
-32.94
-36.44
-37.81
-36.26
-31.6
-24.28
-15.32
-5.98
2.6
9.64
14.84
18.24
20.12
20.83
20.71
20.03
19.02
17.83
16.58
15.35
14.2
13.17
12.33
11.71
11.35
11.28
11.42
11.62
11.61
11.09
9.81
7.65
4.74
1.37
-2.12
-5.44
-8.51
-11.48
-14.62
-18.24
-22.49
-27.21
-31.85
-35.52
-37.18
-35.95
-31.46
-24.08
-14.88
-5.29
3.33
10.11
14.83
17.77
19.46
20.35
20.63
20.38
19.61
18.46
17.16
15.97
15.09
14.55
14.23
13.98
13.62
13.14
12.58
12.08
11.73
11.49
11.13
10.28
8.63
6.06
2.74
-0.88
-4.33
-7.28
-9.68
-11.81
-14.11
-16.98
-20.68
-25.14
-30
-34.56
-37.91
-39.13
-37.52
-32.88
-25.65
-16.83
-7.72
0.47
6.97
11.54
14.42
16.08
16.95
17.31
17.31
17
16.48
15.87
15.27
14.76
14.32
13.92
13.53
13.18
12.94
12.83
12.76
12.52
11.88
10.58
8.55
5.87
2.8
-0.38
-3.38
-6.03
-8.3
-10.29
-12.29
-14.65
-17.72
-21.65
-26.21
-30.67
-33.95
-34.95
-32.96
-27.94
-20.62
-12.14
-3.77
3.58
9.44
13.8
16.83
18.78
19.79
20
19.57
18.72
17.72
16.77
15.99
15.35
14.79
14.3
13.91
13.74
13.82
14.03
14.08
13.64
12.43
10.38
7.65
4.53
1.37
-1.61
-4.3
-6.74
-9.07
-11.46
-14.15
-17.29
-20.92
-24.72
-28.04
-30.01
-29.77
-26.83
-21.31
-13.93
-5.8
1.88
8.18
12.65
15.26
16.41
16.57
16.14
15.36
14.32
13.03
11.61
10.24
9.2
8.71
8.78
9.24
9.78
10.09
10.01
9.51
8.61
7.35
5.72
3.69
1.29
-1.35
-4.07
-6.7
-9.25
-11.89
-14.91
-18.58
-22.91
-27.48
-31.49
-33.92
-33.86
-30.84
-25.02
-17.2
-8.5
-0.14
6.96
12.27
15.68
17.46
17.99
17.73
17.06
16.25
15.41
14.58
13.72
12.81
11.89
11.04
10.34
9.8
9.39
8.97
8.4
7.56
6.37
4.8
2.85
0.56
-2.03
-4.84
-7.81
-10.93
-14.32
-18.15
-22.47
-27.08
-31.41
-34.58
-35.67
-33.96
-29.32
-22.21
-13.61
-4.68
3.53
10.31
15.35
18.65
20.41
20.91
20.46
19.38
17.96
16.46
15.07
13.89
12.94
12.22
11.67
11.28
10.97
10.69
10.32
9.76
8.89
7.67
6.05
4.01
1.56
-1.27
-4.39
-7.69
-11.09
-14.63
-18.46
-22.75
-27.49
-32.3
-36.36
-38.63
-38.15
-34.51
-28.04
-19.71
-10.82
-2.53
4.43
9.83
13.78
16.53
18.28
19.17
19.35
19.05
18.53
18.06
17.77
17.62
17.46
17.17
16.7
16.13
15.59
15.15
14.74
14.19
13.27
11.81
9.7
6.99
3.82
0.41
-2.99
-6.19
-9.1
-11.82
-14.63
-17.93
-22.02
-26.87
-32.02
-36.55
-39.36
-39.45
-36.32
-30.13
-21.66
-12.07
-2.6
5.77
12.48
17.35
20.53
22.3
22.97
22.88
22.31
21.51
20.65
19.85
19.13
18.47
17.86
17.3
16.82
16.45
16.2
16.03
15.79
15.29
14.29
12.6
10.15
7
3.37
-0.45
-4.14
-7.43
-10.26
-12.75
-15.26
-18.22
-22.02
-26.73
-31.93
-36.74
-40.01
-40.66
-38.12
-32.49
-24.51
-15.3
-6.03
2.4
9.39
14.71
18.34
20.47
21.36
21.37
20.85
20.06
19.14
18.14
17.07
16.02
15.13
14.52
14.23
14.18
14.2
14.13
13.89
13.45
12.77
11.76
10.24
8.07
5.26
1.96
-1.51
-4.88
-7.98
-10.85
-13.77
-17.06
-21.01
-25.63
-30.54
-34.96
-37.87
-38.26
-35.54
-29.75
-21.61
-12.34
-3.2
4.78
11.05
15.54
18.45
20.11
20.77
20.62
19.81
18.55
17.07
15.68
14.6
13.98
13.78
13.89
14.15
14.39
14.47
14.25
13.58
12.34
10.48
8.06
5.28
2.39
-0.39
-3
-5.56
-8.27
-11.38
-15.02
-19.16
-23.5
-27.52
-30.47
-31.52
-30.04
-25.82
-19.22
-11.09
-2.57
5.26
11.67
16.33
19.27
20.75
21.04
20.37
18.94
16.94
14.65
12.37
10.41
8.97
8.14
7.86
7.94
8.18
8.34
8.29
7.89
7.1
5.9
4.29
2.31
-0.01
-2.65
-5.59
-8.83
-12.35
-16.14
-20.18
-24.35
-28.36
-31.72
-33.73
-33.68
-31.08
-25.92
-18.74
-10.52
-2.37
4.85
10.63
14.93
17.93
19.84
20.76
20.68
19.58
17.57
14.99
12.3
9.97
8.35
7.51
7.32
7.5
7.74
7.75
7.32
6.34
4.79
2.78
0.49
-1.89
-4.27
-6.72
-9.45
-12.74
-16.79
-21.57
-26.71
-31.56
-35.24
-36.85
-35.75
-31.72
-25.09
-16.69
-7.69
0.78
7.81
12.99
16.38
18.36
19.37
19.75
19.65
19.04
17.88
16.23
14.31
12.48
11.08
10.31
10.2
10.54
11.02
11.29
11.06
10.19
8.63
6.47
3.85
0.95
-2.08
-5.16
-8.3
-11.61
-15.28
-19.49
-24.26
-29.28
-33.86
-36.98
-37.6
-34.99
-29.1
-20.63
-10.87
-1.29
6.88
12.99
17
19.31
20.47
20.95
20.98
20.64
19.91
18.81
17.45
16.04
14.78
13.82
13.18
12.75
12.38
11.94
11.3
10.39
9.13
7.46
5.33
2.78
-0.1
-3.16
-6.32
-9.58
-13.05
-16.98
-21.55
-26.74
-32.18
-37.14
-40.58
-41.49
-39.18
-33.62
-25.41
-15.72
-5.88
2.97
10.14
15.41
18.92
20.96
21.81
21.72
20.93
19.71
18.41
17.28
16.53
16.14
15.98
15.9
15.82
15.75
15.7
15.65
15.4
14.67
13.17
10.78
7.65
4.1
0.53
-2.72
-5.53
-8.03
-10.47
-13.28
-16.81
-21.26
-26.54
-32.14
-37.15
-40.42
-40.93
-38.04
-31.84
-23.13
-13.21
-3.45
5.03
11.67
16.44
19.58
21.45
22.33
22.38
21.78
20.75
19.61
18.63
18
17.75
17.69
17.61
17.38
16.96
16.45
15.93
15.42
14.76
13.66
11.89
9.3
5.97
2.19
-1.65
-5.22
-8.39
-11.24
-14.04
-17.13
-20.82
-25.19
-30.01
-34.68
-38.33
-39.96
-38.76
-34.38
-27.12
-17.89
-7.98
1.34
9.12
14.95
18.88
21.24
22.38
22.6
22.07
20.98
19.6
18.24
17.2
16.65
16.55
16.71
16.9
16.96
16.87
16.66
16.35
15.85
14.96
13.48
11.27
8.42
5.16
1.8
-1.42
-4.44
-7.34
-10.35
-13.73
-17.65
-22.13
-26.91
-31.46
-34.94
-36.46
-35.32
-31.25
-24.55
-16.11
-7.07
1.46
8.65
14.1
17.8
19.96
20.87
20.81
19.99
18.6
16.81
14.89
13.08
11.64
10.73
10.39
10.51
10.85
11.19
11.3
11.05
10.35
9.19
7.59
5.61
3.33
0.87
-1.71
-4.37
-7.19
-10.26
-13.75
-17.71
-22.04
-26.38
-30.08
-32.29
-32.22
-29.33
-23.67
-15.87
-7.02
1.64
9.09
14.78
18.61
20.81
21.74
21.68
20.82
19.32
17.31
15.02
12.71
10.66
9.12
8.25
8.08
8.49
9.17
9.73
9.8
9.14
7.69
5.56
2.97
0.08
-2.95
-6.03
-9.17
-12.41
-15.89
-19.76
-24.08
-28.63
-32.81
-35.68
-36.27
-33.92
-28.61
-20.98
-12.17
-3.38
4.4
10.65
15.21
18.16
19.66
19.86
18.95
17.2
15
12.8
11
9.85
9.39
9.46
9.8
10.13
10.25
10.01
9.35
8.25
6.71
4.79
2.56
0.14
-2.37
-4.91
-7.54
-10.41
-13.74
-17.73
-22.4
-27.5
-32.43
-36.28
-38.02
-36.86
-32.51
-25.35
-16.4
-6.98
1.68
8.75
13.94
17.41
19.53
20.63
20.91
20.45
19.35
17.82
16.17
14.71
13.64
12.98
12.58
12.24
11.84
11.34
10.78
10.15
9.35
8.19
6.47
4.12
1.18
-2.13
-5.58
-9
-12.38
-15.87
-19.74
-24.15
-29.03
-33.84
-37.69
-39.5
-38.38
-33.96
-26.58
-17.24
-7.25
2.08
9.82
15.53
19.26
21.31
22.14
22.1
21.46
20.42
19.15
17.87
16.79
16.05
15.67
15.54
15.52
15.46
15.3
15
14.5
13.62
12.17
10.01
7.22
4.06
0.85
-2.17
-5.03
-7.93
-11.21
-15.15
-19.77
-24.84
-29.81
-33.9
-36.22
-35.96
-32.7
-26.53
-18.18
-8.82
0.21
7.84
13.46
17.07
19.03
19.86
19.99
19.62
18.82
17.57
15.94
14.12
12.42
11.18
10.65
10.87
11.64
12.59
13.26
13.3
12.55
11.11
9.18
7.01
4.76
2.37
-0.31
-3.45
-7.2
-11.6
-16.61
-22.01
-27.38
-32.01
-35
-35.44
-32.74
-26.93
-18.73
-9.36
-0.2
7.64
13.58
17.55
19.82
20.8
20.81
20.08
18.78
17.09
15.19
13.31
11.59
10.15
9.08
8.42
8.19
8.26
8.44
8.4
7.86
6.66
4.86
2.62
0.13
-2.5
-5.28
-8.31
-11.75
-15.72
-20.26
-25.25
-30.31
-34.79
-37.86
-38.65
-36.6
-31.64
-24.28
-15.52
-6.55
1.59
8.24
13.17
16.55
18.71
19.97
20.53
20.44
19.72
18.41
16.73
14.98
13.47
12.44
11.93
11.84
11.95
12.03
11.8
11.06
9.64
7.52
4.81
1.73
-1.45
-4.54
-7.53
-10.53
-13.81
-17.64
-22.14
-27.12
-32.08
-36.15
-38.34
-37.8
-34.15
-27.62
-19.06
-9.7
-0.74
6.91
12.85
17.09
19.92
21.7
22.75
23.26
23.33
23.03
22.38
21.42
20.24
19
17.87
17.02
16.53
16.37
16.38
16.33
15.93
14.93
13.11
10.4
6.88
2.8
-1.5
-5.62
-9.31
-12.49
-15.38
-18.4
-21.97
-26.35
-31.35
-36.29
-40.1
-41.58
-39.88
-34.75
-26.75
-17.07
-7.12
1.86
9.16
14.62
18.46
21.04
22.63
23.34
23.29
22.6
21.55
20.42
19.42
18.63
17.99
17.42
16.88
16.43
16.13
15.97
15.8
15.33
14.31
12.56
10.07
6.98
3.52
-0.06
-3.53
-6.74
-9.67
-12.48
-15.54
-19.22
-23.75
-28.95
-34.12
-38.21
-40.02
-38.74
-34.16
-26.81
-17.78
-8.32
0.45
7.82
13.5
17.53
20.12
21.52
22
21.81
21.16
20.25
19.24
18.24
17.29
16.45
15.72
15.1
14.59
14.16
13.79
13.4
12.89
12.09
10.78
8.82
6.21
3.09
-0.24
-3.49
-6.5
-9.32
-12.18
-15.42
-19.28
-23.79
-28.55
-32.86
-35.78
-36.39
-34.15
-29.02
-21.61
-12.96
-4.23
3.64
10.1
14.99
18.4
20.48
21.33
21.03
19.75
17.75
15.43
13.22
11.43
10.27
9.74
9.75
10.13
10.68
11.15
11.28
10.88
9.81
8.08
5.8
3.17
0.4
-2.38
-5.12
-7.9
-10.87
-14.19
-17.95
-22.1
-26.3
-29.97
-32.26
-32.36
-29.7
-24.29
