102.08
88.77
77.15
65.13
51.08
34.02
13.53
-10.43
-37.8
-68.46
-102.16
-138.38
-176.2
-214.38
-251.65
-287.08
-320.43
-352.34
-384.06
-417.08
-452.29
-489.23
-525.53
-556.98
-578.42
-585.08
-574.15
-545.6
-502.09
-447.79
-386.9
-322.57
-256.78
-191.18
-128
-70.48
-22.11
14.72
39.93
55.99
66.86
76.33
86.43
97.09
106.63
113.22
116.01
115.78
114.52
114.46
117.05
122.18
128.35
133.3
134.98
132.23
124.65
112.11
94.15
70.05
39.41
3.06
-36.63
-76.1
-111.77
-141.16
-163.33
-178.51
-187
-188.47
-181.93
-166.51
-142.41
-111.55
-77.23
-43.29
-13.04
11.59
30.09
43.06
51.56
56.54
58.6
58.06
55.2
50.42
44.32
37.61
30.97
25.13
20.74
18.42
18.56
21.22
26.03
32.23
38.85
44.94
49.85
53.25
55.19
55.93
55.75
54.91
53.52
51.62
49.28
46.61
43.83
41.25
39.15
37.65
36.66
35.9
35.05
33.88
32.3
30.38
28.24
26.01
23.73
21.39
18.88
16.08
12.81
8.9
4.31
-0.81
-5.99
-10.44
-13.24
-13.57
-11.07
-5.97
0.93
8.53
15.84
22.21
27.5
31.95
35.92
39.55
42.69
44.91
45.85
45.41
43.91
41.97
40.18
38.87
37.98
37.19
36.17
34.79
33.25
31.85
30.79
29.97
28.94
27.13
24.01
19.37
13.38
6.64
0.04
-5.39
-8.78
-9.57
-7.71
-3.68
1.68
7.46
12.96
17.83
22.04
25.7
28.86
31.42
33.14
33.89
33.74
32.98
32.1
31.51
31.39
31.68
32.06
32.2
31.93
31.31
30.58
30.03
29.79
29.78
29.74
29.34
28.3
26.45
23.78
20.47
16.99
14.06
12.73
14.08
18.83
27.01
37.8
49.75
61.23
71.04
78.71
84.58
89.45
94.16
99.31
105.06
111.31
117.85
124.43
130.48
135
136.58
133.76
125.77
113.11
97.56
81.67
67.76
57.1
49.65
44.53
40.67
37.26
33.8
29.74
24.2
15.94
3.69
-13.43
-35.44
-61.39
-89.33
-116.72
-140.92
-159.96
-173.01
-180.53
-183.75
-183.77
-180.78
-173.9
-161.83
-143.96
-121.28
-96.32
-72.42
-52.39
-37.6
-27.7
-21.25
-16.61
-12.76
-9.44
-6.9
-5.28
-4.34
-3.45
-1.97
0.31
3
5.23
6.1
5.06
2.26
-1.52
-5.09
-7.23
-7.06
-4.38
0.32
6.13
12.09
17.64
22.77
27.85
33.19
38.64
43.53
46.96
48.33
47.76
46.09
44.54
44.12
45.28
47.8
50.98
53.96
55.85
55.83
53.15
47.23
37.92
25.66
11.64
-2.46
-14.92
-24.49
-30.77
-34.3
-36.33
-38.31
-41.38
-45.95
-51.65
-57.43
-62.08
-64.63
-64.69
-62.43
-58.36
-52.96
-46.55
-39.25
-31.19
-22.56
-13.58
-4.35
5.26
15.35
25.62
35.06
42.21
45.83
45.82
43.52
41.36
41.67
45.4
51.59
57.86
61.73
61.97
59.22
55.49
52.93
52.51
53.49
53.88
51.58
45.56
36.42
26.07
16.72
9.85
5.58
2.88
0.26
-3.23
-7.59
-11.92
-15.12
-16.6
-16.65
-16.16
-15.94
-16.1
-15.82
-13.77
-8.84
-0.76
9.66
20.88
31.28
39.83
46.35
51.4
55.85
60.37
65.11
69.72
73.63
76.33
77.66
77.91
77.71
77.77
78.62
80.43
82.86
85.21
86.49
85.78
82.49
76.56
68.51
59.28
49.87
41.03
33.12
26.07
19.56
13.15
6.43
-0.98
-9.31
-18.56
-28.4
-38.15
-46.92
-53.87
-58.44
-60.47
-60.17
-57.96
-54.3
-49.66
-44.6
-39.78
-35.84
-33.28
-32.28
-32.71
-34.24
-36.57
-39.55
-43.19
-47.56
-52.62
-58.26
-64.21
-70.31
-76.51
-83.05
-90.4
-99.3
-110.53
-124.58
-141.31
-159.69
-178.02
-194.25
-206.37
-212.68
-211.94
-203.54
-187.8
-166.22
-141.36
-116.19
-93.16
-73.33
-56.19
-40.34
-24.55
-8.58
6.66
19.77
29.76
36.49
40.63
43.05
44.37
44.87
44.71
44.24
44.05
44.78
46.84
50.17
54.34
58.77
62.84
66.01
67.82
67.92
66.19
62.89
58.67
54.52
51.45
50.16
50.78
52.87
55.5
57.61
58.22
56.74
53.04
47.53
41.05
34.71
29.67
26.82
26.6
29
33.55
39.62
46.52
53.71
60.73
67.31
73.21
78.34
82.69
86.28
89.06
90.81
91.12
89.59
86.04
80.64
73.83
66.11
57.78
48.89
39.24
28.48
16.14
1.74
-15
-33.79
-53.43
-71.76
-86.16
-94.42
-95.58
-90.27
-80.3
-67.78
-54.35
-40.93
-27.97
-15.91
-5.38
3.03
9.17
13.45
16.68
19.55
22.34
24.79
26.55
27.44
27.78
28.25
29.59
32.3
36.45
41.71
47.54
53.26
58.11
61.28
62
59.7
54.16
45.59
34.59
21.92
8.31
-5.66
-19.43
-32.38
-43.7
-52.53
-58.19
-60.48
-59.85
-57.26
-53.87
-50.66
-48.17
-46.58
-45.78
-45.54
-45.62
-45.77
-45.72
-45.21
-44.17
-42.71
-41.2
-39.96
-39.02
-37.95
-36.04
-32.6
-27.47
-21.24
-15.05
-10.09
-7.05
-5.85
-5.71
-5.5
-4.33
-1.87
1.58
5.24
8.36
10.58
12.2
14.07
17.17
22.08
28.5
35.32
41.01
44.35
44.98
43.44
40.71
37.57
34
29.21
22.16
12.18
-0.5
-14.69
-28.67
-40.63
-49.24
-53.82
-54.43
-51.79
-47.15
-42.07
-38.08
-36.24
-36.88
-39.48
-42.98
-46.23
-48.51
-49.72
-50.3
-50.84
-51.81
-53.35
-55.36
-57.59
-59.83
-61.92
-63.73
-65.13
-66.08
-66.65
-67.12
-67.98
-69.88
-73.45
-79.08
-86.76
-96.07
-106.27
-116.63
-126.56
-135.79
-144.15
-151.23
-156.22
-157.98
-155.58
-148.97
-139.3
-128.53
-118.53
-110.09
-102.54
-94.3
-83.97
-71.22
-56.99
-42.76
-29.72
-18.35
-8.92
-2.16
0.45
-2.67
-11.68
-24.33
-36.13
-42.23
-39.83
-29.75
-16.18
-4.26
2.9
6.15
9.89
19.56
38.5
65.95
97.24
125.91
146.7
157.47
159.36
155.27
147.91
138.55
127.24
114.07
100.38
89.12
83.68
86.15
95.82
109.03
120.56
125.79
122.69
112.52
99.01
86.62
78.68
76.33
78.55
83.05
87.41
90.02
90.3
88.47
84.91
79.65
72.24
61.98
48.58
32.59
15.47
-1.02
-15.5
-27.61
-37.89
-47.22
-55.97
-63.56
-68.62
-69.62
-65.69
-56.96
-44.57
-30.09
-15.09
-0.65
12.55
24.11
33.69
40.84
45.04
45.87
43.06
36.62
26.87
14.33
-0.26
-16
-31.86
-46.75
-59.56
-69.2
-74.84
-75.99
-72.65
-65.34
-55.01
-42.94
-30.44
-18.66
-8.39
-0.13
5.8
9.22
10.12
8.69
5.63
2.07
-0.48
-0.41
3.51
11.86
24.44
40.42
58.63
77.94
97.42
116.3
133.89
149.45
162.16
171.25
176.17
176.76
173.3
166.48
157.16
146.2
134.2
121.42
107.71
92.78
76.4
58.77
40.54
22.71
6.34
-7.93
-20.14
-31.15
-42.42
-55.54
-71.71
-91.26
-113.52
-136.95
-159.61
-179.66
-195.74
-207.06
-213.33
-214.52
-210.76
-202.36
-189.81
-173.89
-155.56
-135.91
-116.14
-97.46
-81.02
-67.73
-57.97
-51.38
-46.91
-43.12
-38.65
-32.78
-25.6
-17.9
-10.79
-5.15
-1.45
0.32
0.44
-0.66
-2.58
-4.92
-7.3
-9.44
-11.34
-13.31
-15.97
-19.87
-24.98
-30.46
-34.73
-36.07
-33.41
-26.86
-17.71
-7.83
1.11
8.33
14.02
18.9
23.57
28.13
32.12
34.9
36.14
35.89
34.54
32.54
30.11
27.29
24.13
20.82
17.82
15.69
14.89
15.57
17.55
20.38
23.47
26.26
28.34
29.49
29.78
29.44
28.8
28.12
27.54
27.21
27.33
28.27
30.43
33.91
38.29
42.52
45.18
44.97
41.15
33.68
23.12
10.24
-4.2
-19.42
-34.47
-47.98
-58.29
-63.78
-63.49
-57.54
-47.19
-34.45
-21.53
-10.21
-1.55
4.07
6.77
6.83
4.56
0.29
-5.54
-12.46
-19.98
-27.69
-35.42
-43.22
-51.21
-59.4
-67.43
-74.58
-79.86
-82.29
-81.27
-76.78
-69.37
-59.89
-49.14
-37.54
-25.12
-11.68
2.8
17.94
32.91
46.68
58.39
67.74
74.97
80.78
85.97
91.08
96.23
101.06
104.94
107.22
107.52
105.82
102.39
97.58
91.59
84.29
75.32
64.26
50.91
35.38
18.26
0.48
-16.82
-32.47
-45.49
-55.35
-62.15
-66.56
-69.59
-72.15
-74.73
-77.21
-79.08
-79.74
-78.89
-76.66
-73.54
-70.14
-66.92
-64.15
-61.83
-59.76
-57.64
-55.14
-51.94
-47.84
-42.85
-37.19
-31.31
-25.77
-21.12
-17.81
-16.1
-16.06
-17.59
-20.41
-24.19
-28.49
-32.75
-36.36
-38.59
-38.69
-36.11
-30.62
-22.48
-12.44
-1.5
9.29
19.2
27.89
35.3
41.47
46.36
49.8
51.61
51.75
50.43
48.08
45.25
42.42
39.95
37.99
36.59
35.6
34.87
34.2
33.42
32.48
31.37
30.08
28.55
26.61
24.03
20.63
16.34
11.15
5.12
-1.64
-8.88
-16.07
-22.38
-26.82
-28.53
-27.18
-23.09
-17.16
-10.56
-4.31
0.94
4.87
7.43
8.6
8.3
6.4
2.79
-2.56
-9.49
-17.66
-26.58
-35.6
-44.01
-51.16
-56.45
-59.48
-60.04
-58.12
-53.94
-47.85
-40.42
-32.29
-24.1
-16.45
-9.83
-4.54
-0.72
1.67
2.9
3.39
3.72
4.57
6.6
10.26
15.69
22.5
29.89
36.89
42.68
46.94
49.93
52.28
54.59
57.07
59.44
61.11
61.53
60.53
58.45
55.96
53.8
52.41
51.84
51.71
51.46
50.57
48.73
45.95
42.49
38.72
34.91
31.18
27.44
23.52
19.27
14.59
9.5
4.09
-1.45
-6.68
-10.98
-13.49
-13.38
-10.13
-3.81
4.83
14.42
23.39
30.36
34.53
35.81
34.65
31.72
27.61
22.65
16.98
10.79
4.5
-1.28
-6
-9.41
-11.76
-13.64
-15.64
-18.07
-20.77
-23.27
-24.97
-25.46
-24.59
-22.47
-19.4
-15.8
-12.1
-8.75
-6.1
-4.31
-3.33
-2.78
-2.07
-0.55
2.32
6.74
12.43
18.74
24.86
30.1
34.17
37.16
39.38
41.07
42.25
42.73
42.3
40.97
39.02
36.86
34.83
32.98
31.15
29.04
26.41
23.22
19.59
15.72
11.86
8.23
4.95
2.06
-0.54
-3.09
-5.89
-9.23
-13.27
-17.92
-22.84
-27.39
-30.8
-32.35
-31.55
-28.33
-23.12
-16.73
-10.1
-4.09
0.79
4.4
6.93
8.74
10.18
11.49
12.71
13.75
14.48
14.76
14.59
14.09
13.41
12.75
12.21
11.83
11.62
11.55
11.6
11.68
11.69
11.43
10.69
9.31
7.21
4.42
1.06
-2.68
-6.67
-10.78
-14.92
-18.91
-22.41
-24.99
-26.16
-25.67
-23.59
-20.35
-16.57
-12.85
-9.49
-6.49
-3.65
-0.73
2.31
5.32
8.03
10.23
11.77
12.68
13.1
13.18
13.08
12.93
12.79
12.63
12.35
11.78
10.77
9.26
7.29
5
2.52
0.03
-2.39
-4.64
-6.69
-8.58
-10.42
-12.35
-14.33
-16.08
-17.01
-16.47
-13.99
-9.56
-3.75
2.53
8.31
12.88
16.02
17.86
18.72
18.92
18.68
18.18
17.59
17.08
16.81
16.83
17.05
17.31
17.44
17.28
16.74
15.78
14.41
12.7
10.78
8.85
7.06
5.42
3.73
1.65
-1.16
-4.86
-9.3
-14.02
-18.37
-21.69
-23.44
-23.33
-21.37
-17.87
-13.37
-8.52
-3.91
0.04
3.25
5.8
7.9
9.62
10.9
11.55
11.42
10.55
9.22
7.87
6.92
6.6
6.83
7.31
7.66
7.64
7.23
6.6
5.92
5.25
4.47
3.32
1.6
-0.74
-3.6
-6.83
-10.24
-13.72
-17.09
-19.96
-21.76
-21.88
-19.93
-15.96
-10.52
-4.52
1.15
5.84
9.36
11.84
13.62
15
16.03
16.67
16.75
16.28
15.36
14.32
13.51
13.2
13.46
14.1
14.79
15.1
14.76
13.71
12.11
10.22
8.3
6.45
4.54
2.38
-0.27
-3.48
-7.1
-10.75
-13.91
-16.01
-16.55
-15.22
-11.99
-7.21
-1.5
4.43
9.91
14.56
18.26
21.12
23.32
25.03
26.27
27.02
27.17
26.65
25.38
23.41
20.73
17.4
13.46
8.9
3.76
-1.92
-8.07
-14.57
-21.31
-28.18
-34.99
-41.47
-47.28
-52.1
-55.74
-58.33
-60.2
-61.83
-63.43
-64.84
-65.37
-64.04
-59.89
-52.34
-41.5
-28.18
-13.67
0.57
13.33
23.99
32.59
39.7
46.11
52.41
58.81
65.05
70.71
75.48
79.48
83.27
87.61
93.14
100.01
107.85
115.92
123.43
129.9
135.18
139.42
142.69
144.86
145.55
144.31
140.8
134.95
126.81
116.44
103.79
88.8
71.66
52.95
33.69
14.96
-2.49
-18.56
-33.85
-49.32
-65.88
-84.01
-103.62
-124.22
-145.12
-165.55
-184.67
-201.46
-214.75
-223.32
-226.15
-222.75
-213.33
-198.84
-180.68
-160.5
-139.76
-119.59
-100.66
-83.33
-67.73
-53.96
-42.08
-32.15
-24.16
-18.03
-13.64
-10.88
-9.67
-9.93
-11.48
-13.87
-16.4
-18.17
-18.32
-16.32
-12.15
-6.3
0.39
7.02
12.9
17.68
21.33
23.99
25.86
27.05
27.69
27.85
27.65
27.18
26.47
25.47
24.08
22.24
20
17.47
14.81
12.12
9.43
6.71
3.93
1.07
-1.87
-4.95
-8.26
-11.9
-15.9
-20.18
-24.57
-28.74
-32.28
-34.68
-35.45
-34.15
-30.67
-25.28
-18.69
-11.84
-5.65
-0.71
2.92
5.65
8.09
10.74
13.75
16.84
19.55
21.46
22.5
22.96
23.37
24.17
25.52
27.1
28.32
28.54
27.39
24.86
21.33
17.33
13.34
9.64
6.29
3.15
0.03
-3.31
-7.03
-11.23
-15.8
-20.38
-24.33
-26.81
-27.01
-24.49
-19.3
-12.15
-4.09
3.75
10.56
16.05
20.37
23.97
27.26
30.43
33.38
35.76
37.21
37.5
36.74
35.31
33.78
32.57
31.85
31.41
30.83
29.72
27.84
25.17
21.85
17.97
13.58
8.63
3.12
-2.85
-9.1
-15.5
-22.02
-28.76
-35.8
-42.98
-49.76
-55.21
-58.32
-58.26
-54.75
-48.09
-39.11
-28.9
-18.46
-8.54
0.45
8.43
15.57
22.25
28.93
36
43.59
51.47
59.02
65.54
70.48
73.73
75.74
77.36
79.62
83.35
88.97
96.22
104
110.4
113.03
109.67
99.07
81.63
59.47
35.96
14.84
-0.79
-9.19
-10.18
-5
4.26
15.3
26.13
35.42
42.51
47.26
49.77
50.17
48.74
46.01
42.91
40.55
39.81
40.9
43.18
45.56
46.93
46.68
44.85
41.99
38.9
36.3
34.72
34.38
35.1
36.37
37.45
37.68
36.73
34.73
32.15
29.5
27.08
24.93
22.92
20.95
19
17.12
15.38
13.81
12.56
11.98
12.56
14.75
18.66
23.96
29.92
35.72
40.72
44.66
47.68
50.16
52.65
55.6
59.27
63.54
67.87
71.42
73.23
72.52
68.89
62.35
53.24
42.1
29.5
16.06
2.4
-10.95
-23.65
-35.71
-47.41
-59.07
-70.86
-82.56
-93.6
-103.29
-111.08
-116.79
-120.59
-122.91
-124.26
-125.1
-125.75
-126.33
-126.67
-126.31
-124.61
-121.05
-115.49
-108.39
-100.71
-93.52
-87.65
-83.3
-80.1
-77.41
-74.71
-71.9
-69.24
-67.21
-66.25
-66.54
-68.01
-70.46
-73.59
-77.18
-81.07
-85.17
-89.35
-93.42
-97.04
-99.8
-101.46
-102.08
-102.16
-102.4
-103.44
-105.56
-108.69
-112.56
-117.01
-121.95
-127.14
-131.79
-134.47
-133.34
-126.89
-114.68
-97.67
-78.02
-58.34
-40.87
-26.93
-16.89
-10.44
-7.11
-6.62
-8.97
-14.37
-22.92
-34.35
-47.96
-62.57
-76.8
-89
-97.39
-100.17
-96
-84.6
-67.28
-46.94
-27.34
-11.85
-2.37
1.12
0.1
-3.47
-8.24
-13.84
-20.62
-29.06
-39.23
-50.57
-62.06
-72.56
-81.02
-86.67
-89.14
-88.48
-85.14
-79.79
-73.13
-65.68
-57.7
-49.28
-40.43
-31.2
-21.81
-12.54
-3.7
4.53
12.19
19.53
26.96
34.86
43.37
52.28
61.17
69.49
76.75
82.53
86.55
88.58
88.49
86.35
82.49
77.45
71.81
65.97
60.06
53.89
47.06
39.17
30.06
20.08
10.14
1.63
-3.94
-5.44
-2.55
4.03
12.83
22.13
30.55
37.47
43.03
47.85
52.51
57.28
61.95
66.02
69.01
70.68
71.11
70.7
69.92
69.12
68.46
67.83
66.96
65.58
63.5
60.71
57.3
53.42
49.1
44.3
38.87
32.77
26.1
19.15
12.26
5.64
-0.79
-7.37
-14.39
-21.82
-29.06
-34.95
-38.14
-37.55
-32.83
-24.54
-13.92
-2.49
8.44
18.04
26.04
32.49
37.57
41.39
43.96
45.24
45.25
44.13
42.22
40
38.01
36.76
36.54
37.35
38.84
40.44
41.54
41.65
40.53
38.18
34.82
30.77
26.34
21.79
17.22
12.64
7.92
2.91
-2.6
-8.77
-15.64
-22.99
-30.15
-36.02
-39.25
-38.63
-33.59
-24.49
-12.61
0.31
12.62
23.28
31.94
38.76
44.04
48.02
50.75
52.24
52.64
52.25
51.44
50.56
49.85
49.42
49.31
49.52
49.97
50.43
50.56
49.94
48.27
45.42
41.57
37.05
32.24
27.44
22.74
18.1
13.31
8.14
2.52
-3.44
-9.27
-14.15
-17.05
-16.99
-13.36
-6.18
3.81
15.27
26.68
36.76
44.74
50.52
54.43
57
58.59
59.33
59.16
58.03
56.08
53.66
51.22
49.1
47.39
45.92
44.41
42.55
40.11
36.89
32.74
27.56
21.4
14.55
7.48
0.74
-5.25
-10.4
-14.96
-19.44
-24.41
-30.22
-36.87
-43.89
-50.37
-55.15
-57.06
-55.37
-50.03
-41.73
-31.78
-21.64
-12.53
-5.11
0.59
4.93
8.43
11.38
13.81
15.46
16.02
15.39
13.78
11.69
9.75
8.45
7.98
8.16
8.59
8.8
8.46
7.44
5.75
3.51
0.81
-2.28
-5.75
-9.58
-13.76
-18.24
-23.03
-28.09
-33.33
-38.46
-42.92
-45.86
-46.36
-43.72
-37.77
-29.09
-18.81
-8.26
1.39
9.53
16.06
21.25
25.39
28.64
30.98
32.38
32.9
32.76
32.2
31.4
30.37
29.05
27.37
25.38
23.23
21.05
18.84
16.4
13.29
9.03
3.23
-4.26
-13.4
-23.94
-35.59
-47.92
-60.36
-72.24
-82.89
-91.91
-99.26
-105.26
-110.21
-114.06
-116.18
-115.56
-111.25
-102.91
-91.12
-77.17
-62.63
-48.66
-35.74
-23.69
-11.96
-0.1
11.98
23.87
34.85
44.15
51.22
55.96
58.7
59.96
60.28
60.06
59.51
58.77
57.98
57.25
56.54
55.56
53.83
50.89
46.57
41.09
34.97
28.87
23.29
18.45
14.27
10.45
6.6
2.43
-2.08
-6.46
-9.76
-10.69
-8.08
-1.34
9.11
21.96
35.32
47.4
57.02
63.8
68.13
70.77
72.62
74.41
76.57
79.18
82.03
84.7
86.77
88.02
88.54
88.81
89.5
91.23
94.35
98.81
104.04
109
112.36
112.71
108.97
100.74
88.46
73.16
56.09
38.21
20.02
1.77
-16.16
-32.94
-47.24
-57.64
-63.08
-63.22
-58.58
-50.32
-40.04
-29.37
-19.72
-11.87
-5.8
-0.62
5.01
12.26
21.45
31.73
41.48
49.01
53.4
54.88
54.54
53.61
52.72
51.6
49.27
44.76
37.7
28.5
18.14
7.52
-2.89
-13.15
-23.52
-34.08
-44.52
-54.31
-63.1
-70.98
-78.43
-85.97
-93.7
-100.95
-106.51
-109.06
-107.78
-102.78
-95.05
-86.18
-77.76
-70.97
-66.3
-63.58
-62.31
-61.94
-62.13
-62.72
-63.66
-64.82
-65.94
-66.72
-67.09
-67.37
-68.24
-70.47
-74.54
-80.41
-87.58
-95.35
-103.21
-111.1
-119.32
-128.29
-138.38
-149.82
-162.84
-177.73
-194.67
-213.29
-232.38
-249.92
-263.67
-271.98
-274.26
-270.9
-262.61
-249.73
-232.01
-209.14
-181.54
-150.77
-119.21
-89.15
-61.93
-37.64
-15.53
5.11
24.44
41.96
56.96
69
78.22
85.14
90.31
94.01
96.16
96.59
95.25
92.4
88.53
84.12
79.28
73.67
66.55
57.3
45.84
33.11
20.93
11.42
6.18
5.52
8.4
12.85
16.9
19.49
20.78
21.94
24.39
28.91
35.2
41.97
47.57
50.81
51.51
50.42
48.84
47.85
47.85
48.43
48.71
47.77
45.22
41.38
37.15
33.66
31.73
31.48
32.22
32.64
31.33
27.29
20.41
11.5
2.19
-5.63
-10.24
-10.6
-6.5
1.48
12.13
23.93
35.34
45.09
52.42
57.25
60.19
62.26
64.52
67.55
71.2
74.72
77.24
78.37
78.45
78.41
79.25
81.41
84.61
88.01
90.64
91.96
91.89
90.76
89
86.83
84.32
81.38
77.95
73.93
69.23
63.8
57.7
51.28
45.2
40.36
37.57
37.34
39.59
43.75
48.88
53.92
58.03
60.72
61.9
61.85
61.03
59.82
58.43
56.78
54.59
51.63
47.83
43.31
38.34
33.11
27.73
22.19
16.57
11.05
5.89
1.22
-3.08
-7.43
-12.34
-18.1
-24.7
-31.79
-39
-46.14
-53.35
-60.87
-68.67
-76.09
-81.91
-84.67
-83.33
-77.81
-69.07
-58.71
-48.41
-39.25
-31.64
-25.43
-20.35
-16.3
-13.35
-11.55
-10.76
-10.62
-10.69
-10.68
-10.58
-10.56
-10.8
-11.29
-11.9
-12.46
-12.91
-13.38
-14.03
-14.89
-15.67
-15.83
-14.69
-11.68
-6.59
0.43
8.89
18.1
27.4
36.38
44.96
53.51
62.71
73.31
85.94
100.81
117.69
135.97
154.76
173.08
189.86
204.04
214.56
220.34
220.28
213.16
197.78
173.14
139.04
96.67
48.87
-0.16
-45.86
-84.46
-113.86
-133.78
-145.42
-150.6
-151.24
-149.05
-145.57
-142.2
-140.02
-139.47
-140.19
-141.18
-141.28
-139.72
-136.48
-132.11
-127.36
-122.53
-117.29
-110.73
-101.89
-90.32
-76.37
-61.15
-46.1
-32.44
-20.76
-10.97
-2.59
4.93
11.9
18.29
23.89
28.47
31.95
34.35
35.75
36.24
35.89
34.83
33.26
31.4
29.47
27.58
25.69
23.7
21.51
19.02
16.19
12.93
9.03
4.26
-1.53
-8.28
-15.69
-23.32
-30.72
-37.58
-43.62
-48.42
-51.29
-51.4
-48.07
-41.22
-31.53
-20.33
-9.16
0.74
8.71
14.68
18.91
21.73
23.41
24.19
24.29
23.94
23.28
22.3
20.85
18.78
16.1
13.02
9.92
7.1
4.72
2.69
0.72
-1.57
-4.52
-8.3
-12.82
-17.7
-22.45
-26.62
-30.06
-33.02
-36.02
-39.65
-44.32
-50.02
-56.27
-62.24
-66.8
-68.88
-67.68
-62.98
-55.35
-46.04
-36.64
-28.51
-22.33
-17.89
-14.42
-10.99
-7.1
-2.78
1.54
5.39
8.59
11.32
14.03
17.14
20.96
25.52
30.6
35.77
40.4
43.81
45.35
44.71
42.04
38.01
33.63
29.83
27.13
25.36
23.83
21.63
18.1
13.12
7.23
1.52
-2.71
-4.3
-2.54
2.63
10.56
20
29.4
37.3
42.71
45.32
45.46
43.83
41.17
37.89
34.1
29.69
24.6
19
13.32
8.09
3.71
0.34
-2.24
-4.48
-6.95
-10.17
-14.43
-19.65
-25.45
-31.2
-36.23
-40.06
-42.6
-44.18
-45.42
-47.09
-49.82
-54.01
-59.69
-66.47
-73.44
-79.32
-82.59
-82.02
-77.07
-68.19
-56.73
-44.53
-33.22
-23.72
-16.07
-9.67
-3.72
2.25
8.15
13.48
17.58
20.04
20.81
20.25
18.91
17.36
16
15.05
14.53
14.29
13.97
13.08
11.16
7.96
3.67
-1.2
-5.95
-10.16
-13.84
-17.44
-21.61
-26.84
-33.28
-40.64
-48.38
-55.74
-61.76
-65.36
-65.52
-61.56
-53.57
-42.51
-30
-17.86
-7.44
0.67
6.74
11.48
15.66
19.71
23.63
27.1
29.74
31.26
31.64
31.06
29.81
28.27
26.75
25.48
24.58
24
23.51
22.8
21.46
19.18
15.75
11.13
5.46
-0.99
-7.81
-14.58
-21.03
-27.11
-33.03
-39.05
-45.13
-50.72
-54.7
-55.82
-53.18
-46.76
-37.42
-26.63
-15.93
-6.39
1.56
8.02
13.35
17.8
21.43
24.14
25.83
26.48
26.24
25.34
24.02
22.42
20.64
18.77
16.95
15.32
13.99
12.86
11.57
9.63
6.65
2.55
-2.35
-7.43
-12.07
-15.82
-18.53
-20.33
-21.53
-22.58
-24.01
-26.26
-29.54
-33.51
-37.17
-39.11
-37.9
-32.8
-24.11
-13.16
-1.83
8.15
15.75
20.78
23.76
25.42
26.46
27.34
28.28
29.21
29.66
28.77
25.44
18.7
8.14
-5.87
-22.4
-40.38
-59.14
-78.58
-99.12
-121.31
-145.43
-171.28
-198.19
-224.98
-250.09
-271.53
-287.04
-294.32
-291.59
-278.06
-254.21
-221.65
-182.64
-139.42
-93.69
-46.68
0.32
45.37
85.6
117.87
139.8
150.97
153.25
150.04
144.78
139.58
134.59
128.65
120.62
110.52
99.88
90.97
85.61
84.1
85.1
86.41
86.16
83.84
80.46
77.88
77.55
79.44
81.78
81.87
77.43
67.74
53.94
38.32
23.02
9.02
-4.16
-18.01
-34.18
-53.66
-76.28
-100.47
-123.33
-141.09
-149.95
-147.24
-132.67
-108.61
-79.51
-50.34
-24.75
-3.98
12.99
28.27
43.6
59.47
75.06
89.09
100.64
109.63
116.72
122.88
128.99
135.83
144.03
154.07
165.86
178.42
189.72
197.08
197.88
190.38
174.15
149.98
119.54
84.86
48.11
11.44
-23.14
-53.98
-80.05
-101.15
-117.8
-130.9
-141.22
-149.01
-153.75
-154.18
-148.73
-136.14
-116.2
-90.19
-60.67
-30.82
-3.38
20.1
39.27
54.52
66.15
73.9
77.21
75.79
70.31
62.51
54.67
48.67
45.29
44
43.45
42.23
39.49
35.12
29.56
23.44
17.22
11.05
4.82
-1.71
-8.8
-16.68
-25.45
-35.1
-45.38
-55.73
-65.21
-72.57
-76.54
-76.13
-71.02
-61.76
-49.64
-36.31
-23.23
-11.29
-0.68
8.81
17.33
24.69
30.36
33.78
34.83
34
32.36
31.16
31.31
33.01
35.77
38.67
40.72
41.26
40.13
37.58
34.07
30.07
25.79
21.25
16.26
10.66
4.41
-2.32
-9.2
-15.76
-21.42
-25.55
-27.48
-26.78
-23.4
-17.87
-11.16
-4.38
1.65
6.66
11.04
15.49
20.67
26.83
33.67
40.44
46.21
50.14
51.76
51.09
48.58
44.92
40.86
36.95
33.45
30.38
27.62
25.02
22.44
19.77
16.93
13.82
10.41
6.67
2.54
-2.08
-7.28
-12.96
-18.78
-24.03
-27.82
-29.32
-28.07
-24.17
-18.23
-11.16
-3.88
2.93
8.86
13.79
17.74
20.82
23.09
24.61
25.37
25.42
24.87
23.98
23.11
22.65
22.81
23.54
24.5
25.14
24.99
23.85
21.89
19.51
17.16
15.03
13.08
11
8.48
5.25
1.16
-3.86
-9.79
-16.35
-22.93
-28.56
-32.09
-32.57
-29.66
-23.82
-16.16
-8.04
-0.58
5.68
10.76
15.09
19.12
23.11
27
30.49
33.23
34.93
35.5
35.06
33.88
32.33
30.74
29.36
28.25
27.24
25.97
23.97
20.87
16.53
11.17
5.3
-0.48
-5.69
-10.13
-13.99
-17.7
-21.81
-26.7
-32.5
-38.85
-44.97
-49.79
-52.2
-51.47
-47.52
-41
-33.08
-25.03
-17.86
-12
-7.31
-3.32
0.52
4.56
8.9
13.33
17.52
21.09
23.77
25.5
26.5
27.14
27.86
28.96
30.46
32.12
33.55
34.29
33.99
32.49
29.87
26.41
22.52
18.64
15.09
11.99
9.2
6.4
3.2
-0.76
-5.6
-11.14
-16.84
-21.87
-25.29
-26.29
-24.56
-20.35
-14.52
-8.23
-2.55
1.84
4.79
6.63
7.96
9.33
11.06
13.19
15.45
17.48
18.9
19.54
19.42
18.76
17.85
16.89
15.94
14.92
13.72
12.26
10.59
8.83
7.06
5.26
3.28
0.91
-2.06
-5.68
-9.89
-14.54
-19.45
-24.55
-29.67
-34.53
-38.53
-40.89
-40.8
-37.81
-32.12
-24.52
-16.25
-8.49
-2.05
2.88
6.49
9.17
11.17
12.47
12.9
12.34
10.9
9.02
7.25
6.13
5.81
6.1
6.46
6.34
5.38
3.61
1.31
-1.18
-3.6
-5.9
-8.16
-10.47
-12.86
-15.41
-18.28
-21.71
-25.9
-30.81
-35.98
-40.58
-43.66
-44.41
-42.49
-38.09
-31.83
-24.57
-17.12
-10.18
-4.22
0.48
3.82
5.89
6.9
7.13
6.89
6.43
5.96
5.59
5.44
5.57
5.97
6.58
7.24
7.69
7.72
7.17
5.96
4.13
1.73
-1.14
-4.41
-7.93
-11.56
-15.2
-18.81
-22.42
-26.08
-29.72
-33.1
-35.75
-37.1
-36.65
-34.23
-30
-24.52
-18.44
-12.33
-6.58
-1.29
3.56
8.06
12.25
16.14
19.68
22.78
25.3
27.08
28
28.07
27.49
26.61
25.8
25.25
24.86
24.3
23.12
21.02
17.96
14.18
10.03
5.82
1.62
-2.71
-7.39
-12.58
-18.25
-24.15
-29.88
-34.84
-38.38
-39.77
-38.34
-33.76
-26.2
-16.5
-5.98
3.9
11.99
17.85
21.81
24.71
27.47
30.62
34.11
37.42
39.89
41.08
41.03
40.25
39.44
39.23
39.84
41.08
42.55
43.82
44.7
45.16
45.3
45.1
44.43
43.08
40.9
37.89
34.22
30.13
25.78
21.16
16.14
10.56
4.32
-2.47
-9.52
-16.3
-22.21
-26.7
-29.39
-30.32
-29.82
-28.49
-26.91
-25.53
-24.53
-23.89
-23.53
-23.43
-23.7
-24.54
-26.12
-28.4
-31.11
-33.75
-35.76
-36.67
-36.28
-34.69
-32.27
-29.54
-26.97
-24.97
-23.8
-23.67
-24.78
-27.22
-30.92
-35.54
-40.46
-45.05
-48.87
-52
-54.93
-58.3
-62.4
-66.78
-70.34
-71.57
-69.23
-62.9
-53.17
-41.36
-29.03
-17.45
-7.29
1.33
8.55
14.58
19.51
23.3
25.89
27.33
27.73
27.29
26.24
24.83
23.3
21.93
20.9
20.3
20
19.67
18.82
17
13.95
9.72
4.74
-0.31
-4.75
-8.08
-10.23
-11.6
-12.88
-14.86
-18.09
-22.65
-28.08
-33.42
-37.41
-38.78
-36.6
-30.54
-21.11
-9.55
2.45
13.24
21.72
27.59
31.29
33.68
35.63
37.61
39.73
41.81
43.63
45.05
46.05
46.6
46.62
45.93
44.44
42.21
39.47
36.59
33.83
31.26
28.7
25.85
22.47
18.47
14.03
9.46
5.03
0.84
-3.25
-7.52
-12.25
-17.42
-22.59
-26.97
-29.59
-29.66
-26.91
-21.62
-14.59
-6.81
0.81
7.61
13.25
17.59
20.64
22.52
23.49
23.92
24.21
24.63
25.24
25.87
26.18
25.9
24.9
23.32
21.47
19.73
18.3
17.13
15.83
13.77
10.4
5.43
-0.96
-8.11
-15.11
-21.16
-25.82
-29.16
-31.69
-34.15
-37.22
-41.31
-46.36
-51.8
-56.65
-59.7
-59.87
-56.56
-49.87
-40.64
-30.17
-19.8
-10.53
-2.87
3.24
8.15
12.29
15.95
19.23
22.04
24.26
25.8
26.67
26.94
26.73
26.16
25.37
24.53
23.79
23.33
23.16
23.15
22.99
22.28
20.69
18.03
14.36
9.96
5.23
0.53
-3.94
-8.2
-12.49
-17.21
-22.62
-28.75
-35.16
-41
-45.21
-46.8
-45.19
-40.39
-33.02
-24.08
-14.63
-5.57
2.52
9.41
15.04
19.46
22.7
24.8
25.91
26.24
26.11
25.8
25.49
25.17
24.75
24.08
23.11
21.84
20.4
18.87
17.29
15.59
13.61
11.21
8.33
5.06
1.62
-1.68
-4.59
-7
-8.98
-10.83
-12.97
-15.77
-19.45
-23.97
-28.87
-33.31
-36.2
-36.45
-33.46
-27.32
-18.94
-9.74
-1.12
5.95
11.23
15.08
18.14
20.94
23.67
26.2
28.21
29.46
29.88
29.64
29
28.25
27.59
27.09
26.72
26.37
25.94
25.35
24.48
23.17
21.2
18.42
14.8
10.5
5.88
1.38
-2.67
-6.11
-9.04
-11.74
-14.6
-17.89
-21.6
-25.38
-28.52
-30.23
-29.93
-27.47
-23.31
-18.32
-13.56
-9.83
-7.56
-6.68
-6.83
-7.6
-8.63
-9.78
-11
-12.27
-13.51
-14.52
-15.04
-14.81
-13.74
-11.92
-9.67
-7.38
-5.49
-4.29
-3.99
-4.71
-6.52
-9.42
-13.23
-17.64
-22.15
-26.28
-29.8
-32.83
-35.81
-39.21
-43.25
-47.61
-51.47
-53.69
-53.29
-49.83
-43.56
-35.41
-26.61
-18.28
-11.08
-5.13
-0.11
4.48
9.05
13.75
18.45
22.83
26.52
29.16
30.57
30.77
29.99
28.67
27.26
26.06
25.18
24.43
23.45
21.83
19.23
15.47
10.61
4.91
-1.21
-7.25
-12.76
-17.54
-21.69
-25.68
-30.09
-35.36
-41.47
-47.79
-53.21
-56.51
-56.71
-53.5
-47.37
-39.47
-31.21
-23.88
-18.27
-14.5
-12.11
-10.37
-8.51
-6.1
-3.1
0.17
3.25
5.79
7.64
8.83
9.49
9.66
9.32
8.51
7.42
6.45
6.02
6.33
7.19
7.99
7.96
6.48
3.39
-1
-6.06
-11.15
-15.93
-20.36
-24.59
-28.64
-32.13
-34.31
-34.28
-31.43
-25.76
-18.02
-9.44
-1.32
5.41
10.46
14.08
16.79
19.04
21.04
22.73
23.94
24.54
24.54
24.04
23.2
22.16
21.03
19.95
19.14
18.88
19.41
20.77
22.67
24.46
25.34
24.62
21.99
17.69
12.43
7.14
2.62
-0.69
-2.93
-4.68
-6.79
-9.99
-14.54
-20
-25.25
-28.8
-29.3
-26.05
-19.27
-10.1
-0.16
9
16.38
21.76
25.54
28.47
31.19
34.05
36.95
39.52
41.29
41.88
41.22
39.54
37.24
34.82
32.66
31.02
30.01
29.6
29.64
29.83
29.72
28.78
26.56
22.86
17.86
12.05
6.12
0.63
-4.15
-8.35
-12.44
-16.95
-22.26
-28.29
-34.42
-39.57
-42.46
-42.08
-38.02
-30.72
-21.28
-11.16
-1.71
6.22
12.34
16.86
20.14
22.54
24.26
25.4
26.06
26.47
26.91
27.64
28.76
30.13
31.4
32.17
32.17
31.3
29.71
27.61
25.16
22.37
19.07
15.04
10.05
4.04
-2.84
-10.31
-17.97
-25.4
-32.29
-38.45
-43.87
-48.68
-53.02
-56.91
-60.11
-62
-61.7
-58.36
-51.48
-41.28
-28.75
-15.45
-3.03
7.26
14.89
20.09
23.62
26.31
28.76
31.1
33.14
34.5
34.99
34.69
33.9
32.91
31.79
30.27
27.91
24.45
19.99
15.12
10.68
7.38
5.55
5.02
5.29
5.75
5.96
5.65
4.68
2.95
0.32
-3.32
-7.89
-12.92
-17.52
-20.55
-20.96
-18.24
-12.61
-5.1
2.89
9.97
15.24
18.41
19.77
19.89
19.35
18.54
17.64
16.68
15.61
14.43
13.22
12.14
11.37
11.06
11.15
11.38
11.4
10.85
9.61
7.74
5.44
2.86
0.04
-3.07
-6.52
-10.26
-14.11
-17.87
-21.4
-24.68
-27.62
-29.99
-31.36
-31.2
-29.16
-25.25
-19.95
-13.97
-8.01
-2.46
2.62
7.43
12.15
16.82
21.2
24.9
27.52
28.82
28.85
27.91
26.49
25.18
24.35
24.1
24.12
23.85
22.7
20.31
16.75
12.47
8.1
4.2
0.95
-1.82
-4.59
-7.93
-12.26
-17.69
-23.96
-30.43
-36.31
-40.72
-43.02
-42.89
-40.48
-36.35
-31.28
-26.05
-21.27
-17.26
-14.06
-11.53
-9.5
-7.82
-6.53
-5.74
-5.6
-6.17
-7.33
-8.74
-9.91
-10.3
-9.55
-7.62
-4.83
-1.81
0.79
2.5
3.2
3
2.18
0.95
-0.66
-2.72
-5.28
-8.3
-11.63
-15.08
-18.53
-21.93
-25.17
-27.96
-29.68
-29.56
-26.92
-21.48
-13.55
-3.97
6.08
15.4
23.05
28.53
31.81
33.26
33.49
33.08
32.43
31.63
30.6
29.19
27.42
25.48
23.73
22.51
22
22.18
22.84
23.71
24.46
24.79
24.44
23.26
21.26
18.57
15.42
11.98
8.32
4.38
0.11
-4.5
-9.35
-14.3
-19.11
-23.47
-26.91
-28.84
-28.7
-26.19
-21.51
-15.28
-8.41
-1.71
4.36
9.79
14.8
19.65
24.36
28.7
32.29
34.8
36.04
36.09
35.16
33.58
31.66
29.67
27.74
25.94
24.26
22.66
21.15
19.71
18.25
16.59
14.43
11.46
7.51
2.62
-2.86
-8.41
-13.54
-17.92
-21.49
-24.4
-26.83
-28.8
-30.13
-30.45
-29.47
-27.11
-23.64
-19.6
-15.58
-11.99
-8.95
-6.29
-3.73
-1.12
1.46
3.66
5.12
5.64
5.36
4.71
4.26
4.4
5.21
6.4
7.5
8.11
8.02
7.29
6.09
4.55
2.68
0.4
-2.37
-5.58
-9.12
-12.86
-16.72
-20.72
-24.89
-29.12
-33.03
-36.01
-37.31
-36.4
-33.15
-27.98
-21.77
-15.55
-10.14
-5.88
-2.64
0.07
2.64
5.21
7.53
9.15
9.72
9.18
7.81
6.06
4.36
2.88
1.53
0.02
-1.95
-4.52
-7.64
-11.11
-14.69
-18.12
-21.14
-23.57
-25.24
-26.08
-26.22
-26.01
-25.93
-26.45
-27.82
-29.84
-31.93
-33.17
-32.72
-30.03
-25.07
-18.32
-10.59
-2.82
4.18
9.9
14.2
17.28
19.59
21.57
23.54
25.53
27.3
28.48
28.76
28.1
26.69
24.89
23.04
21.27
19.56
17.79
15.85
13.72
11.39
8.87
6.12
3.09
-0.26
-3.9
-7.72
-11.64
-15.58
-19.54
-23.53
-27.54
-31.43
-34.83
-37.19
-37.93
-36.6
-33.13
-27.88
-21.57
-15.03
-9
-3.85
0.37
3.91
7.06
10.04
12.9
15.6
18.01
20.01
21.55
22.64
23.29
23.52
23.36
22.93
22.44
22.17
22.3
22.82
23.44
23.71
23.14
21.43
18.58
14.87
10.73
6.58
2.73
-0.8
-4.14
-7.58
-11.38
-15.6
-19.98
-23.96
-26.79
-27.79
-26.61
-23.36
-18.59
-13.06
-7.51
-2.42
2.04
5.94
9.43
12.59
15.37
17.61
19.15
19.94
20.05
19.64
18.89
17.91
16.66
15.11
13.32
11.45
9.78
8.53
7.7
7.02
6.01
4.23
1.48
-2.11
-6.11
-9.99
-13.29
-15.87
-17.85
-19.64
-21.68
-24.38
-27.92
-32.12
-36.42
-40.01
-42.03
-41.82
-39.18
-34.44
-28.37
-21.92
-15.96
-10.98
-7.03
-3.74
-0.6
2.82
6.63
10.55
14.14
16.95
18.8
19.82
20.34
20.66
20.9
20.97
20.66
19.86
18.66
17.29
16.07
15.17
14.58
14.14
13.54
12.49
10.72
8.13
4.77
0.91
-3.02
-6.54
-9.32
-11.29
-12.7
-14.04
-15.92
-18.78
-22.87
-28.06
-33.82
-39.28
-43.43
-45.34
-44.5
-41.01
-35.56
-29.23
-23.07
-17.83
-13.72
-10.55
-7.9
-5.43
-3
-0.69
1.39
3.16
4.71
6.2
7.73
9.3
10.78
11.94
12.6
12.77
12.61
12.48
12.68
13.35
14.37
15.34
15.82
15.49
14.33
12.62
10.77
9.17
7.95
6.98
5.91
4.35
2.02
-1.17
-5.1
-9.48
-13.78
-17.33
-19.41
-19.38
-16.98
-12.32
-5.96
1.23
8.29
14.46
19.27
22.65
24.8
26.1
26.87
27.33
27.52
27.41
26.97
26.24
25.31
24.27
23.16
21.96
20.62
19.14
17.62
16.21
14.98
13.84
12.53
10.72
8.21
5.04
1.49
-1.95
-4.85
-6.95
-8.32
-9.25
-10.21
-11.64
-13.85
-16.88
-20.47
-24.03
-26.83
-28.16
-27.54
-24.9
-20.59
-15.29
-9.79
-4.74
-0.46
3.07
6.13
9.04
12.02
15.04
17.93
20.43
22.35
23.63
24.3
24.44
24.09
23.27
22.07
20.64
19.19
17.86
16.69
15.56
14.27
12.64
10.56
8.01
5.04
1.72
-1.81
-5.35
-8.69
-11.67
-14.24
-16.42
-18.16
-19.25
-19.28
-17.8
-14.65
-10.13
-5.03
-0.28
3.37
5.65
6.78
7.21
7.3
7.15
6.63
5.61
4.12
2.46
1.01
0.07
-0.3
-0.32
-0.29
-0.56
-1.27
-2.42
-3.84
-5.33
-6.65
-7.69
-8.44
-9.07
-9.89
-11.28
-13.61
-17.13
-21.9
-27.62
-33.71
-39.32
-43.45
-45.19
-43.98
-39.76
-33.05
-24.84
-16.32
-8.54
-2.22
2.39
5.48
7.48
8.89
10.07
11.17
12.14
12.76
12.82
12.15
10.7
8.56
5.98
3.31
0.97
-0.65
-1.28
-0.89
0.29
1.83
3.13
3.67
3.06
1.18
-1.86
-5.75
-10.08
-14.44
-18.4
-21.6
-23.67
-24.27
-23.18
-20.32
-15.93
-10.48
-4.67
0.84
5.6
9.43
12.42
14.79
16.7
18.19
19.18
19.52
19.11
17.98
16.25
14.2
12.18
10.52
9.49
9.13
9.21
9.25
8.73
7.27
4.81
1.64
-1.69
-4.61
-6.69
-7.8
-8.14
-8.13
-8.38
-9.46
-11.78
-15.37
-19.79
-24.17
-27.37
-28.35
-26.54
-22.07
-15.72
-8.67
-2.12
3.11
6.77
9.12
10.75
12.21
13.89
15.88
18.03
20.06
21.68
22.68
22.95
22.54
21.64
20.47
19.26
18.1
16.98
15.75
14.25
12.41
10.24
7.84
5.3
2.66
-0.14
-3.19
-6.53
-10.14
-13.91
-17.67
-21.23
-24.42
-26.98
-28.56
-28.81
-27.44
-24.41
-20.01
-14.81
-9.48
-4.56
-0.27
3.43
6.69
9.56
11.91
13.48
14.09
13.85
13.1
12.3
11.74
11.43
11.1
10.43
9.28
7.79
6.39
5.55
5.57
6.44
7.79
9.04
9.55
8.88
6.89
3.79
0.09
-3.6
-6.78
-9.17
-10.78
-11.92
-13.04
-14.58
-16.84
-19.78
-23.01
-25.86
-27.52
-27.3
-24.86
-20.32
-14.19
-7.27
-0.39
5.81
11.02
15.25
18.8
22.05
25.21
28.27
31
33.07
34.26
34.52
33.98
32.87
31.41
29.78
28.14
26.64
25.34
24.2
22.99
21.33
18.83
15.23
10.57
5.08
-0.83
-6.72
-12.2
-17.04
-21.12
-24.53
-27.54
-30.54
-33.97
-38.17
-43.25
-48.97
-54.72
-59.56
-62.44
-62.49
-59.32
-53.17
-44.88
-35.67
-26.75
-19.06
-13.02
-8.59
-5.41
-2.98
-0.92
0.99
2.73
4.19
5.19
5.69
5.81
5.82
6.02
6.59
7.54
8.72
9.96
11.22
12.64
14.43
16.71
19.36
21.96
23.91
24.58
23.67
21.3
18.06
14.71
11.94
10.05
8.85
7.75
6.01
3.12
-0.99
-5.91
-10.84
-14.9
-17.4
-17.97
-16.61
-13.66
-9.66
-5.27
-1.09
2.41
5.05
6.96
8.54
10.21
12.23
14.51
16.72
18.42
19.36
19.57
19.29
18.84
18.39
17.96
17.46
16.92
16.46
16.27
16.44
16.8
16.95
16.43
14.88
12.29
8.93
5.24
1.68
-1.46
-4.06
-6.15
-7.83
-9.2
-10.43
-11.8
-13.7
-16.49
-20.3
-24.76
-28.92
-31.39
-30.77
-26.18
-17.59
-5.9
7.44
20.87
33.3
44.36
54.28
63.55
72.53
81.16
89.02
95.56
100.37
103.34
104.56
104.13
102.1
98.5
93.45
87.24
80.21
72.45
63.56
52.69
38.9
21.73
1.66
-19.82
-40.6
-58.53
-72.05
-80.51
-84.2
-84.16
-81.89
-79.05
-77.09
-76.95
-78.86
-82.34
-86.36
-89.71
-91.32
-90.5
-87.08
-81.31
-73.85
-65.63
-57.71
-51.1
-46.48
-43.95
-42.97
-42.53
-41.46
-38.97
-34.84
-29.51
-23.78
-18.45
-13.96
-10.35
-7.36
-4.72
-2.33
-0.28
1.31
2.42
3.16
3.66
3.92
3.72
2.69
0.46
-3.1
-7.73
-12.85
-17.72
-21.64
-24.13
-25.13
-24.91
-24.01
-23.1
-22.66
-22.86
-23.39
-23.62
-22.78
-20.33
-16.15
-10.63
-4.51
1.36
6.33
10.04
12.49
13.9
14.6
14.9
15.07
15.3
15.72
16.3
16.96
17.5
17.69
17.33
16.36
14.88
13.13
11.42
10.02
9.14
8.83
9.07
9.8
10.94
12.38
13.86
15.01
15.38
14.54
12.26
8.62
4.01
-0.94
-5.46
-8.84
-10.43
-9.88
-7.25
-3
2.06
7.04
11.32
14.76
17.66
20.45
23.31
26.05
28.17
29.22
29.24
28.86
29.09
30.81
34.34
39.21
44.41
48.78
51.64
53.04
53.77
54.97
57.59
61.92
67.46
73.12
77.76
80.72
82.06
82.6
83.55
86.28
92.06
101.84
115.88
133.12
150.7
163.98
167.64
157.6
132.96
96.73
54.91
14.19
-20.42
-46.91
-65.78
-78.58
-86.45
-89.8
-88.86
-84.71
-79.49
-75.7
-74.89
-76.9
-79.95
-81.75
-80.78
-76.97
-71.51
-65.99
-61.67
-59.05
-57.98
-57.91
-58.17
-58.14
-57.26
-55.22
-52.08
-48.33
-44.78
-42.18
-40.78
-40.14
-39.23
-36.92
-32.43
-25.73
-17.55
-9.02
-1.23
5.1
9.71
12.64
13.99
13.84
12.25
9.43
5.83
2.1
-1.19
-3.68
-5.41
-6.69
-7.89
-9.16
-10.32
-11
-10.83
-9.77
-8.19
-6.78
-6.29
-7.24
-9.76
-13.62
-18.39
-23.52
-28.45
-32.51
-34.98
-35.14
-32.56
-27.31
-20.11
-12.11
-4.48
1.93
6.87
10.57
13.49
16.04
18.42
20.71
23.01
25.53
28.37
31.37
33.88
34.84
33.07
27.76
18.78
6.74
-7.26
-21.92
-36.09
-48.86
-59.65
-68.3
-75.11
-80.92
-86.9
-94.18
-103.26
-113.69
-124.03
-132.24
-136.45
-135.52
-129.37
-118.88
-105.46
-90.53
-75.17
-60.05
-45.53
-31.78
-18.89
-6.76
4.85
16.3
27.84
39.33
50.16
59.36
66.05
69.84
70.97
70.2
68.4
66.19
63.74
60.93
57.6
53.69
49.32
44.56
39.41
33.78
27.64
21.24
15.11
9.86
5.93
3.35
1.71
0.39
-1.13
-2.96
-4.73
-5.74
-5.3
-3.05
0.83
5.7
10.72
15.28
19.25
23.03
27.23
32.38
38.6
45.54
52.49
58.72
63.74
67.36
69.75
71.24
72.24
73.06
73.93
74.98
76.21
77.59
79.04
80.4
81.49
82.11
82.16
81.7
81.02
80.47
80.33
80.56
80.78
80.38
78.78
75.69
71.17
65.57
59.26
52.54
45.51
38.19
30.56
22.55
14.03
4.72
-5.52
-16.42
-27.05
-35.85
-41.15
-41.88
-38.24
-31.69
-24.51
-18.76
-15.52
-14.55
-14.7
-14.64
-13.61
-11.71
-9.72
-8.57
-8.87
-10.68
-13.61
-17.11
-20.72
-24.16
-27.32
-30.08
-32.33
-33.88
-34.65
-34.73
-34.46
-34.27
-34.62
-35.78
-37.76
-40.36
-43.21
-45.97
-48.45
-50.66
-52.8
-55.11
-57.73
-60.61
-63.59
-66.52
-69.45
-72.66
-76.61
-81.61
-87.66
-94.23
-100.42
-105.24
-107.93
-108.19
-106.2
-102.53
-97.92
-93.13
-88.7
-84.91
-81.79
-79.11
-76.6
-73.96
-71.05
-67.81
-64.4
-60.99
-57.82
-55.06
-52.84
-51.18
-50.04
-49.3
-48.84
-48.47
-47.99
-47.08
-45.28
-42.02
-36.72
-29.04
-19.12
-7.64
4.29
15.4
24.64
31.36
35.45
37.16
36.96
35.32
32.71
29.57
26.27
23.12
20.27
17.67
15.03
11.89
7.77
2.41
-3.99
-10.65
-16.34
-19.67
-19.65
-16.1
-9.8
-2.19
5.1
10.95
14.97
17.6
19.64
21.85
24.58
27.71
30.83
33.47
35.29
36.24
36.54
36.47
36.4
36.5
36.81
37.18
37.36
37.11
36.27
34.85
32.96
30.76
28.41
25.99
23.55
21.09
18.68
16.36
14.29
12.56
11.27
10.48
10.1
10.04
10.04
9.87
9.28
8.09
6.24
3.78
0.94
-1.9
-4.26
-5.62
-5.62
-4.09
-1.14
2.89
7.53
12.27
16.69
20.59
23.96
26.93
29.63
32.12
34.36
36.23
37.58
38.32
38.5
38.3
38
37.96
38.53
39.94
42.24
45.2
48.32
50.95
52.41
52.3
50.6
47.71
44.22
40.69
37.42
34.37
31.32
28.02
24.34
20.22
15.6
10.28
3.98
-3.41
-11.64
-20.06
-27.86
-34.39
-39.45
-43.23
-45.95
-47.52
-47.48
-45.21
-40.46
-33.7
-26.03
-18.81
-13.06
-9.1
-6.51
-4.51
-2.39
0.24
3.3
6.5
9.49
12.07
14.2
15.92
17.29
18.36
19.12
19.53
19.52
19.01
17.96
16.36
14.31
11.93
9.35
6.55
3.42
-0.17
-4.18
-8.33
-12.11
-15.03
-16.89
-17.92
-18.75
-20.08
-22.36
-25.5
-28.91
-31.69
-32.97
-32.15
-29.07
-23.95
-17.29
-9.71
-1.89
5.57
12.25
17.85
22.36
25.96
28.98
31.78
34.6
37.49
40.34
42.98
45.31
47.37
49.24
50.95
52.41
53.41
53.75
53.33
52.19
50.41
48.1
45.25
41.87
37.97
33.62
28.98
24.2
19.39
14.63
9.92
5.19
0.37
-4.6
-9.73
-14.87
-19.76
-24.12
-27.76
-30.7
-33.11
-35.2
-37.04
-38.58
-39.61
-39.97
-39.6
-38.59
-37.07
-35.1
-32.71
-29.93
-26.89
-23.76
-20.72
-17.85
-15.1
-12.44
-9.87
-7.63
-5.99
-5.19
-5.19
-5.75
-6.48
-7.08
-7.5
-7.87
-8.42
-9.24
-10.27
-11.35
-12.36
-13.29
-14.21
-15.23
-16.34
-17.46
-18.46
-19.24
-19.81
-20.18
-20.3
-20.02
-19.24
-18
-16.59
-15.49
-15.06
-15.43
-16.29
-17.19
-17.69
-17.71
-17.43
-17.17
-17.07
-16.99
-16.53
-15.36
-13.36
-10.82
-8.25
-6.19
-4.97
-4.61
-4.96
-5.82
-7.07
-8.72
-10.79
-13.21
-15.72
-17.96
-19.59
-20.55
-21.16
-21.93
-23.38
-25.69
-28.6
-31.42
-33.35
-33.79
-32.56
-29.92
-26.35
-22.38
-18.32
-14.3
-10.24
-6.09
-1.93
2.09
5.68
8.62
10.86
12.49
13.72
14.77
15.76
16.66
17.43
18.04
18.57
19.13
19.86
20.8
21.86
22.86
23.58
23.85
23.56
22.65
21.11
18.95
16.17
12.88
9.26
5.54
1.95
-1.46
-4.8
-8.35
-12.38
-16.92
-21.61
-25.78
-28.54
-29.21
-27.52
-23.76
-18.65
-13.11
-7.91
-3.53
-0.12
2.4
4.14
5.12
5.3
4.62
3.08
0.78
-2.11
-5.47
-9.21
-13.3
-17.67
-22.2
-26.73
-31.19
-35.69
-40.57
-46.3
-53.15
-61.09
-69.58
-77.77
-84.77
-90.01
-93.47
-95.65
-97.33
-99.22
-101.68
-104.64
-107.67
-110.24
-111.88
-112.27
-111.28
-108.91
-105.16
-100.07
-93.7
-86.12
-77.37
-67.5
-56.48
-44.28
-30.98
-16.88
-2.67
10.63
21.92
30.43
36.05
39.42
41.54
43.17
44.5
45.25
45.33
45.5
47.48
53.09
62.92
75.21
85.99
90.69
86.61
74.72
59.86
48.85
47.56
58.34
79.18
104.86
129.34
148.21
159.81
165.11
166.49
166.44
166.71
168.05
170.37
172.91
174.5
173.69
169.18
160.18
146.74
129.77
110.7
91.06
71.99
54.08
37.37
21.52
6.04
-9.48
-25.24
-41.08
-56.56
-71.24
-84.85
-97.58
-109.86
-122.05
-133.99
-144.81
-153.12
-157.53
-157.22
-152.35
-143.82
-132.99
-121.29
-109.96
-100.08
-92.61
-88.18
-86.79
-87.46
-88.27
-86.81
-81.09
-70.27
-55.02
-37.22
-19.18
-2.74
11.33
23.32
34.23
45.11
56.52
68.32
79.67
89.43
96.61
100.69
101.84
100.82
98.6
95.95
93.06
89.54
84.75
78.21
70.03
60.87
51.69
43.25
35.74
28.79
21.75
14.19
6.13
-1.93
-9.32
-15.47
-20.06
-22.9
-23.81
-22.55
-18.96
-13.19
-5.78
2.36
10.25
17.17
22.91
27.67
31.93
36.12
40.44
44.84
49.13
53.19
57.01
60.72
64.48
68.39
72.34
76.02
78.9
80.37
79.8
76.74
70.92
62.4
51.49
38.78
24.92
10.52
-3.97
-18.32
-32.49
-46.56
-60.51
-74.1
-86.72
-97.41
-105.02
-108.51
-107.29
-101.48
-91.86
-79.72
-66.39
-52.91
-39.8
-27.06
-14.37
-1.38
12.1
25.99
39.92
53.28
65.37
75.5
83.13
88.06
90.42
90.69
89.54
87.69
85.69
83.86
82.25
80.62
78.53
75.45
70.84
64.25
55.49
44.61
31.87
17.68
2.52
-13.05
-28.36
-42.56
-54.66
-63.7
-68.95
-70.1
-67.4
-61.51
-53.31
-43.62
-33.04
-21.96
-10.64
0.6
11.27
20.77
28.53
34.22
37.9
39.93
40.81
40.94
40.49
39.49
37.93
35.98
33.89
31.91
29.96
27.56
23.99
18.64
11.35
2.57
-6.84
-15.91
-23.99
-30.93
-37.02
-42.81
-48.82
-55.36
-62.43
-69.58
-76.08
-81.01
-83.61
-83.5
-80.82
-76.2
-70.45
-64.21
-57.79
-51.12
-44.03
-36.52
-28.86
-21.53
-15.02
-9.55
-5
-1.05
2.73
6.59
10.59
14.57
18.29
21.53
24.2
26.37
28.18
29.75
31.08
31.95
31.95
30.63
27.71
23.31
17.98
12.6
8.01
4.66
2.35
0.27
-2.59
-7.08
-13.53
-21.57
-30.25
-38.29
-44.39
-47.49
-47
-43.07
-36.48
-28.56
-20.74
-14.12
-9.13
-5.52
-2.62
0.27
3.55
7.21
10.95
14.36
17.1
18.93
19.73
19.52
18.45
16.85
15.14
13.73
12.86
12.57
12.7
12.99
13.13
12.97
12.43
11.53
10.41
9.22
8.11
7.16
6.31
5.36
4.1
2.42
0.54
-0.99
-1.39
0.11
3.95
10.05
17.81
26.36
34.78
42.42
48.98
54.45
58.97
62.67
65.6
67.73
69.07
69.7
69.71
69.14
67.87
65.71
62.37
57.7
51.75
44.78
37.22
29.57
22.35
16.03
11.06
7.74
6.1
5.85
6.32
6.68
6.08
4.01
0.32
-4.62
-10.11
-15.16
-18.75
-19.97
-18.32
-13.81
-7
1.15
9.61
17.6
24.77
31.13
36.94
42.39
47.51
52.15
56.03
58.9
60.57
60.98
60.1
57.93
54.55
50.13
45.04
39.75
34.77
30.44
26.75
23.41
19.83
15.43
9.8
2.83
-5.3
-14.26
-23.72
-33.44
-43.34
-53.33
-63.25
-72.6
-80.53
-86.02
-88.22
-86.85
-82.43
-76.11
-69.26
-62.91
-57.49
-52.79
-48.41
-44.06
-39.86
-36.26
-33.73
-32.61
-32.93
-34.47
-36.87
-39.76
-42.77
-45.64
-48.25
-50.61
-52.82
-55.01
-57.18
-59.27
-61.16
-62.83
-64.37
-65.9
-67.51
-69.2
-70.83
-72.29
-73.62
-74.99
-76.76
-79.12
-81.96
-84.69
-86.31
-85.65
-81.75
-74.21
-63.37
-50.24
-36.21
-22.65
-10.51
-0.17
8.51
15.98
22.79
29.3
35.65
41.72
47.2
51.72
55.02
57
57.77
57.63
56.96
56.09
55.31
54.79
54.53
54.42
54.2
53.58
52.24
49.98
46.81
42.92
38.68
34.44
30.45
26.75
23.18
19.31
14.63
8.7
1.46
-6.57
-14.25
-20.07
-22.65
-21.25
-15.93
-7.5
2.89
14.11
25.27
35.72
44.88
52.11
56.87
58.8
57.94
54.7
49.67
43.5
36.66
29.47
22.18
15.06
8.44
2.67
-1.99
-5.46
-7.92
-9.82
-11.67
-13.94
-16.81
-20.22
-23.86
-27.4
-30.55
-33.24
-35.54
-37.71
-40.03
-42.87
-46.49
-50.95
-55.95
-60.77
-64.37
-65.71
-64.11
-59.43
-52.2
-43.34
-33.87
-24.66
-16.24
-8.84
-2.44
3.06
7.81
11.88
15.31
18.04
19.97
21.06
21.35
21.01
20.36
19.74
19.42
19.59
20.31
21.54
23.1
24.68
25.86
26.11
25.09
22.67
19.14
15.06
11.12
7.76
5.1
2.8
0.28
-3.07
-7.62
-13.34
-19.76
-26.09
-31.33
-34.59
-35.26
-33.18
-28.65
-22.32
-14.98
-7.39
-0.09
6.59
12.47
17.42
21.32
24.1
25.82
26.67
26.95
26.99
27.05
27.23
27.52
27.86
28.22
28.61
29.06
29.52
29.79
29.57
28.55
26.52
23.55
19.92
16.03
12.32
9.05
6.28
3.84
1.36
-1.59
-5.41
-10.3
-16.12
-22.27
-27.82
-31.69
-33.02
-31.43
-27.24
-21.32
-14.87
-9
-4.41
-1.31
0.56
1.65
2.39
3.03
3.61
4.04
4.16
3.89
3.22
2.24
1.09
-0.09
-1.2
-2.2
-3.05
-3.79
-4.51
-5.41
-6.76
-8.86
-11.91
-15.88
-20.5
-25.3
-29.81
-33.74
-37.16
-40.45
-44.3
-49.34
-55.94
-63.92
-72.35
-79.71
-84.25
-84.58
-80.11
-71.41
-59.91
-47.53
-35.96
-26.21
-18.49
-12.42
-7.35
-2.76
1.66
5.93
9.97
13.61
16.74
19.31
21.31
22.78
23.84
24.68
25.54
26.67
28.18
29.96
31.61
32.56
32.25
30.39
27.08
22.83
18.35
14.24
10.78
7.85
4.94
1.43
-3.16
-8.98
-15.67
-22.39
-27.98
-31.2
-31.17
-27.66
-21.21
-13.01
-4.45
3.27
9.54
14.33
18.02
21.05
23.73
26.09
28.03
29.43
30.2
30.36
29.98
29.16
28.05
26.86
25.81
25.06
24.62
24.34
23.89
22.87
20.97
18.06
14.25
9.88
5.38
1.11
-2.7
-6.07
-9.21
-12.43
-16.11
-20.51
-25.73
-31.53
-37.23
-41.75
-43.82
-42.39
-37.07
-28.37
-17.62
-6.51
3.5
11.61
17.8
22.61
26.67
30.4
33.79
36.59
38.46
39.24
39
38.05
36.75
35.42
34.25
33.24
32.35
31.46
30.45
29.26
27.75
25.8
23.28
20.14
16.45
12.38
8.2
4.12
0.22
-3.6
-7.56
-11.94
-16.85
-22.12
-27.2
-31.2
-33.15
-32.25
-28.21
-21.46
-12.99
-4.12
3.96
10.47
15.19
18.34
20.3
21.39
21.75
21.45
20.57
19.34
18.15
17.41
17.4
18.11
19.23
20.27
20.78
20.48
19.36
17.59
15.42
13
10.36
7.37
3.87
-0.27
-5.09
-10.51
-16.23
-21.72
-26.22
-28.87
-28.9
-25.93
-20.2
-12.53
-4.13
3.8
10.4
15.42
19.01
21.52
23.13
23.77
23.17
21.22
18.13
14.57
11.37
9.24
8.41
8.56
8.99
9
8.13
6.37
4.07
1.67
-0.49
-2.33
-4.04
-5.9
-8.27
-11.43
-15.55
-20.7
-26.65
-32.81
-38.18
-41.52
-41.7
-38.14
-31.05
-21.43
-10.73
-0.31
8.97
16.9
23.74
29.94
35.72
41.02
45.5
48.77
50.59
51.05
50.48
49.33
48.01
46.7
45.34
43.66
41.36
38.25
34.34
29.78
24.77
19.42
13.79
7.84
1.55
-5.06
-11.98
-19.22
-26.79
-34.52
-41.99
-48.41
-52.82
-54.39
-52.76
-48.21
-41.57
-33.98
-26.47
-19.71
-13.88
-8.8
-4.16
0.18
4.15
7.39
9.52
10.26
9.68
8.14
6.23
4.51
3.37
2.87
2.82
2.84
2.53
1.61
-0.11
-2.68
-6.08
-10.14
-14.63
-19.23
-23.65
-27.78
-31.7
-35.72
-40.2
-45.29
-50.68
-55.57
-58.76
-59.1
-55.91
-49.23
-39.92
-29.3
-18.72
-9.15
-0.95
6.07
12.35
18.33
24.17
29.71
34.6
38.46
41.08
42.48
42.87
42.55
41.78
40.7
39.34
37.7
35.82
33.83
31.9
30.07
28.29
26.29
23.71
20.24
15.8
10.57
4.96
-0.55
-5.57
-9.96
-13.82
-17.52
-21.54
-26.32
-32.12
-38.89
-46.13
-52.99
-58.3
-60.94
-60.14
-55.77
-48.46
-39.4
-29.96
-21.25
-13.79
-7.51
-1.96
3.33
8.58
13.68
18.32
22.16
25
26.83
27.72
27.84
27.36
26.49
25.48
24.54
23.79
23.2
22.6
21.83
20.77
19.39
17.66
15.52
12.78
9.3
5.08
0.36
-4.38
-8.69
-12.3
-15.27
-17.93
-20.7
-23.95
-27.89
-32.56
-37.85
-43.44
-48.74
-52.83
-54.71
-53.51
-48.93
-41.39
-31.99
-22.13
-13.05
-5.43
0.7
5.83
10.57
15.32
20.12
24.62
28.34
30.91
32.23
32.51
32.18
31.63
31.1
30.64
30.15
29.57
28.88
28.14
27.4
26.59
25.54
24.01
21.86
19.11
15.93
12.59
9.33
6.31
3.6
1.17
-1.06
-3.21
-5.43
-7.9
-10.81
-14.36
-18.65
-23.67
-29.08
-34.21
-38.1
-39.76
-38.49
-34.25
-27.66
-19.83
-11.95
-4.84
1.2
6.34
10.89
15.05
18.76
21.78
23.85
24.91
25.12
24.84
24.46
24.29
24.44
24.81
25.16
25.2
24.74
23.79
22.44
20.86
19.13
17.15
14.76
11.81
8.28
4.34
0.28
-3.61
-7.13
-10.22
-12.92
-15.34
-17.63
-20.07
-23
-26.76
-31.51
-36.99
-42.41
-46.62
-48.41
-46.96
-42.27
-35.11
-26.81
-18.78
-12.02
-6.88
-3.09
-0.1
2.63
5.31
7.83
9.93
11.37
12.13
12.44
12.65
13.04
13.67
14.34
14.74
14.64
14.06
13.22
12.48
11.99
11.63
10.95
9.42
6.72
2.94
-1.43
-5.7
-9.31
-12.05
-14.12
-15.99
-18.2
-21.13
-24.91
-29.4
-34.23
-38.74
-42.12
-43.46
-42.03
-37.52
-30.28
-21.27
-11.86
-3.32
3.53
8.54
12.2
15.33
18.6
22.3
26.23
29.89
32.8
34.72
35.75
36.25
36.53
36.73
36.8
36.54
35.85
34.81
33.66
32.65
31.84
30.99
29.71
27.57
24.4
20.37
15.95
11.7
7.96
4.72
1.56
-2.07
-6.68
-12.4
-19.04
-26.07
-32.73
-38.18
-41.55
-42.15
-39.71
-34.49
-27.38
-19.56
-12.18
-5.95
-0.98
3.09
6.73
10.25
13.6
16.48
18.58
19.74
20.03
19.67
18.9
17.87
16.71
15.49
14.36
13.48
13.03
13.05
13.47
13.97
14.12
13.49
11.78
8.96
5.3
1.31
-2.47
-5.58
-7.86
-9.51
-10.98
-12.88
-15.74
-19.85
-25
-30.51
-35.3
-38.16
-38.14
-34.9
-28.81
-20.9
-12.52
-4.9
1.12
5.32
7.98
9.63
10.73
11.56
12.16
12.44
12.34
11.96
11.54
11.3
11.39
11.71
12.01
11.97
11.36
10.13
8.47
6.61
4.74
2.85
0.7
-2
-5.42
-9.5
-13.93
-18.22
-21.95
-24.93
-27.35
-29.64
-32.41
-36.08
-40.81
-46.25
-51.62
-55.84
-57.81
-56.79
-52.61
-45.82
-37.45
-28.77
-20.89
-14.43
-9.52
-5.82
-2.88
-0.3
2.06
4.1
5.61
6.47
6.75
6.64
6.43
6.31
6.36
6.57
6.87
7.22
7.59
7.94
8.14
7.99
7.27
5.85
3.74
1.1
-1.87
-5.03
-8.32
-11.75
-15.26
-18.64
-21.43
-23
-22.69
-20.05
-15.08
-8.25
-0.48
7.21
13.97
19.34
23.25
25.83
27.25
27.55
26.75
24.92
22.39
19.73
17.57
16.32
16.05
16.49
17.12
17.44
17.12
16.04
14.32
12.17
9.81
7.35
4.77
1.91
-1.44
-5.46
-10.26
-15.78
-21.76
-27.65
-32.68
-35.94
-36.67
-34.52
-29.73
-23.14
-15.93
-9.2
-3.7
0.36
3.22
5.33
7.19
9.11
11.17
13.24
15.04
16.37
17.17
17.58
17.89
18.33
18.93
19.43
19.48
18.81
17.4
15.53
13.56
11.74
10.02
8.07
5.35
1.39
-4.08
-10.99
-18.89
-26.95
-34.15
-39.47
-42.1
-41.7
-38.46
-33.08
-26.57
-19.94
-13.97
-9.01
-5
-1.66
1.33
4.1
6.51
8.28
9.17
9.1
8.22
6.9
5.53
4.41
3.62
3.01
2.3
1.18
-0.5
-2.71
-5.28
-7.98
-10.73
-13.58
-16.73
-20.43
-24.83
-29.9
-35.51
-41.37
-47.08
-52.08
-55.64
-56.96
-55.39
-50.68
-43.18
-33.81
-23.81
-14.33
-6.16
0.52
6.01
10.82
15.45
20.12
24.74
29.05
32.74
35.55
37.37
38.17
38.05
37.22
35.97
34.68
33.69
33.17
33.02
32.87
32.18
30.55
27.86
24.33
20.39
16.52
13.05
10.02
7.24
4.36
0.96
-3.36
-8.85
-15.44
-22.6
-29.39
-34.55
-36.94
-35.91
-31.55
-24.68
-16.57
-8.56
-1.63
3.76
7.7
10.62
13.04
15.38
17.82
20.23
22.35
23.9
24.68
24.72
24.17
23.28
22.32
21.52
21.07
21.08
21.56
22.35
23.1
23.4
22.91
21.53
19.43
16.93
14.4
12.07
10.02
8.16
6.27
4.03
1.12
-2.73
-7.51
-12.74
-17.45
-20.39
-20.5
-17.44
-11.81
-4.95
1.6
6.68
9.9
11.6
12.48
13.21
14.04
14.86
15.3
15.01
13.82
11.81
9.2
6.3
3.4
0.75
-1.51
-3.31
-4.69
-5.71
-6.47
-7.06
-7.55
-8.02
-8.52
-9.13
-9.91
-10.95
-12.34
-14.09
-16.17
-18.51
-20.98
-23.5
-26
-28.42
-30.76
-33
-35.25
-37.7
-40.52
-43.74
-46.99
-49.52
-50.3
-48.4
-43.4
-35.63
-26.06
-15.98
-6.54
1.6
8.34
13.95
18.82
23.17
26.98
30.05
32.15
33.2
33.31
32.75
31.85
30.84
29.81
28.69
27.35
25.73
23.89
21.98
20.12
18.29
16.35
14.03
11.12
7.52
3.35
-1.17
-5.73
-10.06
-13.98
-17.44
-20.49
-23.27
-26.02
-28.98
-32.37
-36.27
-40.55
-44.78
-48.23
-49.94
-49.07
-45.16
-38.43
-29.74
-20.34
-11.45
-3.88
2.18
6.91
10.66
13.68
15.99
17.56
18.47
18.98
19.5
20.34
21.56
22.89
23.91
24.22
23.67
22.44
20.94
19.54
18.33
17.05
15.24
12.45
8.51
3.65
-1.6
-6.62
-10.99
-14.62
-17.79
-20.97
-24.59
-28.97
-34.11
-39.81
-45.52
-50.46
-53.66
-54.1
-51.04
-44.33
-34.53
-22.9
-10.99
-0.14
8.9
16.16
22.22
27.77
33.2
38.43
42.98
46.26
47.95
48.12
47.2
45.76
44.18
42.59
40.8
38.62
36.04
33.25
30.59
28.27
26.22
24.06
21.3
17.62
13.09
8.11
3.27
-0.97
-4.46
-7.45
-10.44
-14
-18.58
-24.36
-31.18
-38.5
-45.44
-50.93
-53.97
-53.94
-50.81
-45.24
-38.35
-31.38
-25.26
-20.38
-16.57
-13.36
-10.3
-7.15
-3.98
-0.97
1.7
3.96
5.86
7.49
8.91
10.15
11.27
12.35
13.54
14.93
16.55
18.25
19.8
20.86
21.15
20.45
18.72
16.11
12.96
9.68
6.66
4.11
1.95
-0.12
-2.57
-5.81
-10.08
-15.23
-20.7
-25.59
-28.8
-29.41
-26.89
-21.41
-13.71
-4.98
3.58
11.07
17.1
21.78
25.45
28.4
30.69
32.14
32.5
31.7
29.99
27.91
26.05
24.8
24.22
24.03
23.84
23.35
22.5
21.42
20.26
19.02
17.52
15.49
12.77
9.47
5.9
2.49
-0.47
-2.93
-5.09
-7.34
-10.12
-13.81
-18.73
-24.96
-32.22
-39.77
-46.44
-50.82
-51.75
-48.75
-42.23
-33.44
-23.96
-15.14
-7.72
-1.73
3.24
7.7
11.86
15.67
18.85
21.15
22.53
23.14
23.29
23.26
23.21
23.15
22.93
22.41
21.55
20.45
19.32
18.36
17.56
16.68
15.31
13.05
9.82
5.85
1.71
-2.06
-5.1
-7.48
-9.63
-12.15
-15.6
-20.22
-25.86
-31.93
-37.47
-41.38
-42.7
-40.85
-35.97
-28.8
-20.55
-12.48
-5.52
-0.01
4.27
7.88
11.35
14.96
18.64
22.05
24.85
26.87
28.17
28.95
29.41
29.6
29.42
28.72
27.45
25.74
23.88
22.16
20.74
19.44
17.89
15.6
12.27
7.92
2.93
-2.15
-6.77
-10.62
-13.67
-16.21
-18.7
-21.71
-25.71
-30.93
-37.17
-43.79
-49.7
-53.66
-54.65
-52.27
-46.85
-39.4
-31.21
-23.47
-16.9
-11.67
-7.5
-4
-0.88
1.91
4.21
5.79
6.5
6.37
5.59
4.41
3.09
1.82
0.7
-0.27
-1.17
-2.11
-3.16
-4.37
-5.78
-7.51
-9.79
-12.89
-17.04
-22.27
-28.35
-34.86
-41.32
-47.38
-52.97
-58.36
-64.14
-71
-79.47
-89.53
-100.38
-110.45
-117.81
-120.85
-118.96
-112.89
-104.62
-96.65
-91.18
-89.39
-91.23
-95.6
-100.77
-104.88
-106.21
-103.41
-95.73
-83.25
-66.95
-48.49
-29.72
-11.96
4.38
19.73
34.83
50
64.72
77.69
87.46
93.08
94.51
92.47
88.16
82.66
76.77
70.93
65.34
60.16
55.57
51.8
48.98
47.09
45.83
44.7
43.19
41.03
38.38
35.82
34.03
33.4
33.78
34.46
34.55
33.53
31.53
29.31
27.85
27.82
29.23
31.41
33.43
34.5
34.35
33.32
32.13
31.52
31.95
33.43
35.66
38.12
40.31
41.82
42.31
41.53
39.35
35.83
31.26
26.18
21.22
16.91
13.49
10.71
7.87
3.96
-2.05
-10.74
-21.95
-34.58
-46.73
-56.17
-61.01
-60.27
-54.27
-44.39
-32.64
-20.94
-10.63
-2.26
4.31
9.5
13.77
17.4
20.54
23.3
25.86
28.47
31.4
34.84
38.85
43.33
48.09
52.86
57.29
60.94
63.32
63.93
62.45
58.86
53.53
47.12
40.38
33.88
27.95
22.59
17.62
12.88
8.39
4.44
1.56
0.32
1.13
4.05
8.67
14.22
19.82
24.77
28.78
31.99
34.76
37.41
39.94
42.12
43.61
44.27
44.27
44.05
44.05
44.52
45.36
46.32
47.13
47.67
47.94
47.86
47.23
45.73
43.14
39.55
35.31
30.84
26.14
20.67
13.39
3.31
-9.99
-25.95
-43.09
-59.44
-73.02
-82.38
-86.85
-86.44
-81.83
-74.06
-64.38
-54.04
-44.18
-35.53
-28.41
-22.7
-18.02
-13.92
-10.13
-6.63
-3.58
-1.2
0.43
1.39
1.96
2.44
3.09
3.96
5.04
6.18
7.21
7.92
8.14
7.73
6.61
4.78
2.28
-0.86
-4.65
-9.1
-14.19
-19.67
-25.11
-29.81
-33.02
-34.08
-32.66
-28.89
-23.35
-16.89
-10.37
-4.48
0.45
4.45
7.75
10.59
13.05
15
16.15
16.26
15.29
13.48
11.24
9.01
7.05
5.39
3.85
2.2
0.3
-1.83
-4.1
-6.43
-8.83
-11.4
-14.29
-17.57
-21.21
-25.09
-29.1
-33.2
-37.38
-41.57
-45.53
-48.74
-50.44
-49.79
-46.1
-39.13
-29.2
-17.24
-4.57
7.46
17.85
26.14
32.45
37.25
41.12
44.44
47.33
49.7
51.4
52.34
52.53
52.08
51.07
49.61
47.78
45.73
43.68
41.85
40.38
39.26
38.24
36.94
34.93
31.97
28.15
23.85
19.67
16.15
13.52
11.62
9.94
7.85
4.81
0.67
-4.24
-9.16
-13.03
-14.82
-13.87
-10.11
-4.15
2.86
9.6
14.97
18.44
20.21
20.98
21.69
23.08
25.36
28.17
30.75
32.3
32.29
30.7
27.99
24.82
21.79
19.16
16.88
14.67
12.34
9.9
7.59
5.64
4.15
2.86
1.29
-1.05
-4.45
-8.79
-13.74
-18.82
-23.76
-28.43
-32.8
-36.69
-39.69
-41.17
-40.59
-37.78
-33.06
-27.19
-21.08
-15.52
-10.92
-7.36
-4.7
-2.77
-1.5
-0.91
-0.99
-1.62
-2.59
-3.58
-4.31
-4.62
-4.48
-3.97
-3.19
-2.13
-0.64
1.48
4.3
7.66
11.07
13.87
15.5
15.7
14.67
12.9
10.92
9.05
7.33
5.5
3.26
0.41
-2.98
-6.61
-9.96
-12.45
-13.57
-13.04
-10.9
-7.51
-3.45
0.67
4.39
7.52
10.15
12.44
14.5
16.24
17.38
17.57
16.53
14.24
11
7.32
3.84
1.04
-0.84
-1.91
-2.52
-3.12
-4.09
-5.63
-7.7
-10.13
-12.65
-15.07
-17.27
-19.26
-21.08
-22.82
-24.58
-26.55
-28.91
-31.79
-35.15
-38.62
-41.48
-42.9
-42.05
-38.56
-32.61
-24.99
-16.8
-9.09
-2.53
2.74
7.01
10.59
13.69
16.18
17.78
18.31
17.87
16.9
15.99
15.61
15.95
16.83
17.84
18.5
18.44
17.47
15.61
13.04
10.02
6.76
3.33
-0.37
-4.5
-9.19
-14.41
-19.95
-25.4
-30.23
-33.92
-35.98
-36.08
-34.14
-30.42
-25.55
-20.37
-15.7
-12.04
-9.52
-7.93
-6.99
-6.52
-6.53
-7.12
-8.2
-9.5
-10.55
-10.86
-10.13
-8.35
-5.75
-2.68
0.52
3.57
6.18
8.01
8.68
7.92
5.67
2.18
-2.1
-6.64
-11.06
-15.2
-19.03
-22.49
-25.33
-27.03
-26.96
-24.68
-20.15
-13.91
-6.82
0.18
6.4
11.62
16
19.92
23.66
27.3
30.66
33.5
35.61
36.96
37.7
38.1
38.44
38.86
39.4
39.91
40.2
40.07
39.45
38.37
36.99
35.47
33.82
31.86
29.26
25.71
21.01
15.17
8.42
1.11
-6.3
-13.19
-18.87
-22.61
-23.93
-22.83
-19.91
-16.23
-12.94
-10.86
-10.14
-10.34
-10.69
-10.48
-9.42
-7.66
-5.62
-3.76
-2.29
-1.2
-0.27
0.66
1.63
2.5
3.07
3.18
2.77
1.88
0.59
-1.02
-2.85
-4.76
-6.58
-8.12
-9.36
-10.5
-11.91
-14.03
-17.18
-21.39
-26.32
-31.29
-35.4
-37.75
-37.69
-35
-30.03
-23.62
-16.83
-10.61
-5.51
-1.54
1.75
4.92
8.36
12.06
15.64
18.56
20.39
21.08
20.92
20.46
20.18
20.29
20.62
20.8
20.41
19.26
17.52
15.54
13.73
12.25
10.97
9.53
7.52
4.71
1.13
-2.86
-6.76
-10.1
-12.65
-14.45
-15.8
-17.09
-18.75
-21.08
-24.26
-28.27
-32.81
-37.27
-40.78
-42.38
-41.36
-37.58
-31.58
-24.48
-17.52
-11.63
-7.13
-3.73
-0.8
2.18
5.44
8.76
11.76
14.07
15.47
15.97
15.68
14.76
13.38
11.77
10.26
9.24
9.07
9.95
11.81
14.29
16.85
18.93
20.16
20.43
19.9
18.86
17.59
16.3
15.08
13.93
12.87
11.86
10.84
9.67
8.13
5.95
2.96
-0.84
-5.11
-9.28
-12.56
-14.17
-13.57
-10.62
-5.65
0.57
7.1
13.09
18.07
21.96
25.01
27.61
30.03
32.29
34.18
35.38
35.6
34.75
32.91
30.34
27.34
24.17
21.08
18.22
15.7
13.52
11.53
9.47
6.98
3.8
-0.17
-4.68
-9.24
-13.3
-16.43
-18.54
-19.89
-20.99
-22.33
-24.14
-26.36
-28.64
-30.57
-31.88
-32.58
-32.99
-33.62
-34.93
-37.22
-40.38
-43.92
-47.07
-48.94
-48.77
-46.22
-41.42
-34.96
-27.69
-20.45
-13.87
-8.23
-3.53
0.4
3.74
6.56
8.88
10.73
12.15
13.3
14.32
15.31
16.27
17.14
17.84
18.33
18.61
18.71
18.56
18.05
17.1
15.61
13.68
11.46
9.21
7.15
5.38
3.85
2.36
0.69
-1.32
-3.69
-6.35
-9.15
-11.96
-14.67
-17.23
-19.59
-21.78
-23.89
-26.09
-28.56
-31.33
-34.11
-36.28
-37.02
-35.69
-32.05
-26.45
-19.67
-12.59
-5.74
0.8
7.42
14.64
22.69
31.32
39.8
47.23
52.94
56.72
58.85
59.93
60.57
61.21
62.02
63.07
64.25
65.37
66.11
66.1
64.97
62.61
59.22
55.27
51.27
47.47
43.76
39.72
34.85
28.72
21.14
12.08
1.63
-10
-22.47
-35.24
-47.67
-59.12
-69.13
-77.49
-84.12
-89
-91.99
-92.9
-91.61
-88.32
-83.62
-78.3
-73.15
-68.57
-64.49
-60.39
-55.71
-50.07
-43.62
-36.95
-30.89
-26.12
-22.92
-21.1
-20.09
-19.34
-18.47
-17.43
-16.39
-15.57
-15.06
-14.81
-14.68
-14.54
-14.35
-14.15
-14.06
-14.19
-14.61
-15.26
-15.98
-16.55
-16.8
-16.73
-16.55
-16.7
-17.65
-19.78
-23.17
-27.55
-32.35
-36.84
-40.28
-42.08
-41.86
-39.57
-35.5
-30.15
-24.08
-17.76
-11.33
-4.65
2.66
10.85
19.8
28.87
36.96
42.93
46.03
46.23
44.25
41.22
38.22
35.92
34.44
33.5
32.73
31.94
31.13
30.41
29.81
29.2
28.25
26.67
24.27
21.09
17.42
13.66
10.2
7.27
4.84
2.63
0.25
-2.73
-6.56
-11.24
-16.5
-21.78
-26.34
-29.45
-30.51
-29.29
-25.97
-21.12
-15.51
-9.97
-5.12
-1.29
1.5
3.49
5.06
6.53
8.05
9.5
10.59
11.04
10.76
9.96
9.07
8.48
8.34
8.46
8.46
8.03
7.13
6
4.92
3.96
2.89
1.29
-1.22
-4.69
-8.79
-13.09
-17.21
-21.08
-24.85
-28.78
-33.06
-37.66
-42.42
-46.98
-50.87
-53.41
-53.85
-51.5
-46.07
-37.86
-27.83
-17.33
-7.65
0.39
6.58
11.3
15.08
18.38
21.34
23.83
25.65
26.73
27.17
27.29
27.31
27.36
27.38
27.2
26.69
25.83
24.77
23.7
22.74
21.89
20.93
19.59
17.65
15.02
11.82
8.31
4.77
1.41
-1.76
-4.97
-8.56
-12.87
-18.02
-23.76
-29.49
-34.34
-37.44
-38.15
-36.24
-31.95
-25.96
-19.12
-12.33
-6.3
-1.44
2.16
4.61
6.2
7.2
7.89
8.5
9.16
9.96
10.82
11.56
11.95
11.77
10.98
9.73
8.37
7.37
7.2
8.19
10.42
13.71
17.56
21.24
23.95
25.11
24.53
22.44
19.37
15.86
12.21
8.37
4
-1.21
-7.31
-13.91
-20.24
-25.35
-28.43
-29.07
-27.36
-23.79
-19.15
-14.24
-9.62
-5.55
-1.99
1.25
4.28
7.09
9.6
11.68
13.34
14.78
16.26
17.95
19.85
21.73
23.28
24.28
24.68
24.63
24.33
23.9
23.31
22.42
21.11
19.32
17.2
14.95
12.79
10.82
9
7.13
4.91
2
-1.78
-6.33
-11.18
-15.51
-18.35
-18.89
-16.73
-12.1
-5.75
1.24
7.84
13.37
17.64
20.95
23.78
26.54
29.36
32
34.06
35.18
35.36
34.97
34.65
34.99
36.34
38.64
41.48
44.36
46.82
48.6
49.65
50
49.71
48.82
47.35
45.27
42.45
38.61
33.3
26.05
16.56
5.02
-7.7
-20.17
-30.79
-38.27
-42.13
-42.76
-41.24
-38.8
-36.44
-34.55
-33.03
-31.51
-29.68
-27.48
-25.09
-22.75
-20.62
-18.7
-16.84
-14.93
-12.95
-11.03
-9.4
-8.33
-7.92
-8.16
-8.82
-9.57
-10.15
-10.38
-10.29
-10.11
-10.18
-10.87
-12.47
-15.14
-18.82
-23.25
-27.98
-32.44
-36
-38.09
-38.34
-36.59
-32.94
-27.78
-21.73
-15.53
-9.92
-5.47
-2.33
-0.28
1.24
2.78
4.68
6.89
8.99
10.51
11.12
10.79
9.79
8.44
7
5.54
4.04
2.52
1.13
0.03
-0.66
-1.06
-1.51
-2.45
-4.24
-6.99
-10.54
-14.52
-18.6
-22.55
-26.32
-29.96
-33.4
-36.38
-38.37
-38.74
-36.98
-32.96
-27
-19.76
-12.05
-4.57
2.26
8.34
13.76
18.69
23.23
27.37
31
33.93
36.03
37.23
37.63
37.48
37.12
36.91
37.09
37.71
38.63
39.54
40.05
39.84
38.71
36.68
33.96
30.95
28.09
25.74
24.06
22.9
21.89
20.4
17.76
13.36
6.98
-1.02
-9.68
-17.53
-23.1
-25.45
-24.59
-21.55
-18.03
-15.69
-15.54
-17.54
-20.75
-23.8
-25.49
-25.22
-22.99
-19.34
-14.97
-10.51
-6.41
-2.89
0.04
2.43
4.39
5.99
7.24
8.14
8.66
8.77
8.45
7.64
6.21
4.09
1.25
-2.11
-5.59
-8.72
-11.18
-12.9
-14.17
-15.35
-16.67
-17.91
-18.52
-17.75
-15.09
-10.5
-4.53
1.91
7.87
12.75
16.36
18.94
20.85
22.36
23.49
24.07
23.86
22.75
20.86
18.56
16.29
14.5
13.39
12.96
12.97
13.07
12.88
12.08
10.49
8.09
5.06
1.66
-1.8
-5.09
-8.13
-10.99
-13.84
-16.86
-20.18
-23.8
-27.67
-31.58
-35.16
-37.88
-39.09
-38.24
-35.06
-29.78
-23.15
-16.17
-9.8
-4.53
-0.33
3.26
6.82
10.69
14.74
18.45
21.16
22.42
22.18
20.78
18.78
16.68
14.81
13.23
11.86
10.57
9.27
7.89
6.35
4.62
2.6
0.27
-2.36
-5.24
-8.3
-11.44
-14.62
-17.83
-21.01
-24.13
-27.06
-29.54
-31.21
-31.68
-30.65
-28.09
-24.25
-19.64
-14.82
-10.28
-6.25
-2.67
0.65
3.95
7.31
10.66
13.78
16.39
18.25
19.29
19.57
19.26
18.62
17.91
17.33
16.97
16.8
16.65
16.26
15.36
13.76
11.44
8.63
5.69
3.01
0.86
-0.71
-1.96
-3.36
-5.43
-8.53
-12.65
-17.29
-21.57
-24.43
-25.07
-23.13
-18.85
-12.95
-6.39
-0.06
5.46
9.95
13.49
16.3
18.66
20.7
22.41
23.71
24.5
24.69
24.3
23.38
22.05
20.44
18.7
17.03
15.62
14.57
13.85
13.26
12.44
11.07
8.95
6.1
2.71
-0.91
-4.42
-7.58
-10.26
-12.49
-14.51
-16.66
-19.37
-22.87
-27.05
-31.41
-35.05
-37.05
-36.7
-33.84
-28.88
-22.66
-16.15
-10.1
-4.91
-0.62
3.04
6.3
9.3
11.97
14.17
15.76
16.79
17.42
17.87
18.26
18.58
18.66
18.33
17.48
16.22
14.78
13.41
12.22
11.07
9.69
7.79
5.27
2.29
-0.8
-3.61
-5.93
-7.76
-9.28
-10.71
-12.24
-14.03
-16.16
-18.68
-21.49
-24.28
-26.49
-27.48
-26.69
-23.96
-19.56
-14.16
-8.55
-3.37
1.08
4.86
8.23
11.49
14.7
17.73
20.23
21.88
22.55
22.4
21.8
21.18
20.81
20.72
20.72
20.5
19.84
18.73
17.3
15.75
14.22
12.61
10.71
8.29
5.25
1.75
-1.9
-5.31
-8.26
-10.78
-13.17
-15.82
-19.02
-22.91
-27.39
-32.25
-37.18
-41.81
-45.57
-47.73
-47.53
-44.38
-38.22
-29.64
-19.73
-9.75
-0.72
6.9
13.19
18.57
23.45
27.99
32.09
35.52
38.1
39.89
41.06
41.83
42.31
42.45
42.13
41.28
39.99
38.52
37.22
36.31
35.83
35.54
35.09
34.18
32.7
30.86
29.05
27.74
27.24
27.63
28.74
30.26
31.82
33.13
34.04
34.59
35.1
36.17
38.64
43.33
50.74
60.84
73.01
86.24
99.49
112.01
123.58
134.37
144.81
155.28
166.05
177.15
188.42
199.52
209.83
218.52
224.55
226.79
224.17
215.91
201.58
181.26
155.47
125.12
91.33
55.27
17.87
-20.37
-59.35
-99.17
-139.77
-180.52
-220.1
-256.73
-288.73
-315.08
-335.78
-351.62
-363.56
-372.02
-376.64
-376.6
-371.38
-361.48
-348.41
-334.03
-319.6
-305.27
-290.42
-274.53
-258.05
-242.41
-229.29
-219.4
-211.88
-204.44
-194.39
-179.58
-158.96
-132.36
-100.16
-63.11
-22.55
19.43
59.97
96.03
124.98
145.14
155.9
157.61
151.35
138.96
122.89
105.97
90.79
78.99
70.91
65.6
61.42
56.87
51.12
44.31
37.23
31.02
26.62
24.51
24.56
26.13
28.41
30.64
32.24
32.84
32.26
30.61
28.41
26.55
26.12
27.95
32.16
37.93
43.8
48.26
50.38
50.2
48.63
46.94
46.14
46.51
47.43
47.65
45.8
40.87
32.64
21.76
9.56
-2.35
-12.6
-20.43
-25.8
-29.36
-32.21
-35.47
-39.94
-45.74
-52.16
-57.82
-61.15
-60.94
-56.88
-49.64
-40.51
-30.86
-21.62
-13.15
-5.38
1.77
8.24
13.73
17.96
20.91
22.83
24.1
24.97
25.49
25.48
24.85
23.67
22.29
21.13
20.35
19.79
18.92
17.18
14.19
10.04
5.2
0.31
-4.14
-7.95
-11.28
-14.51
-18.02
-22.07
-26.68
-31.53
-36.04
-39.5
-41.19
-40.64
-37.7
-32.62
-25.95
-18.43
-10.79
-3.66
2.59
7.85
12.19
15.83
18.97
21.73
24.07
25.9
27.14
27.85
28.24
28.62
29.29
30.45
32.07
33.89
35.44
36.16
35.62
33.67
30.57
26.85
23.07
19.5
16.06
12.35
7.9
2.54
-3.59
-10.01
-16.12
-21.29
-24.96
-26.61
-25.88
-22.66
-17.18
-10.13
-2.44
4.95
11.4
16.65
20.82
24.17
26.88
28.99
30.4
31.01
30.89
30.32
29.72
29.46
29.74
30.43
31.17
31.5
31.06
29.72
27.68
25.29
22.93
20.79
18.77
16.59
13.86
10.31
5.96
1.13
-3.59
-7.54
-10.07
-10.74
-9.39
-6.16
-1.5
3.97
9.56
14.71
19.06
22.5
25.1
26.9
27.91
28.04
27.26
25.73
23.8
22.02
20.91
20.76
21.5
22.7
23.72
23.95
23
20.84
17.82
14.49
11.4
8.87
6.84
4.92
2.57
-0.7
-5.15
-10.65
-16.67
-22.43
-27
-29.53
-29.42
-26.55
-21.34
-14.71
-7.82
-1.69
3.1
6.54
9.06
11.24
13.49
15.82
18
19.64
20.52
20.65
20.29
19.78
19.34
19.02
18.68
18.14
17.27
16.06
14.64
13.16
11.69
10.14
8.28
5.8
2.48
-1.76
-6.78
-12.21
-17.52
-22.08
-25.26
-26.55
-25.64
-22.56
-17.65
-11.58
-5.1
1.07
6.51
11.07
14.87
18.06
20.75
22.88
24.29
24.76
24.2
22.71
20.6
18.29
16.19
14.49
13.16
11.89
10.31
8.05
4.99
1.26
-2.8
-6.83
-10.62
-14.14
-17.58
-21.18
-25.05
-29.19
-33.38
-37.24
-40.29
-42.04
-42.05
-40.05
-36.02
-30.24
-23.26
-15.78
-8.43
-1.68
4.3
9.54
14.24
18.6
22.76
26.72
30.36
33.48
35.89
37.53
38.46
38.87
38.97
38.95
38.87
38.79
38.73
38.7
38.61
38.21
37.09
34.81
31.14
26.18
20.44
14.61
9.29
4.77
0.89
-2.84
-7.09
-12.43
-19.09
-26.82
-34.8
-41.86
-46.76
-48.58
-47.06
-42.69
-36.5
-29.73
-23.42
-18.09
-13.76
-10.06
-6.58
-3.08
0.4
3.57
6.06
7.63
8.27
8.22
7.85
7.45
7.21
7.18
7.38
7.83
8.57
9.53
10.44
10.89
10.42
8.72
5.8
2.01
-2.14
-6.09
-9.47
-12.15
-14.27
-16.17
-18.27
-20.97
-24.43
-28.49
-32.55
-35.69
-36.98
-35.8
-32.14
-26.6
-20.19
-13.89
-8.4
-3.89
-0.12
3.26
6.52
9.65
12.4
14.43
15.47
15.42
14.42
12.79
10.95
9.29
8.1
7.5
7.4
7.59
7.78
7.7
7.21
6.28
5.08
3.87
2.94
2.47
2.4
2.48
2.35
1.68
0.36
-1.51
-3.64
-5.78
-7.83
-9.84
-11.9
-14.16
-16.67
-19.44
-22.42
-25.39
-27.86
-29.06
-28.08
-24.21
-17.33
-8.06
2.38
12.59
21.43
28.36
33.38
36.91
39.38
41.13
42.34
43.04
43.23
42.85
41.86
40.2
37.9
35.04
31.76
28.24
24.6
20.97
17.43
14.08
10.97
8.07
5.23
2.22
-1.11
-4.81
-8.65
-12.3
-15.41
-17.82
-19.68
-21.37
-23.41
-26.18
-29.79
-33.95
-38.01
-41.19
-42.74
-42.2
-39.51
-34.97
-29.16
-22.75
-16.32
-10.28
-4.9
-0.34
3.32
6.05
7.88
8.96
9.48
9.63
9.6
9.48
9.36
9.2
8.95
8.57
7.99
7.2
6.25
5.17
3.98
2.6
0.89
-1.26
-3.84
-6.72
-9.63
-12.33
-14.74
-17.02
-19.53
-22.67
-26.7
-31.54
-36.63
-41.07
-43.84
-44.2
-41.92
-37.37
-31.47
-25.23
-19.53
-14.79
-10.96
-7.68
-4.53
-1.21
2.27
5.64
8.47
10.37
11.16
10.98
10.25
9.48
9.09
9.24
9.77
10.32
10.51
10.13
9.13
7.62
5.76
3.66
1.35
-1.21
-4.08
-7.34
-11.07
-15.3
-19.94
-24.71
-29.1
-32.38
-33.8
-32.82
-29.35
-23.77
-16.94
-9.87
-3.48
1.71
5.62
8.58
11.09
13.57
16.18
18.77
20.96
22.34
22.69
22.02
20.63
18.96
17.43
16.31
15.62
15.19
14.76
14.09
13.01
11.54
9.75
7.76
5.63
3.31
0.67
-2.44
-6.1
-10.32
-14.9
-19.54
-23.78
-27
-28.56
-27.9
-24.77
-19.39
-12.47
-5.06
1.8
7.37
11.43
14.16
15.99
17.35
18.48
19.41
20.07
20.38
20.32
19.89
19.17
18.23
17.21
16.25
15.48
14.95
14.59
14.22
13.58
12.41
10.54
7.93
4.76
1.34
-1.98
-4.94
-7.54
-10.02
-12.83
-16.42
-21.01
-26.48
-32.26
-37.47
-41.1
-42.29
-40.63
-36.29
-30.12
-23.28
-16.9
-11.72
-7.85
-4.9
-2.37
0.05
2.26
3.87
4.53
4.2
3.2
2.07
1.21
0.77
0.56
0.28
-0.3
-1.24
-2.43
-3.66
-4.72
-5.4
-5.51
-4.86
-3.44
-1.4
0.79
2.51
3.14
2.33
0.11
-3.16
-6.98
-10.97
-14.95
-18.86
-22.56
-25.66
-27.48
-27.28
-24.58
-19.49
-12.75
-5.48
1.17
6.53
10.46
13.28
15.46
17.36
19.08
20.54
21.58
22.21
22.6
23.02
23.72
24.8
26.2
27.7
29.07
30.11
30.74
30.92
30.66
29.96
28.75
26.9
24.33
21.05
17.22
13.16
9.27
5.88
3.15
0.96
-1.12
-3.65
-7.05
-11.42
-16.3
-20.78
-23.77
-24.4
-22.34
-17.93
-11.99
-5.56
0.45
5.42
9.13
11.58
12.93
13.31
12.9
11.83
10.32
8.64
7.09
5.9
5.2
4.99
5.14
5.51
5.96
6.37
6.58
6.36
5.48
3.82
1.49
-1.22
-3.97
-6.58
-9.04
-11.55
-14.25
-17.23
-20.51
-24.12
-28.14
-32.57
-37.08
-40.93
-43.07
-42.58
-39.1
-33.1
-25.67
-18.13
-11.45
-6.03
-1.69
1.99
5.35
8.46
11.11
13
13.95
13.98
13.34
12.37
11.35
10.4
9.46
8.38
7.05
5.44
3.7
1.98
0.38
-1.18
-2.95
-5.26
-8.36
-12.28
-16.74
-21.23
-25.1
-27.84
-29.26
-29.55
-29.28
-29.18
-29.93
-31.82
-34.69
-37.85
-40.21
-40.62
-38.18
-32.59
-24.3
-14.32
-3.89
5.98
14.77
22.47
29.31
35.44
40.75
44.94
47.71
49.08
49.39
49.24
49.16
49.4
49.86
50.21
50.08
49.27
47.83
45.9
43.65
41.05
37.86
33.68
28.14
21.08
12.69
3.5
-5.81
-14.57
-22.38
-29.23
-35.45
-41.58
-48.18
-55.66
-64.12
-73.17
-81.85
-88.79
-92.46
-91.61
-85.71
-75.16
-61.23
-45.69
-30.36
-16.57
-4.95
4.53
12.39
19.25
25.65
31.93
38.19
44.49
50.89
57.49
64.39
71.53
78.66
85.39
91.29
95.98
99.12
100.4
99.48
96.09
90.23
82.28
73.06
63.6
54.82
47.21
40.73
34.94
29.35
23.67
18.01
12.72
8.22
4.77
2.38
0.94
0.39
0.93
2.98
7.01
13.26
21.55
31.3
41.8
52.42
62.6
71.54
77.76
79.17
73.71
60.66
41.52
19.91
0.19
-14.61
-24.22
-31.09
-38.8
-49.91
-64.48
-80.19
-93.87
-103.39
-108.74
-111.66
-114.34
-118
-122.31
-125.77
-126.78
-124.51
-119.26
-112.02
-103.87
-95.33
-86.26
-76.1
-64.38
-51
-36.4
-21.28
-6.44
7.54
20.32
31.83
42.3
52.17
61.92
71.86
81.88
91.33
99.41
105.63
110.22
114.25
119.03
125.42
133.19
140.92
146.59
148.57
146.42
141.12
134.59
128.7
124.33
121.02
117.43
112.05
104.04
93.48
81.13
67.96
54.76
42.13
30.77
21.69
16.11
15.06
18.77
26.41
36.24
46.12
54.18
59.28
60.97
59.25
54.07
45.08
31.71
13.71
-8.26
-32.39
-55.94
-76.19
-91.33
-101.01
-106.1
-107.98
-107.69
-105.64
-101.95
-97.09
-92.33
-89.57
-90.54
-95.9
-104.8
-115.17
-124.59
-131.29
-134.6
-134.92
-133.17
-130.07
-125.83
-120.16
-112.63
-103.01
-91.48
-78.6
-65.15
-52.05
-40.19
-30.44
-23.48
-19.79
-19.39
-21.96
-26.81
-33.18
-40.33
-47.76
-55.21
-62.64
-70.14
-77.9
-86.03
-94.45
-102.83
-110.53
-116.73
-120.51
-121.05
-117.85
-110.94
-101
-89.37
-77.76
-67.65
-59.83
-54.07
-49.3
-44.23
-38.06
-30.94
-23.86
-18.16
-14.82
-14.09
-15.55
-18.39
-21.93
-25.74
-29.53
-32.96
-35.4
-36.12
-34.47
-30.19
-23.59
-15.45
-6.85
1.1
7.44
11.62
13.54
13.57
12.41
10.84
9.4
8.23
7.18
5.96
4.45
2.84
1.53
0.88
0.94
1.45
1.91
1.88
1.18
-0.09
-1.72
-3.59
-5.82
-8.75
-12.73
-17.8
-23.49
-28.83
-32.56
-33.53
-31.11
-25.4
-17.15
-7.47
2.58
12.32
21.51
30.22
38.51
46.24
52.99
58.32
62.03
64.34
65.87
67.39
69.49
72.37
75.82
79.39
82.68
85.61
88.3
91.05
94
97.11
100.12
102.71
104.72
106.17
107.38
108.94
111.73
116.73
124.85
136.61
151.99
170.35
190.56
211.28
231.15
248.76
262.48
270.36
270.28
260.52
240.51
211.21
175.2
135.82
96.22
58.33
22.43
-12.79
-49.59
-90.17
-135.8
-186
-238.38
-289.02
-333.46
-367.88
-390.22
-400.51
-400.66
-393.53
-381.87
-367.49
-351.02
-332.16
-310.26
-284.8
-255.76
-223.59
-188.96
-152.46
-114.21
-73.77
-30.19
17.39
69.03
123.1
176
222.62
257.42
275.97
276.1
258.37
225.69
182.45
133.48
83.31
35.84
-5.83
-39.48
-63.97
-79.23
-86.3
-87
-83.67
-78.78
-74.6
-72.71
-73.65
-76.71
-80.22
-82.21
-81.31
-77.25
-70.82
-63.32
-55.7
-48.15
-40.1
-30.8
-19.91
-7.81
4.65
16.6
27.6
37.68
47.11
55.98
63.98
70.54
75.05
77.16
76.91
74.69
71.06
66.72
62.45
59.04
57.1
56.78
57.51
58.07
56.93
52.88
45.61
35.97
25.85
17.61
13.41
14.53
20.96
31.39
43.66
55.33
64.47
70.11
72.31
71.92
69.96
67.16
63.79
59.74
54.9
49.37
43.48
37.64
32.07
26.72
21.31
15.55
9.29
2.65
-4.11
-10.68
-17
-23.26
-29.92
-37.54
-46.59
-57.25
-69.26
-81.9
-94.02
-104.3
-111.45
-114.6
-113.4
-108.05
-99.07
-86.95
-72.05
-54.59
-34.91
-13.73
7.78
28.14
45.88
59.87
69.54
74.91
76.47
75.06
71.62
67.04
62
56.9
51.89
47.09
42.64
38.81
35.82
33.61
31.69
29.1
24.69
17.52
7.22
-5.87
-20.8
-36.25
-50.86
-63.42
-73.08
-79.32
-82.04
-81.45
-78.05
-72.62
-66.08
-59.4
-53.46
-48.92
-46
-44.47
-43.59
-42.34
-39.67
-34.95
-28.14
-19.89
-11.25
-3.36
2.93
7.26
9.77
10.96
11.4
11.53
11.55
11.39
10.91
10.02
8.79
7.39
6.12
5.28
5.17
6.07
8.28
12.07
17.65
25.08
34.18
44.59
55.74
66.94
77.42
86.46
93.39
97.8
99.58
99.07
97
94.24
91.55
89.26
87.13
84.5
80.54
74.68
66.9
57.74
48.17
39.26
31.85
26.33
22.56
19.9
17.41
14.05
9.03
2.04
-6.45
-15.28
-22.8
-27.34
-27.68
-23.49
-15.36
-4.62
7.21
18.95
29.99
40.26
49.83
58.51
65.68
70.46
72.16
70.69
66.72
61.45
56.08
51.27
46.9
42.22
36.41
29.09
20.61
11.92
4.05
-2.37
-7.47
-12.07
-17.29
-24.14
-33.09
-43.99
-56.03
-67.99
-78.46
-86.23
-90.61
-91.69
-90.38
-88.07
-86.1
-85.33
-85.92
-87.47
-89.46
-91.47
-93.33
-94.87
-95.7
-95.07
-92.07
-85.95
-76.49
-64.13
-49.89
-35.07
-20.93
-8.38
2.15
10.68
17.52
23.1
27.69
31.36
33.92
35.12
34.81
33.07
30.36
27.54
25.77
26.36
30.46
38.68
50.75
65.41
80.62
94.13
104.07
109.46
110.36
107.63
102.58
96.46
90.23
84.42
79.28
74.77
70.74
66.86
62.63
57.44
50.63
41.81
31.11
19.28
7.67
-2.2
-9.08
-12.45
-12.6
-10.57
-7.67
-5.12
-3.59
-3.11
-3.03
-2.25
0.36
5.58
13.48
23.32
33.83
43.68
51.86
57.96
62.04
64.33
64.84
63.25
58.99
51.54
40.69
26.81
10.85
-5.77
-21.35
-34.23
-43.24
-47.91
-48.67
-46.69
-43.46
-40.38
-38.39
-37.89
-38.97
-41.6
-45.79
-51.61
-59.05
-67.83
-77.29
-86.36
-93.7
-97.92
-97.91
-93.25
-84.41
-72.7
-59.95
-47.86
-37.53
-29.24
-22.54
-16.85
-11.85
-7.77
-5.23
-4.8
-6.63
-10.22
-14.6
-18.62
-21.52
-23.27
-24.65
-26.87
-30.97
-37.1
-44.25
-50.45
-53.5
-51.92
-45.46
-35.21
-23.01
-10.75
0.24
9.32
16.46
22.02
26.51
30.67
35.33
41.21
48.56
56.86
64.76
70.55
72.71
70.56
64.52
55.96
46.72
38.6
33.02
30.9
32.73
38.64
48.28
60.82
74.93
89.08
101.98
113.1
122.79
132.07
142.05
153.35
165.86
178.78
191.07
201.8
210.39
216.61
220.43
221.88
221
217.79
212.09
203.44
190.82
172.81
148.28
117.41
82.46
47.72
18.34
-1.49
-10.01
-8.46
-0.35
10.04
18.97
24
23.86
17.99
6.23
-11.2
-33.42
-58.93
-85.89
-112.75
-138.68
-163.7
-188.49
-213.93
-240.72
-268.9
-297.56
-324.84
-348.31
-365.81
-376.36
-380.49
-379.8
-375.72
-368.4
-356.37
-337.38
-309.96
-274.77
-234.86
-194.58
-157.78
-126.44
-100.22
-77.38
-56.05
-35.28
-15.21
3.47
20.22
35.05
48.31
60.31
70.94
79.59
85.38
87.5
85.45
79.26
69.49
57.09
43.32
29.48
16.6
5.16
-5.08
-15.03
-26.1
-39.74
-57.07
-78.42
-103.06
-128.89
-152.58
-169.88
-176.55
-169.62
-148.51
-115.75
-76.4
-36.67
-2.01
24.29
41.64
51.43
55.91
57.15
56.67
55.61
54.94
55.57
57.93
61.79
66.28
70.43
73.83
76.8
80.16
84.51
89.63
94.43
97.49
97.68
94.69
89.01
81.47
72.82
63.45
53.44
42.79
31.62
20.25
9.09
-1.33
-10.34
-17.07
-20.47
-19.57
-13.94
-3.96
9.02
23.1
36.33
47.31
55.46
60.94
64.4
66.6
68.16
69.32
70.01
69.84
68.34
65.21
60.49
54.61
48.19
41.73
35.46
29.31
23.1
16.75
10.34
3.83
-3
-10.75
-20.07
-31.25
-43.89
-56.93
-68.98
-78.92
-86.27
-91.25
-94.45
-96.35
-96.94
-95.68
-91.85
-84.95
-75.1
-63.16
-50.42
-38.23
-27.54
-18.72
-11.67
-6.05
-1.59
1.83
4.22
5.74
6.81
8.09
10.29
13.86
18.73
24.35
29.81
34.3
37.31
38.79
38.98
38.22
36.73
34.58
31.73
28.14
23.74
18.55
12.57
5.97
-0.77
-6.79
-10.94
-12.03
-9.34
-2.95
6.25
16.78
27.12
36.15
43.38
48.95
53.37
57.15
60.58
63.66
66.07
67.46
67.57
66.45
64.48
62.27
60.43
59.27
58.62
57.87
56.18
52.86
47.72
41.22
34.34
28.23
23.81
21.43
20.77
21
21.06
19.94
16.96
11.94
5.25
-2.18
-8.99
-13.74
-15.32
-13.28
-8.08
-0.89
6.82
13.79
19.37
23.59
26.97
30.12
33.42
36.82
39.94
42.21
43.15
42.58
40.67
37.91
34.98
32.49
30.81
29.97
29.62
29.18
28.04
25.69
21.92
16.86
10.93
4.68
-1.44
-7.19
-12.68
-18.23
-24.21
-30.83
-37.97
-45.11
-51.39
-55.81
-57.5
-56.01
-51.47
-44.61
-36.52
-28.41
-21.18
-15.24
-10.43
-6.25
-2.11
2.45
7.56
13.08
18.58
23.55
27.37
29.45
29.33
26.9
22.48
16.86
11.15
6.46
3.47
2.18
1.9
1.56
0.12
-2.95
-7.58
-13.21
-19.15
-24.96
-30.58
-36.18
-42
-48.03
-53.98
-59.29
-63.29
-65.27
-64.58
-60.79
-53.86
-44.26
-32.96
-21.17
-10.04
-0.28
7.93
14.87
20.91
26.33
31.14
35.21
38.42
40.75
42.39
43.6
44.61
45.52
46.28
46.73
46.68
45.99
44.59
42.54
39.96
36.97
33.67
30.04
26.04
21.7
17.2
12.87
9.08
6.06
3.75
1.68
-0.82
-4.42
-9.49
-15.82
-22.66
-28.77
-32.82
-33.79
-31.26
-25.64
-17.99
-9.72
-2.13
3.94
8.16
10.62
11.57
11.25
9.88
7.78
5.37
3.18
1.68
1.11
1.44
2.43
3.77
5.25
6.65
7.82
8.52
8.45
7.36
5
1.27
-3.86
-10.25
-17.6
-25.42
-33.12
-40.06
-45.84
-50.37
-54.01
-57.38
-61.15
-65.71
-70.93
-76.08
-79.93
-81.16
-78.74
-72.41
-62.73
-50.93
-38.42
-26.34
-15.3
-5.44
3.4
11.31
18.2
23.85
28.07
30.81
32.25
32.7
32.48
31.88
31.11
30.3
29.51
28.76
28.06
27.45
26.97
26.57
26.15
25.45
24.19
22.19
19.46
16.23
12.85
9.64
6.76
4.11
1.41
-1.73
-5.62
-10.3
-15.41
-20.15
-23.45
-24.34
-22.29
-17.48
-10.76
-3.42
3.3
8.58
12.17
14.37
15.72
16.69
17.52
18.16
18.48
18.39
18
17.55
17.33
17.41
17.68
17.87
17.77
17.32
16.68
16.05
15.5
14.82
13.64
11.6
8.62
4.96
1.2
-2.07
-4.52
-6.21
-7.63
-9.5
-12.54
-17.23
-23.63
-31.25
