-32.6
-47.9
-61.76
-72.59
-79.97
-84.57
-87.45
-89.38
-90.44
-90.15
-88
-83.96
-78.54
-72.54
-66.49
-60.41
-53.88
-46.56
-38.57
-30.61
-23.68
-18.46
-15
-12.65
-10.51
-7.92
-4.79
-1.55
1.21
3.1
4.16
4.71
5.11
5.54
5.95
6.13
5.85
4.99
3.46
1.22
-1.79
-5.57
-9.99
-14.88
-20.1
-25.73
-32.16
-39.89
-49.3
-60.33
-72.39
-84.38
-95.03
-103.1
-107.6
-107.9
-103.74
-95.37
-83.59
-69.71
-55.33
-41.94
-30.56
-21.52
-14.55
-8.96
-4.08
0.55
5.12
9.6
13.9
18
21.97
25.92
29.9
33.77
37.25
39.97
41.68
42.37
42.25
41.64
40.75
39.6
37.93
35.42
31.89
27.45
22.52
17.7
13.52
10.19
7.65
5.65
4.01
2.9
2.71
3.98
6.99
11.59
17.16
22.86
27.95
31.98
34.91
36.95
38.43
39.77
41.4
43.8
47.34
52.18
58.02
64.1
69.37
72.88
74.1
73.17
70.79
67.86
64.99
62.19
58.89
54.13
47.07
37.38
25.38
11.86
-2.26
-16.24
-29.72
-42.57
-54.64
-65.53
-74.63
-81.24
-84.87
-85.39
-83
-78.06
-70.87
-61.6
-50.41
-37.62
-23.8
-9.68
3.9
16.23
26.61
34.3
38.49
38.54
34.28
26.26
15.73
4.21
-7.03
-17.26
-26.26
-33.92
-39.87
-43.29
-43.19
-38.87
-30.46
-18.93
-5.92
6.75
17.58
25.67
30.71
32.84
32.35
29.45
24.2
16.63
6.95
-4.29
-16.25
-27.92
-38.32
-46.71
-52.55
-55.52
-55.52
-52.73
-47.71
-41.4
-34.88
-29.16
-24.83
-21.95
-20.12
-18.71
-17.21
-15.32
-13
-10.31
-7.28
-3.85
0.01
4.22
8.55
12.71
16.52
19.98
23.19
26.18
28.72
30.39
30.72
29.49
26.95
23.67
20.29
17.3
14.82
12.78
11.01
9.38
7.85
6.4
4.99
3.62
2.41
1.56
1.36
2.01
3.53
5.76
8.47
11.43
14.6
18.12
22.19
26.96
32.4
38.15
43.68
48.42
51.92
54.11
55.32
56.14
57.3
59.37
62.6
66.72
71.01
74.44
76
75.05
71.56
66.17
59.97
54.13
49.31
45.56
42.22
38.41
33.43
27.13
19.88
12.38
5.25
-1.22
-7.09
-12.67
-18.18
-23.62
-28.73
-33.08
-36.33
-38.33
-39.21
-39.26
-38.83
-38.18
-37.44
-36.56
-35.46
-34.06
-32.4
-30.62
-28.87
-27.31
-26.07
-25.16
-24.61
-24.3
-24.1
-23.83
-23.35
-22.63
-21.77
-20.96
-20.39
-20.25
-20.64
-21.51
-22.69
-23.93
-24.95
-25.62
-25.97
-26.26
-26.86
-28.08
-29.92
-32.03
-33.71
-34.18
-32.88
-29.69
-25.04
-19.8
-14.95
-11.23
-8.96
-7.99
-7.96
-8.49
-9.43
-10.76
-12.6
-14.97
-17.76
-20.71
-23.49
-25.74
-27.12
-27.4
-26.49
-24.48
-21.56
-17.87
-13.25
-7.2
1.03
11.94
25.25
39.6
52.68
61.84
64.84
60.58
49.38
32.84
13.34
-6.55
-24.66
-39.52
-50.46
-57.56
-61.43
-62.92
-62.95
-62.06
-60.25
-56.8
-50.56
-40.61
-27.03
-11.33
3.66
14.83
20.01
18.92
13.3
6.16
0.53
-1.51
0.8
7.05
16.24
26.99
37.7
46.41
51.08
50.03
42.52
29.11
11.66
-7.16
-24.33
-37.12
-43.47
-42.3
-33.66
-18.66
0.66
21.76
42.11
59.88
74.42
86.47
97.8
110.46
125.84
144.08
163.96
183.26
199.49
210.47
214.75
211.54
200.68
182.52
158.2
129.72
99.96
72.06
48.77
31.84
21.88
18.6
21.29
29.02
40.59
54.14
67.1
76.39
79.13
73.43
58.79
35.84
5.62
-31.04
-73.5
-120.73
-170.6
-219.78
-264.38
-301.15
-328.38
-345.94
-354.33
-353.57
-342.67
-320.06
-284.79
-237.59
-181.19
-119.66
-57.44
1.61
54.58
99.82
137.08
167.48
193.09
215.91
236.68
253.89
263.96
262.35
245.47
212.56
166.31
112.27
57.38
8.2
-30.43
-56.11
-68.95
-71.24
-66.78
-59.87
-54.47
-53.27
-57.31
-66.05
-77.72
-90.04
-100.92
-108.87
-113.17
-113.78
-111.34
-107.17
-103.22
-101.86
-105.11
-113.68
-126
-137.94
-143.15
-134.78
-107.53
-59.9
4.38
76.33
143.47
193.16
216.26
210.33
180.49
137.94
96.01
65.72
52.43
55.02
67.76
83.51
96.91
105.6
109.72
110.38
108.41
104.19
98.22
91.58
85.6
80.75
75.98
68.93
57.37
40.74
20.86
1.24
-14.55
-24.38
-28.06
-26.81
-22.23
-15.63
-7.95
-0.19
6.34
10.35
11.11
8.93
5.07
1.23
-1.32
-2.21
-1.98
-1.71
-2.44
-4.91
-9.67
-17.43
-29.3
-46.47
-69.63
-98.03
-129.31
-159.9
-186.05
-205.11
-216.09
-219.17
-214.8
-203.02
-183.84
-158.34
-129.75
-103.17
-83.85
-74.73
-74.68
-78.88
-81.32
-77.93
-68.59
-56.76
-47.06
-42.41
-42.51
-44.53
-45.2
-42.77
-37.63
-31.4
-25.53
-20.22
-14.66
-7.74
0.99
10.93
20.95
29.93
37.21
42.68
46.59
49.33
51.28
52.7
53.7
54.22
54.04
52.85
50.41
46.61
41.52
35.39
28.58
21.45
14.32
7.44
1.04
-4.57
-8.98
-11.67
-12.31
-10.98
-8.35
-5.42
-3.13
-1.91
-1.48
-1.11
-0.1
1.78
4.14
6.25
7.4
7.26
5.9
3.7
1.15
-1.29
-3.28
-4.56
-5.07
-5.02
-4.9
-5.31
-6.69
-9.17
-12.48
-16.11
-19.64
-22.96
-26.29
-29.99
-34.39
-39.52
-45.1
-50.66
-55.85
-60.54
-64.92
-69.33
-74.11
-79.39
-85.01
-90.48
-94.94
-97.05
-95.18
-87.85
-74.58
-56.51
-36.74
-19.42
-8.31
-5.33
-9.95
-19.6
-30.82
-40.31
-45.54
-44.87
-37.61
-24.26
-6.62
12.44
29.85
43.45
52.68
58.54
62.51
65.53
67.55
67.94
66.56
64.23
62.58
62.97
65.62
69.41
72.48
73.25
71.15
66.74
61.16
55.4
49.82
44.1
37.71
30.42
22.65
15.39
9.81
6.78
6.54
8.56
11.82
15.13
17.49
18.36
17.78
16.24
14.38
12.71
11.39
10.24
8.85
6.78
3.77
-0.17
-4.78
-9.58
-13.97
-17.36
-19.21
-19.25
-17.47
-14.27
-10.31
-6.41
-3.26
-1.14
0.18
1.49
3.87
8.31
15.35
24.76
35.62
46.58
56.38
64.35
70.64
76.17
82.26
90.1
100.15
111.65
122.49
129.55
129.53
120.16
101.1
74.38
43.8
13.77
-12.08
-32.05
-46.46
-57.2
-66.64
-76.6
-87.68
-98.91
-108.13
-112.75
-110.67
-101.2
-85.36
-65.44
-44.13
-23.54
-4.8
11.74
25.94
37.46
45.89
51.17
54.09
56.23
59.4
64.88
72.85
82.45
92.3
101.17
108.37
113.68
117.09
118.5
117.52
113.72
106.85
97.07
84.96
71.32
56.83
41.82
26.11
9.14
-9.95
-31.85
-56.61
-83.23
-109.4
-131.76
-146.71
-151.63
-145.88
-131.21
-111.11
-89.5
-69.33
-51.89
-37.12
-24.39
-13.35
-3.97
3.87
10.71
17.53
25.14
33.57
41.91
48.84
53.5
55.95
57
57.47
57.47
56.44
53.77
49.52
44.74
41.01
39.6
40.79
43.73
46.74
47.95
45.62
38.33
25.11
5.56
-19.69
-48.56
-77.54
-102.34
-119.23
-126.37
-124.46
-116.42
-106.01
-96.3
-88.69
-83.13
-79.04
-76.48
-76.47
-80.28
-88.12
-98.4
-107.88
-113.15
-112.23
-105.59
-95.8
-86.23
-79.25
-75.36
-73.31
-71.17
-67.64
-62.76
-57.65
-53.76
-51.96
-52.13
-53.45
-54.93
-55.98
-56.32
-55.78
-54.13
-51.25
-47.71
-45.08
-45.64
-51.14
-61.47
-73.86
-83.19
-83.71
-71.19
-44.89
-8.12
32.77
70.5
99.42
117.01
124.22
124.37
121.42
118.42
116.74
116.24
116
115.11
113.13
110.09
106.19
101.62
96.45
90.72
84.56
78.1
71.51
64.89
58.26
51.57
44.85
38.21
32.01
26.83
23.39
22.33
23.9
27.69
32.67
37.38
40.44
40.97
38.91
34.96
30.33
26.24
23.5
22.18
21.75
21.35
20.2
17.93
14.65
10.89
7.26
4.21
1.88
0.08
-1.47
-2.97
-4.27
-4.95
-4.31
-1.7
3.23
10.32
18.96
28.24
37.28
45.59
53.09
60.02
66.62
72.81
78.14
81.85
83.18
81.69
77.54
71.38
64.17
56.79
49.61
42.51
35.05
26.86
18.05
9.31
1.69
-3.87
-6.99
-8.06
-8.12
-8.44
-10.08
-13.59
-18.87
-25.2
-31.4
-36.14
-38.3
-37.43
-34.05
-29.71
-26.62
-26.76
-30.84
-37.67
-44.2
-46.64
-42.07
-29.76
-11.63
8.52
26.64
39.91
47.51
50.22
49.53
46.6
41.91
35.6
28.01
20
12.75
7.25
3.79
1.75
-0.04
-2.81
-7.27
-13.31
-20.08
-26.3
-30.72
-32.5
-31.43
-27.85
-22.54
-16.26
-9.61
-2.83
4.11
11.29
18.66
25.86
32.3
37.33
40.55
42.02
42.29
42.22
42.61
43.89
45.92
48.12
49.69
49.93
48.44
45.13
40.1
33.5
25.42
15.82
4.69
-7.86
-21.43
-35.28
-48.34
-59.37
-67.27
-71.25
-71.07
-67.08
-60.11
-51.23
-41.47
-31.62
-21.97
-12.46
-2.71
7.58
18.45
29.5
39.98
49.05
56.06
60.76
63.34
64.29
64.19
63.54
62.69
61.85
60.99
59.8
57.64
53.66
47.1
37.7
25.95
12.96
0.19
-11.07
-20.11
-26.75
-31.26
-34.04
-35.47
-35.86
-35.61
-35.24
-35.34
-36.45
-38.89
-42.62
-47.3
-52.27
-56.8
-60.25
-62.49
-63.97
-65.71
-69.04
-75.02
-84
-95.35
-107.57
-118.86
-127.7
-133.62
-137.32
-140.62
-145.89
-155.28
-169.94
-189.34
-210.76
-229.36
-238.93
-233.4
-208.8
-164.86
-105.62
-38.57
27.33
84.12
126.79
154.06
167.98
172.65
172.77
172.41
174.4
180
188.89
199.09
207.14
208.71
199.6
177.24
141.94
97.3
49.47
5.3
-29.84
-53.66
-67.08
-73.18
-75.42
-76.27
-76.9
-77.57
-78.19
-78.53
-78
-75.57
-70.19
-61.44
-50.14
-38.25
-28.13
-21.46
-18.49
-18.2
-18.92
-19.35
-19.1
-18.49
-18.02
-17.79
-17.34
-15.99
-13.29
-9.3
-4.59
0.07
3.99
6.73
8.25
8.76
8.59
8.03
7.32
6.69
6.43
6.82
8.13
10.55
14.06
18.46
23.42
28.51
33.28
37.32
40.41
42.54
43.89
44.78
45.52
46.37
47.45
48.78
50.33
52.11
54.09
56.23
58.34
60.06
60.9
60.3
57.84
53.38
47.17
39.74
31.68
23.35
14.59
4.88
-6.49
-19.85
-34.8
-50.17
-64.24
-75.36
-82.48
-85.59
-85.62
-84.15
-82.79
-82.71
-84.37
-87.7
-92.29
-97.75
-103.88
-110.48
-117.29
-123.69
-128.78
-131.56
-131.17
-127.07
-119.1
-107.55
-93.07
-76.81
-60.27
-44.98
-32.12
-22.07
-14.41
-8.2
-2.49
3.2
8.82
14.03
18.67
22.92
27.28
32.2
37.75
43.49
48.79
53.15
56.61
59.73
63.32
68.01
73.88
80.35
86.3
90.47
91.87
90.01
84.98
77.29
67.75
57.28
46.94
37.78
30.73
26.37
24.7
24.95
25.38
23.46
16.2
1.05
-23.12
-55.06
-90.95
-125.05
-151.16
-164.55
-163.2
-148.18
-122.8
-91.12
-56.72
-21.99
11.48
42.38
69.14
90.06
103.83
110.19
110.14
105.68
99.1
92.1
85.48
79.12
72.54
65.45
58.09
51.13
45.22
40.6
36.81
32.88
27.75
20.82
12.2
2.79
-6.06
-13.01
-17.18
-18.44
-17.22
-14.35
-10.71
-6.96
-3.49
-0.42
2.13
4.1
5.29
5.58
4.94
3.51
1.59
-0.46
-2.35
-3.9
-5.07
-5.91
-6.49
-6.87
-7.06
-7.06
-6.89
-6.7
-6.8
-7.51
-9.11
-11.54
-14.39
-16.88
-18.13
-17.48
-14.67
-9.97
-4.02
2.38
8.52
13.92
18.36
21.86
24.47
26.32
27.46
27.94
27.83
27.21
26.26
25.13
23.99
22.92
21.92
20.91
19.79
18.5
17.01
15.31
13.34
10.97
8.05
4.45
0.23
-4.19
-8.06
-10.48
-10.69
-8.42
-4.03
1.59
7.35
12.38
16.29
19.17
21.29
22.92
24.07
24.6
24.36
23.35
21.82
20.11
18.55
17.29
16.27
15.31
14.2
12.77
10.95
8.77
6.31
3.59
0.59
-2.79
-6.63
-10.79
-14.81
-17.98
-19.53
-18.91
-16.09
-11.56
-6.13
-0.64
4.32
8.48
11.86
14.52
16.48
17.67
18.03
17.63
16.61
15.25
13.8
12.43
11.2
10.02
8.8
7.47
6.03
4.57
3.2
1.99
0.84
-0.47
-2.24
-4.73
-8.01
-11.87
-15.86
-19.32
-21.51
-21.86
-20.13
-16.43
-11.28
-5.36
0.57
5.96
10.47
14.01
16.64
18.44
19.44
19.65
19.07
17.84
16.23
14.61
13.31
12.48
12
11.52
10.68
9.32
7.56
5.69
4.02
2.6
1.26
-0.38
-2.63
-5.62
-9.23
-13.16
-17.03
-20.4
-22.83
-23.86
-23.15
-20.59
-16.42
-11.21
-5.69
-0.5
3.97
7.63
10.55
12.87
14.68
15.92
16.53
16.46
15.8
14.74
13.51
12.39
11.5
10.86
10.33
9.7
8.79
7.48
5.86
4.07
2.3
0.64
-0.92
-2.55
-4.43
-6.71
-9.42
-12.45
-15.56
-18.42
-20.64
-21.83
-21.68
-20.01
-16.9
-12.65
-7.74
-2.75
1.8
5.58
8.49
10.63
12.18
13.27
13.94
14.15
13.85
13.08
12.06
11.04
10.26
9.78
9.45
8.95
8.01
6.53
4.59
2.44
0.33
-1.63
-3.44
-5.22
-7.06
-9.02
-11.13
-13.36
-15.64
-17.75
-19.34
-19.93
-19.12
-16.76
-13.03
-8.48
-3.75
0.58
4.22
7.14
9.4
11.03
11.94
11.98
11.14
9.59
7.72
6.02
4.84
4.29
4.19
4.21
4.02
3.4
2.35
0.98
-0.49
-1.87
-3.07
-4.11
-5.16
-6.49
-8.38
-10.96
-14.17
-17.68
-20.98
-23.51
-24.68
-24.14
-21.8
-17.91
-13.02
-7.85
-3.05
0.95
4.06
6.41
8.23
9.7
10.84
11.59
11.85
11.65
11.07
10.26
9.34
8.37
7.39
6.44
5.54
4.65
3.74
2.76
1.66
0.44
-0.9
-2.39
-4.05
-5.94
-8.12
-10.64
-13.5
-16.61
-19.72
-22.37
-23.96
-23.93
-21.97
-18.23
-13.35
-8.19
-3.58
0.03
2.66
4.61
6.18
7.48
8.39
8.74
8.44
7.63
6.65
5.82
5.3
5.04
4.8
4.36
3.59
2.53
1.36
0.25
-0.67
-1.44
-2.21
-3.21
-4.71
-6.89
-9.74
-13
-16.22
-18.79
-20.19
-20.06
-18.33
-15.23
-11.22
-6.81
-2.5
1.35
4.52
6.92
8.57
9.48
9.71
9.31
8.34
6.97
5.4
3.82
2.44
1.29
0.33
-0.6
-1.6
-2.74
-3.94
-5.1
-6.14
-7.12
-8.22
-9.71
-11.81
-14.64
-18.09
-21.78
-25.07
-27.2
-27.46
-25.46
-21.34
-15.73
-9.57
-3.76
1.11
4.92
7.91
10.41
12.59
14.37
15.47
15.68
15
13.74
12.36
11.33
10.89
10.98
11.29
11.46
11.24
10.62
9.74
8.8
7.91
7.01
5.94
4.56
2.81
0.66
-1.89
-4.84
-8.1
-11.35
-14.04
-15.51
-15.25
-13.14
-9.53
-5.11
-0.57
3.62
7.28
10.44
13.13
15.24
16.59
17
16.46
15.21
13.63
12.1
10.83
9.83
8.97
8.07
7.05
5.95
4.82
3.74
2.71
1.64
0.39
-1.18
-3.19
-5.69
-8.69
-12.05
-15.47
-18.49
-20.59
-21.33
-20.5
-18.23
-14.9
-11.04
-7.12
-3.47
-0.24
2.51
4.73
6.35
7.28
7.46
6.94
5.9
4.62
3.4
2.46
1.91
1.7
1.69
1.66
1.42
0.83
-0.12
-1.37
-2.77
-4.22
-5.73
-7.42
-9.52
-12.15
-15.18
-18.22
-20.65
-21.82
-21.32
-19.08
-15.42
-10.87
-6.04
-1.42
2.67
6.04
8.61
10.32
11.17
11.21
10.56
9.44
8.09
6.73
5.47
4.36
3.38
2.49
1.65
0.81
-0.08
-1.1
-2.29
-3.7
-5.37
-7.36
-9.75
-12.59
-15.76
-18.91
-21.49
-22.84
-22.53
-20.44
-16.85
-12.32
-7.47
-2.85
1.24
4.65
7.32
9.27
10.5
11.09
11.18
10.97
10.67
10.38
10.07
9.67
9.05
8.15
7.01
5.74
4.45
3.2
1.95
0.63
-0.86
-2.64
-4.89
-7.76
-11.31
-15.36
-19.41
-22.73
-24.53
-24.22
-21.72
-17.38
-11.93
-6.17
-0.75
3.92
7.72
10.62
12.7
14
14.56
14.49
13.96
13.17
12.32
11.54
10.81
10.05
9.12
7.93
6.5
4.96
3.49
2.18
1
-0.29
-1.95
-4.25
-7.26
-10.83
-14.58
-17.96
-20.39
-21.36
-20.61
-18.2
-14.5
-10.1
-5.67
-1.74
1.41
3.81
5.63
7.07
8.25
9.07
9.42
9.2
8.5
7.6
6.85
6.46
6.44
6.52
6.38
5.8
4.8
3.59
2.43
1.48
0.68
-0.18
-1.41
-3.21
-5.67
-8.67
-11.92
-14.93
-17.17
-18.14
-17.54
-15.34
-11.83
-7.44
-2.64
2.2
6.87
11.19
14.99
18.06
20.19
21.22
21.16
20.22
18.71
17.08
15.68
14.76
14.31
14.1
13.78
13.02
11.74
10.05
8.25
6.57
5.06
3.57
1.82
-0.4
-3.13
-6.24
-9.51
-12.7
-15.57
-17.82
-19.08
-19.05
-17.56
-14.72
-10.88
-6.55
-2.2
1.85
5.39
8.31
10.45
11.65
11.85
11.13
9.82
8.3
6.94
5.9
5.16
4.53
3.84
2.92
1.7
0.21
-1.46
-3.15
-4.7
-6
-7.06
-8.03
-9.19
-10.88
-13.29
-16.43
-20.03
-23.54
-26.32
-27.74
-27.37
-25.13
-21.25
-16.23
-10.68
-5.16
-0.11
4.26
7.86
10.73
12.9
14.44
15.44
15.97
16.19
16.28
16.4
16.63
16.91
17.1
17.03
16.57
15.64
14.25
12.47
10.36
7.99
5.45
2.79
-0
-3.04
-6.43
-10.23
-14.21
-17.88
-20.54
-21.56
-20.61
-17.87
-13.87
-9.34
-4.89
-0.87
2.62
5.64
8.18
10.14
11.35
11.69
11.24
10.27
9.18
8.33
7.91
7.8
7.7
7.23
6.16
4.48
2.41
0.29
-1.59
-3.16
-4.61
-6.28
-8.54
-11.55
-15.25
-19.25
-23.02
-25.96
-27.53
-27.45
-25.68
-22.46
-18.23
-13.44
-8.41
-3.33
1.73
6.57
10.78
13.75
14.84
13.79
10.86
6.86
2.79
-0.56
-2.86
-4.37
-5.66
-7.24
-9.41
-12.16
-15.21
-18.03
-19.91
-19.97
-17.39
-11.84
-3.75
5.5
13.98
19.93
22.49
22.11
20.39
19.34
20.56
24.73
31.57
40.29
50.12
60.49
70.93
80.67
88.37
92.33
91.02
83.8
71.37
55.6
38.91
23.4
10.39
0.28
-6.99
-11.56
-13.38
-12.35
-8.68
-3.11
3.15
8.67
12.24
13.16
11.25
6.79
0.46
-6.82
-14.01
-20.11
-24.32
-26.27
-26.03
-24.04
-20.97
-17.43
-13.88
-10.45
-7.04
-3.39
0.64
4.97
9.08
12.28
13.84
13.42
11.21
7.87
4.21
0.9
-1.82
-4.05
-6.07
-8.01
-9.83
-11.33
-12.33
-12.88
-13.23
-13.83
-15.12
-17.37
-20.65
-24.8
-29.53
-34.4
-38.88
-42.38
-44.27
-44.1
-41.72
-37.37
-31.67
-25.39
-19.23
-13.62
-8.69
-4.36
-0.55
2.74
5.38
7.25
8.32
8.7
8.56
8.07
7.34
6.39
5.24
3.91
2.55
1.31
0.28
-0.57
-1.44
-2.58
-4.2
-6.4
-9.18
-12.45
-16.12
-20.15
-24.43
-28.78
-32.79
-35.95
-37.71
-37.62
-35.53
-31.56
-26.11
-19.72
-12.99
-6.52
-0.75
4.01
7.69
10.37
12.18
13.19
13.47
13.03
12.02
10.72
9.52
8.77
8.53
8.58
8.47
7.78
6.34
4.36
2.25
0.43
-0.96
-2.14
-3.57
-5.71
-8.83
-12.86
-17.44
-22.08
-26.3
-29.56
-31.4
-31.38
-29.23
-25
-19.11
-12.36
-5.61
0.38
5.23
8.93
11.72
13.9
15.67
17.09
18.12
18.66
18.71
18.37
17.79
17.15
16.58
16.1
15.57
14.77
13.48
11.61
9.24
6.57
3.81
1.08
-1.66
-4.57
-7.83
-11.54
-15.67
-20.05
-24.4
-28.3
-31.26
-32.69
-32.11
-29.26
-24.29
-17.77
-10.54
-3.45
2.94
8.38
12.97
16.85
20.12
22.64
24.23
24.76
24.23
22.9
21.14
19.33
17.77
16.65
15.99
15.68
15.47
15.03
14.09
12.52
10.37
7.86
5.22
2.54
-0.2
-3.15
-6.48
-10.25
-14.39
-18.78
-23.18
-27.26
-30.5
-32.28
-31.97
-29.22
-24.15
-17.4
-9.99
-2.93
3.07
7.79
11.44
14.44
17.09
19.43
21.22
22.12
21.95
20.77
19
17.21
15.9
15.33
15.45
15.88
16.15
15.8
14.61
12.57
9.95
7.03
4.14
1.49
-0.88
-3.05
-5.21
-7.67
-10.7
-14.49
-19.04
-24.04
-28.81
-32.44
-34
-32.84
-28.86
-22.58
-14.95
-7.11
0.03
5.93
10.45
13.77
16.16
17.86
19.02
19.75
20.09
20.08
19.76
19.19
18.51
17.9
17.53
17.45
17.52
17.46
16.96
15.8
13.97
11.58
8.84
5.9
2.92
-0.02
-2.83
-5.41
-7.79
-10.13
-12.77
-16.08
-20.29
-25.25
-30.42
-34.92
-37.75
-38.08
-35.59
-30.52
-23.66
-16.08
-8.75
-2.28
3.19
7.87
12.02
15.72
18.86
21.2
22.57
23.04
22.81
22.17
21.31
20.35
19.33
18.32
17.46
16.91
16.69
16.63
16.39
15.58
13.86
11.14
7.57
3.57
-0.4
-3.89
-6.66
-8.76
-10.51
-12.39
-14.81
-18
-21.79
-25.65
-28.78
-30.36
-29.73
-26.65
-21.34
-14.44
-6.9
0.33
6.49
11.17
14.39
16.42
17.64
18.36
18.66
18.5
17.8
16.64
15.27
14.07
13.32
13.09
13.17
13.21
12.87
11.97
10.5
8.58
6.37
3.98
1.48
-1.1
-3.72
-6.34
-8.96
-11.65
-14.53
-17.69
-21.11
-24.57
-27.63
-29.68
-30.16
-28.67
-25.23
-20.23
-14.36
-8.41
-3
1.55
5.21
8.18
10.68
12.82
14.59
15.84
16.39
16.16
15.18
13.67
11.91
10.22
8.8
7.7
6.83
6.02
5.11
3.99
2.64
1.08
-0.65
-2.54
-4.63
-6.96
-9.6
-12.58
-15.91
-19.59
-23.56
-27.68
-31.68
-35.07
-37.24
-37.61
-35.84
-32.01
-26.63
-20.48
-14.34
-8.73
-3.82
0.49
4.34
7.77
10.63
12.66
13.74
13.85
13.21
12.15
11
10
9.25
8.69
8.09
7.18
5.66
3.38
0.44
-2.84
-6.06
-8.87
-11.21
-13.35
-15.8
-19.07
-23.37
-28.4
-33.38
-37.25
-38.98
-37.94
-34.19
-28.4
-21.67
-15.12
-9.53
-5.16
-1.81
0.96
3.64
6.56
9.85
13.45
17.09
20.4
22.9
24.12
23.72
21.59
17.96
13.38
8.52
4.01
0.27
-2.62
-4.96
-7.27
-10.05
-13.69
-18.32
-23.86
-30.1
-36.72
-43.25
-48.95
-52.87
-54.06
-51.92
-46.5
-38.55
-29.27
-19.91
-11.29
-3.64
3.27
9.84
16.21
22.18
27.2
30.82
32.95
34.09
35.19
37.23
40.71
45.37
50.21
53.9
55.31
53.91
49.89
43.96
37
29.73
22.57
15.68
9.09
2.75
-3.34
-9.23
-14.99
-20.68
-26.23
-31.34
-35.41
-37.7
-37.52
-34.6
-29.18
-21.99
-14.04
-6.26
0.74
6.71
11.69
15.89
19.43
22.36
24.64
26.27
27.28
27.78
27.89
27.71
27.31
26.71
25.92
25.03
24.09
23.17
22.24
21.15
19.67
17.55
14.67
11.07
6.99
2.8
-1.12
-4.52
-7.33
-9.73
-12.1
-14.9
-18.56
-23.24
-28.75
-34.47
-39.51
-42.85
-43.69
-41.6
-36.73
-29.7
-21.47
-13.04
-5.22
1.52
7.1
11.7
15.58
18.89
21.62
23.63
24.81
25.24
25.17
24.93
24.75
24.66
24.5
24.08
23.36
22.47
21.58
20.76
19.83
18.48
16.42
13.63
10.4
7.19
4.42
2.2
0.31
-1.7
-4.26
-7.62
-11.76
-16.43
-21.18
-25.37
-28.24
-29.07
-27.36
-23.06
-16.67
-9.13
-1.56
5.13
10.45
14.37
17.14
19.07
20.32
20.98
21.1
20.81
20.33
19.83
19.31
18.69
17.86
16.85
15.9
15.34
15.35
15.82
16.31
16.21
15.01
12.52
8.89
4.56
0.03
-4.32
-8.27
-11.81
-15.12
-18.54
-22.44
-27.08
-32.44
-38.04
-42.97
-46.11
-46.44
-43.46
-37.36
-28.97
-19.54
-10.27
-2.03
4.81
10.31
14.73
18.34
21.24
23.4
24.69
25.08
24.72
23.91
23.06
22.46
22.17
22.02
21.72
21.03
19.93
18.58
17.24
16.05
14.86
13.35
11.11
7.95
4.05
-0.15
-4.05
-7.22
-9.52
-11.19
-12.68
-14.53
-17.11
-20.62
-24.94
-29.63
-34.01
-37.17
-38.22
-36.6
-32.23
-25.69
-17.95
-10.1
-2.93
3.25
8.57
13.37
17.91
22.22
26.14
29.38
31.73
33.13
33.66
33.5
32.82
31.79
30.5
29.04
27.45
25.84
24.3
22.89
21.6
20.25
18.54
16.16
12.92
8.84
4.24
-0.45
-4.84
-8.7
-12.1
-15.26
-18.49
-22.04
-26.02
-30.45
-35.18
-39.95
-44.3
-47.63
-49.25
-48.64
-45.59
-40.33
-33.52
-25.98
-18.5
-11.6
-5.49
-0.15
4.5
8.42
11.46
13.41
14.22
14.06
13.4
12.8
12.72
13.31
14.37
15.47
16.15
16.22
15.73
14.94
14.08
13.13
11.88
10
7.34
4.03
0.48
-2.83
-5.59
-7.77
-9.71
-11.89
-14.72
-18.41
-22.89
-27.86
-32.8
-37.05
-39.79
-40.23
-37.87
-32.73
-25.48
-17.23
-9.17
-2.15
3.54
8.12
12.03
15.65
19.06
22.07
24.42
25.92
26.6
26.69
26.53
26.38
26.41
26.54
26.56
26.2
25.29
23.83
22.02
20.14
18.38
16.74
14.97
12.73
9.74
6.03
1.92
-2.06
-5.43
-7.99
-9.92
-11.67
-13.77
-16.64
-20.46
-25.09
-30.14
-34.96
-38.77
-40.74
-40.25
-37.11
-31.64
-24.64
-17.12
-9.96
-3.67
1.65
6.14
10
13.29
15.95
17.9
19.16
19.83
20.11
20.18
20.09
19.85
19.43
18.87
18.26
17.71
17.25
16.8
16.15
15.08
13.41
11.06
8.07
4.6
0.91
-2.68
-5.86
-8.42
-10.4
-12.11
-14.07
-16.85
-20.77
-25.69
-30.99
-35.66
-38.66
-39.21
-37.03
-32.41
-26.04
-18.77
-11.4
-4.47
1.71
7
11.34
14.67
16.94
18.18
18.57
18.36
17.92
17.56
17.46
17.64
17.99
18.3
18.42
18.28
17.88
17.26
16.46
15.43
14.04
12.14
9.63
6.47
2.8
-1.15
-5.05
-8.61
-11.71
-14.41
-16.99
-19.87
-23.43
-27.8
-32.7
-37.44
-41.05
-42.58
-41.42
-37.5
-31.3
-23.73
-15.81
-8.38
-1.87
3.65
8.38
12.52
16.11
19.01
21.01
22.01
22.16
21.79
21.3
20.95
20.75
20.53
20.1
19.39
18.5
17.63
16.89
16.22
15.35
13.94
11.72
8.66
4.98
1.07
-2.64
-5.82
-8.41
-10.58
-12.72
-15.29
-18.65
-22.88
-27.71
-32.53
-36.5
-38.74
-38.57
-35.7
-30.38
-23.34
-15.56
-8.05
-1.51
3.77
7.9
11.18
13.88
16.1
17.78
18.87
19.41
19.63
19.76
19.97
20.2
20.24
19.82
18.83
17.37
15.71
14.13
12.75
11.46
10.02
8.16
5.75
2.9
-0.12
-2.99
-5.46
-7.45
-9.11
-10.81
-12.99
-16.07
-20.25
-25.38
-30.84
-35.67
-38.75
-39.17
-36.55
-31.17
-23.9
-15.91
-8.26
-1.6
3.94
8.56
12.59
16.23
19.43
21.98
23.69
24.57
24.82
24.74
24.57
24.37
24.06
23.48
22.55
21.34
20.01
18.72
17.54
16.36
14.96
13.09
10.61
7.53
4.08
0.61
-2.56
-5.19
-7.27
-9
-10.82
-13.18
-16.44
-20.66
-25.51
-30.31
-34.11
-35.98
-35.34
-32.08
-26.66
-19.87
-12.66
-5.77
0.36
5.62
10.08
13.83
16.89
19.2
20.69
21.42
21.58
21.42
21.18
20.98
20.77
20.43
19.84
19.02
18.09
17.21
16.47
15.81
14.96
13.62
11.51
8.58
5.04
1.34
-2.02
-4.64
-6.39
-7.49
-8.44
-9.84
-12.18
-15.7
-20.25
-25.32
-30.11
-33.72
-35.28
-34.23
-30.48
-24.49
-17.17
-9.6
-2.76
2.8
7.01
10.18
12.77
15.1
17.19
18.88
19.93
20.29
20.14
19.86
19.79
20.03
20.41
20.54
20.07
18.89
17.22
15.42
13.83
12.52
11.25
9.62
7.32
4.3
0.83
-2.64
-5.65
-7.97
-9.71
-11.26
-13.1
-15.65
-19.12
-23.38
-28.04
-32.45
-35.87
-37.58
-37.04
-34.03
-28.73
-21.75
-13.92
-6.18
0.68
6.2
10.32
13.28
15.46
17.17
18.56
19.58
20.14
20.23
19.95
19.57
19.3
19.24
19.3
19.26
18.93
18.21
17.18
15.99
14.77
13.61
12.43
11
9.09
6.51
3.26
-0.43
-4.16
-7.47
-10.04
-11.84
-13.18
-14.57
-16.57
-19.56
-23.56
-28.23
-32.89
-36.65
-38.66
-38.24
-35.15
-29.62
-22.35
-14.31
-6.51
0.27
5.61
9.51
12.25
14.19
15.6
16.54
16.95
16.74
15.98
14.94
13.99
13.44
13.35
13.54
13.65
13.44
12.82
11.93
10.96
9.99
8.87
7.38
5.31
2.71
-0.15
-2.89
-5.26
-7.18
-8.87
-10.64
-12.8
-15.56
-18.91
-22.73
-26.67
-30.2
-32.61
-33.15
-31.29
-26.99
-20.74
-13.53
-6.49
-0.48
4.11
7.46
9.95
11.99
13.72
15.04
15.76
15.78
15.25
14.5
13.88
13.59
13.63
13.86
14.06
14.06
13.78
13.22
12.4
11.3
9.82
7.84
5.3
2.23
-1.16
-4.57
-7.68
-10.3
-12.46
-14.42
-16.6
-19.39
-23.01
-27.36
-32
-36.16
-39.01
-39.75
-37.87
-33.35
-26.68
-18.78
-10.75
-3.57
2.18
6.42
9.46
11.82
13.88
15.76
17.38
18.57
19.26
19.54
19.57
19.47
19.2
18.6
17.47
15.78
13.74
11.68
9.92
8.53
7.35
5.95
3.9
0.96
-2.76
-6.88
-10.83
-14.14
-16.61
-18.37
-19.82
-21.42
-23.52
-26.26
-29.53
-33.08
-36.48
-39.12
-40.16
-38.58
-33.47
-24.42
-11.87
2.84
17.84
31.38
42.4
50.79
57.1
61.97
65.64
67.86
68.23
66.6
63.39
59.46
55.65
52.44
49.88
47.84
46.37
45.85
46.8
49.43
53.28
57.12
59.23
58.01
52.48
42.65
29.41
14.21
-1.32
-15.86
-28.57
-39.24
-48.15
-55.91
-63.09
-70.06
-76.76
-82.77
-87.36
-89.79
-89.46
-86.1
-79.86
-71.24
-61.03
-50.15
-39.44
-29.53
-20.73
-13.04
-6.34
-0.52
4.31
7.87
9.86
10.19
9.09
7.12
4.95
3.08
1.65
0.53
-0.59
-1.94
-3.57
-5.45
-7.61
-10.11
-13.14
-16.77
-20.84
-24.99
-28.72
-31.67
-33.8
-35.41
-37.03
-39.19
-42.16
-45.78
-49.4
-52.01
-52.44
-49.74
-43.51
-34.08
-22.39
-9.83
2.3
13.09
22.12
29.48
35.51
40.55
44.8
48.26
50.82
52.35
52.8
52.22
50.84
48.97
46.96
45.03
43.25
41.51
39.61
37.36
34.66
31.58
28.26
24.86
21.46
18.05
14.6
11.06
7.4
3.57
-0.52
-4.99
-9.79
-14.57
-18.66
-21.17
-21.35
-18.92
-14.23
-8.19
-1.93
3.63
8.07
11.46
14.15
16.48
18.55
20.17
21
20.75
19.32
16.89
13.8
10.48
7.26
4.29
1.59
-0.91
-3.29
-5.52
-7.55
-9.36
-11.03
-12.7
-14.53
-16.56
-18.71
-20.83
-22.8
-24.67
-26.64
-29.01
-31.95
-35.32
-38.6
-40.95
-41.41
-39.31
-34.47
-27.29
-18.59
-9.31
-0.19
8.37
16.28
23.59
30.29
36.14
40.73
43.59
44.38
42.98
39.59
34.6
28.61
22.3
16.27
11
6.69
3.31
0.67
-1.55
-3.71
-6.12
-9.03
-12.46
-16.24
-20.01
-23.37
-26.03
-27.95
-29.41
-30.9
-32.97
-36.02
-40.05
-44.67
-49.1
-52.34
-53.46
-51.79
-47.19
-40.08
-31.33
-22.01
-13.13
-5.35
1.03
6.08
10.08
13.31
16.04
18.36
20.3
21.8
22.8
23.3
23.34
23.08
22.65
22.24
21.93
21.77
21.69
21.49
20.9
19.7
17.77
15.14
12.03
8.73
5.53
2.61
-0.03
-2.57
-5.27
-8.42
-12.21
-16.61
-21.31
-25.69
-28.89
-30.04
-28.57
-24.43
-18.18
-10.86
-3.61
2.68
7.62
11.29
14.06
16.19
17.75
18.62
18.65
17.86
16.52
15.05
13.85
13.21
13.16
13.57
14.17
14.63
14.63
13.94
12.46
10.27
7.59
4.7
1.83
-0.88
-3.43
-5.89
-8.44
-11.22
-14.43
-18.18
-22.38
-26.68
-30.39
-32.65
-32.65
-29.99
-24.79
-17.76
-9.92
-2.37
4.09
9.1
12.75
15.41
17.46
19.17
20.55
21.53
22
22
21.7
21.32
21
20.71
20.25
19.47
18.32
16.95
15.66
14.65
13.93
13.23
12.11
10.17
7.27
3.53
-0.6
-4.63
-8.2
-11.28
-14.11
-17.16
-20.79
-25.13
-29.9
-34.43
-37.78
-39.04
-37.59
-33.32
-26.74
-18.85
-10.84
-3.71
1.99
6.3
9.65
12.59
15.46
18.24
20.66
22.39
23.33
23.63
23.62
23.6
23.66
23.7
23.48
22.85
21.83
20.64
19.53
18.64
17.88
16.91
15.36
12.96
9.68
5.79
1.75
-1.92
-4.9
-7.15
-8.93
-10.67
-12.8
-15.61
-19.17
-23.37
-27.9
-32.29
-35.93
-38.09
-38.05
-35.39
-30.16
-23.02
-15.05
-7.43
-1.06
3.76
7.2
9.82
12.09
14.26
16.24
17.7
18.36
18.07
16.96
15.32
13.5
11.85
10.62
9.92
9.78
10.11
10.72
11.34
11.6
11.14
9.73
7.31
4.11
0.56
-2.89
-5.86
-8.28
-10.37
-12.53
-15.19
-18.51
-22.25
-25.74
-28.05
-28.3
-26.01
-21.27
-14.78
-7.53
-0.54
5.45
10.11
13.41
15.53
16.7
17.19
17.27
17.2
17.13
17.09
16.95
16.58
15.94
15.13
14.32
13.6
12.91
12.1
10.94
9.36
7.36
5.01
2.36
-0.54
-3.67
-6.9
-10.02
-12.81
-15.2
-17.32
-19.52
-22.22
-25.66
-29.71
-33.81
-37.06
-38.49
-37.37
-33.46
-27.17
-19.44
-11.43
-4.18
1.66
6
9.15
11.59
13.7
15.61
17.24
18.44
19.13
19.38
19.36
19.18
18.9
18.44
17.76
16.86
15.87
14.92
14.01
13
11.61
9.61
6.92
3.68
0.23
-3.06
-5.88
-8.08
-9.78
-11.29
-13.02
-15.45
-18.92
-23.51
-28.84
-34.08
-38.06
-39.6
-37.88
-32.78
-25
-15.8
-6.6
1.49
7.92
12.77
16.44
19.41
21.96
24.1
25.71
26.66
26.94
26.63
25.87
24.78
23.45
21.92
20.33
18.85
17.66
16.86
16.36
15.82
14.77
12.78
9.65
5.59
1.07
-3.24
-6.86
-9.62
-11.74
-13.76
-16.24
-19.65
-24.14
-29.54
-35.3
-40.53
-44.2
-45.35
-43.44
-38.56
-31.46
-23.32
-15.37
-8.53
-3.18
0.77
3.71
5.99
7.76
8.97
9.5
9.29
8.47
7.37
6.38
5.87
5.99
6.63
7.51
8.27
8.61
8.41
7.64
6.32
4.48
2.16
-0.55
-3.51
-6.53
-9.51
-12.45
-15.46
-18.68
-22.12
-25.51
-28.31
-29.77
-29.24
-26.36
-21.26
-14.55
-7.12
0.13
6.52
11.74
15.77
18.72
20.67
21.61
21.46
20.25
18.23
15.82
13.59
11.95
11.12
11
11.28
11.55
11.42
10.65
9.16
7.01
4.35
1.44
-1.54
-4.46
-7.3
-10.19
-13.29
-16.75
-20.61
-24.71
-28.62
-31.67
-33.08
-32.22
-28.83
-23.21
-16.19
-8.88
-2.24
3.16
7.3
10.52
13.26
15.74
17.87
19.36
19.94
19.58
18.55
17.34
16.41
15.99
16.03
16.23
16.22
15.76
14.78
13.34
11.57
9.54
7.26
4.71
1.9
-1.12
-4.32
-7.72
-11.45
-15.59
-20.06
-24.49
-28.17
-30.16
-29.66
-26.35
-20.56
-13.29
-5.82
0.72
5.74
9.3
11.85
13.95
15.89
17.61
18.86
19.44
19.37
18.91
18.38
18
17.77
17.52
17.02
16.05
14.55
12.55
10.23
7.78
5.36
3.1
1
-1.05
-3.25
-5.83
-8.98
-12.71
-16.9
-21.21
-25.16
-28.14
-29.54
-28.86
-25.9
-20.89
-14.44
-7.41
-0.71
5.08
9.71
13.28
16.07
18.33
20.1
21.34
21.93
21.82
21.11
20.02
18.78
17.62
16.65
15.85
15.11
14.21
12.96
11.19
8.88
6.13
3.17
0.19
-2.63
-5.27
-7.8
-10.32
-12.95
-15.82
-19.05
-22.67
-26.51
-30.11
-32.69
-33.34
-31.41
-26.82
-20.19
-12.64
-5.43
0.56
5.06
8.37
11.05
13.56
15.98
18.08
19.5
19.99
19.61
18.71
17.77
17.16
16.95
16.88
16.51
15.49
13.7
11.37
8.92
6.75
4.98
3.39
1.57
-0.89
-4.15
-8.1
-12.4
-16.59
-20.21
-22.82
-23.99
-23.36
-20.75
-16.29
-10.5
-4.18
1.82
6.88
10.76
13.58
15.62
17.13
18.2
18.77
18.73
18.11
17.1
16.02
15.18
14.72
14.54
14.38
13.9
12.9
11.35
9.41
7.34
5.29
3.28
1.15
-1.4
-4.59
-8.51
-13.03
-17.78
-22.22
-25.78
-27.88
-28.1
-26.29
-22.57
-17.39
-11.37
-5.24
0.39
5.14
8.87
11.68
13.83
15.57
17.03
18.17
18.86
18.93
18.4
17.46
16.47
15.72
15.3
15.01
14.46
13.3
11.43
9.06
6.52
4.19
2.2
0.46
-1.27
-3.23
-5.55
-8.3
-11.53
-15.31
-19.62
-24.24
-28.59
-31.79
-32.9
-31.33
-27.1
-20.91
-13.89
-7.17
-1.48
2.98
6.46
9.31
11.8
13.95
15.63
16.68
17.04
16.76
16
14.92
13.7
12.53
11.54
10.84
10.38
9.99
9.43
8.5
7.14
5.39
3.36
1.14
-1.23
-3.79
-6.6
-9.74
-13.23
-17.03
-20.95
-24.61
-27.47
-28.87
-28.3
-25.6
-21.01
-15.22
-9.06
-3.26
1.77
5.93
9.33
12.09
14.22
15.59
16.13
15.84
14.92
13.69
12.47
11.54
11.03
10.92
11.07
11.21
11.03
10.2
8.54
6.07
3.05
-0.1
-3.01
-5.45
-7.45
-9.2
-10.98
-13.08
-15.71
-18.98
-22.83
-26.92
-30.61
-33.05
-33.45
-31.29
-26.65
-20.14
-12.79
-5.62
0.62
5.61
9.51
12.64
15.34
17.72
19.69
20.94
21.28
20.64
19.27
17.58
16.03
14.9
14.26
13.95
13.69
13.27
12.54
11.47
10.04
8.27
6.16
3.77
1.23
-1.32
-3.76
-6.08
-8.43
-11.04
-14.12
-17.77
-21.79
-25.75
-28.92
-30.49
-29.83
-26.72
-21.47
-14.89
-8.01
-1.67
3.71
8.12
11.81
15.01
17.76
19.9
21.25
21.78
21.7
21.37
21.09
21
20.98
20.83
20.37
19.54
18.45
17.28
16.12
14.93
13.54
11.73
9.34
6.41
3.14
-0.16
-3.21
-5.86
-8.16
-10.33
-12.7
-15.56
-19.03
-23.06
-27.26
-31.03
-33.6
-34.23
-32.47
-28.34
-22.35
-15.35
-8.25
-1.76
3.73
8.18
11.73
14.53
16.63
18
18.58
18.39
17.58
16.4
15.14
14.02
13.21
12.75
12.62
12.71
12.86
12.79
12.23
10.95
8.86
6.1
2.94
-0.19
-3.01
-5.39
-7.42
-9.37
-11.56
-14.23
-17.46
-21.13
-24.87
-28.09
-30.03
-30
-27.57
-22.86
-16.51
-9.53
-2.94
2.5
6.55
9.38
11.35
12.84
13.95
14.67
14.89
14.61
13.96
13.19
12.53
12.11
11.92
11.84
11.71
11.38
10.72
9.62
7.99
5.75
2.92
-0.29
-3.61
-6.66
-9.2
-11.23
-13.02
-15.03
-17.68
-21.17
-25.32
-29.5
-32.87
-34.56
-33.93
-30.8
-25.49
-18.78
-11.7
-5.19
0.17
4.27
7.4
10.02
12.46
14.74
16.63
17.82
18.18
17.8
17.04
16.28
15.77
15.58
15.59
15.63
15.57
15.33
14.83
13.91
12.42
10.2
7.29
3.96
0.62
-2.32
-4.67
-6.57
-8.5
-10.97
-14.38
-18.72
-23.58
-28.24
-31.87
-33.69
-33.2
-30.23
-25.02
-18.18
-10.64
-3.41
2.7
7.32
10.58
12.98
14.99
16.84
18.42
19.43
19.69
19.33
18.71
18.25
18.16
18.32
18.39
18.05
17.22
16.05
14.8
13.65
12.52
11.22
9.54
7.38
4.88
2.25
-0.32
-2.73
-5.08
-7.56
-10.4
-13.74
-17.64
-21.98
-26.48
-30.67
-33.95
-35.64
-35.17
-32.33
-27.33
-20.8
-13.61
-6.6
-0.34
4.98
9.37
12.96
15.78
17.79
18.94
19.34
19.21
18.89
18.64
18.54
18.54
18.45
18.14
17.57
16.83
15.98
15.1
14.13
12.95
11.42
9.43
6.98
4.2
1.33
-1.42
-3.91
-6.2
-8.53
-11.22
-14.5
-18.38
-22.55
-26.4
-29.22
-30.3
-29.2
-25.85
-20.55
-13.96
-6.91
-0.19
5.63
10.27
13.69
16.05
17.52
18.27
18.41
18.08
17.47
16.86
16.52
16.61
17.11
17.82
18.39
18.48
17.92
16.73
15.15
13.45
11.81
10.19
8.37
6.08
3.17
-0.22
-3.75
-7.01
-9.79
-12.15
-14.46
-17.17
-20.71
-25.16
-30.23
-35.21
-39.14
-41.07
-40.3
-36.67
-30.61
-23.04
-15.09
-7.75
-1.62
3.21
7.01
10.18
13.02
15.61
17.87
19.64
20.84
21.48
21.66
21.48
21.02
20.32
19.41
18.36
17.28
16.3
15.47
14.79
14.07
13.08
11.56
9.33
6.4
2.97
-0.61
-3.96
-6.84
-9.26
-11.49
-13.98
-17.12
-21.1
-25.74
-30.49
-34.53
-36.99
-37.18
-34.85
-30.22
-23.93
-16.83
-9.74
-3.23
2.41
7.1
10.89
13.84
15.99
17.43
18.29
18.8
19.17
19.56
19.94
20.22
20.24
19.98
19.54
19.11
18.86
18.8
18.75
18.35
17.31
15.43
12.78
9.56
6.06
2.55
-0.83
-3.96
-6.77
-9.2
-11.38
-13.51
-15.96
-19.09
-23.07
-27.68
-32.31
-36.05
-37.94
-37.34
-34.1
-28.62
-21.68
-14.25
-7.12
-0.81
4.51
8.86
12.39
15.18
17.23
18.51
19.05
19
18.62
18.25
18.1
18.23
18.5
18.66
18.51
17.99
17.23
16.41
15.67
15.02
14.23
13.04
11.2
8.69
5.69
2.58
-0.26
-2.56
-4.33
-5.81
-7.39
-9.49
-12.36
-16.08
-20.43
-24.95
-28.88
-31.39
-31.7
-29.35
-24.45
-17.62
-9.89
-2.31
4.34
9.81
14.27
18.16
21.91
25.68
29.37
32.66
35.3
37.18
38.52
39.66
40.97
42.67
44.73
46.94
49.04
50.81
52.13
52.87
52.83
51.62
48.76
43.85
36.7
27.51
16.8
5.26
-6.48
-18.02
-29.23
-40.12
-50.71
-60.84
-70.18
-78.36
-85.02
-89.94
-92.89
-93.6
-91.74
-86.99
-79.38
-69.42
-58.09
-46.68
-36.31
-27.67
-20.86
-15.53
-11.16
-7.32
-3.82
-0.71
1.9
3.9
5.35
6.39
7.3
8.31
9.59
11.17
12.94
14.65
16.07
16.98
17.28
16.87
15.73
13.85
11.3
8.29
5.18
2.34
0.01
-1.89
-3.77
-6.22
-9.71
-14.31
-19.52
-24.35
-27.6
-28.28
-25.86
-20.57
-13.23
-5.06
2.72
9.19
13.88
16.79
18.22
18.52
17.99
16.86
15.3
13.51
11.75
10.26
9.25
8.74
8.68
8.91
9.27
9.66
9.98
10.16
10.06
9.51
8.29
6.34
3.76
0.85
-2
-4.48
-6.5
-8.25
-10.13
-12.6
-15.96
-20.21
-25.01
-29.74
-33.58
-35.78
-35.75
-33.29
-28.62
-22.34
-15.23
-8.09
-1.51
4.17
8.83
12.49
15.27
17.3
18.71
19.59
19.95
19.8
19.16
18.12
16.88
15.67
14.67
13.91
13.31
12.71
12
11.14
10.14
8.96
7.44
5.44
2.88
-0.08
-3.1
-5.78
-7.93
-9.64
-11.42
-13.8
-17.23
-21.68
-26.7
-31.44
-34.95
-36.42
-35.4
-31.89
-26.31
-19.39
-11.98
-4.88
1.34
6.44
10.44
13.59
16.16
18.32
20.05
21.24
21.71
21.38
20.32
18.74
16.99
15.42
14.27
13.66
13.49
13.54
13.42
12.8
11.38
9.1
6.09
2.67
-0.74
-3.8
-6.32
-8.34
-10.08
-11.97
-14.4
-17.67
-21.77
-26.27
-30.31
-32.86
-33.03
-30.41
-25.23
-18.33
-10.84
-3.75
2.3
7.12
10.84
13.74
16.08
17.96
19.47
20.63
21.49
22.11
22.53
22.8
22.94
22.97
22.87
22.61
22.14
21.38
20.29
18.85
17.07
14.95
12.48
9.65
6.49
3.16
-0.11
-3.04
-5.49
-7.52
-9.49
-11.85
-15.09
-19.43
-24.71
-30.37
-35.46
-38.97
-40.01
-38.16
-33.55
-26.89
-19.21
-11.57
-4.72
1.1
6.02
10.43
14.58
18.52
22
24.7
26.43
27.22
27.37
27.27
27.2
27.22
27.18
26.84
26.03
24.78
23.29
21.82
20.5
19.27
17.89
16.03
13.46
10.18
6.42
2.59
-0.89
-3.78
-6.04
-7.91
-9.81
-12.23
-15.58
-20
-25.24
-30.65
-35.28
-38.1
-38.3
-35.59
-30.24
-23.07
-15.19
-7.67
-1.18
4.05
8.26
11.91
15.39
18.83
22.07
24.82
26.82
28.01
28.55
28.71
28.73
28.75
28.79
28.77
28.59
28.18
27.53
26.63
25.51
24.14
22.47
20.41
17.89
14.9
11.56
8.05
4.59
1.34
-1.6
-4.3
-6.86
-9.47
-12.27
-15.42
-18.96
-22.93
-27.21
-31.42
-34.99
-37.16
-37.19
-34.68
-29.75
-23.12
-15.8
-8.79
-2.71
2.38
6.7
10.57
14.03
16.87
18.76
19.57
19.49
19.02
18.71
18.86
19.41
20.03
20.39
20.31
19.82
19.07
18.17
17.1
15.71
13.88
11.52
8.76
5.79
2.87
0.18
-2.19
-4.26
-6.18
-8.23
-10.72
-13.87
-17.71
-21.93
-25.87
-28.72
-29.7
-28.35
-24.65
-19.09
-12.5
-5.81
0.2
5.12
8.89
11.73
13.9
15.61
16.86
17.55
17.57
16.96
15.94
14.9
14.21
14.12
14.58
15.34
16.01
16.22
15.7
14.35
12.22
9.43
6.21
2.79
-0.63
-3.84
-6.73
-9.27
-11.58
-13.9
-16.59
-20.01
-24.34
-29.31
-34.2
-37.89
-39.22
-37.46
-32.63
-25.56
-17.58
-10.03
-3.81
0.87
4.3
7
9.41
11.64
13.53
14.82
15.34
15.11
14.42
13.59
12.98
12.72
12.74
12.8
12.61
11.96
10.81
9.23
7.4
5.42
3.36
1.21
-1.06
-3.5
-6.15
-9.09
-12.36
-15.97
-19.74
-23.29
-26.03
-27.37
-26.87
-24.41
-20.26
-14.98
-9.26
-3.7
1.32
5.65
9.27
12.22
14.45
15.9
16.49
16.26
15.44
14.37
13.45
12.92
12.75
12.66
12.24
11.17
9.37
7.08
4.73
2.7
1.1
-0.29
-1.87
-4.05
-6.99
-10.59
-14.52
-18.46
-22.15
-25.33
-27.72
-28.89
-28.36
-25.81
-21.28
-15.2
-8.39
-1.71
4.16
8.94
12.68
15.69
18.2
20.34
22.01
23.02
23.2
22.57
21.32
19.76
18.21
16.82
15.59
14.37
13.03
11.48
9.76
7.93
6.05
4.11
2.02
-0.32
-2.96
-5.82
-8.81
-11.86
-15.03
-18.44
-22.16
-25.97
-29.33
-31.41
-31.41
-28.92
-24.11
-17.76
-10.95
-4.68
0.52
4.6
7.91
10.82
13.53
15.95
17.79
18.77
18.8
18.08
17.03
16.12
15.71
15.91
16.55
17.25
17.59
17.25
16.13
14.31
12.03
9.55
7.03
4.58
2.19
-0.18
-2.56
-5.01
-7.55
-10.27
-13.26
-16.48
-19.7
-22.42
-23.92
-23.49
-20.71
-15.64
-8.89
-1.43
5.78
12.11
17.36
21.73
25.52
28.83
31.59
33.58
34.7
35.04
34.88
34.55
34.21
33.83
33.23
32.19
30.6
28.47
25.89
22.91
19.52
15.68
11.33
6.49
1.29
-4.05
-9.27
-14.11
-18.49
-22.49
-26.41
-30.64
-35.46
-40.87
-46.42
-51.33
-54.67
-55.65
-53.96
-49.78
-43.76
-36.78
-29.75
-23.33
-17.86
-13.4
-9.78
-6.75
-4.1
-1.74
0.34
2.08
3.46
4.5
5.35
6.22
7.32
8.73
10.38
12.11
13.64
14.81
15.49
15.72
15.57
15.08
14.2
12.78
10.72
8.02
4.85
1.5
-1.7
-4.52
-6.89
-8.92
-10.88
-13.08
-15.81
-19.2
-23.25
-27.69
-32.04
-35.65
-37.78
-37.81
-35.44
-30.78
-24.43
-17.29
-10.32
-4.24
0.72
4.76
8.32
11.78
15.23
18.47
21.14
23.01
24.05
24.51
24.66
24.73
24.76
24.66
24.36
23.83
23.13
22.29
21.3
20.12
18.65
16.88
14.86
12.72
10.58
8.52
6.57
4.63
2.58
0.34
-2.14
-4.76
-7.3
-9.53
-11.35
-12.87
-14.45
-16.6
-19.67
-23.69
-28.13
-32.06
-34.42
-34.39
-31.75
-26.93
-20.8
-14.38
-8.46
-3.39
0.84
4.49
7.77
10.75
13.31
15.28
16.54
17.07
17.04
16.67
16.23
15.96
16.01
16.37
16.94
17.51
17.92
18.08
18
17.7
17.19
16.32
14.86
12.64
9.67
6.22
2.77
-0.29
-2.76
-4.83
-6.93
-9.56
-13.05
-17.43
-22.43
-27.5
-31.92
-34.9
-35.79
-34.22
-30.31
-24.67
-18.23
-11.96
-6.53
-2.11
1.56
4.9
8.19
11.37
14.1
16.01
16.93
17.05
16.83
16.78
17.24
18.18
19.31
20.21
20.56
20.25
19.42
18.3
17.16
16.06
14.95
13.67
12.03
9.97
7.52
4.87
2.21
-0.24
-2.35
-4.12
-5.66
-7.19
-9.02
-11.44
-14.66
-18.72
-23.31
-27.77
-31.17
-32.51
-31.14
-26.94
-20.5
-12.89
-5.37
1.09
6.02
9.52
12.05
14.11
16.07
18
19.76
21.12
21.93
22.13
21.72
20.8
19.49
17.91
16.25
14.66
13.2
11.84
10.45
8.83
6.83
4.34
1.39
-1.99
-5.7
-9.62
-13.56
-17.27
-20.45
-22.86
-24.47
-25.45
-26.18
-27.1
-28.61
-30.92
-34.03
-37.71
-41.45
-44.55
-46.2
-45.72
-42.83
-37.77
-31.3
-24.43
-18.06
-12.6
-7.98
-3.83
0.21
4.19
7.86
10.84
12.94
14.21
14.94
15.43
15.87
16.25
16.47
16.42
16.08
15.56
15
14.51
14.17
13.92
13.63
13.08
12.01
10.27
7.84
4.92
1.82
-1.09
-3.59
-5.65
-7.45
-9.33
-11.7
-14.81
-18.72
-23.13
-27.43
-30.88
-32.74
-32.56
-30.24
-26.09
-20.66
-14.66
-8.75
-3.42
1.06
4.71
7.68
10.23
12.47
14.37
15.79
16.59
16.83
16.68
16.44
16.28
16.21
16.04
15.62
14.95
14.2
13.6
13.26
13.03
12.51
11.27
9.08
6.05
2.58
-0.74
-3.43
-5.25
-6.31
-6.91
-7.54
-8.62
-10.52
-13.44
-17.36
-21.94
-26.56
-30.28
-32.13
-31.33
-27.59
-21.3
-13.43
-5.25
2.09
7.86
11.94
14.69
16.69
18.4
20.02
21.46
22.52
23.06
23.16
23.03
22.91
22.95
23.09
23.12
22.75
21.82
20.33
18.51
16.66
15.01
13.61
12.26
10.64
8.47
5.7
2.55
-0.58
-3.35
-5.58
-7.43
-9.25
-11.41
-14.18
-17.65
-21.73
-26.15
-30.49
-34.14
-36.39
-36.57
-34.28
-29.62
-23.25
-16.18
-9.47
-3.87
0.28
3.09
4.85
5.9
6.49
6.83
7.09
7.4
7.82
8.29
8.7
8.95
9
8.94
8.9
8.93
9
8.99
8.77
8.25
7.36
6.02
4.18
1.8
-0.98
-3.89
-6.58
-8.77
-10.4
-11.71
-13.16
-15.24
-18.25
-22.13
-26.37
-30.19
-32.7
-33.17
-31.28
-27.14
-21.32
-14.62
-7.9
-1.85
3.16
7
9.8
11.73
12.97
13.62
13.75
13.48
12.95
12.37
11.92
11.67
11.62
11.68
11.76
11.8
11.74
11.54
11.09
10.25
8.89
6.91
4.38
1.52
-1.35
-3.91
-5.99
-7.65
-9.21
-11.17
-14
-17.88
-22.52
-27.14
-30.68
-32.11
-30.83
-26.84
-20.79
-13.77
-6.87
-0.95
3.64
7.01
9.57
11.74
13.82
15.85
17.71
19.2
20.23
20.8
21.02
20.98
20.74
20.33
19.76
19.11
18.44
17.82
17.22
16.45
15.27
13.46
10.93
7.76
4.23
0.65
-2.71
-5.7
-8.4
-11.1
-14.17
-17.96
-22.52
-27.53
-32.27
-35.74
-36.99
-35.44
-31.11
-24.62
-17.02
-9.45
-2.81
2.42
6.27
9.05
11.17
12.93
14.41
15.51
16.11
16.15
15.78
15.23
14.75
14.45
14.28
14.09
13.71
13.09
12.26
11.26
10.09
8.62
6.7
4.29
1.56
-1.19
-3.63
-5.61
-7.28
-9.09
-11.53
-14.97
-19.41
-24.42
-29.22
-32.88
-34.63
-33.96
-30.87
-25.8
-19.53
-12.91
-6.69
-1.3
3.13
6.77
9.82
12.44
14.66
16.4
17.56
18.17
18.31
18.15
17.83
17.44
16.95
16.35
15.64
14.85
14.05
13.27
12.5
11.65
10.58
9.18
7.44
5.4
3.13
0.76
-1.6
-3.87
-6.03
-8.1
-10.22
-12.59
-15.4
-18.78
-22.61
-26.5
-29.79
-31.7
-31.56
-29.09
-24.53
-18.61
-12.32
-6.51
-1.64
2.32
5.69
8.87
12.02
14.98
17.47
19.2
20.08
20.27
20.03
19.69
19.49
19.6
20.08
20.83
21.64
22.22
22.31
21.76
20.58
18.95
17.08
15.14
13.15
11.02
8.66
6.05
3.25
0.46
-2.17
-4.49
-6.51
-8.32
-10.11
-12.09
-14.5
-17.51
-21.19
-25.36
-29.56
-33.07
-35.06
-34.87
-32.26
-27.49
-21.33
-14.74
-8.57
-3.31
1.01
4.69
8.12
11.5
14.72
17.5
19.52
20.72
21.32
21.8
22.62
24.04
25.95
27.99
29.76
30.95
31.5
31.5
31.08
30.31
29.19
27.69
25.81
23.65
21.34
19.06
16.92
15
13.37
12.08
11.17
10.6
10.24
9.85
9.13
7.83
5.81
3.11
0.02
-2.97
-5.17
-5.86
-4.46
-0.72
5.1
12.21
19.52
26
30.98
34.37
36.59
38.31
40.08
42.13
44.29
46.22
47.54
48.06
47.84
47.11
46.14
45.11
44.03
42.78
41.2
39.18
36.75
34.03
31.15
28.21
25.21
22.22
19.34
16.89
15.21
14.62
15.18
16.66
18.61
20.46
21.71
21.89
20.56
17.29
11.71
3.69
-6.5
-18.1
-29.85
-40.29
-47.98
-51.9
-51.68
-47.78
-41.27
-33.57
-26.04
-19.59
-14.57
-10.86
-8.17
-6.34
-5.44
-5.68
-7.24
-10.1
-14.09
-19.02
-24.83
-31.65
-39.67
-48.98
-59.45
-70.71
-82.34
-94.01
-105.61
-117.19
-128.9
-140.67
-152.09
-162.32
-170.17
-174.34
-173.76
-167.88
-156.9
-141.8
-124.08
-105.48
-87.62
-71.7
-58.45
-48.05
-40.17
-34.06
-28.69
-22.98
-16.15
-7.96
1.24
10.65
19.4
26.93
33.08
38.05
42.08
45.22
47.31
48.12
47.61
46.06
44.04
42.16
40.77
39.89
39.21
38.36
37.07
35.36
33.47
31.7
30.28
29.18
28.15
26.75
24.58
21.41
17.38
12.91
8.62
5.03
2.41
0.68
-0.57
-1.78
-3.32
-5.44
-8.25
-11.81
-15.96
-20.21
-23.67
-25.25
-24.04
-19.77
-13.04
-5.13
2.5
8.74
13.27
16.44
18.98
21.53
24.31
27.06
29.33
30.71
31.11
30.75
30.02
29.25
28.56
27.81
26.77
25.3
23.49
21.58
19.88
18.5
17.31
15.97
14.11
11.5
8.19
4.45
0.74
-2.59
-5.34
-7.61
-9.67
-11.9
-14.56
-17.78
-21.51
-25.58
-29.74
-33.68
-36.89
-38.74
-38.54
-35.78
-30.37
-22.81
-14.14
-5.56
1.92
7.78
12.07
15.28
18.01
20.68
23.4
25.95
27.96
29.17
29.55
29.32
28.9
28.72
28.96
29.55
30.17
30.43
30.05
28.98
27.35
25.37
23.17
20.77
18.06
14.94
11.42
7.64
3.94
0.64
-2.04
-4.13
-5.88
-7.7
-10.01
-13.08
-16.97
-21.56
-26.59
-31.64
-36.14
-39.36
-40.53
-39.07
-34.85
-28.3
-20.33
-12.03
-4.34
2.28
7.76
12.27
15.95
18.86
20.9
22.01
22.26
21.89
21.27
20.78
20.7
21.07
21.76
22.43
22.7
22.32
21.23
19.61
17.72
15.79
13.84
11.73
9.19
6.12
2.59
-1.08
-4.52
-7.43
-9.73
-11.63
-13.49
-15.76
-18.8
-22.8
-27.63
-32.79
-37.45
-40.59
-41.27
-38.93
-33.64
-26.17
-17.67
-9.34
-2.05
3.91
8.63
12.43
15.57
18.03
19.64
20.26
19.92
18.99
18.07
17.72
18.25
19.61
21.3
22.7
23.27
22.79
21.43
19.59
17.68
15.86
14.02
11.81
8.98
5.51
1.66
-2.15
-5.53
-8.36
-10.77
-13.07
-15.6
-18.59
-22.16
-26.38
-31.15
-36.22
-40.97
-44.49
-45.77
-44.06
-39.19
-31.77
-22.97
-14.15
-6.37
-0.14
4.64
8.42
11.68
14.74
17.66
20.3
22.48
24.07
25.11
25.73
26.13
26.45
26.77
27.03
27.15
27.01
26.59
25.87
24.9
23.7
22.26
20.52
18.34
15.59
12.21
8.24
3.91
-0.45
-4.47
-7.87
-10.59
-12.82
-14.91
-17.3
-20.4
-24.47
-29.52
-35.31
-41.2
-46.26
-49.42
-49.76
-46.78
-40.64
-32.16
-22.52
-12.99
-4.53
2.43
7.91
12.31
16.07
19.53
22.78
25.71
28.16
29.99
31.21
31.97
32.48
32.9
33.32
33.72
33.97
34.02
33.79
33.26
32.37
31.02
29.09
26.58
23.63
20.51
17.59
15.05
12.9
10.91
8.76
6.19
3.14
-0.26
-3.82
-7.33
-10.71
-13.96
-17.15
-20.47
-24.17
-28.47
-33.53
-39.13
-44.59
-48.88
-50.81
-49.52
-44.81
-37.26
-28.09
-18.7
-10.19
-3.14
2.49
7.1
11.12
14.82
18.22
21.15
23.43
24.94
25.67
25.77
25.46
25.04
24.79
24.86
25.24
25.72
25.95
25.63
24.64
23.04
21.07
18.9
16.63
14.19
11.5
8.54
5.42
2.3
-0.69
-3.51
-6.24
-8.98
-11.8
-14.67
-17.57
-20.59
-23.93
-27.85
-32.41
-37.28
-41.63
-44.31
-44.17
-40.57
-33.59
-24.15
-13.64
-3.53
5.04
11.56
16.05
18.91
20.62
21.57
22
22.12
22.13
22.3
22.9
24.07
25.7
27.45
28.88
29.6
29.46
28.59
27.27
25.76
24.18
22.52
20.65
18.49
16.02
13.32
10.45
7.47
4.41
1.32
-1.71
-4.53
-7.03
-9.22
-11.26
-13.43
-16.1
-19.58
-24.02
-29.27
-34.85
-39.87
-43.2
-43.86
-41.28
-35.62
-27.72
-18.92
-10.48
-3.29
2.41
6.93
10.76
14.34
17.77
20.89
23.39
25.04
25.81
25.87
25.5
24.98
24.48
24.03
23.59
23.09
22.5
21.85
21.15
20.4
19.47
18.25
16.62
14.53
12.02
9.19
6.21
3.23
0.41
-2.11
-4.26
-6.15
-8.05
-10.35
-13.44
-17.53
-22.55
-28.1
-33.58
-38.22
-41.26
-42.09
-40.31
-35.92
-29.41
-21.67
-13.8
-6.81
-1.22
2.98
6.27
9.19
12.05
14.83
17.23
18.95
19.91
20.32
20.56
20.96
21.61
22.35
22.86
22.89
22.39
21.51
20.47
19.44
18.35
16.98
15.04
12.4
9.14
5.56
2.07
-0.98
-3.5
-5.66
-7.77
-10.25
-13.4
-17.37
-22.06
-27.18
-32.26
-36.67
-39.69
-40.62
-38.97
-34.67
-28.16
-20.35
-12.35
-5.15
0.72
5.3
9
12.34
15.6
18.68
21.26
22.99
23.76
23.77
23.42
23.09
22.96
22.96
22.93
22.68
22.18
21.51
20.76
19.94
18.96
17.68
15.99
13.92
11.55
8.92
6.08
3
-0.25
-3.5
-6.53
-9.19
-11.49
-13.7
-16.24
-19.51
-23.76
-28.87
-34.37
-39.4
-42.93
-43.99
-41.97
-36.89
-29.45
-20.86
-12.41
-5.12
0.6
4.9
8.28
11.28
14.26
17.27
20.22
22.93
25.23
27.02
28.22
28.77
28.66
27.94
26.77
25.42
24.14
23.07
22.21
21.38
20.34
18.93
17.09
14.96
12.72
10.5
8.31
6.04
3.5
0.59
-2.62
-5.88
-8.85
-11.27
-13.11
-14.63
-16.27
-18.6
-22
-26.58
-31.99
-37.5
-42.1
-44.72
-44.56
-41.31
-35.29
-27.42
-18.95
-11.11
-4.72
0.02
3.47
6.3
9.14
12.29
15.69
18.94
21.63
23.43
24.31
24.38
23.93
23.29
22.7
22.31
22.15
22.11
21.95
21.45
20.39
18.75
16.63
14.23
11.76
9.37
7.15
5.09
3.12
1.1
-1.15
-3.76
-6.76
-9.98
-13.13
-15.93
-18.22
-20.2
-22.25
-24.86
-28.33
-32.58
-37.07
-40.92
-43.09
-42.76
-39.5
-33.54
-25.69
-17.1
-9
-2.26
2.78
6.32
8.95
11.28
13.73
16.35
18.93
21.13
22.66
23.41
23.47
23.04
22.4
21.78
21.33
21.11
21.09
21.11
20.97
20.43
19.33
17.61
15.34
12.74
10.06
7.55
5.32
3.37
1.56
-0.35
-2.58
-5.25
-8.25
-11.36
-14.24
-16.71
-18.86
-20.99
-23.57
-26.95
-31.15
-35.75
-39.95
-42.68
-43.03
-40.46
-35.08
-27.61
-19.18
-11.02
-4.04
1.36
5.32
8.3
10.82
13.21
15.54
17.7
19.47
20.73
21.42
21.61
21.45
21.16
20.91
20.83
20.95
21.19
21.43
21.47
21.12
20.19
18.57
16.27
13.5
10.63
8.04
5.98
4.42
3.08
1.58
-0.38
-2.83
-5.57
-8.31
-10.86
-13.26
-15.69
-18.38
-21.47
-24.98
-28.75
-32.53
-35.91
-38.34
-39.17
-37.9
-34.29
-28.57
-21.46
-13.9
-6.82
-0.8
3.94
7.54
10.23
12.29
13.84
14.94
15.6
15.85
15.79
15.64
15.69
16.17
17.17
18.51
19.79
20.51
20.35
19.23
17.44
15.39
13.48
11.85
10.36
8.75
6.76
4.32
1.56
-1.29
-4.01
-6.5
-8.81
-11.09
-13.47
-16.05
-18.86
-21.95
-25.32
-28.91
-32.49
-35.54
-37.35
-37.14
-34.44
-29.27
-22.23
-14.39
-6.87
-0.52
4.31
7.78
10.31
12.33
14.06
15.53
16.63
17.3
17.64
17.87
18.25
18.89
19.72
20.5
20.97
20.93
20.3
19.17
17.68
15.98
14.19
12.38
10.54
8.64
6.62
4.42
2.03
-0.55
-3.22
-5.86
-8.34
-10.61
-12.7
-14.77
-17.08
-19.89
-23.43
-27.78
-32.71
-37.68
-41.85
-44.3
-44.24
-41.32
-35.79
-28.46
-20.44
-12.85
-6.39
-1.26
2.82
6.27
9.41
12.32
14.84
16.86
18.35
19.47
20.41
21.28
22.04
22.52
22.6
22.24
21.56
20.71
19.79
18.82
17.76
16.55
15.15
13.53
11.68
9.59
7.25
4.68
1.9
-1
-3.87
-6.54
-8.88
-10.83
-12.48
-14.08
-16
-18.62
-22.2
-26.75
-31.91
-36.97
-40.96
-42.85
-41.89
-37.86
-31.25
-23.1
-14.74
-7.27
-1.3
3.18
6.61
9.64
12.69
15.88
18.98
21.64
23.52
24.49
24.64
24.19
23.42
22.54
21.67
20.95
20.44
20.22
20.25
20.38
20.33
19.78
18.45
16.3
13.5
10.41
7.42
4.82
2.66
0.72
-1.34
-3.84
-6.87
-10.25
-13.56
-16.42
-18.66
-20.46
-22.32
-24.78
-28.2
-32.52
-37.22
-41.45
-44.24
-44.77
-42.59
-37.78
-30.9
-22.88
-14.76
-7.4
-1.32
3.44
7.15
10.26
13.08
15.74
18.14
20.09
21.44
22.19
22.48
22.54
22.61
22.81
23.17
23.56
23.75
23.52
22.73
21.42
19.77
18.03
16.37
14.8
13.18
11.3
9.06
6.49
3.72
0.91
-1.86
-4.57
-7.26
-9.94
-12.6
-15.24
-17.96
-20.94
-24.37
-28.32
-32.64
-36.83
-40.07
-41.47
-40.28
-36.24
-29.76
-21.84
-13.73
-6.49
-0.72
3.6
6.9
9.68
12.27
14.63
16.53
17.74
18.18
18.06
17.72
17.51
17.64
18.09
18.74
19.4
19.97
20.38
20.59
20.5
19.93
18.74
16.89
14.56
12.12
9.91
8.1
6.56
4.96
2.87
0.07
-3.39
-7.18
-10.87
-14.11
-16.79
-19.11
-21.53
-24.57
-28.57
-33.57
-39.11
-44.32
-48.15
-49.58
-48.08
-43.66
-36.99
-29.07
-20.97
-13.53
-7.19
-1.98
2.31
5.99
9.34
12.54
15.59
18.43
20.89
22.82
24.2
25.12
25.77
26.38
27.07
27.9
28.84
29.84
30.87
31.91
32.84
33.43
33.38
32.43
30.54
27.92
24.95
22.03
19.38
16.94
14.47
11.62
8.16
4.06
-0.48
-5.08
-9.39
-13.16
-16.39
-19.29
-22.24
-25.63
-29.67
-34.26
-38.94
-42.97
-45.44
-45.56
-42.94
-37.7
-30.5
-22.45
-14.71
-8.21
-3.32
0.19
2.97
5.69
8.77
12.18
15.52
18.28
20.17
21.15
21.48
21.51
21.5
21.57
21.7
21.79
21.8
21.69
21.43
20.91
20.02
18.63
16.76
14.57
12.3
10.22
8.42
6.81
5.2
3.37
1.28
-0.98
-3.18
-5.15
-6.85
-8.48
-10.39
-12.98
-16.47
-20.8
-25.48
-29.66
-32.35
-32.67
-30.22
-25.21
-18.35
-10.71
-3.31
3.16
8.42
12.53
15.73
18.3
20.36
21.93
22.98
23.54
23.77
23.98
24.49
25.51
27
28.69
30.17
31.11
31.36
31.02
30.3
29.39
28.39
27.28
25.95
24.33
22.3
19.71
16.38
12.1
6.85
0.81
-5.58
-11.83
-17.57
-22.71
-27.49
-32.31
-37.52
-43.15
-48.82
-53.79
-57.15
-58.08
-56.21
-51.68
-45.21
-37.9
-30.94
-25.3
-21.54
-19.7
-19.5
-20.45
-22.04
-23.89
-25.74
-27.42
-28.82
-29.92
-30.74
-31.36
-31.82
-32.12
-32.14
-31.73
-30.76
-29.22
-27.04
-23.98
-19.58
-13.33
-4.84
5.68
17.44
29.31
40.21
49.58
57.39
64.01
69.74
74.57
78.14
79.92
79.52
76.77
71.77
64.74
56.03
46.21
36.06
26.61
18.91
13.81
11.7
12.4
15.26
19.29
23.52
27.18
29.91
31.75
33.03
34.13
35.31
36.57
37.68
38.4
38.61
38.37
37.78
36.78
35
31.8
26.62
19.31
10.38
0.89
-7.97
-15.37
-21.14
-25.77
-30.06
-34.67
-39.83
-45.23
-50.29
-54.52
-57.85
-60.66
-63.61
-67.33
-72.15
-77.98
-84.38
-90.65
-96
-99.7
-101.18
-100.15
-96.77
-91.63
-85.71
-80.08
-75.58
-72.54
-70.78
-69.68
-68.44
-66.28
-62.59
-56.98
-49.38
-40.07
-29.68
-19.13
-9.39
-1.29
4.7
8.53
10.39
10.61
9.56
7.6
5.2
2.83
0.94
-0.19
-0.67
-0.87
-1.28
-2.14
-3.38
-4.55
-5.15
-4.82
-3.6
-1.85
-0.06
1.42
2.61
3.91
5.98
9.43
14.61
21.4
29.19
37.15
44.46
50.54
55.18
58.53
60.95
62.83
64.44
65.78
66.69
66.93
66.36
65.09
63.5
62.06
61.07
60.53
60.01
58.95
56.84
53.48
49.05
43.96
38.65
33.38
28.12
22.65
16.75
10.32
3.54
-3.17
-9.3
-14.36
-18.19
-20.95
-23.08
-25.18
-27.77
-31.12
-35.18
-39.56
-43.58
-46.42
-47.26
-45.6
-41.38
-35.08
-27.54
-19.7
-12.32
-5.82
-0.29
4.42
8.46
11.91
14.78
17.01
18.55
19.41
19.63
19.35
18.72
17.93
17.1
16.34
15.66
15.05
14.45
13.81
13.06
12.12
10.85
9.1
6.8
3.95
0.7
-2.71
-6.03
-9.03
-11.59
-13.74
-15.72
-17.96
-20.95
-25.01
-30.07
-35.54
-40.36
-43.29
-43.34
-40.08
-33.85
-25.65
-16.79
-8.5
-1.57
3.8
7.9
11.27
14.35
17.3
19.99
22.14
23.54
24.24
24.52
24.71
25.04
25.51
25.92
25.98
25.53
24.59
23.34
22
20.71
19.49
18.2
16.64
14.58
11.92
8.66
4.98
1.16
-2.46
-5.65
-8.34
-10.64
-12.78
-15.02
-17.6
-20.69
-24.43
-28.87
-33.84
-38.86
-43.12
-45.6
-45.43
-42.24
-36.29
-28.5
-20.05
-12.01
-5.03
0.75
5.59
9.86
13.83
17.59
21.02
23.92
26.14
27.6
28.3
28.36
27.91
27.16
26.33
25.65
25.26
25.15
25.14
24.96
24.38
23.29
21.76
19.97
18.08
16.12
13.96
11.4
8.28
4.6
0.57
-3.5
-7.21
-10.33
-12.84
-14.97
-17.15
-19.84
-23.4
-27.9
-33.04
-38.18
-42.46
-44.91
-44.71
-41.48
-35.38
-27.19
-18.13
-9.45
-2.08
3.66
8.03
11.58
14.85
18.04
20.97
23.36
24.95
25.8
26.11
26.22
26.3
26.38
26.37
26.23
25.99
25.79
25.69
25.68
25.55
25.04
23.88
21.98
19.39
16.37
13.24
10.3
7.66
5.27
2.95
0.54
-2.04
-4.72
-7.34
-9.78
-12
-14.11
-16.32
-18.84
-21.93
-25.75
-30.29
-35.24
-39.91
-43.32
-44.41
-42.46
-37.38
-29.84
-21.11
-12.54
-5.17
0.6
5
8.56
11.8
14.91
17.71
19.89
21.21
21.71
21.7
21.58
21.55
21.59
21.5
21.08
20.32
19.38
18.45
17.64
16.87
15.93
14.66
13
11.06
9.01
6.93
4.82
2.59
0.24
-2.09
-4.15
-5.61
-6.28
-6.17
-5.53
-4.8
-4.52
-5.19
-7.16
-10.55
-15.15
-20.4
-25.39
-29.03
-30.32
-28.68
-24.21
-17.66
-10.26
-3.26
2.47
6.62
9.38
11.2
12.44
13.15
13.19
12.41
10.86
8.95
7.21
6.19
6.09
6.8
7.92
9.01
9.75
10.01
9.84
9.35
8.61
7.64
6.41
4.87
3.04
0.97
-1.2
-3.3
-5.17
-6.74
-8.07
-9.33
-10.74
-12.46
-14.59
-17.15
-20.09
-23.3
-26.52
-29.28
-30.92
-30.75
-28.29
-23.56
-17.13
-9.92
-2.95
2.96
7.43
10.45
12.28
13.29
13.81
14.12
14.39
14.68
14.97
15.24
15.44
15.67
16.01
16.52
17.15
17.77
18.22
18.41
18.37
18.18
17.88
17.37
16.46
14.98
12.91
10.36
7.58
4.72
1.74
-1.59
-5.6
-10.56
-16.53
-23.22
-30.03
-36.1
-40.46
-42.25
-41.01
-36.88
-30.62
-23.47
-16.71
-11.26
-7.41
-4.87
-2.96
-1.01
1.39
4.28
7.46
10.57
13.3
15.49
17.11
18.24
18.99
19.46
19.71
19.7
19.27
18.27
16.52
13.95
10.63
6.79
2.79
-1.03
-4.42
-7.31
-9.84
-12.33
-15.13
-18.52
-22.6
-27.2
-31.9
-36.04
-38.86
-39.64
-37.93
-33.67
-27.31
-19.68
-11.8
-4.56
1.51
6.31
10.18
13.54
16.73
19.81
22.56
24.66
25.83
26.05
25.47
24.34
22.93
21.39
19.78
18.16
16.53
14.9
13.19
11.22
8.81
5.82
2.31
-1.5
-5.28
-8.77
-11.88
-14.77
-17.77
-21.24
-25.35
-29.99
-34.7
-38.77
-41.38
-41.79
-39.6
-34.88
-28.19
-20.42
-12.61
-5.56
0.3
4.95
8.69
11.85
14.65
17.09
19.01
20.25
20.75
20.61
20.04
19.27
18.43
17.6
16.8
16.06
15.41
14.91
14.47
13.88
12.81
10.94
8.14
4.57
0.55
-3.44
-7.06
-10.18
-12.94
-15.65
-18.61
-22.02
-25.88
-29.92
-33.63
-36.32
-37.28
-35.95
-32.14
-26.18
-18.78
-10.87
-3.24
3.65
9.74
15.21
20.23
24.8
28.64
31.41
32.88
33.1
32.37
31.14
29.8
28.53
27.31
25.99
24.46
22.77
21.09
19.6
18.36
17.21
15.83
13.79
10.77
6.68
1.8
-3.33
-8.04
-11.78
-14.33
-15.88
-16.9
-18.02
-19.69
-22.18
-25.44
-29.29
-33.37
-37.26
-40.35
-41.95
-41.37
-38.2
-32.51
-24.95
-16.62
-8.67
-1.99
3.1
6.82
9.74
12.42
15.19
18.04
20.74
23.01
24.72
25.89
26.65
27.08
27.15
26.79
25.97
24.79
23.53
22.52
21.95
21.74
21.55
20.87
19.31
16.8
13.62
10.26
7.16
4.52
2.19
-0.17
-2.87
-5.91
-8.98
-11.61
-13.5
-14.68
-15.6
-16.84
-18.92
-22.03
-26.01
-30.42
-34.65
-38.04
-39.88
-39.61
-36.97
-32.12
-25.74
-18.75
-12.05
-6.2
-1.26
3.04
7.09
11.09
14.96
18.45
21.25
23.28
24.6
25.47
26.15
26.79
27.39
27.85
28.07
28.04
27.81
27.49
27.15
26.71
25.97
24.64
22.48
19.45
15.72
11.65
7.63
4.01
0.88
-1.89
-4.61
-7.6
-11.05
-14.88
-18.79
-22.39
-25.41
-27.75
-29.54
-31.03
-32.53
-34.28
-36.43
-38.99
-41.67
-43.91
-44.9
-43.83
-40.28
-34.38
-26.93
-19.05
-11.82
-5.88
-1.29
2.39
5.7
9.08
12.54
15.83
18.56
20.47
21.57
22.16
22.65
23.37
24.41
25.6
26.62
27.19
27.22
26.82
26.13
25.24
24.09
22.48
20.28
17.49
14.28
10.92
7.67
4.67
1.93
-0.65
-3.18
-5.74
-8.37
-11.12
-14.13
-17.57
-21.6
-26.1
-30.59
-34.23
-36.04
-35.26
-31.73
-25.95
-18.9
-11.71
-5.22
0.19
4.61
8.29
11.47
14.24
16.59
18.51
20.06
21.33
22.37
23.19
23.68
23.78
23.46
22.76
21.83
20.83
19.9
19.06
18.19
17.03
15.25
12.66
9.27
5.38
1.48
-1.88
-4.33
-5.86
-6.78
-7.67
-9.14
-11.62
-15.2
-19.56
-24.02
-27.7
-29.75
-29.58
-27.04
-22.49
-16.69
-10.52
-4.77
0.14
4.14
7.48
10.46
13.28
15.92
18.18
19.84
20.8
21.22
21.38
21.57
21.94
22.37
22.62
22.41
21.69
20.53
19.22
17.96
16.77
15.43
13.56
10.87
7.3
3.09
-1.3
-5.36
-8.7
-11.19
-12.93
-14.27
-15.6
-17.27
-19.55
-22.52
-26.1
-30.04
-33.91
-37.09
-38.89
-38.67
-36.14
-31.42
-25.13
-18.19
-11.52
-5.71
-0.87
3.24
6.96
10.46
13.58
15.95
17.24
17.43
16.85
16.03
15.47
15.39
15.69
16.05
16.14
15.77
14.97
13.92
12.81
11.75
10.72
9.56
8.05
6.03
3.42
0.4
-2.75
-5.67
-8.1
-10.05
-11.72
-13.52
-15.85
-18.98
-22.93
-27.48
-32.12
-36.11
-38.62
-38.92
-36.65
-31.96
-25.51
-18.27
-11.17
-4.82
0.61
5.26
9.38
13.02
16.05
18.21
19.33
19.5
19.1
18.61
18.44
18.81
19.62
20.59
21.37
21.67
21.33
20.35
18.85
16.97
14.89
12.77
10.68
8.68
6.71
4.69
2.48
-0.01
-2.8
-5.85
-9.04
-12.26
-15.4
-18.41
-21.34
-24.28
-27.37
-30.69
-34.19
-37.55
-40.19
-41.36
-40.39
-36.93
-31.23
-24.03
-16.41
-9.33
-3.36
1.45
5.49
9.2
12.84
16.38
19.51
21.92
23.43
24.16
24.38
24.46
24.65
25.04
25.57
26.05
26.29
26.14
25.55
24.53
23.15
21.51
19.67
17.62
15.36
12.91
10.32
7.67
5.03
2.4
-0.29
-3.08
-6.04
-9.09
-12.08
-14.86
-17.39
-19.81
-22.47
-25.77
-29.94
-34.81
-39.69
-43.5
-45.12
-43.76
-39.33
-32.43
-24.26
-16.08
-8.92
-3.23
1.08
4.47
7.5
10.56
13.79
17.07
20.15
22.75
24.67
25.87
26.44
26.55
26.43
26.26
26.21
26.33
26.61
26.94
27.15
27.02
26.38
25.14
23.33
21.11
18.68
16.24
13.91
11.71
9.54
7.3
4.98
2.62
0.37
-1.65
-3.39
-4.96
-6.46
-8.09
-9.95
-12.15
-14.74
-17.68
-20.72
-23.31
-24.6
-23.7
-20.04
-13.62
-5.12
4.31
13.48
21.6
28.42
34.16
39.2
43.74
47.68
50.81
53.02
54.52
55.83
57.41
59.33
60.99
61.25
58.86
53.07
43.95
32.5
20.27
8.75
-1.06
-8.75
-14.4
-18.25
-20.47
-21.22
-20.72
-19.43
-18.04
-17.23
-17.44
-18.78
-21.07
-24.14
-28.06
-33.23
-40.13
-48.94
-59.15
-69.52
-78.18
-83.15
-82.93
-76.98
-66.05
-52.03
-37.57
-25.29
-17.03
-13.31
-13.28
-15.29
-17.58
-19.02
-19.36
-19.03
-18.59
-18.31
-17.97
-17.09
-15.35
-12.86
-10.18
-8.04
-6.99
-7.11
-8.06
-9.29
-10.34
-11.08
-11.73
-12.75
-14.58
-17.4
-21.11
-25.31
-29.52
-33.38
-36.71
-39.59
-42.27
-45.05
-48.24
-52.08
-56.7
-62.05
-67.82
-73.38
-77.89
-80.51
-80.7
-78.41
-74.14
-68.77
-63.22
-58.17
-53.86
-50.1
-46.43
-42.41
-37.78
-32.58
-27.05
-21.51
-16.2
-11.19
-6.4
-1.64
3.28
8.52
14.2
20.38
27.04
33.92
40.53
46.24
50.37
52.49
52.45
50.49
47.05
42.71
38
33.38
29.13
25.4
22.18
19.32
16.66
14.08
11.65
9.61
8.34
8.24
9.56
12.33
16.31
21.02
25.77
29.82
32.43
33.08
31.53
27.91
22.75
16.83
11.12
6.5
3.63
2.84
4.06
6.93
10.93
15.53
20.28
24.92
29.24
33.18
36.65
39.61
41.98
43.69
44.69
44.99
44.64
43.72
42.38
40.77
39.02
37.24
35.41
33.51
31.47
29.28
26.99
24.69
22.44
20.16
17.59
14.33
10
4.5
-1.88
-8.43
-14.27
-18.56
-20.81
-20.91
-19.14
-16.03
-12.21
-8.25
-4.56
-1.42
1.03
2.68
3.44
3.23
1.99
-0.18
-3
-5.95
-8.47
-10.08
-10.56
-10.09
-9.11
-8.23
-8
-8.79
-10.63
-13.3
-16.31
-19.04
-20.83
-21
-19.07
-14.79
-8.37
-0.46
7.86
15.38
21.03
24.18
24.79
23.42
21
18.63
17.29
17.61
19.86
23.94
29.42
35.78
42.43
48.92
55.04
60.77
66.28
71.68
76.89
81.56
85.17
87.37
88.23
88.29
88.43
89.44
91.73
95.09
98.79
101.78
102.86
100.86
94.8
84.12
69.05
50.72
31.15
12.62
-2.97
-14.73
-23.04
-29.13
-34.49
-40.26
-46.85
-53.93
-60.74
-66.54
-70.91
-73.86
-75.7
-76.89
-77.92
-79.27
-81.35
-84.5
-88.81
-94.09
-99.8
-105.22
-109.79
-113.23
-115.73
-117.67
-119.39
-120.93
-122.02
-122.34
-121.7
-120.11
-117.71
-114.42
-109.79
-103.1
-93.62
-81.02
-65.72
-48.84
-31.83
-16.08
-2.5
8.54
17.01
23.03
26.73
28.39
28.59
28.22
28.32
29.7
32.73
37.38
43.5
51.08
60.32
71.33
83.85
97.05
109.63
120.16
127.42
130.66
129.6
124.42
115.71
104.37
91.58
78.54
66.26
55.47
46.6
39.89
35.41
33.01
32.19
32.11
31.76
30.32
27.45
23.3
18.33
12.97
7.42
1.69
-4.15
-9.89
-15.16
-19.7
-23.55
-27.16
-31.19
-36.1
-41.86
-47.82
-52.9
-56.02
-56.51
-54.33
-50.07
-44.64
-38.93
-33.54
-28.61
-23.94
-19.14
-13.94
-8.35
-2.74
2.25
5.89
7.68
7.53
5.81
3.22
0.47
-1.97
-4
-5.84
-7.73
-9.83
-12.12
-14.55
-17.16
-20.16
-23.8
-28.24
-33.42
-39
-44.47
-49.22
-52.71
-54.62
-54.98
-54.16
-52.82
-51.63
-51.03
-50.89
-50.54
-48.95
-45.19
-38.82
-30.12
-20.02
-9.81
-0.63
6.77
12.28
16.29
19.51
22.56
25.84
29.32
32.72
35.78
38.36
40.58
42.61
44.5
46.02
46.8
46.51
45.04
42.66
39.75
36.65
33.42
29.92
25.97
21.56
16.87
12.17
7.66
3.37
-0.73
-4.6
-8.01
-10.73
-12.7
-14.22
-15.99
-18.72
-22.86
-28.28
-34.31
-39.96
-44.28
-46.64
-46.86
-45.15
-41.95
-37.83
-33.32
-28.86
-24.71
-20.9
-17.19
-13.23
-8.72
-3.58
1.92
7.27
11.96
15.68
18.5
20.77
22.95
25.37
28.11
31.04
33.94
36.69
39.2
41.42
43.17
44.2
44.29
43.37
41.59
39.2
36.41
33.31
29.85
26.03
22.02
18.18
14.86
12.24
10.17
8.16
5.66
2.21
-2.33
-7.7
-13.37
-18.56
-22.44
-24.24
-23.52
-20.24
-14.93
-8.52
-2.16
3.19
7.02
9.37
10.7
11.64
12.67
13.94
15.31
16.47
17.11
17.11
16.56
15.78
15.16
15.02
15.49
16.45
17.55
18.38
18.56
17.89
16.31
13.89
10.73
6.91
2.57
-2.05
-6.58
-10.64
-13.93
-16.41
-18.38
-20.36
-22.87
-26.28
-30.61
-35.53
-40.4
-44.42
-46.81
-47.01
-44.82
-40.42
-34.37
-27.4
-20.24
-13.44
-7.28
-1.77
3.26
7.99
12.54
16.91
20.95
24.48
27.31
29.32
30.5
30.94
30.79
30.2
29.26
28.01
26.49
24.74
22.79
20.69
18.43
15.98
13.29
10.39
7.41
4.56
2.04
-0.01
-1.6
-2.88
-4.1
-5.56
-7.57
-10.4
-14.18
-18.86
-24.02
-28.96
-32.81
-34.88
-34.92
-33.25
-30.56
-27.54
-24.57
-21.52
-17.95
-13.53
-8.28
-2.71
2.45
6.65
9.74
12.03
14.02
16.09
18.29
20.4
22.1
23.19
23.73
23.91
23.97
23.98
23.86
23.34
22.13
20.1
17.26
13.85
10.24
6.78
3.7
1.04
-1.25
-3.28
-5.14
-6.87
-8.57
-10.43
-12.65
-15.31
-18.19
-20.7
-22.1
-21.71
-19.22
-14.81
-9.09
-2.79
3.4
9.03
13.85
17.72
20.55
22.32
23.11
23.11
22.58
21.74
20.73
19.65
18.53
17.48
16.59
15.9
15.33
14.68
13.76
12.41
10.62
8.53
6.29
4.06
1.92
-0.15
-2.13
-3.99
-5.69
-7.15
-8.4
-9.52
-10.67
-12.03
-13.78
-16.06
-18.94
-22.42
-26.35
-30.49
-34.45
-37.75
-39.96
-40.7
-39.73
-36.99
-32.63
-26.97
-20.55
-13.99
-7.87
-2.52
2.03
5.95
9.5
12.75
15.59
17.76
19.06
19.53
19.44
19.17
19.01
19.04
19.16
19.18
19.01
18.64
18.14
17.55
16.81
15.81
14.42
12.58
10.33
7.74
4.94
2.05
-0.78
-3.47
-5.96
-8.23
-10.37
-12.57
-15.02
-17.92
-21.4
-25.46
-30
-34.72
-39.19
-42.83
-45.08
-45.54
-44.11
-41.02
-36.7
-31.67
-26.31
-20.83
-15.36
-10.08
-5.31
-1.48
1.06
2.24
2.4
2.18
2.23
2.95
4.36
6.09
7.61
8.41
8.25
7.23
5.8
4.62
4.44
5.82
8.93
13.36
18.24
22.51
25.34
26.51
26.43
25.99
26.12
27.36
29.74
32.74
35.58
37.44
37.7
36.04
32.49
27.46
21.7
16.27
12.23
10.38
10.95
13.55
17.31
21.24
24.56
27.02
28.79
30.34
32.07
34.1
36.24
38.07
39.16
39.27
38.37
36.61
34.23
31.44
28.41
25.32
22.44
20.12
18.74
18.45
19.06
20.04
20.65
20.36
19.12
17.53
16.59
17.24
19.88
24.04
28.46
31.6
32.14
29.53
24.04
16.59
8.3
0.09
-7.48
-14.21
-19.98
-24.63
-27.86
-29.47
-29.48
-28.34
-26.78
-25.68
-25.68
-26.95
-29.16
-31.62
-33.64
-34.79
-35.1
-35.01
-35.17
-36.2
-38.49
-42.15
-47
-52.57
-58.15
-62.72
-65.2
-64.63
-60.61
-53.48
-44.35
-34.75
-26.11
-19.35
-14.73
-12.07
-11.09
-11.62
-13.63
-16.97
-21.2
-25.46
-28.75
-30.26
-29.73
-27.53
-24.42
-21.23
-18.53
-16.49
-14.94
-13.53
-11.97
-10.13
-8.19
-6.64
-6.18
-7.41
-10.57
-15.26
-20.38
-24.47
-26.16
-24.61
-19.85
-12.65
-4.1
4.78
13.37
21.5
29.21
36.58
43.5
49.62
54.49
57.62
58.64
57.33
53.65
47.74
39.9
30.69
20.84
11.17
2.54
-4.34
-8.97
-11.14
-10.95
-8.73
-5.04
-0.56
3.98
7.95
10.99
13.05
14.4
15.42
16.41
17.44
18.35
18.91
19.04
18.92
18.95
19.49
20.69
22.23
23.48
23.7
22.37
19.39
15.09
10.06
4.86
-0.2
-5.15
-10.2
-15.61
-21.52
-27.86
-34.44
-40.91
-46.86
-51.78
-55.11
-56.25
-54.77
-50.62
-44.16
-36.2
-27.68
-19.42
-11.91
-5.28
0.54
5.58
9.74
12.79
14.55
14.94
14.18
12.69
11
9.59
8.77
8.65
9.04
9.61
9.93
9.6
8.36
6.18
3.21
-0.23
-3.69
-6.76
-9.06
-10.33
-10.5
-9.75
-8.53
-7.46
-7.18
-8.15
-10.47
-13.78
-17.33
-20.16
-21.32
-20.22
-16.72
-11.2
-4.48
2.48
8.78
13.83
17.42
19.7
21.02
21.73
22.06
22.08
21.75
21.04
19.91
18.31
16.17
13.39
9.88
5.73
1.32
-2.75
-5.8
-7.31
-7.19
-5.81
-3.92
-2.32
-1.58
-1.91
-3.14
-4.91
-6.8
-8.55
-10.03
-11.3
-12.46
-13.63
-14.89
-16.29
-17.77
-19.2
-20.33
-20.74
-19.98
-17.67
-13.64
-8.09
-1.57
5.18
11.39
16.48
20.12
22.24
22.95
22.47
21.12
19.27
17.38
15.81
14.72
14
13.3
12.2
10.48
8.27
6.04
4.39
3.76
4.15
5.06
5.64
4.98
2.45
-2.05
-8.04
-14.62
-20.76
-25.57
-28.61
-29.89
-29.82
-28.99
-27.99
-27.23
-26.81
-26.51
-25.84
-24.18
-21.02
-16.19
-9.95
-2.95
3.97
10.15
15.3
19.48
22.97
25.93
28.29
29.81
30.25
29.62
28.25
26.64
25.24
24.29
23.74
23.39
23.06
22.69
22.4
22.34
22.61
23.1
23.51
23.45
22.59
20.76
18.04
14.7
11.02
7.2
3.26
-0.91
-5.47
-10.54
-16.14
-22.11
-28.19
-33.96
-38.88
-42.39
-44.04
-43.71
-41.71
-38.74
-35.55
-32.7
-30.31
-28.11
-25.65
-22.54
-18.66
-14.17
-9.36
-4.57
-0.08
3.9
7.23
9.89
11.9
13.34
14.21
14.45
13.84
12.22
9.62
6.37
3.04
0.22
-1.73
-2.88
-3.61
-4.46
-5.79
-7.69
-9.93
-12.22
-14.35
-16.23
-17.97
-19.7
-21.54
-23.59
-25.91
-28.52
-31.3
-33.88
-35.69
-36.06
-34.47
-30.78
-25.36
-18.92
-12.29
-6.15
-0.87
3.45
6.87
9.51
11.46
12.83
13.76
14.48
15.23
16.19
17.38
18.68
19.85
20.66
20.98
20.81
20.23
19.37
18.34
17.26
16.24
15.35
14.62
13.96
13.26
12.33
11.05
9.36
7.29
4.96
2.5
0.01
-2.46
-4.92
-7.46
-10.18
-13.15
-16.3
-19.4
-22.02
-23.58
-23.58
-21.69
-17.97
-12.79
-6.78
-0.64
5.05
9.97
14.07
17.44
20.2
22.38
23.88
24.65
24.69
24.18
23.34
22.38
21.4
20.32
19.04
17.47
15.69
13.88
12.26
11.01
10.1
9.4
8.69
7.79
6.67
5.36
4
2.67
1.4
0.11
-1.37
-3.21
-5.55
-8.46
-11.87
-15.53
-19.07
-22.01
-23.81
-24.01
-22.34
-18.85
-13.87
-8.01
-1.97
3.61
8.29
11.94
14.68
16.76
18.41
19.74
20.71
21.2
21.15
20.64
19.85
19.08
18.59
18.5
18.77
19.18
19.48
19.43
18.9
17.84
16.3
14.37
12.14
9.69
7.03
4.12
0.87
-2.81
-6.99
-11.67
-16.7
-21.85
-26.78
-31.21
-34.98
-38.14
-40.93
-43.6
-46.26
-48.72
-50.49
-50.97
-49.67
-46.43
-41.4
-35.03
-27.84
-20.28
-12.73
-5.52
1.05
6.78
11.55
15.39
18.41
20.77
22.6
23.94
24.87
25.43
25.68
25.64
25.29
24.59
23.51
22.12
20.51
18.76
16.88
14.84
12.62
10.26
7.91
5.73
3.86
2.27
0.86
-0.56
-2.08
-3.72
-5.36
-6.86
-8.06
-8.91
-9.45
-9.89
-10.51
-11.62
-13.37
-15.66
-18.07
-19.91
-20.42
-19.01
-15.47
-10.13
-3.72
2.83
8.71
13.48
17.12
19.92
22.3
24.53
26.61
28.29
29.14
28.82
27.16
24.33
20.74
16.92
13.35
10.27
7.62
5.18
2.62
-0.24
-3.37
-6.54
-9.39
-11.61
-13.02
-13.61
-13.63
-13.44
-13.4
-13.76
-14.53
-15.46
-16.2
-16.56
-16.64
-16.86
-17.73
-19.6
-22.35
-25.4
-27.86
-28.78
-27.51
-23.82
-17.98
-10.66
-2.69
5.17
12.41
18.86
24.61
29.78
34.31
37.96
40.38
41.27
40.62
38.73
36.19
33.63
31.54
30.15
29.5
29.49
29.94
30.7
31.64
32.68
33.71
34.59
35.15
35.22
34.7
33.59
32.05
30.4
29.03
28.29
28.34
29.01
29.85
30.25
29.8
28.52
26.9
25.81
26.09
28.29
32.37
37.77
43.5
48.4
51.31
51.18
47.36
39.76
29.12
16.8
4.45
-6.64
-16.02
-24.15
-32.1
-40.91
-51.04
-62.2
-73.41
-83.38
-90.79
-94.64
-94.41
-90.17
-82.72
-73.4
-63.71
-54.94
-47.8
-42.47
-38.95
-37.4
-38.28
-42.18
-49.49
-59.98
-72.82
-86.8
-100.55
-112.84
-122.5
-128.47
-129.81
-125.99
-117.11
-104.02
-88.18
-71.19
-54.38
-38.57
-23.97
-10.42
2.34
14.49
26.11
37.13
47.43
56.79
64.9
71.45
76.09
78.69
79.29
78.17
75.75
72.46
68.55
64.09
58.98
53.09
46.45
39.28
32.01
25.14
19.03
13.81
9.31
5.23
1.21
-2.9
-7.08
-11.11
-14.66
-17.32
-18.61
-18.09
-15.37
-10.3
-3.1
5.63
14.97
24.04
32.2
39.31
45.53
51.08
56.02
60.04
62.7
63.57
62.57
59.9
56.02
51.42
46.48
41.47
36.58
31.99
27.8
23.99
20.29
16.35
11.79
6.4
0.32
-6.06
-12.15
-17.42
-21.6
-24.85
-27.69
-30.85
-35.01
-40.47
-47.04
-53.96
-60.11
-64.31
-65.66
-63.89
-59.4
-53.14
-46.22
-39.62
-33.91
-29.22
-25.4
-22.17
-19.37
-16.86
-14.64
-12.72
-11.17
-10.03
-9.31
-8.95
-8.75
-8.43
-7.74
-6.58
-5.09
-3.65
-2.75
-2.87
-4.34
-7.2
-11.14
-15.65
-20.13
-24.05
-27.15
-29.48
-31.37
-33.27
-35.64
-38.74
-42.53
-46.61
-50.2
-52.31
-52.05
-48.95
-43.19
-35.62
-27.41
-19.7
-13.16
-7.89
-3.52
0.42
4.21
7.76
10.75
12.8
13.78
13.89
13.61
13.39
13.56
14.09
14.72
15.11
14.97
14.15
12.65
10.51
7.81
4.7
1.48
-1.46
-3.77
-5.23
-5.84
-5.81
-5.43
-4.98
-4.68
-4.68
-5.05
-5.67
-6.19
-6.04
-4.58
-1.37
3.52
9.49
15.6
20.88
24.77
27.18
28.54
29.47
30.48
31.79
33.25
34.5
35.16
35.02
34.13
32.79
31.36
30.17
29.36
28.83
28.37
27.78
26.92
25.82
24.51
22.99
21.15
18.77
15.65
11.79
7.43
2.99
-1.02
-4.32
-6.92
-9.2
-11.75
-15.15
-19.73
-25.45
-31.79
-37.92
-42.83
-45.57
-45.52
-42.5
-36.86
-29.38
-21.07
-12.91
-5.63
0.46
5.42
9.58
13.27
16.65
19.64
21.98
23.48
24.08
24
23.59
23.2
23.02
23.01
23.04
22.98
22.78
22.53
22.32
22.09
21.68
20.79
19.2
16.8
13.76
10.41
7.15
4.3
2.02
0.2
-1.45
-3.3
-5.75
-9.08
-13.41
-18.62
-24.34
-29.97
-34.74
-37.85
-38.67
-36.92
-32.74
-26.67
-19.5
-12.03
-4.95
1.34
6.68
11.14
14.88
18.01
20.54
22.35
23.35
23.54
23.13
22.47
21.9
21.64
21.67
21.76
21.62
21.07
20.1
18.86
17.49
16.03
14.34
12.17
9.39
6.07
2.47
-1
-3.99
-6.39
-8.31
-10.08
-12.1
-14.64
-17.86
-21.8
-26.41
-31.54
-36.78
-41.54
-44.99
-46.31
-44.94
-40.9
-34.76
-27.57
-20.44
-14.19
-9.1
-4.94
-1.29
2.25
5.71
8.83
11.23
12.63
13.08
12.91
12.57
12.35
12.32
12.3
12.01
11.26
10.03
8.48
6.89
5.48
4.45
3.78
3.35
2.93
2.3
1.34
0.09
-1.24
-2.42
-3.3
-3.93
-4.6
-5.72
-7.68
-10.7
-14.73
-19.53
-24.65
-29.49
-33.35
-35.51
-35.41
-32.79
-27.81
-21.03
-13.26
-5.35
2.01
8.47
13.99
18.77
23.08
27.12
30.92
34.33
37.14
39.14
40.25
40.54
40.24
39.65
39.06
38.69
38.6
38.69
38.65
38.06
36.52
33.73
29.67
24.58
18.93
13.2
7.78
2.89
-1.48
-5.48
-9.36
-13.43
-17.93
-23.02
-28.6
-34.33
-39.51
-43.31
-44.94
-43.97
-40.51
-35.18
-28.96
-22.75
-17.2
-12.5
-8.49
-4.87
-1.46
1.65
4.2
5.88
6.63
6.62
6.24
5.87
5.67
5.62
5.56
5.44
5.39
5.61
6.19
6.99
7.59
7.48
6.36
4.22
1.42
-1.57
-4.33
-6.69
-8.7
-10.56
-12.6
-15.07
-18.23
-22.13
-26.58
-31.05
-34.71
-36.7
-36.35
-33.51
-28.53
-22.25
-15.64
-9.47
-4.15
0.24
3.89
7.04
9.82
12.28
14.36
16.04
17.28
18.09
18.55
18.71
18.61
18.3
17.81
17.22
16.62
16.06
15.51
14.86
13.93
12.55
10.62
8.22
5.48
2.59
-0.33
-3.22
-6.11
-9.04
-12.11
-15.43
-19.02
-22.81
-26.42
-29.24
-30.51
-29.61
-26.32
-20.99
-14.47
-7.72
-1.53
3.76
8.28
12.37
16.23
19.81
22.81
24.88
25.85
25.89
25.39
24.78
24.35
24.12
23.94
23.59
22.95
22.02
20.92
19.77
18.64
17.45
16.02
14.11
11.58
8.44
4.88
1.25
-2.12
-5.07
-7.62
-10.01
-12.57
-15.62
-19.38
-23.87
-28.9
-34.02
-38.53
-41.57
-42.37
-40.46
-35.89
-29.22
-21.35
-13.2
-5.42
1.72
8.23
14.19
19.6
24.3
28.04
30.66
32.18
32.91
33.32
33.91
35
36.55
38.21
39.44
39.76
38.99
37.33
35.25
33.19
31.3
29.42
27.12
23.98
19.92
15.18
10.28
5.75
1.91
-1.25
-3.99
-6.71
-9.8
-13.48
-17.78
-22.53
-27.33
-31.62
-34.73
-36.03
-35.1
-31.88
-26.73
-20.27
-13.26
-6.37
-0.02
5.58
10.38
14.43
17.73
20.26
22.03
23.11
23.71
24.14
24.75
25.77
27.22
28.86
30.33
31.32
31.67
31.58
31.47
31.72
32.46
33.43
34.04
33.69
32.08
29.31
25.87
22.26
18.75
15.2
11.2
6.28
0.18
-7.06
-15.14
-23.6
-31.9
-39.38
-45.32
-49.05
-50.17
-48.76
-45.43
-41.11
-36.71
-32.82
-29.61
-26.84
-24.16
-21.32
-18.29
-15.24
-12.37
-9.88
-7.78
-6.05
-4.63
-3.51
-2.76
-2.42
-2.42
-2.56
-2.53
-2.11
-1.27
-0.29
0.4
0.37
-0.56
-2.27
-4.45
-6.69
-8.73
-10.48
-12.03
-13.59
-15.42
-17.75
-20.76
-24.47
-28.61
-32.57
-35.49
-36.52
-35.08
-31.17
-25.28
-18.28
-11.03
-4.21
1.82
6.94
11.19
14.58
17.21
19.19
20.74
22.06
23.27
24.33
25.08
25.37
25.16
24.63
24.02
23.55
23.25
22.88
22.1
20.56
18.09
14.75
10.87
6.87
3.13
-0.14
-2.92
-5.37
-7.75
-10.38
-13.5
-17.26
-21.59
-26.11
-30.15
-32.87
-33.49
-31.56
-27.18
-21.05
-14.21
-7.74
-2.37
1.65
4.57
6.79
8.68
10.38
11.85
12.93
13.49
13.51
13.04
12.23
11.23
10.24
9.4
8.81
8.48
8.26
7.92
7.17
5.8
3.71
1.03
-2.01
-5.11
-8.01
-10.58
-12.84
-14.94
-17.14
-19.67
-22.74
-26.39
-30.36
-34.1
-36.79
-37.53
-35.73
-31.28
-24.73
-17.1
-9.53
-2.91
2.42
6.62
10.11
13.26
16.18
18.72
20.57
21.55
21.58
20.84
19.58
18.1
16.66
15.42
14.5
13.87
13.37
12.72
11.65
9.96
7.63
4.79
1.66
-1.64
-5.06
-8.69
-12.65
-17.05
-21.94
-27.21
-32.61
-37.66
-41.66
-43.89
-43.82
-41.26
-36.51
-30.26
-23.34
-16.49
-10.22
-4.7
0.09
4.29
7.97
11.11
13.59
15.3
16.17
16.32
15.96
15.39
14.91
14.7
14.82
15.14
15.41
15.3
14.47
12.72
10.04
6.69
3.08
-0.31
-3.21
-5.58
-7.69
-9.94
-12.73
-16.27
-20.54
-25.21
-29.63
-33
-34.47
-33.45
-29.75
-23.78
-16.46
-8.9
-2.1
3.42
7.63
10.91
13.72
16.4
18.96
21.23
22.97
24.07
24.58
24.67
24.55
24.33
24.02
23.63
23.14
22.62
22.09
21.47
20.6
19.21
17.13
14.34
11.03
7.55
4.18
1.08
-1.82
-4.71
-7.83
-11.37
-15.4
-19.88
-24.56
-28.89
-32.12
-33.36
-32
-27.98
-21.9
-14.89
-8.13
-2.43
2.06
5.67
8.88
11.92
14.63
16.65
17.67
17.71
17.18
16.67
16.66
17.33
18.55
19.92
21.01
21.48
21.15
20.02
18.22
15.98
13.51
10.91
8.21
5.33
2.21
-1.11
-4.46
-7.64
-10.46
-12.92
-15.21
-17.71
-20.81
-24.8
-29.68
-35.1
-40.31
-44.35
-46.26
-45.32
-41.39
-34.91
-26.84
-18.35
-10.39
-3.51
2.27
7.23
11.72
15.91
19.75
23.03
25.56
27.25
28.21
28.62
28.72
28.7
28.72
28.88
29.17
29.46
29.51
29.05
27.95
26.23
24.1
21.84
19.59
17.35
14.96
12.27
9.19
5.83
2.42
-0.8
-3.72
-6.34
-8.8
-11.31
-14.13
-17.5
-21.64
-26.59
-32.12
-37.63
-42.26
-45.06
-45.32
-42.78
-37.76
-30.97
-23.32
-15.66
-8.54
-2.24
3.23
8.01
12.26
16.1
19.56
22.56
24.96
26.65
27.68
28.22
28.56
28.92
29.38
29.8
29.97
29.67
28.85
27.6
26.05
24.36
22.55
20.52
18.15
15.38
12.34
9.2
6.19
3.39
0.76
-1.82
-4.45
-7.13
-9.75
-12.23
-14.58
-17.06
-20.03
-23.84
-28.57
-33.9
-39.13
-43.27
-45.34
-44.65
-41.01
-34.81
-26.94
-18.53
-10.59
-3.8
1.63
5.92
9.5
12.72
15.75
18.55
20.91
22.65
23.73
24.24
24.38
24.4
24.47
24.63
24.76
24.7
24.31
23.56
22.55
21.44
20.34
19.19
17.79
15.85
13.16
9.77
5.95
2.12
-1.38
-4.38
-7
-9.45
-11.94
-14.66
-17.7
-21.18
-25.22
-29.8
-34.61
-38.99
-41.97
-42.6
-40.31
-35.19
-28
-19.92
-12.09
-5.28
0.29
4.85
8.81
12.48
15.9
18.83
20.96
22.16
22.54
22.47
22.38
22.59
23.16
23.95
24.72
25.23
25.35
25.01
24.15
22.78
20.95
18.78
16.49
14.27
12.17
10.09
7.85
5.27
2.35
-0.77
-3.85
-6.69
-9.2
-11.45
-13.65
-16.07
-19.03
-22.76
-27.35
-32.6
-37.93
-42.43
-45.1
-45.1
-42.09
-36.37
-28.77
-20.43
-12.38
-5.35
0.41
5.02
8.85
12.22
15.34
18.17
20.57
22.34
23.45
24
24.22
24.35
24.53
24.81
25.13
25.4
25.53
25.39
24.81
23.6
21.68
19.15
16.28
13.49
11.06
9.06
7.29
5.38
3.02
0.06
-3.34
-6.88
-10.18
-12.96
-15.16
-16.98
-18.8
-21.07
-24.17
-28.23
-33.06
-38.13
-42.61
-45.53
-46.07
-43.69
-38.48
-31.09
-22.58
-14.16
-6.75
-0.78
3.84
7.53
10.77
13.83
16.76
19.45
21.75
23.62
25.07
26.16
26.94
27.46
27.73
27.75
27.49
26.89
25.89
24.46
22.66
20.58
18.39
16.15
13.82
11.32
8.5
5.36
2.01
-1.3
-4.36
-7.04
-9.4
-11.65
-14.05
-16.81
-20.03
-23.75
-27.96
-32.58
-37.41
-41.96
-45.49
-47.08
-45.99
-41.97
-35.45
-27.46
-19.28
-11.96
-6.01
-1.35
2.51
6
9.32
12.35
14.83
16.57
17.62
18.26
18.8
19.52
20.44
21.48
22.4
22.99
23.14
22.88
22.38
21.84
21.4
20.96
20.21
18.75
16.36
13.15
9.6
6.33
3.79
2.08
0.9
-0.31
-2.11
-4.9
-8.73
-13.38
-18.29
-22.67
-25.64
-26.41
-24.56
-20.15
