14.12
13.3
11.86
10.13
8.37
6.83
5.63
4.79
4.31
4.1
4.01
3.82
3.3
2.29
0.8
-0.98
-2.77
-4.32
-5.61
-6.83
-8.33
-10.37
-13
-15.94
-18.68
-20.69
-21.52
-20.96
-19
-15.77
-11.47
-6.36
-0.83
4.63
9.51
13.4
16.08
17.56
18.04
17.81
17.15
16.27
15.3
14.35
13.5
12.81
12.23
11.65
10.88
9.74
8.15
6.15
3.88
1.53
-0.78
-2.96
-4.99
-6.87
-8.64
-10.37
-12.12
-13.96
-15.82
-17.47
-18.48
-18.35
-16.69
-13.46
-8.99
-3.96
0.93
5.17
8.55
11.12
12.98
14.17
14.56
14.04
12.69
10.85
9.09
8.01
7.94
8.82
10.22
11.55
12.27
12.02
10.8
8.8
6.36
3.81
1.33
-1.04
-3.42
-5.93
-8.64
-11.54
-14.53
-17.53
-20.45
-23.11
-25.2
-26.23
-25.65
-23.1
-18.6
-12.64
-6.02
0.34
5.78
9.92
12.66
14.08
14.31
13.6
12.27
10.75
9.48
8.75
8.59
8.78
8.95
8.76
8.12
7.16
6.07
5.04
4
2.76
1.07
-1.17
-3.9
-6.94
-10.11
-13.27
-16.35
-19.19
-21.44
-22.61
-22.2
-19.92
-15.86
-10.52
-4.63
1.05
6.03
10.07
13.09
15.09
15.9
15.39
13.5
10.44
6.73
3.05
0.01
-2.03
-3.09
-3.41
-3.32
-3.05
-2.78
-2.56
-2.53
-2.85
-3.68
-5.14
-7.23
-9.93
-13.13
-16.7
-20.24
-23.16
-24.69
-24.08
-20.95
-15.51
-8.55
-1.19
5.51
10.9
14.79
17.22
18.33
18.14
16.71
14.29
11.44
8.91
7.31
6.82
7.03
7.18
6.42
4.21
0.51
-4.25
-9.32
-14
-17.78
-20.55
-22.59
-24.36
-26.36
-28.81
-31.59
-34.29
-36.3
-37.12
-36.38
-33.9
-29.71
-24.02
-17.3
-10.16
-3.36
2.46
6.99
10.2
12.34
13.67
14.28
14.17
13.34
11.96
10.47
9.37
8.97
9.26
9.89
10.47
10.82
11.12
11.78
13.21
15.52
18.35
21.05
22.91
23.44
22.56
20.54
17.91
15.23
12.92
11.25
10.27
9.94
10.13
10.69
11.45
12.21
12.82
13.15
13.1
12.62
11.7
10.38
8.75
6.93
5.02
3.14
1.37
-0.13
-1.15
-1.49
-1.09
-0.07
1.2
2.34
3
3.08
2.62
1.73
0.48
-1.19
-3.33
-5.93
-8.91
-12.15
-15.48
-18.68
-21.4
-23.07
-23.07
-20.95
-16.73
-10.94
-4.55
1.45
6.35
9.96
12.51
14.4
15.94
17.21
18.11
18.51
18.43
18.01
17.48
16.99
16.59
16.17
15.59
14.73
13.57
12.1
10.26
7.89
4.79
0.74
-4.25
-9.91
-15.74
-21.11
-25.44
-28.39
-29.96
-30.49
-30.57
-30.89
-32
-34.07
-36.78
-39.3
-40.63
-39.84
-36.46
-30.67
-23.22
-15.22
-7.83
-1.94
2
3.95
4.2
3.25
1.6
-0.25
-1.93
-3.12
-3.58
-3.21
-1.95
0.08
2.65
5.44
8.17
10.63
12.66
14.17
15.16
15.67
15.94
16.26
16.92
17.95
19.05
19.7
19.32
17.58
14.59
10.93
7.41
4.87
3.88
4.63
6.9
10.22
14.01
17.73
20.98
23.54
25.28
26.15
26.14
25.28
23.7
21.68
19.58
17.72
16.22
15.05
14.05
13.1
12.2
11.43
10.88
10.5
10.15
9.57
8.57
7
4.84
2.17
-0.84
-3.98
-7
-9.68
-11.9
-13.75
-15.47
-17.39
-19.78
-22.7
-25.96
-29.15
-31.72
-33.08
-32.71
-30.34
-26.02
-20.19
-13.64
-7.23
-1.75
2.41
5.22
6.94
7.94
8.48
8.71
8.71
8.64
8.65
8.95
9.6
10.53
11.51
12.29
12.68
12.66
12.31
11.75
11.09
10.27
9.21
7.81
6.05
3.98
1.73
-0.53
-2.68
-4.62
-6.35
-7.97
-9.62
-11.5
-13.79
-16.57
-19.72
-22.92
-25.54
-26.91
-26.49
-24.03
-19.78
-14.34
-8.5
-2.96
1.85
5.84
9.08
11.7
13.74
15.13
15.8
15.78
15.26
14.55
14.03
13.96
14.41
15.2
15.98
16.36
16.1
15.2
13.89
12.5
11.26
10.14
8.86
6.99
4.28
0.79
-3.09
-6.81
-9.86
-12.05
-13.48
-14.49
-15.43
-16.64
-18.3
-20.44
-23
-25.7
-28.09
-29.53
-29.43
-27.39
-23.36
-17.73
-11.19
-4.53
1.6
6.75
10.71
13.47
15.12
15.83
15.86
15.46
14.85
14.18
13.5
12.82
12.2
11.74
11.56
11.69
12.03
12.37
12.45
12.12
11.34
10.17
8.64
6.75
4.47
1.85
-0.9
-3.44
-5.49
-6.99
-8.18
-9.45
-11.16
-13.33
-15.65
-17.48
-18.17
-17.31
-14.83
-11.02
-6.38
-1.47
3.26
7.42
10.79
13.24
14.67
15.09
14.58
13.28
11.46
9.47
7.71
6.52
6.08
6.33
7.05
7.89
8.58
8.99
9.14
9.07
8.77
8.13
7.07
5.53
3.59
1.42
-0.83
-3.07
-5.28
-7.5
-9.72
-11.96
-14.21
-16.57
-19.14
-21.94
-24.75
-27.07
-28.17
-27.43
-24.52
-19.69
-13.62
-7.29
-1.58
2.96
6.23
8.42
9.85
10.72
11.06
10.82
10.02
8.82
7.51
6.38
5.63
5.3
5.3
5.5
5.77
6.01
6.17
6.13
5.77
4.95
3.56
1.63
-0.72
-3.24
-5.68
-7.85
-9.7
-11.39
-13.16
-15.26
-17.85
-20.91
-24.24
-27.49
-30.15
-31.66
-31.52
-29.42
-25.45
-20.09
-14.1
-8.25
-3.13
0.97
3.97
5.9
6.83
6.88
6.27
5.33
4.42
3.76
3.41
3.24
3.07
2.76
2.34
1.93
1.64
1.5
1.39
1.1
0.42
-0.83
-2.61
-4.77
-7.03
-9.1
-10.8
-12.21
-13.6
-15.39
-18.02
-21.79
-26.69
-32.25
-37.53
-41.14
-41.65
-37.93
-29.64
-17.37
-2.5
13.16
27.88
40.39
50.1
57.03
61.66
64.64
66.58
67.83
68.51
68.57
68.07
67.38
67.18
68.2
70.79
74.64
78.69
81.48
81.68
78.5
71.94
62.59
51.36
39.15
26.69
14.61
3.42
-6.45
-14.75
-21.53
-27.07
-31.69
-35.55
-38.57
-40.56
-41.37
-41.13
-40.15
-38.72
-36.95
-34.7
-31.8
-28.39
-24.96
-22.27
-20.96
-21.21
-22.56
-24.15
-25.12
-24.98
-23.79
-22.12
-20.69
-20.14
-20.66
-22.05
-23.72
-24.97
-25.25
-24.31
-22.28
-19.66
-17.13
-15.38
-14.98
-16.19
-18.95
-22.79
-26.96
-30.54
-32.7
-32.89
-30.98
-27.2
-22.12
-16.44
-10.86
-5.94
-2.04
0.7
2.33
2.98
2.79
1.79
-0.07
-2.82
-6.38
-10.44
-14.47
-17.96
-20.49
-21.92
-22.38
-22.19
-21.75
-21.41
-21.46
-22.1
-23.41
-25.41
-28.01
-31.11
-34.61
-38.41
-42.4
-46.43
-50.34
-54.04
-57.46
-60.53
-63.06
-64.59
-64.55
-62.32
-57.64
-50.74
-42.3
-33.3
-24.56
-16.66
-9.75
-3.79
1.36
5.77
9.46
12.41
14.72
16.62
18.41
20.36
22.63
25.15
27.7
29.99
31.77
32.95
33.46
33.28
32.29
30.38
27.54
24.06
20.52
17.68
16.1
15.9
16.6
17.26
16.79
14.3
9.39
2.17
-6.74
-16.31
-25.35
-32.6
-36.97
-37.76
-34.91
-28.96
-21
-12.33
-4.1
2.93
8.54
12.9
16.38
19.3
21.75
23.57
24.54
24.64
24.09
23.45
23.34
24.14
25.85
27.99
29.83
30.69
30.19
28.36
25.59
22.3
18.83
15.3
11.7
8.03
4.4
1.05
-1.88
-4.3
-6.34
-8.2
-10.09
-12.18
-14.57
-17.41
-20.85
-24.98
-29.64
-34.27
-37.98
-39.74
-38.72
-34.63
-27.85
-19.32
-10.23
-1.67
5.64
11.43
15.81
19.06
21.48
23.32
24.77
25.98
27.1
28.2
29.27
30.26
31.03
31.5
31.61
31.37
30.87
30.21
29.48
28.7
27.73
26.34
24.29
21.44
17.92
14.08
10.42
7.37
5.08
3.42
2
0.33
-2
-5.18
-9.11
-13.29
-16.98
-19.25
-19.31
-16.76
-11.73
-4.81
3.05
10.91
18.03
23.96
28.58
31.91
34.13
35.42
35.96
35.91
35.4
34.52
33.29
31.72
29.81
27.64
25.37
23.22
21.4
20.02
19.05
18.24
17.22
15.53
12.8
8.85
3.85
-1.73
-7.14
-11.67
-14.87
-16.72
-17.64
-18.38
-19.62
-21.76
-24.69
-27.8
-30.16
-30.82
-29.01
-24.35
-16.95
-7.34
3.6
14.88
25.61
35.16
43.27
49.96
55.41
59.82
63.27
65.72
67.03
67.11
65.98
63.8
60.83
57.38
53.75
50.13
46.66
43.33
40.04
36.65
32.99
28.9
24.28
19.1
13.41
7.41
1.39
-4.29
-9.26
-13.29
-16.38
-18.87
-21.3
-24.32
-28.44
-33.85
-40.39
-47.4
-53.93
-58.8
-60.99
-59.91
-55.59
-48.75
-40.52
-32.17
-24.73
-18.85
-14.71
-12.18
-10.87
-10.33
-10.06
-9.69
-8.94
-7.71
-6.04
-4.03
-1.79
0.58
2.97
5.21
7.14
8.61
9.55
9.96
9.85
9.23
8.14
6.65
4.93
3.22
1.81
0.92
0.64
0.82
1.2
1.36
0.93
-0.28
-2.23
-4.54
-6.57
-7.57
-6.89
-4.23
0.27
6
12.09
17.61
21.86
24.49
25.6
25.52
24.72
23.59
22.36
21.12
19.88
18.69
17.67
17.04
16.99
17.64
18.85
20.29
21.48
22.03
21.74
20.67
19.09
17.26
15.33
13.24
10.87
8.16
5.21
2.27
-0.34
-2.41
-3.92
-5.04
-6.11
-7.53
-9.67
-12.76
-16.83
-21.6
-26.52
-30.8
-33.58
-34.15
-32.16
-27.73
-21.48
-14.28
-7.1
-0.66
4.67
8.89
12.29
15.1
17.46
19.24
20.24
20.32
19.58
18.34
16.99
15.85
15.02
14.42
13.9
13.33
12.71
12.11
11.6
11.11
10.46
9.4
7.72
5.4
2.6
-0.38
-3.24
-5.75
-7.89
-9.76
-11.62
-13.73
-16.33
-19.53
-23.24
-27.16
-30.76
-33.33
-34.2
-32.89
-29.29
-23.7
-16.73
-9.18
-1.85
4.58
9.69
13.3
15.5
16.54
16.74
16.41
15.75
14.9
13.9
12.88
11.9
11.07
10.4
9.83
9.26
8.58
7.78
6.93
6.06
5.18
4.13
2.73
0.76
-1.86
-5.12
-8.91
-13.04
-17.39
-21.92
-26.66
-31.7
-37.04
-42.48
-47.52
-51.43
-53.42
-52.9
-49.77
-44.54
-38.19
-31.96
-26.98
-24.04
-23.44
-24.92
-27.72
-30.66
-32.33
-31.51
-27.5
-20.44
-11.2
-1.15
8.37
16.36
22.39
26.43
28.71
29.71
30.16
31.04
33.41
38
44.87
53.25
61.74
68.76
73.05
73.97
71.61
66.56
59.77
52.35
45.4
39.95
36.75
36.15
38.02
41.82
46.75
51.94
56.56
59.85
61.19
60.17
56.68
50.99
43.74
35.75
27.84
20.64
14.48
9.5
5.72
3.17
1.74
1.15
0.84
0.02
-1.99
-5.47
-10.07
-14.99
-19.25
-22.18
-23.74
-24.41
-24.9
-25.78
-27.16
-28.74
-30.07
-30.84
-31.12
-31.24
-31.64
-32.59
-34.06
-35.74
-37.09
-37.53
-36.55
-33.81
-29.25
-23.13
-16.03
-8.71
-1.9
3.9
8.5
11.94
14.35
15.77
16.15
15.42
13.75
11.55
9.51
8.33
8.41
9.65
11.46
12.97
13.34
11.99
8.62
3.15
-4.36
-13.73
-24.55
-36.13
-47.6
-58.1
-67.14
-74.82
-81.79
-88.88
-96.54
-104.42
-111.22
-115.1
-114.36
-108.09
-96.51
-80.8
-62.61
-43.48
-24.55
-6.53
10.06
24.63
36.38
44.52
48.45
48.1
44.07
37.55
30.18
23.72
19.64
18.75
20.99
25.35
30.22
33.8
34.57
31.7
25.2
15.92
5.31
-4.97
-13.5
-19.45
-22.81
-24.23
-24.67
-25.05
-25.9
-27.34
-29.15
-30.9
-32.16
-32.51
-31.69
-29.62
-26.57
-23
-19.48
-16.4
-13.8
-11.27
-8.28
-4.49
-0.08
4.11
6.96
7.53
5.57
1.75
-2.6
-6.02
-7.46
-6.59
-3.72
0.51
5.44
10.62
15.63
20.02
23.18
24.48
23.57
20.53
15.93
10.6
5.41
1.03
-2.16
-3.95
-4.31
-3.27
-0.93
2.52
6.75
11.28
15.53
18.91
20.86
21.01
19.25
15.81
11.32
6.6
2.55
-0.23
-1.56
-1.79
-1.61
-1.8
-2.96
-5.33
-8.79
-13
-17.56
-22.1
-26.32
-29.97
-32.78
-34.61
-35.52
-35.82
-35.94
-36.16
-36.36
-35.89
-33.7
-28.85
-20.83
-9.83
3.37
17.68
31.95
45.12
56.26
64.56
69.51
71.12
70.05
67.51
64.83
62.96
62.13
61.87
61.36
59.97
57.59
54.6
51.65
49.27
47.73
47.12
47.46
48.78
51.14
54.36
57.93
60.96
62.41
61.43
57.67
51.4
43.39
34.61
25.84
17.44
9.27
0.95
-7.86
-17.19
-26.59
-35.28
-42.41
-47.39
-49.98
-50.44
-49.24
-46.97
-44.13
-41.12
-38.16
-35.36
-32.68
-30.06
-27.38
-24.58
-21.67
-18.78
-16.13
-14.04
-12.82
-12.68
-13.6
-15.36
-17.62
-20.09
-22.67
-25.48
-28.71
-32.46
-36.52
-40.5
-43.88
-46.3
-47.56
-47.67
-46.66
-44.52
-41.12
-36.32
-30.03
-22.23
-12.99
-2.6
8.28
18.46
26.33
30.26
29.33
23.81
15.29
6.19
-1.07
-4.99
-5.4
-3.24
0.1
3.37
5.94
7.73
8.82
9.25
8.88
7.56
5.33
2.52
-0.4
-3.03
-5.31
-7.41
-9.61
-11.91
-13.99
-15.22
-15.05
-13.22
-9.96
-5.83
-1.49
2.55
5.98
8.69
10.61
11.7
11.94
11.45
10.48
9.39
8.5
7.98
7.84
7.92
8.06
8.09
7.94
7.67
7.36
7.1
6.86
6.53
5.98
5.11
3.95
2.62
1.24
-0.15
-1.66
-3.33
-5.04
-6.35
-6.55
-4.96
-1.2
4.53
11.6
19.07
26.02
31.71
35.67
37.64
37.61
35.77
32.44
28.1
23.27
18.47
14.15
10.65
8.15
6.65
5.95
5.71
5.53
5.07
4.13
2.7
0.85
-1.26
-3.47
-5.57
-7.36
-8.72
-9.75
-10.75
-12.1
-14
-16.32
-18.51
-19.84
-19.62
-17.53
-13.71
-8.71
-3.25
1.96
6.37
9.59
11.39
11.73
10.76
8.88
6.67
4.78
3.75
3.82
4.93
6.72
8.73
10.55
11.94
12.77
13.02
12.69
11.83
10.51
8.86
7.09
5.31
3.58
1.74
-0.43
-3.21
-6.67
-10.64
-14.67
-18.14
-20.41
-20.97
-19.55
-16.22
-11.35
-5.47
0.75
6.72
12
16.23
19.16
20.53
20.06
17.55
13.02
6.8
-0.38
-7.6
-13.88
-18.53
-21.27
-22.25
-22.01
-21.19
-20.37
-19.93
-19.94
-20.27
-20.65
-20.91
-21.01
-21.08
-21.33
-21.86
-22.71
-23.8
-25.09
-26.58
-28.24
-29.93
-31.3
-31.81
-30.85
-28.05
-23.37
-17.17
-10.07
-2.79
4.08
10.16
15.27
19.34
22.34
24.24
24.97
24.48
22.86
20.34
17.3
14.22
11.53
9.5
8.25
7.68
7.58
7.64
7.56
7.06
5.93
4.15
1.85
-0.65
-2.95
-4.67
-5.6
-5.88
-6
-6.76
-8.91
-12.89
-18.43
-24.57
-29.79
-32.59
-31.97
-27.86
-21.13
-13.22
-5.63
0.46
4.48
6.38
6.47
5.24
3.17
0.69
-1.86
-4.27
-6.4
-8.14
-9.41
-10.03
-9.84
-8.62
-6.19
-2.45
2.55
8.56
15.06
21.29
26.36
29.38
29.73
27.32
22.58
16.42
9.89
3.85
-1.27
-5.55
-9.36
-13.08
-16.77
-20.04
-22.17
-22.39
-20.26
-15.86
-9.8
-3.05
3.41
8.89
13.05
16.03
18.2
19.97
21.6
22.98
23.66
23.01
20.41
15.63
9.03
1.58
-5.4
-10.67
-13.54
-14.08
-13.03
-11.4
-10.07
-9.47
-9.6
-10.25
-11.24
-12.5
-14.07
-15.99
-18.24
-20.71
-23.31
-25.94
-28.47
-30.61
-31.98
-32.18
-30.94
-28.3
-24.55
-20.15
-15.56
-11.12
-7.07
-3.54
-0.66
1.46
2.73
3.17
2.94
2.32
1.68
1.33
1.52
2.34
3.71
5.4
7.08
8.46
9.32
9.58
9.28
8.49
7.21
5.42
3.03
0.08
-3.32
-6.94
-10.56
-14.03
-17.23
-19.99
-21.98
-22.77
-22.04
-19.73
-16.26
-12.26
-8.37
-4.95
-2.02
0.58
2.93
4.91
6.18
6.49
5.83
4.52
3.06
1.96
1.47
1.56
2
2.42
2.56
2.24
1.48
0.37
-0.91
-2.25
-3.66
-5.27
-7.33
-10
-13.31
-17.06
-20.84
-24.16
-26.53
-27.57
-27.07
-24.96
-21.34
-16.44
-10.59
-4.2
2.32
8.54
14.01
18.37
21.34
22.87
23.2
22.77
22.2
22.09
22.89
24.78
27.62
30.95
34.06
36.14
36.54
35.03
31.84
27.62
23.1
18.85
14.98
11.24
7.22
2.69
-2.17
-6.81
-10.53
-12.78
-13.38
-12.5
-10.62
-8.24
-5.71
-3.14
-0.5
2.21
4.74
6.58
7.03
5.56
2.04
-3.12
-9.09
-14.91
-19.76
-23.15
-24.89
-25.09
-24
-21.99
-19.44
-16.75
-14.21
-11.99
-10.14
-8.69
-7.72
-7.33
-7.55
-8.25
-9.08
-9.56
-9.21
-7.68
-4.79
-0.59
4.73
10.77
17.04
22.96
28.11
32.25
35.38
37.65
39.21
40.16
40.48
40.28
39.79
39.42
39.56
40.36
41.56
42.6
42.84
41.89
39.77
36.89
33.72
30.56
27.4
24.05
20.5
17.13
14.7
13.91
14.96
17.23
19.36
19.93
18.04
13.78
8.19
2.76
-1.24
-3.16
-3.06
-1.41
1.23
4.41
7.77
10.88
13.15
13.98
12.9
9.74
4.56
-2.45
-11.1
-21.2
-32.42
-44.2
-55.68
-65.94
-74.15
-79.85
-83.04
-84.04
-83.37
-81.54
-78.99
-76.06
-73
-70.07
-67.39
-65
-62.8
-60.55
-57.94
-54.62
-50.31
-44.79
-37.95
-29.79
-20.42
-10.2
0.32
10.36
19.11
25.85
30.19
32.09
31.78
29.75
26.62
23.06
19.67
16.82
14.56
12.6
10.44
7.7
4.32
0.64
-2.78
-5.5
-7.43
-8.87
-10.36
-12.3
-14.77
-17.51
-19.98
-21.62
-21.99
-20.87
-18.21
-14.14
-8.88
-2.78
3.68
9.91
15.35
19.54
22.24
23.5
23.55
22.77
21.51
20.05
18.54
17.06
15.68
14.39
13.16
11.85
10.31
8.4
6.13
3.68
1.35
-0.59
-2.08
-3.33
-4.85
-7.24
-10.88
-15.74
-21.23
-26.34
-29.9
-30.97
-29.12
-24.58
-18.14
-10.85
-3.7
2.67
7.97
12.22
15.56
18.07
19.75
20.58
20.62
20.1
19.37
18.82
18.6
18.64
18.6
18.12
16.97
15.19
13.07
11.07
9.51
8.49
7.85
7.18
6.09
4.27
1.59
-1.92
-6.04
-10.43
-14.58
-17.85
-19.59
-19.28
-16.75
-12.27
-6.48
-0.2
5.84
11.21
15.8
19.73
23.09
25.78
27.56
28.2
27.63
26.09
24.09
22.17
20.73
19.87
19.45
19.22
18.9
18.29
17.31
15.89
14.02
11.74
9.17
6.48
3.81
1.16
-1.57
-4.59
-8.08
-12
-16.13
-19.97
-22.86
-24.18
-23.48
-20.67
-16.03
-10.22
-4.07
1.65
6.44
10.12
12.82
14.74
16.09
16.91
17.14
16.72
15.65
14.1
12.4
10.93
10.02
9.81
10.21
10.88
11.4
11.36
10.55
8.97
6.8
4.3
1.72
-0.76
-3.07
-5.22
-7.27
-9.33
-11.55
-14.01
-16.62
-19.08
-20.82
-21.16
-19.56
-15.82
-10.23
-3.53
3.29
9.22
13.6
16.21
17.28
17.35
16.96
16.43
15.82
15
13.83
12.4
11
9.99
9.66
9.99
10.67
11.23
11.26
10.55
9.16
7.3
5.24
3.15
1.1
-0.95
-3.09
-5.4
-7.94
-10.73
-13.75
-16.97
-20.24
-23.3
-25.69
-26.84
-26.14
-23.25
-18.2
-11.54
-4.21
2.71
8.34
12.25
14.54
15.67
16.17
16.47
16.68
16.73
16.51
16.04
15.48
15.08
15.02
15.28
15.75
16.19
16.46
16.47
16.22
15.71
14.87
13.57
11.73
9.39
6.73
4.03
1.5
-0.78
-2.94
-5.21
-7.85
-11.02
-14.72
-18.73
-22.69
-26.03
-28.16
-28.51
-26.77
-22.95
-17.54
-11.28
-5.06
0.44
4.83
8.08
10.31
11.64
12.15
11.89
10.97
9.62
8.22
7.08
6.37
6.06
5.96
5.9
5.83
5.83
6.03
6.49
7.15
7.8
8.21
8.2
7.72
6.85
5.75
4.6
3.53
2.62
1.87
1.15
0.26
-1
-2.77
-5.06
-7.68
-10.29
-12.43
-13.65
-13.62
-12.2
-9.47
-5.76
-1.51
2.79
6.72
10.03
12.57
14.33
15.34
15.64
15.26
14.3
12.89
11.23
9.56
8.07
6.91
6.11
5.67
5.51
5.54
5.6
5.48
4.97
3.91
2.25
0.1
-2.31
-4.71
-6.92
-8.85
-10.59
-12.3
-14.18
-16.43
-19.11
-22.14
-25.22
-27.86
-29.46
-29.55
-27.9
-24.69
-20.43
-15.76
-11.25
-7.25
-3.81
-0.89
1.55
3.41
4.57
4.89
4.42
3.43
2.3
1.43
1.11
1.43
2.3
3.55
4.98
6.41
7.62
8.42
8.64
8.17
7.1
5.63
3.96
2.23
0.37
-1.75
-4.34
-7.44
-10.98
-14.7
-18.28
-21.41
-23.78
-25.12
-25.22
-23.95
-21.3
-17.5
-12.94
-8.14
-3.59
0.41
3.73
6.4
8.52
10.1
11.07
11.25
10.55
9.07
7.21
5.48
4.39
4.13
4.52
5.08
5.22
4.56
3.01
0.78
-1.84
-4.63
-7.5
-10.43
-13.39
-16.23
-18.75
-20.8
-22.42
-23.8
-25.12
-26.38
-27.25
-27.17
-25.57
-22.2
-17.25
-11.32
-5.21
0.37
5.04
8.76
11.74
14.21
16.26
17.8
18.63
18.63
17.85
16.61
15.32
14.32
13.75
13.6
13.75
14.15
14.86
16.01
17.63
19.48
21.11
21.95
21.49
19.47
15.93
11.08
5.23
-1.36
-8.49
-15.86
-22.92
-28.9
-32.91
-34.22
-32.59
-28.41
-22.56
-16.18
-10.2
-5.15
-1.13
2.02
4.48
6.27
7.28
7.45
6.87
5.83
4.74
3.99
3.78
4.12
4.78
5.46
5.87
5.79
5.18
4.13
2.81
1.39
-0.02
-1.4
-2.83
-4.4
-6.18
-8.26
-10.75
-13.76
-17.35
-21.38
-25.42
-28.7
-30.3
-29.47
-25.93
-20.03
-12.72
-5.23
1.35
6.36
9.74
11.82
13.1
13.98
14.57
14.82
14.65
14.15
13.59
13.32
13.62
14.47
15.67
16.89
17.83
18.36
18.48
18.22
17.54
16.37
14.63
12.42
9.93
7.41
5.01
2.65
0.04
-3.12
-6.98
-11.36
-15.71
-19.27
-21.24
-21.09
-18.65
-14.25
-8.55
-2.44
3.24
7.89
11.22
13.28
14.4
14.94
15.25
15.48
15.64
15.62
15.37
14.93
14.46
14.16
14.13
14.24
14.14
13.4
11.68
8.87
5.15
0.83
-3.78
-8.52
-13.34
-18.32
-23.51
-28.84
-34.22
-39.56
-44.86
-50.2
-55.57
-60.73
-65.13
-67.99
-68.51
-66.25
-61.33
-54.47
-46.86
-39.73
-34
-30.04
-27.65
-26.17
-24.79
-22.73
-19.4
-14.47
-7.91
0.01
8.77
17.75
26.37
34.21
41.08
46.97
51.86
55.69
58.27
59.34
58.66
56.16
52.05
46.8
41.09
35.65
31.14
27.88
25.72
24.14
22.45
20.13
17.14
14.03
11.7
11.05
12.61
16.28
21.41
27.08
32.4
36.82
40.05
42.08
42.97
42.86
41.94
40.51
38.92
37.46
36.28
35.28
34.23
32.89
31.11
28.92
26.51
24.06
21.72
19.5
17.36
15.2
12.95
10.53
7.89
4.97
1.76
-1.72
-5.3
-8.73
-11.74
-14.2
-16.23
-18.13
-20.37
-23.31
-27.06
-31.4
-35.79
-39.46
-41.65
-41.78
-39.58
-35.23
-29.25
-22.38
-15.44
-9.06
-3.6
0.85
4.43
7.34
9.67
11.37
12.32
12.48
12.01
11.27
10.7
10.59
10.98
11.58
11.97
11.81
10.98
9.58
7.92
6.3
4.9
3.77
2.8
1.81
0.66
-0.71
-2.21
-3.69
-4.99
-6.1
-7.23
-8.67
-10.68
-13.36
-16.57
-20.08
-23.7
-27.37
-31.07
-34.64
-37.59
-39.12
-38.44
-35.04
-29.05
-21.26
-12.87
-5.1
1.16
5.56
8.3
9.89
10.96
11.96
13.04
14.14
14.99
15.36
15.11
14.34
13.28
12.26
11.51
11.1
10.92
10.76
10.45
9.95
9.33
8.68
8
7.15
5.89
4.01
1.52
-1.35
-4.2
-6.67
-8.62
-10.19
-11.76
-13.73
-16.33
-19.53
-23.02
-26.28
-28.69
-29.72
-28.98
-26.37
-22.11
-16.68
-10.74
-4.95
0.22
4.52
7.9
10.44
12.17
13.07
13.15
12.57
11.66
10.78
10.31
10.39
10.93
11.66
12.26
12.55
12.47
12.12
11.63
11.07
10.44
9.64
8.6
7.24
5.61
3.78
1.91
0.15
-1.38
-2.65
-3.82
-5.1
-6.83
-9.24
-12.36
-15.84
-19.02
-21.03
-21.09
-18.78
-14.14
-7.76
-0.5
6.66
12.95
17.9
21.36
23.38
24.12
23.77
22.5
20.58
18.36
16.22
14.49
13.26
12.39
11.52
10.26
8.43
6.07
3.48
0.98
-1.24
-3.22
-5.19
-7.4
-9.93
-12.7
-15.46
-17.92
-19.94
-21.51
-22.77
-23.94
-25.22
-26.79
-28.72
-31.02
-33.48
-35.74
-37.19
-37.17
-35.12
-30.88
-24.76
-17.54
-10.14
-3.41
2.11
6.25
9.1
10.88
11.81
12.08
11.83
11.19
10.29
9.23
8.21
7.41
7.02
7.15
7.75
8.6
9.35
9.75
9.68
9.16
8.21
6.77
4.7
1.94
-1.38
-4.82
-7.86
-10.11
-11.52
-12.48
-13.63
-15.56
-18.64
-22.75
-27.3
-31.38
-34
-34.36
-32.14
-27.58
-21.38
-14.52
-7.88
-2.07
2.72
6.55
9.64
12.21
14.42
16.33
17.97
19.26
20.1
20.43
20.32
19.96
19.58
19.32
19.2
19.09
18.8
18.2
17.22
15.89
14.18
12.02
9.32
6.06
2.37
-1.47
-5.12
-8.36
-11.16
-13.75
-16.45
-19.47
-22.75
-25.84
-28
-28.46
-26.7
-22.72
-17.02
-10.47
-3.99
1.73
6.34
9.77
12.19
13.71
14.45
14.43
13.73
12.48
10.97
9.54
8.52
8.07
8.15
8.48
8.69
8.37
7.32
5.52
3.14
0.43
-2.45
-5.43
-8.49
-11.66
-14.9
-18.17
-21.43
-24.71
-28.01
-31.23
-34.04
-35.9
-36.17
-34.36
-30.34
-24.42
-17.34
-10.01
-3.29
2.22
6.3
8.98
10.49
11.02
10.73
9.7
8.09
6.21
4.5
3.42
3.22
3.85
4.92
5.88
6.25
5.81
4.71
3.29
1.89
0.68
-0.43
-1.73
-3.48
-5.83
-8.72
-11.98
-15.41
-18.78
-21.86
-24.26
-25.46
-24.91
-22.3
-17.67
-11.58
-4.93
1.35
6.59
10.54
13.31
15.24
16.64
17.71
18.46
18.82
18.73
18.22
17.42
16.54
15.77
15.13
14.51
13.73
12.63
11.23
9.68
8.21
6.98
5.93
4.82
3.3
1.13
-1.82
-5.47
-9.59
-13.87
-17.91
-21.2
-23.17
-23.33
-21.43
-17.6
-12.4
-6.59
-0.93
4.05
8.16
11.41
13.88
15.59
16.46
16.41
15.51
14.02
12.36
10.99
10.2
10.07
10.38
10.82
11.02
10.75
9.88
8.46
6.62
4.5
2.18
-0.31
-3.05
-6.11
-9.51
-13.16
-16.75
-19.89
-22.11
-22.97
-22.18
-19.67
-15.6
-10.39
-4.61
1.08
6.14
10.16
12.96
14.56
15.04
14.56
13.29
11.49
9.52
7.8
6.72
6.46
6.93
7.78
8.49
8.63
8
6.66
4.89
2.96
1
-1.03
-3.28
-5.83
-8.68
-11.7
-14.74
-17.62
-20.14
-21.96
-22.6
-21.64
-18.8
-14.21
-8.42
-2.23
3.58
8.48
12.29
15.1
17.1
18.42
19.09
19.09
18.43
17.26
15.82
14.44
13.28
12.38
11.53
10.45
8.88
6.73
4.14
1.34
-1.37
-3.86
-6.09
-8.16
-10.19
-12.28
-14.47
-16.85
-19.54
-22.71
-26.44
-30.63
-34.96
-38.91
-41.91
-43.49
-43.43
-41.9
-39.37
-36.38
-33.31
-30.22
-26.73
-22.26
-16.21
-8.35
1.08
11.45
21.92
31.7
40.28
47.41
53
57.01
59.42
60.28
59.8
58.29
56.12
53.53
50.54
47.02
42.9
38.25
33.39
28.76
24.66
21.1
17.85
14.51
10.74
6.4
1.57
-3.48
-8.36
-12.67
-15.94
-17.74
-17.73
-15.86
-12.41
-7.99
-3.36
0.83
4.2
6.71
8.51
9.8
10.68
11.14
11.12
10.65
9.92
9.2
8.77
8.79
9.25
9.99
10.79
11.41
11.62
11.3
10.39
8.96
7.15
5.04
2.74
0.3
-2.21
-4.67
-7.02
-9.22
-11.44
-13.91
-16.85
-20.21
-23.6
-26.26
-27.39
-26.43
-23.33
-18.57
-13.04
-7.63
-3.07
0.34
2.64
4.13
5.15
5.91
6.52
6.97
7.27
7.51
7.91
8.73
10.15
12.18
14.54
16.78
18.34
18.86
18.23
16.63
14.4
11.87
9.27
6.72
4.25
1.91
-0.25
-2.33
-4.53
-7.13
-10.31
-13.99
-17.69
-20.7
-22.3
-22.04
-19.88
-16.22
-11.71
-7.05
-2.8
0.73
3.47
5.48
6.89
7.76
8.1
7.89
7.2
6.22
5.32
4.92
5.33
6.56
8.3
10.04
11.27
11.69
11.24
10.08
8.38
6.29
3.87
1.2
-1.57
-4.16
-6.33
-7.95
-9.17
-10.36
-11.99
-14.31
-17.27
-20.36
-22.77
-23.7
-22.63
-19.53
-14.89
-9.49
-4.15
0.51
4.23
6.98
8.94
10.34
11.37
12.13
12.71
13.11
13.34
13.41
13.29
13
12.51
11.85
11.12
10.44
9.96
9.74
9.67
9.44
8.71
7.22
4.98
2.29
-0.39
-2.67
-4.42
-5.81
-7.25
-9.1
-11.56
-14.56
-17.77
-20.68
-22.76
-23.54
-22.67
-20.02
-15.78
-10.42
-4.69
0.65
4.98
8.03
9.88
10.86
11.29
11.43
11.37
11.11
10.69
10.22
9.9
9.86
10.13
10.55
10.9
10.98
10.69
10.08
9.27
8.38
7.41
6.28
4.84
3.01
0.85
-1.5
-3.76
-5.74
-7.34
-8.66
-9.99
-11.66
-13.91
-16.74
-19.77
-22.36
-23.76
-23.41
-21.16
-17.37
-12.74
-8.07
-4
-0.82
1.51
3.24
4.61
5.82
6.91
7.85
8.6
9.15
9.5
9.67
9.65
9.47
9.16
8.82
8.54
8.39
8.36
8.35
8.17
7.6
6.47
4.75
2.59
0.23
-2.05
-4.05
-5.72
-7.16
-8.58
-10.18
-12.06
-14.2
-16.37
-18.2
-19.22
-19
-17.31
-14.2
-10.07
-5.53
-1.22
2.36
5
6.71
7.64
7.93
7.7
7.05
6.08
4.95
3.81
2.77
1.9
1.25
0.85
0.78
1.06
1.58
2.1
2.33
2.03
1.15
-0.2
-1.79
-3.45
-5.13
-6.87
-8.74
-10.76
-12.88
-15.02
-17.04
-18.81
-20.09
-20.55
-19.86
-17.78
-14.35
-9.88
-4.94
-0.16
3.96
7.14
9.36
10.72
11.38
11.47
11.1
10.35
9.41
8.47
7.74
7.34
7.22
7.23
7.16
6.88
6.34
5.56
4.55
3.32
1.9
0.38
-1.08
-2.35
-3.4
-4.41
-5.64
-7.38
-9.76
-12.7
-15.99
-19.28
-22.2
-24.34
-25.23
-24.49
-21.94
-17.79
-12.6
-7.17
-2.23
1.77
4.74
6.86
8.4
9.58
10.44
10.94
11.01
10.67
10.08
9.47
9.08
9.02
9.26
9.58
9.73
9.49
8.74
7.52
5.95
4.18
2.34
0.46
-1.45
-3.43
-5.5
-7.71
-10.1
-12.74
-15.63
-18.61
-21.28
-23.09
-23.47
-22.02
-18.71
-13.91
-8.28
-2.6
2.43
6.37
9.09
10.75
11.62
11.94
11.86
11.4
10.56
9.35
7.92
6.45
5.2
4.29
3.72
3.41
3.23
3.03
2.67
2.05
1.14
-0
-1.24
-2.42
-3.49
-4.52
-5.74
-7.35
-9.48
-12.1
-14.98
-17.77
-20.05
-21.4
-21.45
-20.02
-17.15
-13.19
-8.72
-4.33
-0.48
2.62
4.97
6.69
7.89
8.63
8.88
8.66
8.08
7.34
6.73
6.47
6.68
7.27
7.96
8.37
8.2
7.3
5.79
4.01
2.26
0.74
-0.63
-2.09
-3.93
-6.24
-8.92
-11.67
-14.16
-16.09
-17.24
-17.43
-16.49
-14.37
-11.13
-7.08
-2.65
1.65
5.46
8.49
10.62
11.8
12.03
11.38
10.07
8.41
6.78
5.49
4.7
4.44
4.61
5.02
5.39
5.42
4.84
3.6
1.82
-0.12
-1.82
-3.11
-4.14
-5.28
-6.99
-9.45
-12.49
-15.62
-18.23
-19.83
-20.17
-19.17
-16.94
-13.67
-9.6
-5.07
-0.51
3.61
6.95
9.3
10.73
11.44
11.63
11.46
11
10.33
9.63
9.15
9.14
9.69
10.57
11.35
11.52
10.76
9.07
6.82
4.55
2.69
1.42
0.58
-0.23
-1.46
-3.43
-6.15
-9.41
-12.77
-15.8
-18.12
-19.48
-19.73
-18.77
-16.58
-13.25
-9.05
-4.41
0.21
4.44
8.05
11.01
13.35
15.04
16.03
16.26
15.77
14.82
13.78
12.98
12.59
12.55
12.58
12.41
11.89
11.06
10.02
8.85
7.54
6.03
4.27
2.34
0.39
-1.38
-2.89
-4.26
-5.78
-7.75
-10.34
-13.43
-16.59
-19.22
-20.71
-20.59
-18.68
-15.16
-10.51
-5.42
-0.57
3.54
6.73
9.13
11.03
12.68
14.16
15.34
15.98
15.98
15.43
14.67
14.08
13.9
14.13
14.51
14.68
14.36
13.44
11.99
10.18
8.18
6.03
3.76
1.36
-1.08
-3.41
-5.45
-7.11
-8.48
-9.8
-11.39
-13.5
-16.12
-18.94
-21.39
-22.77
-22.56
-20.51
-16.81
-12.02
-6.88
-2.12
1.77
4.6
6.47
7.6
8.21
8.47
8.51
8.56
8.87
9.72
11.17
13.12
15.22
17.08
18.37
18.96
18.87
18.2
17.08
15.59
13.78
11.69
9.38
6.95
4.47
2.03
-0.38
-2.83
-5.44
-8.31
-11.47
-14.79
-17.97
-20.62
-22.38
-22.99
-22.4
-20.71
-18.18
-15.15
-12
-9.07
-6.61
-4.77
-3.54
-2.95
-3.08
-4.07
-6
-8.56
-11.01
-12.25
-11.31
-7.77
-2.14
4.31
10
13.65
14.78
13.7
11.24
8.27
5.43
3.1
1.45
0.55
0.36
0.61
0.82
0.46
-0.79
-2.74
-4.68
-5.66
-4.81
-1.76
3.24
9.42
15.77
21.42
25.82
28.93
31.06
32.74
34.47
36.53
38.84
41.02
42.46
42.57
40.86
37.12
31.42
24.13
15.89
7.49
-0.24
-6.6
-11.22
-14.1
-15.62
-16.35
-16.87
-17.57
-18.64
-20.04
-21.6
-23.1
-24.43
-25.61
-26.71
-27.8
-28.81
-29.45
-29.27
-27.82
-24.78
-20.16
-14.33
-7.86
-1.43
4.42
9.37
13.32
16.26
18.19
19.13
19.12
18.33
17.05
15.65
14.45
13.65
13.24
13.01
12.68
12.01
10.88
9.36
7.57
5.66
3.68
1.62
-0.61
-3.09
-5.84
-8.78
-11.77
-14.67
-17.38
-19.84
-22.01
-23.77
-24.94
-25.24
-24.46
-22.48
-19.41
-15.57
-11.4
-7.36
-3.79
-0.87
1.41
3.12
4.36
5.16
5.55
5.56
5.31
4.99
4.79
4.8
4.94
5
4.76
4.13
3.18
2.13
1.18
0.44
-0.21
-0.99
-2.16
-3.84
-6.02
-8.49
-10.95
-13.06
-14.5
-15.02
-14.48
-12.85
-10.23
-6.89
-3.14
0.72
4.42
7.81
10.75
13.08
14.63
15.27
14.97
13.91
12.33
10.56
8.83
7.29
6.01
5.03
4.42
4.23
4.45
4.94
5.48
5.78
5.67
5.06
3.93
2.29
0.17
-2.37
-5.16
-7.85
-10
-11.13
-10.91
-9.3
-6.56
-3.15
0.4
3.67
6.4
8.5
9.94
10.69
10.71
10.04
8.83
7.38
6.08
5.24
5
5.24
5.66
5.93
5.81
5.28
4.46
3.53
2.58
1.61
0.51
-0.86
-2.58
-4.63
-6.9
-9.16
-11.11
-12.32
-12.41
-11.11
-8.41
-4.6
-0.23
4.1
7.84
10.62
12.32
12.94
12.62
11.6
10.16
8.58
7.13
5.94
5.05
4.38
3.82
3.25
2.63
1.94
1.17
0.33
-0.58
-1.58
-2.7
-4.04
-5.71
-7.73
-10.01
-12.24
-13.94
-14.63
-13.92
-11.71
-8.23
-3.94
0.49
4.47
7.53
9.44
10.2
10.01
9.18
8.02
6.77
5.58
4.48
3.49
2.6
1.81
1.11
0.49
-0.12
-0.76
-1.46
-2.23
-3.09
-4.14
-5.58
-7.61
-10.3
-13.5
-16.74
-19.33
-20.61
-20.13
-17.86
-14.19
-9.84
-5.55
-1.92
0.72
2.3
2.94
2.83
2.17
1.15
-0.04
-1.21
-2.24
-3.05
-3.69
-4.32
-5.12
-6.15
-7.34
-8.39
-9.06
-9.28
-9.31
-9.72
-11.2
-14.22
-18.81
-24.42
-30.11
-34.85
-37.93
-39.2
-39.01
-38.03
-36.88
-35.96
-35.45
-35.39
-35.72
-36.2
-36.25
-34.97
-31.55
-25.58
-17.41
-8.02
1.66
11.36
21.69
33.67
47.63
62.51
75.84
84.78
87.61
84.88
79.22
74.17
72.38
74.35
78.46
82.03
82.89
80.46
75.64
69.89
64.2
58.47
51.8
43.36
33.24
22.69
13.64
7.89
6.27
8.43
13.11
18.76
24.12
28.57
32.09
34.98
37.55
39.73
41.06
40.76
38.14
32.88
25.18
15.63
4.96
-6.22
-17.52
-28.67
-39.32
-48.87
-56.44
-61.09
-62.12
-59.38
-53.44
-45.55
-37.23
-29.99
-24.79
-21.87
-20.84
-20.9
-21.3
-21.57
-21.69
-21.84
-22.24
-22.89
-23.53
-23.83
-23.54
-22.62
-21.27
-19.79
-18.44
-17.35
-16.57
-16.08
-16
-16.49
-17.75
-19.76
-22.25
-24.62
-26.12
-26.07
-24.12
-20.36
-15.34
-9.88
-4.8
-0.67
2.2
3.82
4.41
4.2
3.42
2.24
0.8
-0.73
-2.22
-3.54
-4.61
-5.44
-6.11
-6.72
-7.35
-8.06
-8.85
-9.69
-10.56
-11.52
-12.69
-14.32
-16.6
-19.54
-22.79
-25.63
-27.22
-26.9
-24.52
-20.54
-15.86
-11.41
-7.75
-4.93
-2.56
-0.24
2.19
4.52
6.33
7.31
7.44
7.03
6.51
6.18
6.08
6.03
5.77
5.21
4.44
3.64
2.93
2.23
1.22
-0.48
-3.1
-6.6
-10.55
-14.25
-16.94
-18.03
-17.28
-14.93
-11.58
-7.99
-4.83
-2.52
-1.11
-0.43
-0.2
-0.2
-0.39
-0.75
-1.32
-2.05
-2.82
-3.5
-3.99
-4.23
-4.15
-3.66
-2.66
-1.18
0.61
2.33
3.53
3.82
3.06
1.44
-0.58
-2.41
-3.45
-3.27
-1.72
1.1
4.8
8.83
12.71
16.18
19.27
22.32
25.78
29.92
34.56
38.84
41.37
40.63
35.64
26.49
14.59
2.21
-8.27
-15.24
-18.41
-18.71
-17.67
-16.67
-16.46
-17.12
-18.43
-20.25
-22.58
-25.44
-28.48
-30.94
-31.83
-30.4
-26.49
-20.72
-14.23
-8.24
-3.67
-0.8
0.57
0.98
0.96
0.91
0.94
0.99
0.93
0.68
0.29
-0.11
-0.39
-0.46
-0.4
-0.37
-0.51
-0.92
-1.67
-2.83
-4.52
-6.87
-9.91
-13.37
-16.68
-19.05
-19.72
-18.21
-14.52
-9.19
-3.11
2.73
7.55
10.9
12.79
13.46
13.26
12.48
11.31
9.89
8.37
6.95
5.87
5.21
4.91
4.75
4.44
3.81
2.82
1.56
0.1
-1.54
-3.47
-5.87
-8.78
-12.03
-15.15
-17.49
-18.4
-17.5
-14.76
-10.53
-5.41
-0.1
4.79
8.81
11.71
13.4
13.9
13.36
12.01
10.14
8.12
6.24
4.69
3.56
2.8
2.38
2.24
2.33
2.53
2.67
2.51
1.82
0.43
-1.73
-4.65
-8.19
-12.14
-16.06
-19.32
-21.19
-21.02
-18.54
-13.98
-8.1
-1.87
3.79
8.28
11.42
13.33
14.23
14.32
13.71
12.53
10.95
9.25
7.77
6.74
6.22
6.06
5.98
5.67
4.96
3.86
2.48
0.92
-0.8
-2.82
-5.36
-8.59
-12.43
-16.61
-20.58
-23.69
-25.35
-25.08
-22.69
-18.3
-12.37
-5.59
1.21
7.3
12.21
15.78
18.15
19.6
20.34
20.53
20.22
19.52
18.61
17.74
17.11
16.77
16.59
16.32
15.76
14.82
13.61
12.26
10.91
9.6
8.27
6.77
4.96
2.68
-0.18
-3.59
-7.32
-10.84
-13.45
-14.37
-13.14
-9.76
-4.81
0.77
6.01
10.21
13.09
14.8
15.73
16.34
17.02
17.98
19.25
20.65
21.83
22.36
21.89
20.27
17.64
14.33
10.72
7.09
3.55
0.06
-3.41
-6.92
-10.44
-13.94
-17.34
-20.49
-23.27
-25.54
-27.3
-28.68
-29.89
-31.05
-31.96
-32.16
-31.03
-28.1
-23.28
-16.89
-9.51
-1.75
5.87
12.98
19.26
24.34
27.88
29.65
29.7
28.4
26.37
24.26
22.59
21.59
21.19
21.17
21.16
20.86
20.06
18.7
16.84
14.63
12.18
9.64
7.1
4.61
2.17
-0.25
-2.74
-5.3
-7.81
-10.01
-11.45
-11.65
-10.24
-7.07
-2.32
3.59
10.03
16.28
21.67
25.63
27.81
28.08
26.61
23.8
20.21
16.46
13.03
10.2
8
6.25
4.71
3.25
1.9
0.9
0.64
1.51
3.67
7.02
10.99
14.64
16.88
16.68
13.51
7.6
-0.09
-8.12
-15.1
-20.07
-22.76
-23.43
-22.51
-20.38
-17.26
-13.33
-8.94
-4.61
-1
1.42
2.45
2.18
0.87
-1.21
-3.84
-6.85
-10.08
-13.42
-16.84
-20.42
-24.34
-28.7
-33.39
-37.99
-41.87
-44.36
-44.98
-43.67
-40.79
-37.02
-33.07
-29.44
-26.18
-22.97
-19.26
-14.6
-8.85
-2.26
4.65
11.26
17.1
21.83
25.37
27.76
29.14
29.74
29.81
29.57
29.18
28.68
27.98
26.9
25.29
23.07
20.31
17.23
14.12
11.3
8.97
7.21
5.85
4.63
3.2
1.27
-1.24
-4.08
-6.71
-8.39
-8.41
-6.39
-2.39
3.01
8.95
14.64
19.61
23.76
27.19
29.99
32.13
33.43
33.82
33.43
32.64
31.87
31.31
30.8
29.87
28.02
25
20.94
16.3
11.63
7.32
3.45
-0.14
-3.67
-7.31
-11.1
-15.03
-19.05
-23.1
-27.04
-30.47
-32.79
-33.33
-31.73
-28.07
-22.96
-17.34
-12.11
-7.91
-4.95
-3.14
-2.23
-1.94
-2.06
-2.38
-2.76
-3.09
-3.36
-3.61
-3.92
-4.38
-5
-5.8
-6.77
-7.9
-9.12
-10.29
-11.19
-11.7
-11.77
-11.67
-11.79
-12.54
-14.04
-16.02
-17.78
-18.43
-17.24
-14.01
-9.22
-3.9
0.69
3.55
4.26
3.07
0.67
-2.14
-4.77
-6.92
-8.49
-9.48
-9.83
-9.47
-8.43
-6.94
-5.44
-4.48
-4.46
-5.47
-7.24
-9.27
-11.08
-12.41
-13.33
-14.14
-15.22
-16.8
-18.81
-20.93
-22.64
-23.45
-22.99
-21.18
-18.18
-14.43
-10.47
-6.86
-4.03
-2.2
-1.36
-1.38
-2.08
-3.27
-4.79
-6.46
-8.07
-9.33
-9.92
-9.53
-7.92
-4.97
-0.74
4.5
10.21
15.68
20.13
22.86
23.45
21.88
18.58
14.37
10.24
7.14
5.68
6.02
7.86
10.67
13.95
17.35
20.71
23.94
26.85
29.04
30.13
29.76
27.9
24.78
20.85
16.63
12.58
9.1
6.39
4.56
3.49
3
2.79
2.59
2.23
1.62
0.76
-0.3
-1.51
-2.94
-4.81
-7.49
-11.46
-17
-23.94
-31.41
-37.97
-42.01
-42.34
-38.69
-31.8
-23.08
-14.07
-5.92
0.8
5.96
9.65
11.92
12.8
12.43
11.14
9.41
7.72
6.22
4.69
2.63
-0.49
-4.86
-10.16
-15.64
-20.42
-23.87
-25.86
-26.82
-27.54
-28.8
-31.09
-34.41
-38.32
-42.16
-45.17
-46.7
-46.33
-43.98
-40
-35.24
-30.78
-27.64
-26.28
-26.39
-27.02
-26.97
-25.23
-21.34
-15.26
-7.24
2.37
13.1
24.24
34.78
43.5
49.52
52.56
53.06
51.98
50.31
48.64
47.11
45.49
43.45
40.76
37.33
33.24
28.78
24.49
21.07
19.18
19.12
20.71
23.31
26.06
28.26
29.57
29.95
29.5
28.2
25.89
22.43
17.84
12.53
7.14
2.31
-1.53
-4.34
-6.36
-7.93
-9.32
-10.62
-11.82
-12.81
-13.6
-14.17
-14.58
-14.95
-15.44
-16.26
-17.58
-19.36
-21.28
-22.79
-23.29
-22.31
-19.74
-15.81
-10.98
-5.81
-0.81
3.6
7.09
9.47
10.73
11.13
11.05
10.94
11.11
11.64
12.46
13.37
14.24
15.03
15.81
16.67
17.64
18.76
20.01
21.44
22.98
24.39
25.21
24.77
22.46
18.05
12
5.43
-0.16
-3.45
-3.73
-1.1
3.74
9.84
16.4
22.83
28.66
33.29
35.97
35.98
32.89
26.92
18.9
10
1.31
-6.44
-12.96
-18.31
-22.6
-25.9
-28.23
-29.65
-30.32
-30.54
-30.63
-30.87
-31.45
-32.55
-34.28
-36.74
-39.84
-43.15
-45.94
-47.35
-46.71
-43.85
-39.19
-33.5
-27.57
-21.92
-16.67
-11.84
-7.43
-3.71
-1.06
0.29
0.45
-0.13
-0.72
-0.8
-0.18
0.92
2.01
2.66
2.65
2.08
1.2
0.33
-0.41
-1.09
-1.93
-3.17
-4.93
-7.22
-9.87
-12.71
-15.47
-17.88
-19.57
-20.11
-19.17
-16.61
-12.63
-7.72
-2.51
2.39
6.56
9.83
12.21
13.8
14.67
14.9
14.53
13.66
12.48
11.2
10.04
9.2
8.72
8.55
8.45
8.16
7.42
6.2
4.62
3
1.57
0.43
-0.57
-1.75
-3.47
-5.93
-9.11
-12.72
-16.2
-18.91
-20.27
-19.83
-17.49
-13.49
-8.41
-3.01
2.02
6.22
9.44
11.75
13.3
14.2
14.41
13.88
12.63
10.88
9.05
7.58
6.77
6.68
7.05
7.42
7.36
6.57
4.98
2.74
0.13
-2.6
-5.18
-7.54
-9.68
-11.78
-14.1
-16.89
-20.29
-24.18
-28.22
-31.78
-34.17
-34.73
-33.02
-28.93
-22.74
-15.15
-7.08
0.46
6.57
10.62
12.37
11.9
9.59
6.03
1.93
-2
-5.19
-7.33
-8.5
-9.1
-9.65
-10.6
-12.13
-14.08
-16.1
-17.73
-18.59
-18.49
-17.49
-15.74
-13.38
-10.28
-6
0.2
9.09
21.11
35.97
52.52
68.9
83.04
93.23
98.59
99.19
95.89
90
82.92
75.86
69.66
64.66
60.69
57.27
53.76
49.68
44.79
39.1
32.7
25.63
17.88
9.62
1.36
-6.04
-11.79
-15.6
-17.95
-19.89
-22.38
-25.7
-29.27
-32.02
-33.12
-32.43
-30.48
-27.83
-24.48
-19.78
-12.82
-3.26
8.2
20.04
30.72
39.44
46.43
52.56
58.47
64.02
68.18
69.63
67.41
61.45
52.49
41.66
29.92
17.67
4.76
-9.3
-25.01
-42.52
-61.5
-81.23
-100.71
-118.97
-135.33
-149.54
-161.78
-172.58
-182.64
-192.59
-202.7
-212.65
-221.35
-227.03
-227.76
-222.09
-209.63
-191.37
-169.3
-145.64
-122.01
-98.82
-75.39
-50.58
-23.57
5.5
35.46
64.5
90.83
113.16
130.82
143.69
151.84
155.47
154.91
150.73
143.9
135.72
127.55
120.44
114.96
110.87
107.42
103.48
98.03
90.44
80.8
69.84
58.82
49.07
41.62
36.88
34.67
34.25
34.63
34.89
34.35
32.67
29.89
26.34
22.51
18.9
15.87
13.53
11.74
10.13
8.28
5.81
2.56
-1.36
-5.64
-9.76
-13.18
-15.5
-16.59
-16.64
-16.1
-15.47
-15.15
-15.32
-15.93
-16.89
-17.99
-18.99
-19.61
-19.45
-18.09
-15.23
-10.86
-5.32
0.71
6.49
11.41
15.13
17.55
18.74
18.8
17.85
16.1
13.79
11.29
8.97
7.13
5.88
5.17
4.79
4.5
4.14
3.61
2.94
2.14
1.23
0.14
-1.24
-3.05
-5.4
-8.32
-11.7
-15.3
-18.65
-21.19
-22.31
-21.6
-18.99
-14.83
-9.79
-4.6
0.17
4.23
7.5
9.97
11.52
11.98
11.28
9.63
7.49
5.43
3.9
3.03
2.68
2.55
2.4
2.17
1.89
1.64
1.39
1.03
0.37
-0.7
-2.27
-4.31
-6.74
-9.43
-12.13
-14.5
-16.12
-16.6
-15.67
-13.31
-9.81
-5.59
-1.18
3
6.67
9.7
11.97
13.38
13.78
13.09
11.45
9.18
6.81
4.8
3.41
2.66
2.35
2.26
2.34
2.73
3.59
4.97
6.61
8
8.5
7.57
4.94
0.75
-4.51
-10.11
-15.14
-18.75
-20.27
-19.42
-16.38
-11.73
-6.32
-0.96
3.71
7.44
10.25
12.28
13.64
14.27
14.13
13.21
11.74
10.12
8.82
8.1
7.99
8.22
8.4
8.2
7.49
6.32
4.86
3.25
1.56
-0.21
-2.07
-4.07
-6.22
-8.59
-11.26
-14.19
-17.2
-19.87
-21.58
-21.74
-20
-16.39
-11.37
-5.64
0.09
5.22
9.47
12.74
15.03
16.35
16.69
16.04
14.52
12.44
10.27
8.52
7.57
7.53
8.12
8.88
9.31
9.13
8.39
7.37
6.41
5.61
4.86
3.87
2.37
0.21
-2.58
-5.84
-9.33
-12.69
-15.47
-17.16
-17.29
-15.68
-12.5
-8.29
-3.7
0.69
4.6
7.97
10.87
13.24
14.87
15.46
14.83
13.12
10.77
8.42
6.68
5.89
5.99
6.52
6.9
6.66
5.64
3.99
2.05
0.16
-1.52
-3.02
-4.52
-6.24
-8.31
-10.8
-13.64
-16.63
-19.41
-21.53
-22.46
-21.78
-19.29
-15.12
-9.7
-3.67
2.34
7.75
12.16
15.36
17.22
17.76
17.1
15.47
13.29
11.07
9.3
8.32
8.15
8.53
9.01
9.17
8.77
7.84
6.62
5.39
4.36
3.55
2.76
1.65
-0.12
-2.8
-6.36
-10.46
-14.53
-17.81
-19.64
-19.61
-17.68
-14.18
-9.7
-4.87
-0.25
3.82
7.18
9.83
11.8
13.13
13.77
13.71
13.02
11.89
10.58
9.34
8.26
7.33
6.43
5.47
4.47
3.54
2.75
2.09
1.42
0.54
-0.77
-2.61
-5.02
-7.9
-11.07
-14.23
-16.92
-18.59
-18.75
-17.17
-13.94
-9.52
-4.58
0.24
4.47
7.9
10.51
12.33
13.37
13.63
13.15
12.03
10.55
9.03
7.71
6.71
5.95
5.28
4.6
3.89
3.22
2.68
2.22
1.62
0.63
-1
-3.36
-6.38
-9.83
-13.39
-16.64
-19.1
-20.26
-19.67
-17.17
-12.95
-7.6
-2
3.01
6.89
9.48
10.98
11.74
11.99
11.75
10.98
9.61
7.87
6.09
4.7
3.94
3.73
3.75
3.63
3.16
2.36
1.48
0.71
0.13
-0.37
-1.06
-2.22
-3.97
-6.35
-9.27
-12.48
-15.59
-18.06
-19.26
-18.66
-16.1
-11.83
-6.59
-1.3
3.26
6.67
8.98
10.48
11.5
12.15
12.36
11.96
10.93
9.49
8.05
7.03
6.61
6.69
6.93
6.93
6.46
5.5
4.22
2.82
1.46
0.12
-1.25
-2.72
-4.3
-5.93
-7.62
-9.42
-11.44
-13.7
-16.04
-18.01
-19.02
-18.53
-16.23
-12.26
-7.11
-1.52
3.81
8.32
11.72
13.89
14.8
14.51
13.14
10.97
8.44
6.06
4.3
3.35
3.13
3.3
3.51
3.48
3.16
2.67
2.16
1.72
1.31
0.79
0.04
-1.02
-2.41
-4.13
-6.2
-8.66
-11.43
-14.27
-16.69
-18.05
-17.79
-15.67
-11.88
-7.04
-1.99
2.5
5.95
8.23
9.49
9.97
9.89
9.34
8.38
7.08
5.62
4.26
3.25
2.8
2.89
3.33
3.76
3.8
3.21
1.96
0.25
-1.62
-3.39
-4.98
-6.49
-8.14
-10.16
-12.63
-15.5
-18.52
-21.3
-23.32
-24.1
-23.22
-20.5
-16.11
-10.54
-4.52
1.24
6.16
9.95
12.57
14.13
14.74
14.5
13.49
11.87
9.93
8.07
6.66
5.92
5.85
6.17
6.5
6.47
5.87
4.74
3.28
1.79
0.52
-0.43
-1.21
-2.03
-3.18
-4.83
-7.04
-9.74
-12.79
-16.02
-19.21
-22.01
-23.95
-24.48
-23.11
-19.68
-14.51
-8.38
-2.32
2.76
6.32
8.35
9.22
9.42
9.33
9.13
8.82
8.39
7.84
7.2
6.54
5.92
5.37
4.96
4.8
4.95
5.32
5.68
5.69
5
3.48
1.24
-1.29
-3.49
-4.68
-4.42
-2.64
0.22
3.4
6.05
7.59
7.88
7.2
6.08
4.96
4.1
3.51
3.06
2.64
2.19
1.72
1.19
0.57
-0.2
-1.13
-2.2
-3.33
-4.41
-5.29
-5.81
-5.8
-5.18
-3.99
-2.44
-0.9
0.24
0.74
0.56
-0.14
-1.16
-2.39
-3.81
-5.46
-7.26
-9.04
-10.57
-11.76
-12.81
-14.1
-15.99
-18.44
-20.95
-22.63
-22.58
-20.35
-16.08
-10.49
-4.54
0.88
5.23
8.36
10.37
11.47
11.82
11.49
10.52
8.97
7.02
4.98
3.24
2.15
1.9
2.42
3.37
4.27
4.75
4.62
3.98
3.09
2.22
1.46
0.7
-0.25
-1.59
-3.37
-5.52
-7.96
-10.56
-13.24
-15.79
-17.91
-19.16
-19.06
-17.3
-13.88
-9.19
-3.91
1.21
5.58
8.88
11.12
12.44
13.02
12.92
12.13
10.76
9.03
7.31
6.01
5.38
5.4
5.85
6.43
6.87
7
6.73
6
4.8
3.14
1.16
-0.97
-3.07
-5.03
-6.85
-8.66
-10.65
-12.95
-15.64
-18.59
-21.39
-23.44
-24.04
-22.64
-19.14
-13.95
-7.9
-2
2.93
6.48
8.67
9.79
10.27
10.44
10.48
10.46
10.35
10.08
9.67
9.15
8.62
8.21
8.03
8.1
8.36
8.68
8.88
8.82
8.36
7.44
6.07
4.34
2.33
0.18
-2.01
-4.19
-6.37
-8.6
-10.99
-13.62
-16.42
-19.14
-21.31
-22.35
-21.81
-19.46
-15.5
-10.48
-5.05
0.14
4.69
8.41
11.27
13.29
14.51
14.98
14.81
14.21
13.4
12.62
12.06
11.83
11.93
12.26
12.67
12.98
13.11
13.04
12.85
12.61
12.31
11.83
10.95
9.51
7.46
5
2.41
-0.03
-2.17
-4.04
-5.81
-7.67
-9.78
-12.17
-14.8
-17.52
-20.05
-21.98
-22.8
-22.04
-19.47
-15.26
-9.96
-4.37
0.77
5.04
8.45
11.27
13.81
16.2
18.3
19.84
20.64
20.8
20.72
20.95
21.91
23.71
26.01
28.18
29.54
29.59
28.14
25.39
21.69
17.5
13.2
9.06
5.16
1.54
-1.84
-4.95
-7.71
-10.05
-11.93
-13.39
-14.54
-15.5
-16.34
-17.07
-17.64
-18.09
-18.56
-19.23
-20.23
-21.46
-22.55
-22.97
-22.19
-19.9
-16.12
-11.18
-5.62
-0.04
4.99
9.05
11.88
13.47
14.01
13.85
13.39
13.06
13.17
13.91
15.28
16.97
18.34
18.56
16.9
13.02
7.25
0.43
-6.32
-12.06
-16.29
-18.97
-20.36
-20.76
-20.39
-19.38
-17.93
-16.27
-14.75
-13.69
-13.29
-13.59
-14.53
-15.91
-17.47
-18.92
-19.89
-20
-18.95
-16.59
-12.96
-8.39
-3.39
1.5
5.8
9.28
11.91
13.78
15
15.6
15.52
14.77
13.49
12.01
10.77
10.14
10.24
10.91
11.82
12.59
12.97
12.88
12.34
11.4
10.02
8.19
5.92
3.35
0.71
-1.75
-3.82
-5.46
-6.69
-7.65
-8.5
-9.43
-10.64
-12.31
-14.58
-17.4
-20.54
-23.52
-25.76
-26.65
-25.78
-23.04
-18.75
-13.52
-8.11
-3.18
0.95
4.25
6.9
9.06
10.74
11.85
12.25
11.99
11.33
10.69
10.47
10.82
11.67
12.69
13.49
13.81
13.56
12.86
11.9
10.9
9.97
9.09
8.19
7.14
5.85
4.3
2.53
0.69
-1.1
-2.7
-4.07
-5.24
-6.36
-7.64
-9.32
-11.53
-14.27
-17.35
-20.38
-22.85
-24.23
-24.07
-22.13
-18.48
-13.52
-7.91
-2.44
2.22
5.68
7.95
9.29
10.1
10.65
11.06
11.28
11.2
10.82
10.35
10.04
10.17
10.83
11.88
13.02
13.81
13.94
13.3
12.01
10.43
8.91
7.73
6.9
6.29
5.68
4.91
3.92
2.76
1.41
-0.11
-1.87
-3.88
-6.08
-8.37
-10.65
-12.9
-15.23
-17.78
-20.61
-23.63
-26.51
-28.73
-29.67
-28.81
-25.93
-21.23
-15.31
-9.06
-3.34
1.28
4.67
7.05
8.76
10.05
10.95
11.32
11.04
10.18
9.05
8.11
7.79
8.27
9.44
10.95
12.33
13.27
13.65
13.55
13.09
12.39
11.45
10.17
8.52
6.59
4.59
2.81
1.42
0.39
-0.46
-1.38
-2.57
-4.05
-5.75
-7.52
-9.3
-11.15
-13.23
-15.71
-18.61
-21.64
-24.21
-25.58
-25.07
-22.39
-17.73
-11.81
-5.58
0.05
4.55
7.79
9.96
11.35
12.19
12.52
12.36
11.79
10.96
10.13
9.53
9.19
9.07
9
8.86
8.62
8.31
7.97
7.56
6.97
6.07
4.77
3.03
0.91
-1.42
-3.74
-5.79
-7.36
-8.37
-8.97
-9.47
-10.3
-11.86
-14.38
-17.77
-21.68
-25.51
-28.52
-30.06
-29.68
-27.28
-23.17
-17.93
-12.27
-6.83
-2.01
2.03
5.3
7.83
9.67
10.74
11.08
10.78
10.08
9.3
8.78
8.68
9.02
9.62
10.23
10.64
10.75
10.57
10.24
9.81
9.28
8.5
7.26
5.41
2.96
0.19
-2.53
-4.81
-6.51
-7.75
-8.89
-10.37
-12.53
-15.48
-19.11
-23.08
-26.86
-29.8
-31.22
-30.57
-27.67
-22.84
-16.81
-10.53
-4.88
-0.33
3.05
5.49
7.28
8.63
9.63
10.26
10.59
10.73
10.91
11.27
11.87
12.62
13.31
13.75
13.87
13.68
13.32
12.94
12.63
12.34
11.86
10.93
9.34
7.07
4.28
1.32
-1.5
-3.96
-6.03
-7.81
-9.54
-11.46
-13.77
-16.62
-20.01
-23.67
-27.05
-29.39
-29.98
-28.41
-24.72
-19.47
-13.51
-7.67
-2.51
1.75
5.18
7.96
10.17
11.84
12.92
13.44
13.54
13.46
13.44
13.62
13.99
14.44
14.85
15.12
15.24
15.21
15.01
14.63
14.02
13.16
12.04
10.67
9.04
7.19
5.15
2.99
0.83
-1.24
-3.19
-5.09
-7.1
-9.44
-12.25
-15.57
-19.19
-22.68
-25.42
-26.71
-26.09
-23.44
-19.1
-13.72
-8.09
-2.8
1.83
5.73
8.96
11.58
13.52
14.73
15.21
15.07
14.56
13.95
13.48
13.3
13.44
13.87
14.46
15.07
15.5
15.63
15.36
14.65
13.52
11.98
10.06
7.77
5.17
2.45
-0.11
-2.25
-3.82
-4.89
-5.84
-7.17
-9.37
-12.62
-16.65
-20.75
-23.99
-25.51
-24.79
-21.85
-17.15
-11.46
-5.55
-0.08
4.55
8.18
10.86
12.76
14.11
15.13
15.92
16.55
16.99
17.23
17.31
17.31
17.37
17.55
17.86
18.18
18.36
18.22
17.69
16.77
15.56
14.21
12.79
11.3
9.6
7.52
4.97
2.01
-1.03
-3.78
-5.98
-7.58
-8.81
-10
-11.48
-13.47
-16
-19.01
-22.31
-25.62
-28.49
-30.35
-30.58
-28.8
-24.96
-19.54
-13.32
-7.17
-1.72
2.8
6.51
9.67
12.43
14.77
16.54
17.6
18.07
18.23
18.44
18.92
19.64
20.35
20.79
20.8
20.48
20.09
19.87
19.89
19.99
19.9
19.29
18.02
16.13
13.8
11.34
8.95
6.76
4.74
2.77
0.7
-1.53
-3.92
-6.35
-8.65
-10.64
-12.28
-13.64
-15.01
-16.72
-19.05
-22.09
-25.64
-29.15
-31.86
-32.99
-32
-28.75
-23.58
-17.24
-10.65
-4.61
0.37
4.18
7.01
9.21
11.09
12.82
14.4
15.74
16.71
17.28
17.45
17.34
17.11
16.88
16.78
16.86
17.06
17.31
17.49
17.43
16.95
15.92
14.3
12.16
9.74
7.37
5.36
3.9
2.96
2.31
1.62
0.58
-0.89
-2.69
-4.62
-6.43
-8.1
-9.75
-11.66
-14.05
-16.9
-19.88
-22.4
-23.79
-23.54
-21.45
-17.66
-12.64
-7.03
-1.56
3.16
6.67
8.9
10.14
10.93
11.87
13.36
15.36
17.46
19.07
19.69
19.21
17.96
16.51
15.37
14.76
14.51
14.23
13.44
11.93
9.72
7.08
4.37
1.94
0.05
-1.11
-1.41
-0.82
0.51
2.2
3.63
4.17
3.41
1.27
-1.93
-5.73
-9.74
-13.78
-17.91
-22.18
-26.39
-29.99
-32.22
-32.38
-30.14
-25.71
-19.84
-13.49
-7.6
-2.76
0.81
3.27
4.98
6.32
7.54
8.66
9.53
9.98
9.96
9.62
9.26
9.26
9.81
10.85
12.11
13.15
13.65
13.5
12.83
11.95
11.13
10.49
9.93
9.23
8.16
6.62
4.69
2.51
0.22
-2.04
-4.21
-6.23
-8.07
-9.72
-11.24
-12.74
-14.46
-16.59
-19.23
-22.25
-25.27
-27.64
-28.69
-27.89
-25.09
-20.59
-15.07
-9.37
-4.2
0.01
3.15
5.39
6.97
8.17
9.16
10.09
10.95
11.71
12.3
12.65
12.77
12.74
12.7
12.74
12.89
13.12
13.27
13.26
12.96
12.32
11.27
9.79
7.91
5.72
3.38
1.08
-1.04
-2.92
-4.57
-6.08
-7.51
-8.9
-10.26
-11.65
-13.14
-14.9
-17.09
-19.76
-22.74
-25.55
-27.44
-27.65
-25.66
-21.46
-15.58
-8.95
-2.57
2.81
6.9
9.83
11.95
13.63
15.11
16.49
17.68
18.45
18.37
16.87
13.48
8.07
1.04
-6.65
-13.79
-19.37
-22.79
-24.07
-23.59
-21.8
-19.09
-15.73
-12.01
-8.36
-5.28
-3.21
-2.28
-2.31
-2.89
-3.67
-4.47
-5.37
-6.62
-8.41
-10.74
-13.35
-15.75
-17.33
-17.5
-15.91
-12.49
-7.59
-1.88
3.83
8.75
12.39
14.62
15.63
15.77
15.4
14.77
14
13.19
12.4
11.74
11.3
11.16
11.28
11.57
11.86
11.99
11.79
11.15
10.05
8.51
6.55
4.26
1.73
-0.9
-3.51
-6.02
-8.42
-10.76
-13.12
-15.57
-18.14
-20.83
-23.54
-26.04
-27.91
-28.61
-27.64
-24.73
-20.03
-14.12
-7.85
-2.07
2.68
6.22
8.71
10.43
11.63
12.41
12.76
12.66
12.2
11.54
10.94
10.58
10.54
10.79
11.18
11.57
11.82
11.81
11.43
10.59
9.21
7.26
4.85
2.13
-0.67
-3.34
-5.76
-7.89
-9.82
-11.71
-13.8
-16.33
-19.47
-23.17
-27.09
-30.52
-32.63
-32.7
-30.36
-25.83
-19.77
-13.13
-6.82
-1.48
2.64
5.62
7.72
9.24
10.43
11.45
12.34
13.08
13.64
14.04
14.35
14.62
14.85
14.91
14.63
13.93
12.92
11.87
11.04
10.5
10
9.06
7.24
4.35
0.63
-3.4
-7.16
-10.26
-12.59
-14.32
-15.77
-17.37
-19.49
-22.41
-26.21
-30.66
-35.19
-38.92
-40.87
-40.19
-36.47
-29.82
-20.95
-11.01
-1.33
6.91
13.04
16.94
19
19.87
20.15
20.17
20.04
19.76
19.39
19.17
19.45
20.47
22.29
24.65
27.07
29.06
30.26
30.57
30.12
29.13
27.79
26.18
24.28
22
19.32
16.35
13.32
10.49
8.08
6.17
4.66
3.32
1.89
0.21
-1.78
-4.04
-6.54
-9.25
-12.18
-15.13
-17.73
-19.31
-19.21
-17.01
-12.81
-7.21
-1.13
4.52
9.17
12.69
15.24
17.1
18.36
18.98
18.88
18.05
16.76
15.38
14.3
13.75
13.71
13.99
14.26
14.26
13.83
12.98
11.88
10.69
9.57
8.55
7.54
6.42
5.17
3.89
2.83
2.19
1.96
1.78
1.06
-0.84
-4.3
-9.24
-15.19
-21.41
-27.16
-31.81
-35.01
-36.62
-36.67
-35.3
-32.78
-29.51
-26.01
-22.89
-20.74
-19.93
-20.54
-22.3
-24.7
-27.12
-29.01
-30
-29.95
-28.99
-27.44
-25.73
-24.27
-23.34
-23
-23.15
-23.63
-24.27
-24.96
-25.52
-25.6
-24.83
-22.86
-19.69
-15.71
-11.71
-8.5
-6.64
-6.21
-6.83
-7.87
-8.73
-8.97
-8.33
-6.54
-3.26
1.94
9.42
19.31
31.3
44.69
58.55
71.93
84.12
94.85
104.15
112.33
119.68
126.3
132
136.29
138.54
138.23
135.2
129.83
122.99
115.79
109.2
103.73
99.44
95.92
92.46
88.16
81.87
72.28
58.24
39.25
15.96
-9.67
-34.78
-56.54
-73.04
-83.85
-89.85
-92.64
-93.71
-94.07
-94.15
-94.05
-93.79
-93.34
-92.51
-90.94
-88.13
-83.8
-78
-71.24
-64.33
-58.02
-52.77
-48.64
-45.4
-42.73
-40.32
-38.09
-36.05
-34.31
-32.97
-32
-31.28
-30.58
-29.7
-28.52
-27.08
-25.55
-24.15
-23
-22.09
-21.27
-20.34
-19.18
-17.76
-16.18
-14.57
-13.09
-11.91
-11.18
-11.01
-11.34
-11.84
-11.97
-11.12
-8.84
-5.07
-0.14
5.3
10.57
15.08
18.51
20.75
21.88
22.07
21.53
20.49
19.16
17.73
16.32
15.02
13.91
13.08
12.54
12.19
11.84
11.3
10.45
9.39
8.33
7.49
6.94
6.47
5.67
4.09
1.45
-2.26
-6.77
-11.6
-16.16
-19.86
-22.18
-22.78
-21.58
-18.82
-14.99
-10.78
-6.82
-3.58
-1.23
0.3
1.19
1.57
1.45
0.78
-0.48
-2.2
-4.12
-5.89
-7.18
-7.81
-7.84
-7.47
-6.93
-6.4
-5.97
-5.75
-5.92
-6.72
-8.35
-10.82
-13.84
-16.92
-19.56
-21.48
-22.71
-23.5
-24.07
-24.41
-24.26
-23.26
-21.2
-18.2
-14.7
-11.24
-8.3
-6.14
-4.79
-4.1
-3.94
-4.24
-5.03
-6.38
-8.33
-10.81
-13.53
-16.12
-18.24
-19.67
-20.52
-21.06
-21.69
-22.71
-24.28
-26.34
-28.77
-31.46
-34.29
-37.15
-39.78
-41.65
-42.02
-40.08
-35.24
-27.3
-16.63
-4.05
9.33
22.35
34.07
43.82
51.24
56.23
58.91
59.6
58.76
56.86
54.29
51.3
47.89
44.02
39.63
34.84
29.94
25.34
21.41
18.33
15.99
14.07
12.16
9.98
7.46
4.76
2.18
0.07
-1.22
-1.38
-0.08
3
8.02
14.85
22.99
31.64
39.95
47.18
52.93
57.07
59.65
60.7
60.16
57.99
54.24
49.16
43.18
36.79
30.4
24.23
18.35
12.75
7.43
2.41
-2.32
-6.85
-11.35
-16.04
-21.11
-26.62
-32.44
-38.29
-43.71
-48.22
-51.33
-52.73
-52.35
-50.37
-47.19
-43.26
-39
-34.66
-30.35
-26.13
-22.03
-18.15
-14.55
-11.23
-8.08
-4.92
-1.62
1.84
5.37
8.78
11.88
14.6
16.91
18.82
20.28
21.17
21.38
20.88
19.8
18.53
17.54
17.37
18.41
20.86
24.59
29.14
33.81
37.77
40.32
41.01
39.77
36.82
32.59
27.55
22.13
16.71
11.6
7.06
3.24
0.18
-2.2
-4
-5.35
-6.27
-6.77
-6.89
-6.71
-6.41
-6.14
-6.05
-6.26
-6.75
-7.41
-7.92
-7.85
-6.78
-4.48
-1.03
3.14
7.46
11.39
14.58
16.95
18.52
19.36
19.5
18.99
17.98
16.69
15.38
14.26
13.39
12.71
12.11
11.5
10.86
10.1
9.18
7.96
6.33
4.19
1.48
-1.79
-5.49
-9.31
-12.77
-15.23
-16.12
-15.13
-12.3
-8.13
-3.34
1.33
5.3
8.28
10.25
11.29
11.5
10.99
9.83
8.14
6.16
4.17
2.5
1.35
0.7
0.39
0.16
-0.18
-0.72
-1.43
-2.34
-3.51
-5.11
-7.22
-9.78
-12.43
-14.62
-15.75
-15.38
-13.41
-10.1
-5.96
-1.65
2.23
5.28
7.27
8.22
8.25
7.54
6.32
4.83
3.3
1.89
0.66
-0.5
-1.69
-3
-4.36
-5.62
-6.63
-7.37
-7.97
-8.67
-9.72
-11.23
-13.12
-15.11
-16.85
-17.92
-17.93
-16.66
-14.1
-10.56
-6.5
-2.47
1.11
4.03
6.29
7.95
9.11
9.79
9.97
9.68
9.02
8.15
7.3
6.61
6.19
6.04
6.11
6.31
6.54
6.64
6.48
5.87
4.65
2.7
0.05
-3.07
-6.21
-8.73
-10.04
-9.8
-8.02
-5.14
-1.77
1.44
4.04
5.83
6.87
7.31
7.28
6.86
6.09
4.96
3.54
1.88
0.11
-1.63
-3.13
-4.26
-4.96
-5.33
-5.63
-6.16
-7.15
-8.65
-10.53
-12.52
-14.39
-16.03
-17.4
-18.43
-18.94
-18.64
-17.27
-14.74
-11.28
-7.42
-3.83
-1.06
0.61
1.23
1.12
0.68
0.24
-0.05
-0.18
-0.22
-0.29
-0.41
-0.58
-0.73
-0.75
-0.61
-0.26
0.25
0.88
1.53
2.11
2.41
2.23
1.34
-0.37
-2.72
-5.23
-7.25
-8.12
-7.45
-5.34
-2.32
0.89
3.6
5.42
6.32
6.49
6.16
5.45
4.35
2.84
1.02
-0.79
-2.15
-2.66
-2.21
-1.04
0.35
1.41
1.8
1.47
0.64
-0.42
-1.55
-2.77
-4.22
-5.94
-7.84
-9.56
-10.65
-10.72
-9.67
-7.65
-5.08
-2.42
-0.03
1.86
3.26
4.27
5.05
5.66
6.09
6.18
5.85
5
3.74
2.36
1.21
0.56
0.4
0.48
0.38
-0.22
-1.39
-2.87
-4.31
-5.46
-6.35
-7.24
-8.49
-10.29
-12.6
-15.11
-17.31
-18.68
-18.8
-17.46
-14.68
-10.79
-6.31
-1.87
2
5.01
7.13
8.55
9.54
10.26
10.75
10.95
10.79
10.26
9.45
8.55
7.71
7.04
6.56
6.27
6.13
6.07
5.99
5.74
5.2
4.24
2.83
1.03
-1.05
-3.23
-5.37
-7.32
-9
-10.39
-11.57
-12.71
-14.02
-15.65
-17.54
-19.38
-20.64
-20.71
-19.21
-16.08
-11.7
-6.71
-1.83
2.37
5.62
7.87
9.24
9.9
10.01
9.76
9.35
8.98
8.83
8.97
9.32
9.73
10
9.98
9.64
9.04
8.36
7.78
7.42
7.23
7.07
6.66
5.74
4.2
2.09
-0.36
-2.83
-5.05
-6.87
-8.28
-9.42
-10.47
-11.56
-12.82
-14.29
-15.95
-17.69
-19.27
-20.31
-20.36
-19.04
-16.21
-12.12
-7.36
-2.65
1.42
4.52
6.7
8.19
9.21
9.84
10.02
9.65
8.82
7.82
7.03
6.76
7.09
7.84
8.66
9.26
9.55
9.59
9.55
9.5
9.35
8.88
7.82
6.02
3.53
0.64
-2.26
-4.77
-6.63
-7.84
-8.66
-9.53
-10.85
-12.84
-15.42
-18.23
-20.78
-22.6
-23.4
-23.11
-21.88
-19.95
-17.65
-15.24
-12.91
-10.76
-8.88
-7.4
-6.59
-6.81
-8.33
-11.23
-15.25
-19.84
-24.4
-28.53
-32.17
-35.59
-39.22
-43.34
-47.95
-52.85
-57.64
-61.79
-64.5
-64.7
-61.3
-53.73
-42.49
-29.29
-16.56
-6.52
-0.21
2.73
3.5
3.23
2.16
-0.36
-5.12
-12.02
-19.55
-25.1
-26.01
-20.73
-9.38
6.48
24.73
43.43
61.24
77.33
90.98
101.24
107.02
107.42
102.18
92.01
78.44
63.5
49.08
36.52
26.34
18.36
11.91
6.25
0.9
-4.23
-8.86
-12.56
-15.04
-16.32
-16.66
-16.4
-15.74
-14.66
-12.99
-10.59
-7.48
-3.99
-0.48
2.8
5.85
8.88
12.16
15.79
19.56
23.11
26.06
28.2
29.56
30.23
30.28
29.68
28.32
26.16
23.36
20.23
17.18
14.59
12.65
11.35
10.47
9.67
8.61
7.08
5.08
2.83
0.75
-0.69
-1.14
-0.57
0.74
2.24
3.33
3.57
2.84
1.4
-0.22
-1.4
-1.67
-0.85
0.86
2.98
4.82
5.71
5.21
3.25
0.23
-3.21
-6.39
-8.86
-10.62
-11.98
-13.34
-14.9
-16.54
-17.91
-18.67
-18.64
-17.86
-16.49
-14.62
-12.31
-9.56
-6.48
-3.26
-0.11
2.85
5.6
8.12
10.32
11.92
12.58
12.01
10.27
7.78
5.23
3.4
2.85
3.76
5.95
8.94
12.13
14.87
16.63
17.01
15.87
13.35
9.9
6.15
2.81
0.44
-0.69
-0.59
0.48
2.16
4.06
5.85
7.24
8.02
8.1
7.51
6.37
4.85
3.11
1.18
-0.94
-3.3
-5.9
-8.68
-11.5
-14.24
-16.75
-18.96
-20.78
-22.07
-22.55
-21.9
-19.85
-16.41
-11.9
-6.9
-2.02
2.33
6.08
9.38
12.39
15.08
17.24
18.64
19.27
19.42
19.51
19.84
20.37
20.75
20.56
19.54
17.72
15.31
12.48
9.3
5.73
1.77
-2.43
-6.6
-10.49
-13.99
-17.07
-19.68
-21.48
-21.9
-20.27
-16.29
-10.3
-3.39
2.91
7.22
8.73
7.66
5.02
2.16
0.2
-0.39
0.13
1.08
1.8
2.04
1.98
2.07
2.61
3.57
4.48
4.75
3.86
1.71
-1.41
-4.93
-8.3
-11.25
-13.83
-16.38
-19.3
-22.82
-26.9
-31.11
-34.77
-37.11
-37.5
-35.64
-31.69
-26.22
-20.05
-13.99
-8.68
-4.41
-1.25
0.9
2.07
2.22
1.32
-0.49
-2.83
-5.16
-6.94
-7.92
-8.2
-8.15
-8.14
-8.4
-8.83
-9.19
-9.26
-8.98
-8.59
-8.43
-8.87
-10.11
-12.1
-14.5
-16.74
-18.12
-18.02
-16.17
-12.69
-8.14
-3.28
1.23
4.99
7.9
10.03
11.42
11.98
11.6
10.24
8.04
5.33
2.55
0.18
-1.35
-1.73
-0.82
1.28
4.17
7.19
9.59
10.73
10.33
8.52
5.74
2.5
-0.81
-4.05
-7.18
-10.09
-12.43
-13.66
-13.26
-11.03
-7.26
-2.68
1.83
5.62
8.47
10.58
12.39
14.28
16.35
18.48
20.38
21.85
22.86
23.57
24.21
24.96
25.82
26.59
26.97
26.65
25.47
23.45
20.71
17.41
13.63
9.32
4.46
-0.9
-6.45
-11.67
-15.91
-18.63
-19.5
-18.56
-16.16
-12.82
-9.13
-5.66
-2.85
-1
-0.24
-0.52
-1.56
-2.93
-4.15
-4.83
-4.78
-4.07
-3.02
-2.01
-1.44
-1.51
-2.32
-3.72
-5.46
-7.18
-8.57
-9.5
-10.09
-10.69
-11.73
-13.54
-16.14
-19.12
-21.84
-23.55
-23.7
-22.07
-18.84
-14.45
-9.47
-4.36
0.58
5.22
9.45
13.11
15.85
17.21
16.77
14.44
10.56
5.91
1.52
-1.69
-3.21
-3.07
-1.8
-0.16
1.22
2
2.21
2.08
1.81
1.41
0.68
-0.68
-2.87
-5.92
-9.71
-13.98
-18.42
-22.57
-25.9
-27.74
-27.49
-24.81
-19.77
-12.92
-5.12
2.74
9.95
16.15
21.21
25.13
27.85
29.28
29.34
28.09
25.87
23.17
20.53
18.32
16.61
15.22
13.84
12.3
10.57
8.86
7.35
6.19
5.3
4.46
3.41
1.91
-0.05
-2.42
-4.94
-7.41
-9.7
-11.93
-14.42
-17.54
-21.55
-26.35
-31.39
-35.83
-38.76
-39.52
-37.96
-34.45
-29.76
-24.77
-20.23
-16.56
-13.76
-11.58
-9.68
-7.81
-5.97
-4.26
-2.85
-1.75
-0.9
-0.19
0.5
1.34
2.68
5.11
9.24
15.41
23.43
32.52
41.56
49.5
55.67
59.77
61.7
61.38
58.66
53.65
46.84
39.17
31.76
25.48
20.57
16.65
12.96
8.78
3.81
-1.69
-7.01
-11.2
-13.52
-13.68
-11.91
-8.87
-5.4
-2.19
0.4
2.35
3.79
4.88
5.61
5.8
5.29
4.04
2.29
0.5
-0.8
-1.24
-0.73
0.39
1.65
2.54
2.79
2.45
1.75
0.96
0.28
-0.3
-0.88
-1.57
-2.51
-3.79
-5.5
-7.71
-10.44
-13.59
-16.88
-19.9
-22.08
-22.89
-21.92
-19.07
-14.62
-9.21
-3.68
1.18
4.85
7.21
8.45
8.96
9.07
8.98
8.69
8.17
7.37
6.38
5.37
4.54
3.95
3.51
3.01
2.25
1.13
-0.22
-1.58
-2.7
-3.52
-4.14
-4.8
-5.76
-7.17
-9.07
-11.4
-14.09
-17.03
-20.04
-22.78
-24.74
-25.34
-24.11
-20.94
-16.2
-10.61
-5.06
-0.27
3.43
6.1
8.01
9.46
10.56
11.29
11.5
11.14
10.32
9.28
8.31
7.69
7.53
7.78
8.19
8.41
8.15
7.26
5.84
4.2
2.65
1.37
0.28
-0.85
-2.33
-4.38
-7.04
-10.18
-13.5
-16.58
-18.94
-20.09
-19.65
-17.47
-13.73
-8.86
-3.48
1.82
6.61
10.68
14
16.68
18.86
20.61
21.92
22.74
23.09
23.13
23.25
23.86
25.23
27.32
29.67
31.53
32.12
31.04
28.35
24.64
20.7
17.3
14.86
13.43
12.79
12.57
12.45
12.16
11.62
10.85
10.09
9.68
9.99
11.21
13.2
15.48
17.46
18.73
19.39
20.01
21.44
24.36
28.95
34.58
40.06
43.88
44.78
42.24
36.65
29.14
21.02
13.24
6.01
-1.01
-8.26
-15.69
-22.59
-27.85
-30.72
-31.26
-30.51
-29.91
-30.66
-33.21
-37.21
-41.93
-46.74
-51.28
-55.45
-59.12
-61.93
-63.37
-63
-60.69
-56.6
-51.22
-45.15
-38.97
-33.3
-28.61
-25.28
-23.39
-22.75
-22.93
-23.42
-23.79
-23.82
-23.45
-22.7
-21.61
-20.31
-19.03
-18.14
-18.04
-18.94
-20.77
-23.1
-25.27
-26.74
-27.29
-27.15
-26.81
-26.86
-27.56
-28.81
-30.16
-30.96
-30.62
-28.7
-25.02
-19.66
-13
-5.6
1.88
8.85
14.91
19.92
23.91
26.95
29.06
30.18
30.27
29.48
28.14
26.7
25.57
24.93
24.77
24.85
24.92
24.74
24.14
23.07
21.52
19.53
17.16
14.43
11.35
7.94
4.21
0.21
-3.98
-8.23
-12.24
-15.61
-17.83
-18.45
-17.24
-14.38
-10.41
-6.08
-2.07
1.22
3.76
5.68
7.14
8.11
8.46
8.04
6.91
5.38
3.93
3.05
3
3.71
4.81
5.72
5.99
5.34
3.88
1.97
0.04
-1.57
-2.82
-3.92
-5.24
-7.1
-9.57
-12.52
-15.65
-18.66
-21.26
-23.21
-24.24
-24.08
-22.54
-19.58
-15.43
-10.57
-5.63
-1.16
2.52
5.38
7.59
9.34
10.73
11.69
12.11
11.92
11.19
10.11
8.9
7.73
6.69
5.8
5.06
4.55
4.29
4.24
4.24
4.01
3.3
1.96
0.05
-2.28
-4.81
-7.36
-9.86
-12.42
-15.2
-18.3
-21.68
-25.01
-27.72
-29.13
-28.69
-26.19
-21.88
-16.35
-10.31
-4.4
1.03
5.9
10.24
14.09
17.42
20.11
22.04
23.13
23.45
23.13
22.41
21.53
20.71
20.06
19.63
19.32
19.03
18.64
18.12
17.47
16.69
15.7
14.36
12.47
9.91
6.73
3.18
-0.32
-3.33
-5.55
-6.94
-7.79
-8.58
-9.88
-12
-14.91
-18.09
-20.73
-21.96
-21.19
-18.3
-13.69
-8.1
-2.33
2.99
7.56
11.35
14.52
17.2
19.41
21.04
21.9
21.89
21.14
19.95
18.7
17.69
17.03
16.59
16.13
15.46
14.51
13.35
12.09
10.87
9.72
8.61
7.42
6.05
4.45
2.69
0.9
-0.76
-2.21
-3.51
-4.87
-6.55
-8.72
-11.38
-14.25
-16.86
-18.64
-19.08
-17.92
-15.23
-11.43
-7.17
-3.11
0.26
2.8
4.61
5.98
7.1
7.98
8.53
8.58
8.1
7.24
6.25
5.42
4.95
4.89
5.2
5.74
6.35
6.84
7.07
6.89
6.24
5.16
3.76
2.19
0.59
-1.06
-2.86
-5
-7.64
-10.85
-14.55
-18.57
-22.65
-26.46
-29.57
-31.54
-31.88
-30.32
-26.89
-22.08
-16.62
-11.36
-6.91
-3.55
-1.25
0.1
0.44
-0.54
-3.24
-7.84
-13.94
-20.53
-26.23
-29.81
-30.74
-29.4
-26.79
-24.1
-21.99
-20.47
-18.91
-16.66
-13.38
-9.28
-5.02
-1.21
1.81
4.1
5.91
7.49
8.79
9.53
9.35
8.01
5.5
2.08
-1.88
-5.97
-9.73
-12.69
-14.37
-14.42
-12.74
-9.58
-5.48
-1.16
2.72
5.76
7.8
8.91
9.35
9.55
10.14
11.77
14.87
19.4
24.8
30.09
34.3
36.79
37.5
36.78
35.14
33.02
30.69
28.36
26.31
24.85
24.25
24.57
25.51
26.6
27.28
27.19
26.25
24.61
22.56
20.26
17.73
14.76
11.13
6.82
2.14
-2.29
-5.71
-7.5
-7.43
-5.76
-3.18
-0.55
1.4
2.25
2
0.94
-0.46
-1.78
-2.72
-3.21
-3.3
-3.13
-2.8
-2.36
-1.77
-0.97
0.04
1.22
2.45
3.58
4.43
4.85
4.78
4.21
3.23
1.9
0.34
-1.35
-3.07
-4.74
-6.31
-7.75
-9.13
-10.63
-12.41
-14.55
-16.88
-18.98
-20.25
-20.11
-18.25
-14.75
-10.13
-5.1
-0.34
3.81
7.31
10.38
13.22
15.78
17.75
18.7
18.35
16.74
14.33
11.77
9.71
8.48
7.97
7.7
7.08
5.65
3.32
0.38
-2.6
-5.03
-6.53
-7.1
-6.99
-6.65
-6.48
-6.7
-7.38
-8.47
-9.88
-11.5
-13.14
-14.51
-15.21
-14.8
-13.05
-9.99
-5.96
-1.53
2.72
6.34
9.08
10.85
11.63
11.47
10.41
8.59
6.27
3.81
1.58
-0.11
-1.13
-1.55
-1.58
-1.53
-1.68
-2.23
-3.19
-4.42
-5.63
-6.45
-6.63
-6.05
-4.88
-3.5
-2.47
-2.35
-3.42
-5.62
-8.43
-11.11
-12.83
-13.07
-11.65
-8.85
-5.26
-1.51
1.85
4.56
6.58
8.03
9.09
9.87
10.37
10.53
10.21
9.34
8.01
6.47
5.09
4.21
3.97
4.24
4.62
4.67
4.05
2.72
0.93
-0.98
-2.69
-4.17
-5.6
-7.3
-9.55
-12.42
-15.69
-18.94
-21.63
-23.28
-23.58
-22.46
-20.04
-16.59
-12.43
-7.94
-3.47
0.66
4.2
7.07
9.3
10.98
12.14
12.76
12.77
12.17
11.12
9.96
9.06
8.7
8.88
9.38
9.82
9.85
9.28
8.12
6.56
4.8
3.04
1.36
-0.24
-1.82
-3.4
-5
-6.58
-8.1
-9.55
-10.94
-12.24
-13.3
-13.8
-13.34
-11.61
-8.64
-4.82
-0.84
2.6
5.01
6.36
6.94
7.2
7.47
7.87
8.32
8.73
9.1
9.52
10.07
10.68
11.14
11.09
10.25
8.52
6.05
3.17
0.29
-2.3
-4.47
-6.25
-7.75
-9.05
-10.14
-11.02
-11.71
-12.35
-13.21
-14.51
-16.29
-18.27
-19.89
-20.51
-19.59
-16.99
-13.01
-8.28
-3.55
0.54
3.6
5.59
6.7
7.22
7.44
7.5
7.5
7.41
7.23
6.99
6.77
6.64
6.6
6.57
6.42
6.06
5.49
4.84
4.26
3.81
3.42
2.94
2.15
0.96
-0.64
-2.57
-4.78
-7.29
-10.15
-13.36
-16.66
-19.63
-21.66
-22.2
-20.97
-18.08
-14.03
-9.54
-5.32
-1.83
0.8
2.75
4.39
6.05
7.92
10.04
12.25
14.37
16.24
17.79
18.98
19.84
20.39
20.66
20.67
20.42
19.9
19.09
17.99
16.55
14.7
12.37
9.52
6.2
2.54
-1.23
-4.89
-8.36
-11.68
-15.1
-18.87
-23.17
-27.92
-32.77
-37.16
-40.48
-42.28
-42.47
-41.26
-39.03
-36.18
-32.88
-29.06
-24.52
-19.05
-12.61
-5.26
2.92
11.8
21.27
30.92
40.02
47.61
52.83
55.28
55.21
53.41
50.78
47.99
45.36
42.9
40.53
38.31
36.38
34.89
33.91
33.41
33.31
33.57
34.09
34.65
34.81
34.01
31.7
27.64
21.98
15.25
8.21
1.57
-4.12
-8.6
-11.85
-14.05
-15.4
-16.09
-16.3
-16.19
-15.97
-15.83
-15.9
-16.17
-16.49
-16.58
-16.23
-15.39
-14.17
-12.76
-11.33
-9.98
-8.72
-7.62
-6.77
-6.36
-6.53
-7.27
-8.44
-9.77
-11.04
-12.13
-13.12
-14.21
-15.65
-17.62
-20.21
-23.37
-26.87
-30.29
-33.02
-34.37
-33.78
-30.98
-26.2
-20.17
-13.88
-8.3
-4.1
-1.38
0.23
1.41
2.8
4.8
7.44
10.45
13.46
16.1
18.18
19.66
20.64
21.29
21.82
22.36
22.97
23.59
24.06
24.18
23.74
22.6
20.73
18.16
15.01
11.47
7.87
4.65
2.38
1.58
2.62
5.58
10.21
16.04
22.52
29.16
35.55
41.37
46.35
50.23
52.84
54.17
54.39
53.83
52.83
51.66
50.39
49.02
47.47
45.7
43.74
41.62
39.4
37.1
34.77
32.45
30.16
27.8
25.13
21.82
17.52
12.01
5.33
-2.15
-9.85
-17
-22.83
-26.73
-28.4
-27.98
-26
-23.28
-20.64
-18.71
-17.74
-17.61
-18.04
-18.78
-19.75
-21.07
-22.85
-25.06
-27.45
-29.62
-31.19
-32.06
-32.41
-32.58
-32.88
-33.45
-34.18
-34.91
-35.59
-36.37
-37.49
-39.2
-41.51
-44.23
-47.01
-49.43
-51.08
-51.61
-50.73
-48.33
-44.55
-39.78
-34.65
-29.68
-25.22
-21.32
-17.8
-14.56
-11.62
-9.17
-7.39
-6.23
-5.43
-4.57
-3.3
-1.57
0.38
2.09
3.15
3.36
2.83
1.89
0.9
0.08
-0.56
-1.22
-2.17
-3.62
-5.63
-8.11
-10.8
-13.3
-15.15
-15.86
-15.11
-12.83
-9.31
-5.08
-0.74
3.21
6.48
8.99
10.68
11.48
11.29
10.12
8.22
6.07
4.22
3.1
2.82
3.15
3.68
4
3.86
3.26
2.39
1.44
0.52
-0.36
-1.35
-2.59
-4.22
-6.33
-8.97
-12.08
-15.49
-18.83
-21.58
-23.13
-23.02
-21.19
-18.09
-14.61
-11.84
-10.64
-11.39
-13.98
-17.9
-22.61
-27.69
-32.86
-37.93
-42.66
-46.78
-50.09
-52.63
-54.55
-56.03
-57
-57.1
-55.81
-52.77
-48
-41.95
-35.32
-28.75
-22.71
-17.5
-13.33
-10.37
-8.51
-7.26
-5.77
-3.12
1.29
7.4
14.59
22.02
29.08
35.54
41.51
47.06
51.93
55.6
57.53
57.54
56.03
53.91
52.17
51.52
52.07
53.34
54.5
54.74
53.54
50.85
46.97
42.36
37.43
32.41
27.44
22.63
18.11
14.06
10.57
7.54
4.74
1.88
-1.15
-4.18
-6.77
-8.37
-8.56
-7.28
-4.83
-1.77
1.31
4.01
6.24
8.16
10.01
11.92
13.81
15.39
16.3
16.24
15.11
13.06
10.39
7.43
4.43
1.48
-1.37
-4.08
-6.54
-8.6
-10.2
-11.46
-12.71
-14.33
-16.63
-19.61
-23
-26.32
-29.05
-30.75
-31.16
-30.18
-27.81
-24.23
-19.77
-14.97
-10.44
-6.68
-4
-2.39
-1.64
-1.46
-1.68
-2.29
-3.37
-4.98
-7.02
-9.2
-11.1
-12.35
-12.78
-12.48
-11.75
-10.92
-10.17
-9.43
-8.52
-7.2
-5.44
-3.48
-1.71
-0.47
0.16
0.35
0.48
0.88
1.78
3.33
5.59
8.56
11.95
15.03
16.7
15.91
12.27
6.36
-0.38
-6.18
-9.87
-11.28
-11.26
-11.03
-11.46
-12.59
-13.83
-14.39
-13.75
-11.88
-9.09
-5.76
-2.14
1.59
5.21
8.48
11.19
13.33
15.1
16.9
19.01
21.46
23.97
26.07
27.37
27.77
27.6
27.61
28.77
31.99
37.74
45.81
55.19
64.37
71.79
76.33
77.7
76.32
72.91
68.14
62.36
55.76
48.62
41.52
35.32
30.79
28.3
27.62
28.02
28.6
28.66
27.9
26.44
24.58
22.63
20.75
18.96
17.17
15.29
13.2
10.76
7.82
4.13
-0.48
-6.07
-12.42
-18.96
-24.86
-29.21
-31.39
-31.33
-29.63
-27.36
-25.72
-25.54
-27.11
-30.09
-33.83
-37.66
-41.26
-44.66
-48.19
-52.2
-56.82
-61.87
-66.89
-71.29
-74.6
-76.58
-77.28
-76.96
-75.9
-74.25
-71.91
-68.57
-63.88
-57.64
-49.84
-40.73
-30.62
-19.8
-8.49
3.14
14.84
26.3
37.19
47.35
56.82
65.83
74.57
83.04
90.95
97.84
103.34
107.38
110.15
112.11
113.72
115.25
116.72
117.93
118.53
118.1
116.14
112.16
105.68
96.3
83.89
68.66
51.3
32.95
15.07
-0.89
-13.97
-24
-31.64
-38.11
-44.65
-52.07
-60.53
-69.65
-78.78
-87.23
-94.39
-99.68
-102.56
-102.68
-100.04
-95.12
-88.8
-82.07
-75.77
-70.35
-65.89
-62.23
-59.07
-56.04
-52.8
-49.1
-44.86
-40.34
-36.01
-32.32
-29.55
-27.57
-26.06
-24.6
-22.94
-21.1
-19.34
-17.99
-17.38
-17.71
-19.09
-21.56
-25.14
-29.71
-34.98
-40.39
-45.22
-48.76
-50.44
-49.99
-47.41
-42.87
-36.64
-29.06
-20.54
-11.65
-3.06
4.51
10.55
14.82
17.51
19.02
19.82
20.27
20.51
20.53
20.22
19.53
18.46
17.07
15.3
13.08
10.34
7.1
3.59
0.1
-3.03
-5.59
-7.56
-9.03
-10.17
-11.15
-12.18
-13.47
-15.27
-17.71
-20.68
-23.75
-26.19
-27.21
-26.25
-23.16
-18.36
-12.68
-7.09
-2.45
0.82
2.77
3.82
4.55
5.38
6.38
7.31
7.81
7.61
6.71
5.43
4.14
3.23
2.91
3.22
4.13
5.57
7.44
9.53
11.52
13
13.59
13.11
11.68
9.65
7.49
5.58
4.04
2.64
0.95
-1.4
-4.53
-8.08
-11.35
-13.44
-13.66
-11.78
-8.08
-3.28
1.83
6.57
10.63
13.94
16.61
18.74
20.34
21.38
21.86
21.84
21.53
21.15
20.87
20.75
20.71
20.65
20.49
20.18
19.75
19.2
18.47
17.47
16.08
14.25
11.96
9.26
6.25
3.07
-0.12
-3.13
-5.83
-8.2
-10.4
-12.65
-15.12
-17.77
-20.26
-22.03
-22.47
-21.18
-18.1
-13.59
-8.32
-3.01
1.72
5.56
8.52
10.81
12.69
14.26
15.47
16.16
16.22
15.73
14.9
14.07
13.49
13.25
13.28
13.41
13.47
13.27
12.67
11.57
9.92
7.79
5.39
3.07
1.13
-0.3
-1.33
-2.37
-3.89
-6.21
-9.36
-12.91
-16.18
-18.39
-18.98
-17.73
-14.85
-10.8
-6.12
-1.32
3.25
7.35
10.76
13.38
15.18
16.24
16.67
16.63
16.14
15.24
13.93
12.38
10.9
9.9
9.67
10.26
11.37
12.48
12.98
12.5
10.98
8.66
6
3.44
1.25
-0.56
-2.18
-3.93
-6.09
-8.86
-12.29
-16.19
-20.18
-23.68
-25.99
-26.5
-24.83
-21.05
-15.63
-9.36
-3.09
2.49
7
10.35
12.66
14.12
14.91
15.17
15.06
14.8
14.54
14.43
14.52
14.79
15.12
15.41
15.57
15.49
15.09
14.31
13.13
11.57
9.7
7.58
5.29
2.87
0.41
-2.02
-4.36
-6.66
-9.05
-11.72
-14.75
-18.04
-21.2
-23.62
-24.72
-24.04
-21.43
-17.11
-11.55
-5.41
0.61
5.95
10.28
13.56
15.97
17.74
19.05
19.92
20.28
20.06
19.33
18.36
17.52
17.09
17.15
17.55
17.97
18.1
17.75
16.8
15.25
13.19
10.71
7.98
5.24
2.69
0.49
-1.33
-2.91
-4.48
-6.31
-8.62
-11.53
-14.97
-18.65
-22.06
-24.5
-25.34
-24.16
-20.93
-16.07
-10.26
-4.32
1.09
5.52
8.85
11.13
12.52
13.2
13.29
12.86
12.06
11.03
10.06
9.37
9.09
9.23
9.62
10.05
10.35
10.43
10.28
9.87
9.17
8.14
6.72
4.99
3.04
1.01
-1.05
-3.18
-5.47
-8
-10.78
-13.72
-16.6
-19.09
-20.76
-21.18
-19.99
-17.13
-12.85
-7.71
-2.42
2.35
6.21
9.06
11.02
12.29
12.98
13.15
12.83
12.1
11.17
10.29
9.68
9.46
9.59
9.87
10.05
9.93
9.37
8.37
6.99
5.31
3.42
1.36
-0.77
-2.9
-4.94
-6.85
-8.71
-10.68
-13.02
-15.89
-19.22
-22.67
-25.63
-27.33
-27.14
-24.72
-20.2
-14.17
-7.51
-1.16
4.13
8.01
10.46
11.75
12.23
12.23
12
11.67
11.34
11.03
10.75
10.46
10.16
9.85
9.58
9.45
9.5
9.65
9.72
9.44
8.57
7.03
4.92
2.51
0.12
-2.03
-3.92
-5.66
-7.5
-9.68
-12.34
-15.47
-18.86
-22.11
-24.63
-25.85
-25.31
-22.91
-18.88
-13.82
-8.44
-3.41
0.84
4.2
6.73
8.61
10.02
11.05
11.73
12.09
12.14
11.95
11.66
11.41
11.36
11.55
11.94
12.33
12.5
12.21
11.36
10.01
8.37
6.72
5.27
4.04
2.91
1.66
0.1
-1.82
-4.09
-6.64
-9.52
-12.73
-16.2
-19.59
-22.25
-23.43
-22.59
-19.59
-14.91
-9.37
-3.92
0.71
4.21
6.59
8.09
9.01
9.57
9.89
10.06
10.08
9.96
9.72
9.44
9.25
9.29
9.64
10.18
10.67
10.79
10.32
9.2
7.57
5.66
3.67
1.73
-0.17
-2.04
-3.91
-5.77
-7.69
-9.75
-12.06
-14.59
-17.11
-19.12
-20
-19.2
-16.49
-12.16
-6.88
-1.58
2.97
6.33
8.53
9.81
10.53
10.86
10.8
10.2
9
7.37
5.67
4.36
3.8
4.04
4.77
5.47
5.65
5.02
3.66
1.94
0.24
-1.21
-2.46
-3.75
-5.3
-7.19
-9.3
-11.48
-13.65
-15.85
-18.16
-20.45
-22.32
-23.12
-22.27
-19.58
-15.33
-10.27
-5.22
-0.8
2.75
5.57
7.87
9.79
11.2
11.87
11.65
10.67
9.34
8.22
7.72
7.98
8.83
9.91
10.86
11.43
11.55
11.21
10.4
9.11
7.35
5.21
2.88
0.58
-1.56
-3.52
-5.42
-7.45
-9.78
-12.46
-15.41
-18.48
-21.3
-23.47
-24.5
-23.96
-21.64
-17.66
-12.51
-6.94
-1.73
2.58
5.8
8.14
9.97
11.6
13.18
14.63
15.77
16.47
16.73
16.68
16.51
16.32
16.13
15.91
15.62
15.32
15.12
15.1
15.18
15.12
14.55
13.15
10.78
7.64
4.18
0.96
-1.6
-3.39
-4.63
-5.76
-7.27
-9.42
-12.26
-15.56
-18.99
-22.1
-24.48
-25.72
-25.5
-23.65
-20.23
-15.57
-10.22
-4.79
0.18
4.31
7.45
9.64
11.02
11.75
12.01
11.94
11.73
11.55
11.54
11.77
12.18
12.59
12.75
12.45
11.66
10.49
9.18
7.94
6.88
5.9
4.76
3.23
1.19
-1.21
-3.64
-5.6
-6.72
-6.89
-6.42
-6.02
-6.49
-8.49
-12.2
-17.23
-22.69
-27.48
-30.58
-31.31
-29.44
-25.11
-18.83
-11.26
-3.15
4.76
11.92
17.97
22.78
26.33
28.68
29.89
30.1
29.56
28.68
27.94
27.7
28.08
28.94
29.93
30.69
30.94
30.56
29.54
27.94
25.79
23.18
20.22
17.09
14
11.14
8.66
6.62
4.95
3.48
1.88
-0.21
-3.06
-6.72
-10.94
-15.16
-18.7
-20.91
-21.4
-20.2
-17.69
-14.55
-11.49
-9.09
-7.58
-6.91
-6.84
-7.06
-7.32
-7.51
-7.6
-7.58
-7.44
-7.18
-6.78
-6.22
-5.48
-4.54
-3.4
-2.14
-0.93
-0.04
0.33
0.05
-0.84
-2.17
-3.77
-5.43
-7.03
-8.45
-9.64
-10.6
-11.48
-12.58
-14.2
-16.65
-19.97
-23.86
-27.7
-30.65
-31.94
-31.06
-28.01
-23.26
-17.67
-12.18
-7.51
-4.03
-1.65
-0.08
1.03
1.87
2.51
2.97
3.3
3.6
3.98
4.47
5.04
5.62
6.14
6.67
7.24
7.9
8.53
9.01
9.14
8.81
8.03
6.88
5.5
4.03
2.61
1.36
0.29
-0.71
-1.88
-3.53
-5.87
-8.82
-11.97
-14.59
-15.88
-15.22
-12.46
-7.95
-2.49
2.99
7.72
11.3
13.78
15.53
16.95
18.37
19.84
21.14
21.99
22.1
21.42
20.02
18.16
16.08
14
12.08
10.42
9.08
8.01
7.05
5.91
4.25
1.86
-1.19
-4.57
-7.81
-10.49
-12.44
-13.78
-14.84
-16
-17.46
-19.2
-20.91
-22.17
-22.54
-21.65
-19.32
-15.62
-10.87
-5.6
-0.47
3.93
7.2
9.16
9.76
9.08
7.24
4.45
1.09
-2.3
-5.09
-6.76
-7.05
-6.1
-4.32
-2.34
-0.7
0.2
0.18
-0.76
-2.44
-4.56
-6.78
-8.73
-10.15
-10.97
-11.36
-11.69
-12.44
-13.99
-16.5
-19.68
-22.9
-25.34
-26.18
-24.95
-21.65
-16.73
-10.96
-5.21
-0.23
3.53
6
7.45
8.38
9.26
10.39
11.77
13.2
14.41
15.23
15.67
15.84
15.86
15.74
15.36
14.56
13.22
11.4
9.3
7.15
5.08
3.12
1.13
-1.05
-3.61
-6.66
-10.15
-13.85
-17.39
-20.27
-22.02
-22.29
-21.02
-18.41
-14.92
-11.12
-7.5
-4.36
-1.79
0.28
1.99
3.38
4.5
5.33
5.87
6.18
6.37
6.57
6.92
7.44
8.04
8.57
8.83
8.67
8.02
6.9
5.43
3.76
1.98
0.12
-1.86
-4.04
-6.46
-9.11
-11.88
-14.62
-17.08
-18.94
-19.88
-19.62
-18.03
-15.23
-11.53
-7.36
-3.14
0.82
4.33
7.27
9.51
10.94
11.52
11.34
10.67
9.87
9.22
8.83
8.62
8.36
7.84
6.99
5.91
4.78
3.83
3.11
2.51
1.75
0.54
-1.35
-3.98
-7.26
-10.92
-14.51
-17.52
-19.37
-19.59
-17.97
-14.67
-10.23
-5.41
-0.95
2.68
5.33
7.18
8.47
9.36
9.88
10.02
9.76
9.2
8.54
7.98
7.65
7.55
7.51
7.32
6.8
5.85
4.53
3.04
1.56
0.19
-1.11
-2.6
-4.54
-7.14
-10.3
-13.7
-16.78
-19.01
-19.91
-19.3
-17.19
-13.81
-9.57
-4.92
-0.32
3.87
7.41
10.21
12.32
13.78
14.65
14.89
14.51
13.62
12.45
11.36
10.67
10.52
10.73
10.96
10.82
10.08
8.81
7.27
5.8
4.6
3.62
2.65
1.39
-0.34
-2.58
-5.24
-8.13
-11.01
-13.62
-15.63
-16.68
-16.43
-14.73
-11.71
-7.76
-3.5
0.5
3.84
6.42
8.34
9.82
10.98
11.88
12.45
12.68
12.58
12.28
11.94
11.7
11.59
11.57
11.53
11.36
10.97
10.35
9.51
8.54
7.46
6.25
4.85
3.19
1.23
-0.98
-3.35
-5.82
-8.36
-11.05
-13.86
-16.6
-18.82
-19.97
-19.56
-17.44
-13.82
-9.27
-4.45
0.06
3.9
6.88
9
10.33
10.98
11.07
10.75
10.17
9.51
8.94
8.63
8.69
9.09
9.71
10.33
10.68
10.63
10.11
9.22
8.06
6.76
5.38
3.94
2.47
0.97
-0.57
-2.15
-3.82
-5.65
-7.71
-10.13
-12.97
-16.14
-19.28
-21.75
-22.87
-22.11
-19.39
-15.09
-9.97
-4.82
-0.2
3.66
6.86
9.55
11.81
13.57
14.69
15.06
14.73
13.88
12.81
11.82
11.15
10.93
11.11
11.52
11.88
11.96
11.63
10.98
10.17
9.37
8.62
7.78
6.64
5.09
3.18
1.16
-0.71
-2.23
-3.43
-4.51
-5.73
-7.33
-9.44
-12.1
-15.22
-18.57
-21.74
-24.18
-25.35
-24.87
-22.65
-18.96
-14.31
-9.26
-4.37
-0
3.65
6.58
8.87
10.67
12.04
13.02
13.58
13.72
13.54
13.29
13.23
13.54
14.15
14.8
15.19
15.12
14.63
13.97
13.42
13.09
12.87
12.47
11.59
10.04
7.88
5.34
2.74
0.37
-1.64
-3.29
-4.67
-5.97
-7.37
-9.03
-11.05
-13.4
-15.94
-18.34
-20.2
-21.08
-20.64
-18.76
-15.55
-11.41
-6.87
-2.45
1.42
4.55
6.95
8.75
10.09
11.03
11.53
11.54
11.11
10.41
9.74
9.35
9.4
9.81
10.36
10.77
10.88
10.71
10.38
10.03
9.71
9.32
8.68
7.66
6.21
4.45
2.58
0.8
-0.76
-2.11
-3.34
-4.61
-6.06
-7.78
-9.83
-12.17
-14.69
-17.09
-18.98
-19.86
-19.36
-17.29
-13.79
-9.33
-4.52
0.04
3.89
6.81
8.8
9.94
10.35
10.18
9.58
8.7
7.73
6.87
6.26
6.01
6.11
6.5
7.03
7.51
7.76
7.68
7.25
6.57
5.82
5.1
4.41
3.6
2.44
0.78
-1.33
-3.66
-5.91
-7.82
-9.39
-10.86
-12.55
-14.67
-17.19
-19.76
-21.83
-22.8
-22.27
-20.18
-16.76
-12.56
-8.18
-4.17
-0.78
1.9
3.98
5.62
6.88
7.82
8.42
8.75
8.91
9.05
9.26
9.54
9.83
10
10.01
9.82
9.51
9.12
8.68
8.17
7.48
6.51
5.11
3.29
1.12
-1.19
-3.4
-5.28
-6.79
-8.01
-9.16
-10.46
-12.13
-14.24
-16.71
-19.23
-21.31
-22.35
-21.84
-19.57
-15.72
-10.89
-5.82
-1.2
2.59
5.49
7.7
9.39
10.68
11.58
12.05
12.08
11.71
11.04
10.21
9.38
8.71
8.29
8.14
8.17
8.29
8.37
8.39
8.3
8.03
7.42
6.31
4.59
2.38
-0.02
-2.23
-3.95
-5.15
-6.09
-7.15
-8.68
-10.83
-13.55
-16.55
-19.46
-21.82
-23.22
-23.3
-21.88
-19.04
-15.06
-10.43
-5.71
-1.37
2.24
5
6.94
8.2
8.92
9.21
9.16
8.84
8.32
7.71
