2023-01-28 09:12:10.075982,0.03649353981018061
2023-01-28 09:12:10.080982,0.04867075605727058
2023-01-28 09:12:10.085982,0.038633149117231314
2023-01-28 09:12:10.090982,0.03397748787661571
2023-01-28 09:12:10.095982,0.0429844856262207
2023-01-28 09:12:10.100982,0.050788592958720714
2023-01-28 09:12:10.105982,0.04969179630279539
2023-01-28 09:12:10.110982,0.04927176109477639
2023-01-28 09:12:10.115982,0.05548556894063938
2023-01-28 09:12:10.120982,0.060564389814698014
2023-01-28 09:12:10.125982,0.059019528329372364
2023-01-28 09:12:10.130982,0.05738924954243821
2023-01-28 09:12:10.135982,0.0614716634154319
2023-01-28 09:12:10.140982,0.06689375047836942
2023-01-28 09:12:10.145982,0.06923675537109365
2023-01-28 09:12:10.150982,0.0728982703176353
2023-01-28 09:12:10.155982,0.08306007087230677
2023-01-28 09:12:10.160982,0.09740380859049579
2023-01-28 09:12:10.165982,0.11193275451660147
2023-01-28 09:12:10.170982,0.12755290927148477
2023-01-28 09:12:10.175982,0.14506062865257258
2023-01-28 09:12:10.180982,0.16008653607005252
2023-01-28 09:12:10.185982,0.1686203479766845
2023-01-28 09:12:10.190982,0.17230936938708366
2023-01-28 09:12:10.195982,0.17371694743633265
2023-01-28 09:12:10.200982,0.17149992076910786
2023-01-28 09:12:10.205982,0.16460558772087086
2023-01-28 09:12:10.210982,0.15624541762876948
2023-01-28 09:12:10.215982,0.14924368262290946
2023-01-28 09:12:10.220982,0.14167341421550442
2023-01-28 09:12:10.225982,0.1309969127178192
2023-01-28 09:12:10.230982,0.11844572156116252
2023-01-28 09:12:10.235982,0.10570625960826865
2023-01-28 09:12:10.240982,0.09142241772877178
2023-01-28 09:12:10.245982,0.07476608455181122
2023-01-28 09:12:10.250982,0.05873067183816425
2023-01-28 09:12:10.255982,0.0461818799376487
2023-01-28 09:12:10.260982,0.035918008343268894
2023-01-28 09:12:10.265982,0.025891661643981895
2023-01-28 09:12:10.270982,0.017016575599835063
2023-01-28 09:12:10.275982,0.010625919327139837
2023-01-28 09:12:10.280982,0.005477211521763164
2023-01-28 09:12:10.285982,0.000552932440768925
2023-01-28 09:12:10.290982,-0.0022103290992706967
2023-01-28 09:12:10.295982,-0.0012020270805804879
2023-01-28 09:12:10.300982,0.0015855152652497454
2023-01-28 09:12:10.305982,0.003485878463834472
2023-01-28 09:12:10.310982,0.004723316407457882
2023-01-28 09:12:10.315982,0.006394783966243189
2023-01-28 09:12:10.320982,0.007746234815140752
2023-01-28 09:12:10.325982,0.00834206771105516
2023-01-28 09:12:10.330982,0.010286981378841029
2023-01-28 09:12:10.335982,0.01526574324816457
2023-01-28 09:12:10.340982,0.02152047620134368
2023-01-28 09:12:10.345982,0.02632439136505115
2023-01-28 09:12:10.350982,0.029226350094675134
2023-01-28 09:12:10.355982,0.03050744533538808
2023-01-28 09:12:10.360982,0.029016845218428896
2023-01-28 09:12:10.365982,0.0243771076202392
2023-01-28 09:12:10.370982,0.019254565530904766
2023-01-28 09:12:10.375982,0.01678029820322988
2023-01-28 09:12:10.380982,0.017465070086176506
2023-01-28 09:12:10.385982,0.02072294615209098
2023-01-28 09:12:10.390982,0.027121278332661418
2023-01-28 09:12:10.395982,0.03658970445394508
2023-01-28 09:12:10.400982,0.04643348649624038
2023-01-28 09:12:10.405982,0.05373060703277578
2023-01-28 09:12:10.410982,0.05814858252514907
2023-01-28 09:12:10.415982,0.060389839112758616
2023-01-28 09:12:10.420982,0.059855079706463005
2023-01-28 09:12:10.425982,0.056110620498657185
2023-01-28 09:12:10.430982,0.050754494560101136
2023-01-28 09:12:10.435982,0.0454125814139842
2023-01-28 09:12:10.440982,0.03944140574316188
2023-01-28 09:12:10.445982,0.03170947358012188
2023-01-28 09:12:10.450982,0.023002393254153986
2023-01-28 09:12:10.455982,0.014640688896179078
2023-01-28 09:12:10.460982,0.006486889570613376
2023-01-28 09:12:10.465982,-0.0014905135612934093
2023-01-28 09:12:10.470982,-0.0072635584350948905
2023-01-28 09:12:10.475982,-0.008462270721793116
2023-01-28 09:12:10.480982,-0.004599570329698117
2023-01-28 09:12:10.485982,0.0041830539703369115
2023-01-28 09:12:10.490982,0.018630786128079512
2023-01-28 09:12:10.495982,0.03812829777598378
2023-01-28 09:12:10.500982,0.0580479663637932
2023-01-28 09:12:10.505982,0.07132828235626221
2023-01-28 09:12:10.510982,0.071891499814985
2023-01-28 09:12:10.515982,0.05584617704153061
2023-01-28 09:12:10.520982,0.022324406545605698
2023-01-28 09:12:10.525982,-0.023679932579398093
2023-01-28 09:12:10.530982,-0.07044958160603187
2023-01-28 09:12:10.535982,-0.10452827066183086
2023-01-28 09:12:10.540982,-0.1174211617069756
2023-01-28 09:12:10.545982,-0.10794202983379364
2023-01-28 09:12:10.550982,-0.08095971213847564
2023-01-28 09:12:10.555982,-0.045941472053527804
2023-01-28 09:12:10.560982,-0.014169111322106076
2023-01-28 09:12:10.565982,0.0066832704469560866
2023-01-28 09:12:10.570982,0.016173234000018778
2023-01-28 09:12:10.575982,0.018799703568220093
2023-01-28 09:12:10.580982,0.01928305378885313
2023-01-28 09:12:10.585982,0.0207710266113281
2023-01-28 09:12:10.590982,0.02502773713093415
2023-01-28 09:12:10.595982,0.03151714801788331
2023-01-28 09:12:10.600982,0.03715620920492794
2023-01-28 09:12:10.605982,0.03916203975677489
2023-01-28 09:12:10.610982,0.03778837857595301
2023-01-28 09:12:10.615982,0.0351713113486766
2023-01-28 09:12:10.620982,0.032794653565679385
2023-01-28 09:12:10.625982,0.03154119104146948
2023-01-28 09:12:10.630982,0.032634831706078664
2023-01-28 09:12:10.635982,0.036373339593410416
2023-01-28 09:12:10.640982,0.040816894906093214
2023-01-28 09:12:10.645982,0.0435614585876464
2023-01-28 09:12:10.650982,0.04416290266728459
2023-01-28 09:12:10.655982,0.04360954090952868
2023-01-28 09:12:10.660982,0.042726660312813955
2023-01-28 09:12:10.665982,0.04274408146738999
2023-01-28 09:12:10.670982,0.04614182066959469
2023-01-28 09:12:10.675982,0.05486051365733139
2023-01-28 09:12:10.680982,0.06822815937113763
2023-01-28 09:12:10.685982,0.08399765193462372
2023-01-28 09:12:10.690982,0.10048170576929907
2023-01-28 09:12:10.695982,0.11638025939464558
2023-01-28 09:12:10.700982,0.1298986480447462
2023-01-28 09:12:10.705982,0.13996402919292433
2023-01-28 09:12:10.710982,0.14749066573858352
2023-01-28 09:12:10.715982,0.15378734469413746
2023-01-28 09:12:10.720982,0.15844256442029614
2023-01-28 09:12:10.725982,0.16013404726982106
2023-01-28 09:12:10.730982,0.15851177201327685
2023-01-28 09:12:10.735982,0.15381138026714317
2023-01-28 09:12:10.740982,0.14572092594665353
2023-01-28 09:12:10.745982,0.13436257839202875
2023-01-28 09:12:10.750982,0.121547905648637
2023-01-28 09:12:10.755982,0.10940849781036367
2023-01-28 09:12:10.760982,0.0984483347819477
2023-01-28 09:12:10.765982,0.0882528275251388
2023-01-28 09:12:10.770982,0.07909358146128463
2023-01-28 09:12:10.775982,0.07125616073608389
2023-01-28 09:12:10.780982,0.06370650411666626
2023-01-28 09:12:10.785982,0.05510091781616211
2023-01-28 09:12:10.790982,0.04545332656544128
2023-01-28 09:12:10.795982,0.03543575853109348
2023-01-28 09:12:10.800982,0.024961007120515154
2023-01-28 09:12:10.805982,0.014015635475516286
2023-01-28 09:12:10.810982,0.004031662269157545
2023-01-28 09:12:10.815982,-0.0032214324455708074
2023-01-28 09:12:10.820982,-0.007470733681822705
2023-01-28 09:12:10.825982,-0.009303689002990684
2023-01-28 09:12:10.830982,-0.00862109159836181
2023-01-28 09:12:10.835982,-0.0053129596635699385
2023-01-28 09:12:10.840982,-0.000631252206169023
2023-01-28 09:12:10.845982,0.0038464865647255876
2023-01-28 09:12:10.850982,0.00804289743108576
2023-01-28 09:12:10.855982,0.01264532469213002
2023-01-28 09:12:10.860982,0.01724353041879496
2023-01-28 09:12:10.865982,0.020843148231506313
2023-01-28 09:12:10.870982,0.02363383259048367
2023-01-28 09:12:10.875982,0.026516716927289866
2023-01-28 09:12:10.880982,0.029211239677227382
2023-01-28 09:12:10.885982,0.030387243255972803
2023-01-28 09:12:10.890982,0.029443668972424508
2023-01-28 09:12:10.895982,0.026853283867239914
2023-01-28 09:12:10.900982,0.02314981630786849
2023-01-28 09:12:10.905982,0.01894394680857651
2023-01-28 09:12:10.910982,0.015581662714875003
2023-01-28 09:12:10.915982,0.014376243576407394
2023-01-28 09:12:10.920982,0.015284987706537708
2023-01-28 09:12:10.925982,0.0173332300037145
2023-01-28 09:12:10.930982,0.01994695722310013
2023-01-28 09:12:10.935982,0.022886594757437685
2023-01-28 09:12:10.940982,0.02552651516251228
2023-01-28 09:12:10.945982,0.027526419609784993
2023-01-28 09:12:10.950982,0.02984846899849611
2023-01-28 09:12:10.955982,0.03392120450735089
2023-01-28 09:12:10.960982,0.04003805135881731
2023-01-28 09:12:10.965982,0.047383904457092195
2023-01-28 09:12:10.970982,0.05492908444093046
2023-01-28 09:12:10.975982,0.06118317693471899
2023-01-28 09:12:10.980982,0.06381111725823632
2023-01-28 09:12:10.985982,0.0610148906707763
2023-01-28 09:12:10.990982,0.053221610364450174
2023-01-28 09:12:10.995982,0.042575798928737585
2023-01-28 09:12:11.000982,0.03125419634070167
2023-01-28 09:12:11.005982,0.021059513092040995
2023-01-28 09:12:11.010982,0.013673200291267139
2023-01-28 09:12:11.015982,0.009760459885001098
2023-01-28 09:12:11.020982,0.008113060726207166
2023-01-28 09:12:11.025982,0.006851553916931079
2023-01-28 09:12:11.030982,0.005309555790704466
2023-01-28 09:12:11.035982,0.004110932350158598
2023-01-28 09:12:11.040982,0.004275686459273549
2023-01-28 09:12:11.045982,0.007404486648738304
2023-01-28 09:12:11.050982,0.015881919470806024
2023-01-28 09:12:11.055982,0.031108459457754985
2023-01-28 09:12:11.060982,0.05122548262345791
2023-01-28 09:12:11.065982,0.07108788192272178
2023-01-28 09:12:11.070982,0.08398928563482115
2023-01-28 09:12:11.075982,0.08315622806549068
2023-01-28 09:12:11.080982,0.06356011336257615
2023-01-28 09:12:11.085982,0.025050243362784295
2023-01-28 09:12:11.090982,-0.02557355974559406
2023-01-28 09:12:11.095982,-0.0764970034360885
2023-01-28 09:12:11.100982,-0.115502981302907
2023-01-28 09:12:11.105982,-0.1337375342845916
2023-01-28 09:12:11.110982,-0.1278337653936647
2023-01-28 09:12:11.115982,-0.10116259753704068
2023-01-28 09:12:11.120982,-0.0629624938553718
2023-01-28 09:12:11.125982,-0.024232864379882785
2023-01-28 09:12:11.130982,0.0069060759944223095
2023-01-28 09:12:11.135982,0.02682924270629882
2023-01-28 09:12:11.140982,0.035509625411694175
2023-01-28 09:12:11.145982,0.035676162689924226
2023-01-28 09:12:11.150982,0.031919087128094104
2023-01-28 09:12:11.155982,0.028464000672101916
2023-01-28 09:12:11.160982,0.027137280135633005
2023-01-28 09:12:11.165982,0.0277668237686157
2023-01-28 09:12:11.170982,0.02979111119792382
2023-01-28 09:12:11.175982,0.032550893723964636
2023-01-28 09:12:11.180982,0.03490348511529769
2023-01-28 09:12:11.185982,0.036084853112697594
2023-01-28 09:12:11.190982,0.036759352319584555
2023-01-28 09:12:11.195982,0.038176380097865975
2023-01-28 09:12:11.200982,0.040620940474741525
2023-01-28 09:12:11.205982,0.04358550161123268
2023-01-28 09:12:11.210982,0.04686524548914049
2023-01-28 09:12:11.215982,0.05036493390798561
2023-01-28 09:12:11.220982,0.05336403330407158
2023-01-28 09:12:11.225982,0.05522112175822251
2023-01-28 09:12:11.230982,0.05652242702299744
2023-01-28 09:12:11.235982,0.058538716286420774
2023-01-28 09:12:11.240982,0.06195721152272101
2023-01-28 09:12:11.245982,0.06709714978933329
2023-01-28 09:12:11.250982,0.0747541705688069
2023-01-28 09:12:11.255982,0.08556028455495823
2023-01-28 09:12:11.260982,0.09879368859237297
2023-01-28 09:12:11.265982,0.11284630000591263
2023-01-28 09:12:11.270982,0.12650608285015813
2023-01-28 09:12:11.275982,0.13885816931724534
2023-01-28 09:12:11.280982,0.14853665046405617
2023-01-28 09:12:11.285982,0.15434026718139635
2023-01-28 09:12:11.290982,0.156325366162383
2023-01-28 09:12:11.295982,0.15530189871788017
2023-01-28 09:12:11.300982,0.15165122710247506
2023-01-28 09:12:11.305982,0.14561355113983143
2023-01-28 09:12:11.310982,0.1381783787748196
2023-01-28 09:12:11.315982,0.13044397532939903
2023-01-28 09:12:11.320982,0.12234359969202535
2023-01-28 09:12:11.325982,0.11299054324626914
2023-01-28 09:12:11.330982,0.10192969192180446
2023-01-28 09:12:11.335982,0.08916636556386942
2023-01-28 09:12:11.340982,0.07460092427878942
2023-01-28 09:12:11.345982,0.05868295952677721
2023-01-28 09:12:11.350982,0.04325768200258869
2023-01-28 09:12:11.355982,0.03055552765727041
2023-01-28 09:12:11.360982,0.02145849758807909
2023-01-28 09:12:11.365982,0.015506148338317803
2023-01-28 09:12:11.370982,0.011999988045406591
2023-01-28 09:12:11.375982,0.010048946365714021
2023-01-28 09:12:11.380982,0.008170313473108043
2023-01-28 09:12:11.385982,0.005264878273010199
2023-01-28 09:12:11.390982,0.0018626902217779412
2023-01-28 09:12:11.395982,-0.0005769729614257031
2023-01-28 09:12:11.400982,-0.00130614726156251
2023-01-28 09:12:11.405982,-0.00040868920041239675
2023-01-28 09:12:11.410982,0.002033732873432546
2023-01-28 09:12:11.415982,0.005673567764460995
2023-01-28 09:12:11.420982,0.009266047185539784
2023-01-28 09:12:11.425982,0.011587540619075175
2023-01-28 09:12:11.430982,0.012778508319430903
2023-01-28 09:12:11.435982,0.013799270614981589
2023-01-28 09:12:11.440982,0.01495749068596201
2023-01-28 09:12:11.445982,0.015962919220328293
2023-01-28 09:12:11.450982,0.01688505442122584
2023-01-28 09:12:11.455982,0.01788616180419922
2023-01-28 09:12:11.460982,0.018492524293947335
2023-01-28 09:12:11.465982,0.018366973847150803
2023-01-28 09:12:11.470982,0.018420299955893574
2023-01-28 09:12:11.475982,0.019953649491071673
2023-01-28 09:12:11.480982,0.022990939614069457
2023-01-28 09:12:11.485982,0.026444595307111674
2023-01-28 09:12:11.490982,0.029376182090056806
2023-01-28 09:12:11.495982,0.03098825737833967
2023-01-28 09:12:11.500982,0.03012210171293212
2023-01-28 09:12:11.505982,0.02634843252599228
2023-01-28 09:12:11.510982,0.02132541566302995
2023-01-28 09:12:11.515982,0.017814040184020902
2023-01-28 09:12:11.520982,0.017558861046898782
2023-01-28 09:12:11.525982,0.020987391471862692
2023-01-28 09:12:11.530982,0.02805941504578023
2023-01-28 09:12:11.535982,0.037815771996974896
2023-01-28 09:12:11.540982,0.04763545022220296
2023-01-28 09:12:11.545982,0.0546201094985008
2023-01-28 09:12:11.550982,0.05758543963280702
2023-01-28 09:12:11.555982,0.05661547183990469
2023-01-28 09:12:11.560982,0.05150460155659327
2023-01-28 09:12:11.565982,0.0423353910446166
2023-01-28 09:12:11.570982,0.03096129899845085
2023-01-28 09:12:11.575982,0.020025771111249875
2023-01-28 09:12:11.580982,0.010824841668620981
2023-01-28 09:12:11.585982,0.0036782026290892653
2023-01-28 09:12:11.590982,-0.00047118452649840014
2023-01-28 09:12:11.595982,-0.001057783840224109
2023-01-28 09:12:11.600982,0.00018756746333110168
2023-01-28 09:12:11.605982,0.0010577838402241325
2023-01-28 09:12:11.610982,0.002550164189435326
2023-01-28 09:12:11.615982,0.00805358123034226
2023-01-28 09:12:11.620982,0.01868585555295767
2023-01-28 09:12:11.625982,0.0321902856230735
2023-01-28 09:12:11.630982,0.04668713039618054
2023-01-28 09:12:11.635982,0.061856310814618995
2023-01-28 09:12:11.640982,0.07457641149869872
2023-01-28 09:12:11.645982,0.07644891738891597
2023-01-28 09:12:11.650982,0.058961109463773705
2023-01-28 09:12:11.655982,0.020819108933210293
2023-01-28 09:12:11.660982,-0.030664244218158006
2023-01-28 09:12:11.665982,-0.08361300081014633
2023-01-28 09:12:11.670982,-0.12559467753852915
2023-01-28 09:12:11.675982,-0.14643093943595878
2023-01-28 09:12:11.680982,-0.14165772742049218
2023-01-28 09:12:11.685982,-0.114985905587673
2023-01-28 09:12:11.690982,-0.0763700226534501
2023-01-28 09:12:11.695982,-0.036757986992597434
2023-01-28 09:12:11.700982,-0.003959878641772673
2023-01-28 09:12:11.705982,0.01853525638580319
2023-01-28 09:12:11.710982,0.031156965236701983
2023-01-28 09:12:11.715982,0.036998391151428174
2023-01-28 09:12:11.720982,0.03952781061159351
2023-01-28 09:12:11.725982,0.04055639356374739
2023-01-28 09:12:11.730982,0.040200725653522285
2023-01-28 09:12:11.735982,0.0382485017180442
2023-01-28 09:12:11.740982,0.0349934974776379
2023-01-28 09:12:11.745982,0.031180581077933315
2023-01-28 09:12:11.750982,0.02792450374919718
2023-01-28 09:12:11.755982,0.026564797386527027
2023-01-28 09:12:11.760982,0.02798389050052126
2023-01-28 09:12:11.765982,0.032021999359130845
2023-01-28 09:12:11.770982,0.03779079454115299
2023-01-28 09:12:11.775982,0.0443307571113109
2023-01-28 09:12:11.780982,0.05075864531436079
2023-01-28 09:12:11.785982,0.056254863739013596
2023-01-28 09:12:11.790982,0.06044571588815942
2023-01-28 09:12:11.795982,0.06365935504436489
2023-01-28 09:12:11.800982,0.06654104341645366
2023-01-28 09:12:11.805982,0.06964544951915738
2023-01-28 09:12:11.810982,0.0735550061438704
2023-01-28 09:12:11.815982,0.07894913852214805
2023-01-28 09:12:11.820982,0.08618253411578304
2023-01-28 09:12:11.825982,0.09503225982189167
2023-01-28 09:12:11.830982,0.10504500128406599
2023-01-28 09:12:11.835982,0.11577924340963355
2023-01-28 09:12:11.840982,0.12650574920604135
2023-01-28 09:12:11.845982,0.13609349727630607
2023-01-28 09:12:11.850982,0.14353615661740662
2023-01-28 09:12:11.855982,0.1484022587537765
2023-01-28 09:12:11.860982,0.1507106451812942
2023-01-28 09:12:11.865982,0.15078227221965773
2023-01-28 09:12:11.870982,0.14933274533173974
2023-01-28 09:12:11.875982,0.14715215563774095
2023-01-28 09:12:11.880982,0.14428705318486007
2023-01-28 09:12:11.885982,0.13977169990539545
2023-01-28 09:12:11.890982,0.13237221057082557
2023-01-28 09:12:11.895982,0.12142877280712112
2023-01-28 09:12:11.900982,0.10710203344145468
2023-01-28 09:12:11.905982,0.09041647613048544
2023-01-28 09:12:11.910982,0.07325964709104632
2023-01-28 09:12:11.915982,0.05774537846446025
2023-01-28 09:12:11.920982,0.045075784827959785
2023-01-28 09:12:11.925982,0.035099189728498376
2023-01-28 09:12:11.930982,0.02696363537446349
2023-01-28 09:12:11.935982,0.019833445549011165
2023-01-28 09:12:11.940982,0.013029283376093971
2023-01-28 09:12:11.945982,0.006178419105708454
2023-01-28 09:12:11.950982,-0.0003718142966344828
2023-01-28 09:12:11.955982,-0.0056254863739013125
2023-01-28 09:12:11.960982,-0.00867877937368749
2023-01-28 09:12:11.965982,-0.009183486923575391
2023-01-28 09:12:11.970982,-0.007131406135703093
2023-01-28 09:12:11.975982,-0.0027406215667723755
2023-01-28 09:12:11.980982,0.003234602307693362
2023-01-28 09:12:11.985982,0.009544095024466534
2023-01-28 09:12:11.990982,0.015085094518851247
2023-01-28 09:12:11.995982,0.019280513748526486
2023-01-28 09:12:12.000982,0.021842297185073873
2023-01-28 09:12:12.005982,0.022694271057844096
2023-01-28 09:12:12.010982,0.022320113849558794
2023-01-28 09:12:12.015982,0.021708607673645013
2023-01-28 09:12:12.020982,0.021642416812248492
2023-01-28 09:12:12.025982,0.022261541336774788
2023-01-28 09:12:12.030982,0.02333725572963789
2023-01-28 09:12:12.035982,0.024521350860595665
2023-01-28 09:12:12.040982,0.025248832873551206
2023-01-28 09:12:12.045982,0.024978121742606104
2023-01-28 09:12:12.050982,0.023855204671321368
2023-01-28 09:12:12.055982,0.02279043197631828
2023-01-28 09:12:12.060982,0.022641156266579556
2023-01-28 09:12:12.065982,0.023583769798278763
2023-01-28 09:12:12.070982,0.025342415200337517
2023-01-28 09:12:12.075982,0.027598541229963296
2023-01-28 09:12:12.080982,0.03006745732666196
2023-01-28 09:12:12.085982,0.03269513696432112
2023-01-28 09:12:12.090982,0.036030113682977705
2023-01-28 09:12:12.095982,0.04091700166463848
2023-01-28 09:12:12.100982,0.04739561544773995
2023-01-28 09:12:12.105982,0.054043136537075
2023-01-28 09:12:12.110982,0.058528871621026435
2023-01-28 09:12:12.115982,0.058658920228481175
2023-01-28 09:12:12.120982,0.05313353425408159
2023-01-28 09:12:12.125982,0.04214306920766828
2023-01-28 09:12:12.130982,0.027714453107371476
2023-01-28 09:12:12.135982,0.013054013252258287
2023-01-28 09:12:12.140982,0.0009681080354722269
2023-01-28 09:12:12.145982,-0.0072362027131021266
2023-01-28 09:12:12.150982,-0.011513083352864323
2023-01-28 09:12:12.155982,-0.012236635200679273
2023-01-28 09:12:12.160982,-0.009618393704138691
2023-01-28 09:12:12.165982,-0.0033175945281981663
2023-01-28 09:12:12.170982,0.0076701178723070544
2023-01-28 09:12:12.175982,0.02408862113952629
2023-01-28 09:12:12.180982,0.044570027674912305
2023-01-28 09:12:12.185982,0.0645007714629173
2023-01-28 09:12:12.190982,0.07690400831474761
2023-01-28 09:12:12.195982,0.07483820617198941
2023-01-28 09:12:12.200982,0.054114239633238935
2023-01-28 09:12:12.205982,0.015626352280378314
2023-01-28 09:12:12.210982,-0.03357983844959446
2023-01-28 09:12:12.215982,-0.08180996030569065
2023-01-28 09:12:12.220982,-0.11682864096747368
2023-01-28 09:12:12.225982,-0.13041993975639335
2023-01-28 09:12:12.230982,-0.12096971760574461
2023-01-28 09:12:12.235982,-0.09339749813079824
2023-01-28 09:12:12.240982,-0.057033869016613815
2023-01-28 09:12:12.245982,-0.02211729809641824
2023-01-28 09:12:12.250982,0.003972731789410034
2023-01-28 09:12:12.255982,0.018871825188398333
2023-01-28 09:12:12.260982,0.02468203396720476
2023-01-28 09:12:12.265982,0.025699337944388313
2023-01-28 09:12:12.270982,0.02621375187766232
2023-01-28 09:12:12.275982,0.029089054092764816
2023-01-28 09:12:12.280982,0.034981138321497324
2023-01-28 09:12:12.285982,0.04243155568838109
2023-01-28 09:12:12.290982,0.04908927777743733
2023-01-28 09:12:12.295982,0.053249798715114496
2023-01-28 09:12:12.300982,0.054475264557984016
2023-01-28 09:12:12.305982,0.0532257556915283
2023-01-28 09:12:12.310982,0.05045110848716018
2023-01-28 09:12:12.315982,0.047480069100856705
2023-01-28 09:12:12.320982,0.0456106095311846
2023-01-28 09:12:12.325982,0.04531642049551009
2023-01-28 09:12:12.330982,0.04604442581401968
2023-01-28 09:12:12.335982,0.04711946099996558
2023-01-28 09:12:12.340982,0.04868376359495302
2023-01-28 09:12:12.345982,0.051398675888776675
2023-01-28 09:12:12.350982,0.055431731914417366
2023-01-28 09:12:12.355982,0.06038983911275854
2023-01-28 09:12:12.360982,0.06636905736714972
2023-01-28 09:12:12.365982,0.07430931180715558
2023-01-28 09:12:12.370982,0.0846685604521007
2023-01-28 09:12:12.375982,0.09613811969757076
2023-01-28 09:12:12.380982,0.1064718239383884
2023-01-28 09:12:12.385982,0.11460125446319576
2023-01-28 09:12:12.390982,0.12135280589011331
2023-01-28 09:12:12.395982,0.1281120479106903
2023-01-28 09:12:12.400982,0.1354684977233016
2023-01-28 09:12:12.405982,0.14320950210094446
2023-01-28 09:12:12.410982,0.1506900654764795
2023-01-28 09:12:12.415982,0.1566481590270996
2023-01-28 09:12:12.420982,0.15932677188065456
2023-01-28 09:12:12.425982,0.15758574008941645
2023-01-28 09:12:12.430982,0.15176459561502595
2023-01-28 09:12:12.435982,0.1430652588605879
2023-01-28 09:12:12.440982,0.13236672274465128
2023-01-28 09:12:12.445982,0.11998634040355674
2023-01-28 09:12:12.450982,0.10613806130126308
2023-01-28 09:12:12.455982,0.0910174846649169
2023-01-28 09:12:12.460982,0.0747252007514534
2023-01-28 09:12:12.465982,0.05776941776275626
2023-01-28 09:12:12.470982,0.04156362740903854
2023-01-28 09:12:12.475982,0.02788702771067609
2023-01-28 09:12:12.480982,0.01781720870117576
2023-01-28 09:12:12.485982,0.011419257149100318
2023-01-28 09:12:12.490982,0.0081388165006514
2023-01-28 09:12:12.495982,0.006971756927669001
2023-01-28 09:12:12.500982,0.006525374431389406
2023-01-28 09:12:12.505982,0.005697607994079509
2023-01-28 09:12:12.510982,0.004503606003221444
2023-01-28 09:12:12.515982,0.003918608184903782
2023-01-28 09:12:12.520982,0.0049280582096645105
2023-01-28 09:12:12.525982,0.00795741938054558
2023-01-28 09:12:12.530982,0.01287188786125263
2023-01-28 09:12:12.535982,0.018871825188398295
2023-01-28 09:12:12.540982,0.02443099358827617
2023-01-28 09:12:12.545982,0.02798318862915029
2023-01-28 09:12:12.550982,0.02894363086190256
2023-01-28 09:12:12.555982,0.02791106700897208
2023-01-28 09:12:12.560982,0.026038819420000605
2023-01-28 09:12:12.565982,0.024545392021536782
2023-01-28 09:12:12.570982,0.02452491018883913
2023-01-28 09:12:12.575982,0.026468634605407704
2023-01-28 09:12:12.580982,0.029755917572234076
2023-01-28 09:12:12.585982,0.032983623445034
2023-01-28 09:12:12.590982,0.034915686733479
2023-01-28 09:12:12.595982,0.03497898578643786
2023-01-28 09:12:12.600982,0.03318014085000204
2023-01-28 09:12:12.605982,0.030194919556379284
2023-01-28 09:12:12.610982,0.02756511686402943
2023-01-28 09:12:12.615982,0.027213891968130993
2023-01-28 09:12:12.620982,0.030444659375085732
2023-01-28 09:12:12.625982,0.037431120872497524
2023-01-28 09:12:12.630982,0.047326228785683204
2023-01-28 09:12:12.635982,0.05827426910400384
2023-01-28 09:12:12.640982,0.0674167198714726
2023-01-28 09:12:12.645982,0.07168889045715329
2023-01-28 09:12:12.650982,0.06918289056981591
2023-01-28 09:12:12.655982,0.05988498777151093
2023-01-28 09:12:12.660982,0.045447836505797985
2023-01-28 09:12:12.665982,0.02870440483093259
2023-01-28 09:12:12.670982,0.013116055610254442
2023-01-28 09:12:12.675982,0.001730918884277274
2023-01-28 09:12:12.680982,-0.003954881568637847
2023-01-28 09:12:12.685982,-0.004183053970336899
2023-01-28 09:12:12.690982,-0.00014819546464018174
2023-01-28 09:12:12.695982,0.006755392067134316
2023-01-28 09:12:12.700982,0.01532016678391169
2023-01-28 09:12:12.705982,0.024978121742606104
2023-01-28 09:12:12.710982,0.0360224866846902
2023-01-28 09:12:12.715982,0.04873017594218249
2023-01-28 09:12:12.720982,0.06173149468031433
2023-01-28 09:12:12.725982,0.07118403911590566
2023-01-28 09:12:12.730982,0.07155673732342474
2023-01-28 09:12:12.735982,0.057529013603925705
2023-01-28 09:12:12.740982,0.026454205484853804
2023-01-28 09:12:12.745982,-0.019136270508170093
2023-01-28 09:12:12.750982,-0.07053859055867755
2023-01-28 09:12:12.755982,-0.11508207023143754
2023-01-28 09:12:12.760982,-0.14096342282447263
2023-01-28 09:12:12.765982,-0.14188727736473075
2023-01-28 09:12:12.770982,-0.11915471205228732
2023-01-28 09:12:12.775982,-0.08077621459960928
2023-01-28 09:12:12.780982,-0.03819165513174464
2023-01-28 09:12:12.785982,-0.0017068784218280985
2023-01-28 09:12:12.790982,0.023193773522475928
2023-01-28 09:12:12.795982,0.03651758283376692
2023-01-28 09:12:12.800982,0.04156733281361573
2023-01-28 09:12:12.805982,0.042167108505964196
2023-01-28 09:12:12.810982,0.0410464148374951
2023-01-28 09:12:12.815982,0.039378404617309515
2023-01-28 09:12:12.820982,0.037096265108936655
2023-01-28 09:12:12.825982,0.03392120450735093
2023-01-28 09:12:12.830982,0.030405970439634486
2023-01-28 09:12:12.835982,0.027887027710676096
2023-01-28 09:12:12.840982,0.02749579552898881
2023-01-28 09:12:12.845982,0.02956986427307123
2023-01-28 09:12:12.850982,0.03393592113449921
2023-01-28 09:12:12.855982,0.04019578546285624
2023-01-28 09:12:12.860982,0.04760191226621028
2023-01-28 09:12:12.865982,0.05514900013804428
2023-01-28 09:12:12.870982,0.06203179063253843
2023-01-28 09:12:12.875982,0.0677462443709373
2023-01-28 09:12:12.880982,0.07176429622771674
2023-01-28 09:12:12.885982,0.07363617420196529
2023-01-28 09:12:12.890982,0.07361364511549788
2023-01-28 09:12:12.895982,0.07279475778341289
2023-01-28 09:12:12.900982,0.07249276933256535
2023-01-28 09:12:12.905982,0.07375638186931607
2023-01-28 09:12:12.910982,0.07747330606555629
2023-01-28 09:12:12.915982,0.08435826003551478
2023-01-28 09:12:12.920982,0.09454003614051638
2023-01-28 09:12:12.925982,0.10743717849254594
2023-01-28 09:12:12.930982,0.12210472630316091
2023-01-28 09:12:12.935982,0.13729552924633018
2023-01-28 09:12:12.940982,0.15112273598841963
2023-01-28 09:12:12.945982,0.1612639427185058
2023-01-28 09:12:12.950982,0.16595224876531503
2023-01-28 09:12:12.955982,0.1647017449140548
2023-01-28 09:12:12.960982,0.15814555147408635
2023-01-28 09:12:12.965982,0.1476089209318161
2023-01-28 09:12:12.970982,0.13484513961173372
2023-01-28 09:12:12.975982,0.12150089442729935
2023-01-28 09:12:12.980982,0.10835886555860713
2023-01-28 09:12:12.985982,0.09527266025543205
2023-01-28 09:12:12.990982,0.08195129389273416
2023-01-28 09:12:12.995982,0.06851553916931147
2023-01-28 09:12:13.000982,0.05529586004251196
2023-01-28 09:12:13.005982,0.042623877525329465
2023-01-28 09:12:13.010982,0.031033629618322654
2023-01-28 09:12:13.015982,0.021227797493338498
2023-01-28 09:12:13.020982,0.013614935926438644
2023-01-28 09:12:13.025982,0.008221864700317293
2023-01-28 09:12:13.030982,0.005129057925069522
2023-01-28 09:12:13.035982,0.004447500221431179
2023-01-28 09:12:13.040982,0.005656358017870427
2023-01-28 09:12:13.045982,0.007524689193814889
2023-01-28 09:12:13.050982,0.009049770733787923
2023-01-28 09:12:13.055982,0.010097026824951063
2023-01-28 09:12:13.060982,0.010927644699852242
2023-01-28 09:12:13.065982,0.011659662239253507
2023-01-28 09:12:13.070982,0.01252067217082226
2023-01-28 09:12:13.075982,0.0140156354755163
2023-01-28 09:12:13.080982,0.016273103577479044
2023-01-28 09:12:13.085982,0.018607378005981407
2023-01-28 09:12:13.090982,0.02025661874193228
2023-01-28 09:12:13.095982,0.021275877952575642
2023-01-28 09:12:13.100982,0.022270222578036396
2023-01-28 09:12:13.105982,0.023583769798278826
2023-01-28 09:12:13.110982,0.02524250642146474
2023-01-28 09:12:13.115982,0.02735813520848749
2023-01-28 09:12:13.120982,0.02994135212276315
2023-01-28 09:12:13.125982,0.03243068978190421
2023-01-28 09:12:13.130982,0.03399266319804262
2023-01-28 09:12:13.135982,0.0343779735267162
2023-01-28 09:12:13.140982,0.034210133811417354
2023-01-28 09:12:13.145982,0.03454625606536858
2023-01-28 09:12:13.150982,0.036432444079642495
2023-01-28 09:12:13.155982,0.04058043286204327
2023-01-28 09:12:13.160982,0.046819378146779736
2023-01-28 09:12:13.165982,0.053706567734479904
2023-01-28 09:12:13.170982,0.05902211402106503
2023-01-28 09:12:13.175982,0.06087064743041985
2023-01-28 09:12:13.180982,0.05841739502225329
2023-01-28 09:12:13.185982,0.051975648850202505
2023-01-28 09:12:13.190982,0.04282491989941754
2023-01-28 09:12:13.195982,0.032791297882795285
2023-01-28 09:12:13.200982,0.023455233236538135
2023-01-28 09:12:13.205982,0.015506148338317809
2023-01-28 09:12:13.210982,0.008886197752311122
2023-01-28 09:12:13.215982,0.003413756843656274
2023-01-28 09:12:13.220982,-0.0008820315473050032
2023-01-28 09:12:13.225982,-0.0037262837868183153
2023-01-28 09:12:13.230982,-0.00441619587313337
2023-01-28 09:12:13.235982,-0.00170687842182807
2023-01-28 09:12:13.240982,0.005638236249797706
2023-01-28 09:12:13.245982,0.017765959724783772
2023-01-28 09:12:13.250982,0.032828838898435984
2023-01-28 09:12:13.255982,0.04661460965871811
2023-01-28 09:12:13.260982,0.052881243096736454
2023-01-28 09:12:13.265982,0.04495581239461886
2023-01-28 09:12:13.270982,0.018733681482371672
2023-01-28 09:12:13.275982,-0.0243290271610021
2023-01-28 09:12:13.280982,-0.07633227741554992
2023-01-28 09:12:13.285982,-0.12498676776885978
2023-01-28 09:12:13.290982,-0.15771057424457585
2023-01-28 09:12:13.295982,-0.16616821289062492
2023-01-28 09:12:13.300982,-0.14950012234179372
2023-01-28 09:12:13.305982,-0.11455317586660377
2023-01-28 09:12:13.310982,-0.07266177369172144
2023-01-28 09:12:13.315982,-0.034762620925903286
2023-01-28 09:12:13.320982,-0.007621526935845784
2023-01-28 09:12:13.325982,0.007356405258178724
2023-01-28 09:12:13.330982,0.013063906316315547
2023-01-28 09:12:13.335982,0.014328162185847707
2023-01-28 09:12:13.340982,0.015282880688371492
2023-01-28 09:12:13.345982,0.017765959724783842
2023-01-28 09:12:13.350982,0.021536413996985332
2023-01-28 09:12:13.355982,0.02560317516326901
2023-01-28 09:12:13.360982,0.02921789339147649
2023-01-28 09:12:13.365982,0.03204604238271709
2023-01-28 09:12:13.370982,0.03405168451672611
2023-01-28 09:12:13.375982,0.03536363691091533
2023-01-28 09:12:13.380982,0.035956161392363524
2023-01-28 09:12:13.385982,0.03543575853109348
2023-01-28 09:12:13.390982,0.03345559823496971
2023-01-28 09:12:13.395982,0.030411284416913886
2023-01-28 09:12:13.400982,0.027511247023022593
2023-01-28 09:12:13.405982,0.0261561088263988
2023-01-28 09:12:13.410982,0.027394326709127576
2023-01-28 09:12:13.415982,0.0317335128784179
2023-01-28 09:12:13.420982,0.03896082356100189
2023-01-28 09:12:13.425982,0.04808108136057848
2023-01-28 09:12:13.430982,0.05785644352497911
2023-01-28 09:12:13.435982,0.06762604415416708
2023-01-28 09:12:13.440982,0.077478931993728
2023-01-28 09:12:13.445982,0.08772393316030498
2023-01-28 09:12:13.450982,0.09849662216548798
2023-01-28 09:12:13.455982,0.1097450703382492
2023-01-28 09:12:13.460982,0.12104641339028935
2023-01-28 09:12:13.465982,0.1312853991985321
2023-01-28 09:12:13.470982,0.1389173344530697
2023-01-28 09:12:13.475982,0.14277677237987504
2023-01-28 09:12:13.480982,0.14251015035184006
2023-01-28 09:12:13.485982,0.13840138912200917
2023-01-28 09:12:13.490982,0.13129086469257126
2023-01-28 09:12:13.495982,0.12265484035015102
2023-01-28 09:12:13.500982,0.11407041678743349
2023-01-28 09:12:13.505982,0.10616302490234365
2023-01-28 09:12:13.510982,0.09826374816439278
2023-01-28 09:12:13.515982,0.08916636556386939
2023-01-28 09:12:13.520982,0.07793348356386122
2023-01-28 09:12:13.525982,0.06414016336202619
2023-01-28 09:12:13.530982,0.048143246280716596
2023-01-28 09:12:13.535982,0.031469069421291296
2023-01-28 09:12:13.540982,0.016359485759253837
2023-01-28 09:12:13.545982,0.004423459526151371
2023-01-28 09:12:13.550982,-0.004124080068941509
2023-01-28 09:12:13.555982,-0.009928743354976115
2023-01-28 09:12:13.560982,-0.013821550652218661
2023-01-28 09:12:13.565982,-0.016804337501525806
2023-01-28 09:12:13.570982,-0.019853822182662587
2023-01-28 09:12:13.575982,-0.023127000778913397
2023-01-28 09:12:13.580982,-0.025787861683861903
2023-01-28 09:12:13.585982,-0.027021568268537497
2023-01-28 09:12:13.590982,-0.026780670604402656
2023-01-28 09:12:13.595982,-0.025314688682556104
2023-01-28 09:12:13.600982,-0.022756240560051225
2023-01-28 09:12:13.605982,-0.0196892023086547
2023-01-28 09:12:13.610982,-0.01733696488844419
2023-01-28 09:12:13.615982,-0.016419690102338715
2023-01-28 09:12:13.620982,-0.016348226194207678
2023-01-28 09:12:13.625982,-0.016131203621625918
2023-01-28 09:12:13.630982,-0.015408948568868885
2023-01-28 09:12:13.635982,-0.0140156354755163
2023-01-28 09:12:13.640982,-0.011514722619423315
2023-01-28 09:12:13.645982,-0.008173784241080246
2023-01-28 09:12:13.650982,-0.005501859568262517
2023-01-28 09:12:13.655982,-0.004543662071228004
2023-01-28 09:12:13.660982,-0.004282230622392883
2023-01-28 09:12:13.665982,-0.002908905502408738
2023-01-28 09:12:13.670982,0.00012489482326277348
2023-01-28 09:12:13.675982,0.004591743461787668
2023-01-28 09:12:13.680982,0.010727861602316978
2023-01-28 09:12:13.685982,0.017765959724783786
2023-01-28 09:12:13.690982,0.022114625547835214
2023-01-28 09:12:13.695982,0.01992960833013046
2023-01-28 09:12:13.700982,0.011591110556873582
2023-01-28 09:12:13.705982,0.0009375810623168092
2023-01-28 09:12:13.710982,-0.010117310101488683
2023-01-28 09:12:13.715982,-0.022934675216674777
2023-01-28 09:12:13.720982,-0.037167676497879776
2023-01-28 09:12:13.725982,-0.048081081360578495
2023-01-28 09:12:13.730982,-0.05144134067105686
2023-01-28 09:12:13.735982,-0.04865805432200427
2023-01-28 09:12:13.740982,-0.04427082796661703
2023-01-28 09:12:13.745982,-0.04017174243926999
2023-01-28 09:12:13.750982,-0.03532003131448101
2023-01-28 09:12:13.755982,-0.029690068215131725
2023-01-28 09:12:13.760982,-0.024786941809091752
2023-01-28 09:12:13.765982,-0.02045850083231921
2023-01-28 09:12:13.770982,-0.01471235760863912
2023-01-28 09:12:13.775982,-0.007741054054349606
2023-01-28 09:12:13.780982,-0.003910474546706247
2023-01-28 09:12:13.785982,-0.00882287882268421
2023-01-28 09:12:13.790982,-0.025744538928535884
2023-01-28 09:12:13.795982,-0.0546201094985008
2023-01-28 09:12:13.800982,-0.09174196082750279
2023-01-28 09:12:13.805982,-0.1290977001190185
2023-01-28 09:12:13.810982,-0.1562667647453574
2023-01-28 09:12:13.815982,-0.16551911830902089
2023-01-28 09:12:13.820982,-0.1556661890085138
2023-01-28 09:12:13.825982,-0.131381556391716
2023-01-28 09:12:13.830982,-0.10013278734548442
2023-01-28 09:12:13.835982,-0.06971757113933558
2023-01-28 09:12:13.840982,-0.04615669826089299
2023-01-28 09:12:13.845982,-0.031541191041469505
2023-01-28 09:12:13.850982,-0.023856677182006607
2023-01-28 09:12:13.855982,-0.019617080688476528
2023-01-28 09:12:13.860982,-0.016494462379495617
2023-01-28 09:12:13.865982,-0.01355886459350579
2023-01-28 09:12:13.870982,-0.01047621968353695
2023-01-28 09:12:13.875982,-0.00752468919381491
2023-01-28 09:12:13.880982,-0.005576610362445793
2023-01-28 09:12:13.885982,-0.005024473182857022
2023-01-28 09:12:13.890982,-0.00507489298321928
2023-01-28 09:12:13.895982,-0.004639824386685998
2023-01-28 09:12:13.900982,-0.0033504716424577006
2023-01-28 09:12:13.905982,-0.0012020270805805258
2023-01-28 09:12:13.910982,0.0020304472919092783
2023-01-28 09:12:13.915982,0.006274580955505248
2023-01-28 09:12:13.920982,0.01062200475199911
2023-01-28 09:12:13.925982,0.014015635475516305
2023-01-28 09:12:13.930982,0.01609437285627387
2023-01-28 09:12:13.935982,0.016948580741882283
2023-01-28 09:12:13.940982,0.016742882345760393
2023-01-28 09:12:13.945982,0.016275446861982294
2023-01-28 09:12:13.950982,0.017347332684505667
2023-01-28 09:12:13.955982,0.02175668999552721
2023-01-28 09:12:13.960982,0.030095774177658397
2023-01-28 09:12:13.965982,0.04185458272695537
2023-01-28 09:12:13.970982,0.05609710615150113
2023-01-28 09:12:13.975982,0.07144849002361293
2023-01-28 09:12:13.980982,0.08600651974491248
2023-01-28 09:12:13.985982,0.09810944646596897
2023-01-28 09:12:13.990982,0.10704986105347293
2023-01-28 09:12:13.995982,0.1126539707183837
2023-01-28 09:12:14.000982,0.1146474989050912
2023-01-28 09:12:14.005982,0.11301457881927486
2023-01-28 09:12:14.010982,0.10854155978570279
2023-01-28 09:12:14.015982,0.10231654345989216
2023-01-28 09:12:14.020982,0.09489138511190043
2023-01-28 09:12:14.025982,0.08635362237691868
2023-01-28 09:12:14.030982,0.0768092140918945
2023-01-28 09:12:14.035982,0.06625573337078086
2023-01-28 09:12:14.040982,0.05438734950743175
2023-01-28 09:12:14.045982,0.04118144512176508
2023-01-28 09:12:14.050982,0.02746431930480466
2023-01-28 09:12:14.055982,0.014400283806025874
2023-01-28 09:12:14.060982,0.002666503211627879
2023-01-28 09:12:14.065982,-0.007476608268916595
2023-01-28 09:12:14.070982,-0.01573589600609641
2023-01-28 09:12:14.075982,-0.021997094154357882
2023-01-28 09:12:14.080982,-0.02666652375894201
2023-01-28 09:12:14.085982,-0.03019491955637926
2023-01-28 09:12:14.090982,-0.03244933542060158
2023-01-28 09:12:14.095982,-0.03303170204162588
2023-01-28 09:12:14.100982,-0.03198612579827567
2023-01-28 09:12:14.105982,-0.029762189835309892
2023-01-28 09:12:14.110982,-0.02679352188053311
2023-01-28 09:12:14.115982,-0.023583769798278788
2023-01-28 09:12:14.120982,-0.02083206622241738
2023-01-28 09:12:14.125982,-0.01882374286651614
2023-01-28 09:12:14.130982,-0.016862105484919804
2023-01-28 09:12:14.135982,-0.013847351074218701
2023-01-28 09:12:14.140982,-0.009344907520335398
2023-01-28 09:12:14.145982,-0.0037984054069966264
2023-01-28 09:12:14.150982,0.0019324104465223114
2023-01-28 09:12:14.155982,0.006755392067134281
2023-01-28 09:12:14.160982,0.009473118686672312
2023-01-28 09:12:14.165982,0.009496013633906779
2023-01-28 09:12:14.170982,0.007469382199151487
2023-01-28 09:12:14.175982,0.004832148551940847
2023-01-28 09:12:14.180982,0.002899228271858997
2023-01-28 09:12:14.185982,0.002620419021695805
2023-01-28 09:12:14.190982,0.0047058805000727184
2023-01-28 09:12:14.195982,0.009207527153193885
2023-01-28 09:12:14.200982,0.015022830264772712
2023-01-28 09:12:14.205982,0.020338296890258675
2023-01-28 09:12:14.210982,0.023595594595997114
2023-01-28 09:12:14.215982,0.023872256278991574
2023-01-28 09:12:14.220982,0.02081522091295269
2023-01-28 09:12:14.225982,0.014857053756713824
2023-01-28 09:12:14.230982,0.00729415955279751
2023-01-28 09:12:14.235982,-0.0005048513412475136
2023-01-28 09:12:14.240982,-0.008013306947186645
2023-01-28 09:12:14.245982,-0.015361905097961395
2023-01-28 09:12:14.250982,-0.022467729411103022
2023-01-28 09:12:14.255982,-0.028752487152814806
2023-01-28 09:12:14.260982,-0.033423188980527214
2023-01-28 09:12:14.265982,-0.03545979782938949
2023-01-28 09:12:14.270982,-0.033531867105679417
2023-01-28 09:12:14.275982,-0.026636919006705197
2023-01-28 09:12:14.280982,-0.01505047521026398
2023-01-28 09:12:14.285982,-0.0006010135402902677
2023-01-28 09:12:14.290982,0.013521444608333738
2023-01-28 09:12:14.295982,0.02274235151708115
2023-01-28 09:12:14.300982,0.021529617665130528
2023-01-28 09:12:14.305982,0.005361040588468301
2023-01-28 09:12:14.310982,-0.026518048570483215
2023-01-28 09:12:14.315982,-0.06959736347198477
2023-01-28 09:12:14.320982,-0.11479329870607054
2023-01-28 09:12:14.325982,-0.150854393839836
2023-01-28 09:12:14.330982,-0.16795963965917965
2023-01-28 09:12:14.335982,-0.16164860129356373
2023-01-28 09:12:14.340982,-0.13494384996822692
2023-01-28 09:12:14.345982,-0.09685933589935294
2023-01-28 09:12:14.350982,-0.058240002483427825
2023-01-28 09:12:14.355982,-0.027718743309378586
2023-01-28 09:12:14.360982,-0.009450657506111104
2023-01-28 09:12:14.365982,-0.0026444594841450435
2023-01-28 09:12:14.370982,-0.0028356351855771127
2023-01-28 09:12:14.375982,-0.004663865081965923
2023-01-28 09:12:14.380982,-0.004551706794049744
2023-01-28 09:12:14.385982,-0.001490513561293423
2023-01-28 09:12:14.390982,0.0037871720281992117
2023-01-28 09:12:14.395982,0.009640256874263177
2023-01-28 09:12:14.400982,0.014029729851689623
2023-01-28 09:12:14.405982,0.015506148338317781
2023-01-28 09:12:14.410982,0.014270826351509626
2023-01-28 09:12:14.415982,0.011924108490347814
2023-01-28 09:12:14.420982,0.01007785654560983
2023-01-28 09:12:14.425982,0.009592175483703596
2023-01-28 09:12:14.430982,0.010980220811717326
2023-01-28 09:12:14.435982,0.014640688896179097
2023-01-28 09:12:14.440982,0.020244743892848912
2023-01-28 09:12:14.445982,0.026420554146170602
2023-01-28 09:12:14.450982,0.03159677832229132
2023-01-28 09:12:14.455982,0.03512322902679435
2023-01-28 09:12:14.460982,0.037526171402970654
2023-01-28 09:12:14.465982,0.040027499198913415
2023-01-28 09:12:14.470982,0.04400227296233027
2023-01-28 09:12:14.475982,0.05050917714834206
2023-01-28 09:12:14.480982,0.059847745690378394
2023-01-28 09:12:14.485982,0.0714244470000267
2023-01-28 09:12:14.490982,0.08406798320360641
2023-01-28 09:12:14.495982,0.09647469222545621
2023-01-28 09:12:14.500982,0.10750390000124475
2023-01-28 09:12:14.505982,0.11633217334747309
2023-01-28 09:12:14.510982,0.12243774111124835
2023-01-28 09:12:14.515982,0.12539546191692347
2023-01-28 09:12:14.520982,0.1247967809821868
2023-01-28 09:12:14.525982,0.12056331336498256
2023-01-28 09:12:14.530982,0.11330016056887694
2023-01-28 09:12:14.535982,0.10416766256093965
2023-01-28 09:12:14.540982,0.09438984440958234
2023-01-28 09:12:14.545982,0.08486311137676227
2023-01-28 09:12:14.550982,0.07592817491308765
2023-01-28 09:12:14.555982,0.06721735000610347
2023-01-28 09:12:14.560982,0.057873704178245826
2023-01-28 09:12:14.565982,0.047287743538618
2023-01-28 09:12:14.570982,0.035720042798022815
2023-01-28 09:12:14.575982,0.024160742759704493
2023-01-28 09:12:14.580982,0.01372409254259204
2023-01-28 09:12:14.585982,0.0052408380433917115
2023-01-28 09:12:14.590982,-0.0009388235852713223
2023-01-28 09:12:14.595982,-0.005168716423213406
2023-01-28 09:12:14.600982,-0.008449018933902706
2023-01-28 09:12:14.605982,-0.011803905479609897
2023-01-28 09:12:14.610982,-0.0156382907153513
2023-01-28 09:12:14.615982,-0.019713243469595913
2023-01-28 09:12:14.620982,-0.023472817324147705
2023-01-28 09:12:14.625982,-0.02618014812469481
2023-01-28 09:12:14.630982,-0.02704924980418635
2023-01-28 09:12:14.635982,-0.025699337944388338
2023-01-28 09:12:14.640982,-0.022479764511380552
2023-01-28 09:12:14.645982,-0.018150608986616138
2023-01-28 09:12:14.650982,-0.013356843152303632
2023-01-28 09:12:14.655982,-0.008558432571589959
2023-01-28 09:12:14.660982,-0.004186981826268282
2023-01-28 09:12:14.665982,-0.0005288919201119905
2023-01-28 09:12:14.670982,0.0023910384045856157
2023-01-28 09:12:14.675982,0.0045196218416094095
2023-01-28 09:12:14.680982,0.005527883325394138
2023-01-28 09:12:14.685982,0.005144675727933593
2023-01-28 09:12:14.690982,0.0036174792202420224
2023-01-28 09:12:14.695982,0.0016347568016499138
2023-01-28 09:12:14.700982,4.396835352432997e-06
2023-01-28 09:12:14.705982,-0.00036060810089112277
2023-01-28 09:12:14.710982,0.0015239906972378302
2023-01-28 09:12:14.715982,0.0061784191057084855
2023-01-28 09:12:14.720982,0.013110912520035592
2023-01-28 09:12:14.725982,0.020939311012625608
2023-01-28 09:12:14.730982,0.027867880923363297
2023-01-28 09:12:14.735982,0.03194987773895259
2023-01-28 09:12:14.740982,0.03146011245156772
2023-01-28 09:12:14.745982,0.025771459564566612
2023-01-28 09:12:14.750982,0.016006772014161442
2023-01-28 09:12:14.755982,0.004567702766507816
2023-01-28 09:12:14.760982,-0.0060471144569894004
2023-01-28 09:12:14.765982,-0.014111797325313072
2023-01-28 09:12:14.770982,-0.01906812631223828
2023-01-28 09:12:14.775982,-0.021708607673644978
2023-01-28 09:12:14.780982,-0.0237669023030841
2023-01-28 09:12:14.785982,-0.02663691900670518
2023-01-28 09:12:14.790982,-0.030151483101616798
2023-01-28 09:12:14.795982,-0.03255089372396459
2023-01-28 09:12:14.800982,-0.03145415481495328
2023-01-28 09:12:14.805982,-0.025002162903547186
2023-01-28 09:12:14.810982,-0.013066892469029038
2023-01-28 09:12:14.815982,0.001490513561293376
2023-01-28 09:12:14.820982,0.012586078284434005
2023-01-28 09:12:14.825982,0.012765526771545403
2023-01-28 09:12:14.830982,-0.003523037031119571
2023-01-28 09:12:14.835982,-0.037022434175014385
2023-01-28 09:12:14.840982,-0.08232081797643716
2023-01-28 09:12:14.845982,-0.12861689925193778
2023-01-28 09:12:14.850982,-0.16303194773958538
2023-01-28 09:12:14.855982,-0.17573635280132285
2023-01-28 09:12:14.860982,-0.1641869503351811
2023-01-28 09:12:14.865982,-0.13380965590476973
2023-01-28 09:12:14.870982,-0.09507368317203711
2023-01-28 09:12:14.875982,-0.059043567627668284
2023-01-28 09:12:14.880982,-0.033398007847386474
2023-01-28 09:12:14.885982,-0.0201940536499023
2023-01-28 09:12:14.890982,-0.016337493699976738
2023-01-28 09:12:14.895982,-0.01651585102081289
2023-01-28 09:12:14.900982,-0.01645258415710707
2023-01-28 09:12:14.905982,-0.014304121956229193
2023-01-28 09:12:14.910982,-0.01019503391989987
2023-01-28 09:12:14.915982,-0.00526487827301021
2023-01-28 09:12:14.920982,-0.0008345363254718361
2023-01-28 09:12:14.925982,0.0024040541611610976
2023-01-28 09:12:14.930982,0.004721178117963387
2023-01-28 09:12:14.935982,0.006755392067134267
2023-01-28 09:12:14.940982,0.008736044822391221
2023-01-28 09:12:14.945982,0.010505716316401901
2023-01-28 09:12:14.950982,0.011986350990431906
2023-01-28 09:12:14.955982,0.013198256492614684
2023-01-28 09:12:14.960982,0.014063458442122853
2023-01-28 09:12:14.965982,0.014688770286738827
2023-01-28 09:12:14.970982,0.01573046256428204
2023-01-28 09:12:14.975982,0.018054446205496684
2023-01-28 09:12:14.980982,0.02209945245268062
2023-01-28 09:12:14.985982,0.02783894538879388
2023-01-28 09:12:14.990982,0.035107473031936905
2023-01-28 09:12:14.995982,0.04356145858764639
2023-01-28 09:12:15.000982,0.05257663898492512
2023-01-28 09:12:15.005982,0.0617120675742626
2023-01-28 09:12:15.010982,0.07119145398165042
2023-01-28 09:12:15.015982,0.08152147382497782
2023-01-28 09:12:15.020982,0.09271961006926527
2023-01-28 09:12:15.025982,0.10419170558452598
2023-01-28 09:12:15.030982,0.11508002004288298
2023-01-28 09:12:15.035982,0.12428959459066387
2023-01-28 09:12:15.040982,0.130439825505214
2023-01-28 09:12:15.045982,0.13239125907421107
2023-01-28 09:12:15.050982,0.12983652383222818
2023-01-28 09:12:15.055982,0.12308757007122029
2023-01-28 09:12:15.060982,0.11253329252656522
2023-01-28 09:12:15.065982,0.09875854104757298
2023-01-28 09:12:15.070982,0.08297677371704479
2023-01-28 09:12:15.075982,0.06678462028503407
2023-01-28 09:12:15.080982,0.05148046037742915
2023-01-28 09:12:15.085982,0.0378638505935668
2023-01-28 09:12:15.090982,0.026350930067791427
2023-01-28 09:12:15.095982,0.016732215881347635
2023-01-28 09:12:15.100982,0.00802421542085826
2023-01-28 09:12:15.105982,-0.0007933378219603734
2023-01-28 09:12:15.110982,-0.009804143993917795
2023-01-28 09:12:15.115982,-0.018174648284912057
2023-01-28 09:12:15.120982,-0.02491673620647894
2023-01-28 09:12:15.125982,-0.029281377792358294
2023-01-28 09:12:15.130982,-0.03081832861155637
2023-01-28 09:12:15.135982,-0.02978622913360589
2023-01-28 09:12:15.140982,-0.027424182351301063
2023-01-28 09:12:15.145982,-0.02517044544219966
2023-01-28 09:12:15.150982,-0.023530694277842115
2023-01-28 09:12:15.155982,-0.02209325693547718
2023-01-28 09:12:15.160982,-0.020485393350966753
2023-01-28 09:12:15.165982,-0.018751621246337787
2023-01-28 09:12:15.170982,-0.016915266309405524
2023-01-28 09:12:15.175982,-0.01488109491765492
2023-01-28 09:12:15.180982,-0.012912053231545314
2023-01-28 09:12:15.185982,-0.01163562200963491
2023-01-28 09:12:15.190982,-0.011320127547233492
2023-01-28 09:12:15.195982,-0.011467337608337359
2023-01-28 09:12:15.200982,-0.011273052075394759
2023-01-28 09:12:15.205982,-0.01026531122624869
2023-01-28 09:12:15.210982,-0.008466387719970953
2023-01-28 09:12:15.215982,-0.006178419105708513
2023-01-28 09:12:15.220982,-0.003609246730908218
2023-01-28 09:12:15.225982,-0.0004808108205906987
2023-01-28 09:12:15.230982,0.003931664806371919
2023-01-28 09:12:15.235982,0.01007298659533258
2023-01-28 09:12:15.240982,0.017333826097732884
2023-01-28 09:12:15.245982,0.024040540680289203
2023-01-28 09:12:15.250982,0.028109836561617477
2023-01-28 09:12:15.255982,0.02781490609049787
2023-01-28 09:12:15.260982,0.022538478416383373
2023-01-28 09:12:15.265982,0.013342499732971106
2023-01-28 09:12:15.270982,0.0026487703293620324
2023-01-28 09:12:15.275982,-0.00711600016802538
2023-01-28 09:12:15.280982,-0.014746934199625163
2023-01-28 09:12:15.285982,-0.020338296890258678
2023-01-28 09:12:15.290982,-0.024671860361481758
2023-01-28 09:12:15.295982,-0.02872844599187372
2023-01-28 09:12:15.300982,-0.03313375587896936
2023-01-28 09:12:15.305982,-0.03731092065572729
2023-01-28 09:12:15.310982,-0.039194613225673504
2023-01-28 09:12:15.315982,-0.03622909635305399
2023-01-28 09:12:15.320982,-0.026949224516481844
2023-01-28 09:12:15.325982,-0.012164513580501047
2023-01-28 09:12:15.330982,0.004288005546094893
2023-01-28 09:12:15.335982,0.01543402671813963
2023-01-28 09:12:15.340982,0.01290364899579624
2023-01-28 09:12:15.345982,-0.00920752715319388
2023-01-28 09:12:15.350982,-0.05053307628237879
2023-01-28 09:12:15.355982,-0.10327816009521476
2023-01-28 09:12:15.360982,-0.15422529759103354
2023-01-28 09:12:15.365982,-0.1889346092939376
2023-01-28 09:12:15.370982,-0.19703539045955476
2023-01-28 09:12:15.375982,-0.17667393386363975
2023-01-28 09:12:15.380982,-0.13528734627247885
2023-01-28 09:12:15.385982,-0.08580069243907919
2023-01-28 09:12:15.390982,-0.04094270603965529
2023-01-28 09:12:15.395982,-0.00913540553301569
2023-01-28 09:12:15.400982,0.007032730531514623
2023-01-28 09:12:15.405982,0.010313391685485791
2023-01-28 09:12:15.410982,0.006493115003789861
2023-01-28 09:12:15.415982,0.0010577838402241267
2023-01-28 09:12:15.420982,-0.0029434625731455336
2023-01-28 09:12:15.425982,-0.004567702766507779
2023-01-28 09:12:15.430982,-0.003711768551903151
2023-01-28 09:12:15.435982,-0.0007452567806466709
2023-01-28 09:12:15.440982,0.003442008813227191
2023-01-28 09:12:15.445982,0.008029541000723783
2023-01-28 09:12:15.450982,0.012759600452026012
2023-01-28 09:12:15.455982,0.01745343208312978
2023-01-28 09:12:15.460982,0.021573296462177552
2023-01-28 09:12:15.465982,0.024833878502249735
2023-01-28 09:12:15.470982,0.027733449705107133
2023-01-28 09:12:15.475982,0.030868053436279193
2023-01-28 09:12:15.480982,0.03419667475969941
2023-01-28 09:12:15.485982,0.03755132481455804
2023-01-28 09:12:15.490982,0.04132221693808749
2023-01-28 09:12:15.495982,0.046013593673706006
2023-01-28 09:12:15.500982,0.05167915524442922
2023-01-28 09:12:15.505982,0.05844255536794657
2023-01-28 09:12:15.510982,0.06697187085922654
2023-01-28 09:12:15.515982,0.07767498493194577
2023-01-28 09:12:15.520982,0.0898916948321384
2023-01-28 09:12:15.525982,0.10250886529684058
2023-01-28 09:12:15.530982,0.11479776953173736
2023-01-28 09:12:15.535982,0.12602052092552174
2023-01-28 09:12:15.540982,0.13497192122222473
2023-01-28 09:12:15.545982,0.140829488635063
2023-01-28 09:12:15.550982,0.1439567795772717
2023-01-28 09:12:15.555982,0.14510869979858382
2023-01-28 09:12:15.560982,0.14439374178241277
2023-01-28 09:12:15.565982,0.14169494807720176
2023-01-28 09:12:15.570982,0.137356568305298
2023-01-28 09:12:15.575982,0.13157388567924488
2023-01-28 09:12:15.580982,0.12378699466505516
2023-01-28 09:12:15.585982,0.11359155178070057
2023-01-28 09:12:15.590982,0.1016154436813999
2023-01-28 09:12:15.595982,0.0886374711990356
2023-01-28 09:12:15.600982,0.07456985226134384
2023-01-28 09:12:15.605982,0.05925993248820299
2023-01-28 09:12:15.610982,0.04358589733636951
2023-01-28 09:12:15.615982,0.028800567612051905
2023-01-28 09:12:15.620982,0.015516376356869244
2023-01-28 09:12:15.625982,0.004255175590515066
2023-01-28 09:12:15.630982,-0.003917918151723815
2023-01-28 09:12:15.635982,-0.008486310951411703
2023-01-28 09:12:15.640982,-0.010458808640763744
2023-01-28 09:12:15.645982,-0.011154810898005938
2023-01-28 09:12:15.650982,-0.010785907037618803
2023-01-28 09:12:15.655982,-0.00927964877337207
2023-01-28 09:12:15.660982,-0.007528184819702962
2023-01-28 09:12:15.665982,-0.006539027206599693
2023-01-28 09:12:15.670982,-0.006200131240360586
2023-01-28 09:12:15.675982,-0.006082256790250473
2023-01-28 09:12:15.680982,-0.006445651856963517
2023-01-28 09:12:15.685982,-0.007116000168025382
2023-01-28 09:12:15.690982,-0.0064686155735275
2023-01-28 09:12:15.695982,-0.0031252703629433953
2023-01-28 09:12:15.700982,0.002201990519373877
2023-01-28 09:12:15.705982,0.007933378219604449
2023-01-28 09:12:15.710982,0.013582220501680543
2023-01-28 09:12:15.715982,0.01906414888799191
2023-01-28 09:12:15.720982,0.02346874533543267
2023-01-28 09:12:15.725982,0.026420554146170606
2023-01-28 09:12:15.730982,0.029445588443543787
2023-01-28 09:12:15.735982,0.033969283103942836
2023-01-28 09:12:15.740982,0.03899681176534896
2023-01-28 09:12:15.745982,0.04257579892873761
2023-01-28 09:12:15.750982,0.04415812179616419
2023-01-28 09:12:15.755982,0.04351337999105449
2023-01-28 09:12:15.760982,0.03907510720538286
2023-01-28 09:12:15.765982,0.03007471561431882
2023-01-28 09:12:15.770982,0.01895380052452422
2023-01-28 09:12:15.775982,0.008967122063040647
2023-01-28 09:12:15.780982,0.0007333288401972891
2023-01-28 09:12:15.785982,-0.006322662346065002
2023-01-28 09:12:15.790982,-0.011191010636111918
2023-01-28 09:12:15.795982,-0.013318459503352604
2023-01-28 09:12:15.800982,-0.0153185284735226
2023-01-28 09:12:15.805982,-0.01942475698888297
2023-01-28 09:12:15.810982,-0.022781189091148877
2023-01-28 09:12:15.815982,-0.0205306224524974
2023-01-28 09:12:15.820982,-0.01192541796448973
2023-01-28 09:12:15.825982,0.0010337432613596177
2023-01-28 09:12:15.830982,0.01806114874492105
2023-01-28 09:12:15.835982,0.03670990467071532
2023-01-28 09:12:15.840982,0.04603733059232851
2023-01-28 09:12:15.845982,0.033464431762695306
2023-01-28 09:12:15.850982,-0.0006572776801007762
2023-01-28 09:12:15.855982,-0.04324893280863762
2023-01-28 09:12:15.860982,-0.08434212978607171
2023-01-28 09:12:15.865982,-0.12303948402404781
2023-01-28 09:12:15.870982,-0.1547079649975618
2023-01-28 09:12:15.875982,-0.16419689357280728
2023-01-28 09:12:15.880982,-0.14141181645646167
2023-01-28 09:12:15.885982,-0.09702762216329575
2023-01-28 09:12:15.890982,-0.053088998230751125
2023-01-28 09:12:15.895982,-0.021684568375349017
2023-01-28 09:12:15.900982,-0.0009507368443384743
2023-01-28 09:12:15.905982,0.01233279705047599
2023-01-28 09:12:15.910982,0.017267139360081434
2023-01-28 09:12:15.915982,0.015506148338317757
2023-01-28 09:12:15.920982,0.013289855740483152
2023-01-28 09:12:15.925982,0.013967554084956589
2023-01-28 09:12:15.930982,0.01496029360406672
2023-01-28 09:12:15.935982,0.014207959175109796
2023-01-28 09:12:15.940982,0.01392981166320407
2023-01-28 09:12:15.945982,0.015914838761091198
2023-01-28 09:12:15.950982,0.018287967183317492
2023-01-28 09:12:15.955982,0.019472837448120072
2023-01-28 09:12:15.960982,0.021167508516034227
2023-01-28 09:12:15.965982,0.02505024336278426
2023-01-28 09:12:15.970982,0.03015625448803875
2023-01-28 09:12:15.975982,0.035652123391628196
2023-01-28 09:12:15.980982,0.042832926123042896
2023-01-28 09:12:15.985982,0.05209585279226299
2023-01-28 09:12:15.990982,0.0607642398436807
2023-01-28 09:12:15.995982,0.06608744710683818
2023-01-28 09:12:16.000982,0.06815640280640312
2023-01-28 09:12:16.005982,0.06829917430877683
2023-01-28 09:12:16.010982,0.06714114999479269
2023-01-28 09:12:16.015982,0.06603936851024617
2023-01-28 09:12:16.020982,0.06802455606151728
2023-01-28 09:12:16.025982,0.07515072822570797
2023-01-28 09:12:16.030982,0.08643002622554657
2023-01-28 09:12:16.035982,0.09979228675365437
2023-01-28 09:12:16.040982,0.11432044705925307
2023-01-28 09:12:16.045982,0.1292179077863693
2023-01-28 09:12:16.050982,0.14251957039750265
2023-01-28 09:12:16.055982,0.15253722667694083
2023-01-28 09:12:16.060982,0.15915037987829614
2023-01-28 09:12:16.065982,0.16229769587516774
2023-01-28 09:12:16.070982,0.16067674912882943
2023-01-28 09:12:16.075982,0.15335461497306818
2023-01-28 09:12:16.080982,0.1414008630908517
2023-01-28 09:12:16.085982,0.12671768665313715
2023-01-28 09:12:16.090982,0.11052559939884839
2023-01-28 09:12:16.095982,0.09407063573598859
2023-01-28 09:12:16.100982,0.07930509209515185
2023-01-28 09:12:16.105982,0.06736159324645988
2023-01-28 09:12:16.110982,0.057321076299526576
2023-01-28 09:12:16.115982,0.04764835163950922
2023-01-28 09:12:16.120982,0.03794637950363411
2023-01-28 09:12:16.125982,0.028488039970397883
2023-01-28 09:12:16.130982,0.019330275286201137
2023-01-28 09:12:16.135982,0.011058649048209086
2023-01-28 09:12:16.140982,0.00528232972966434
2023-01-28 09:12:16.145982,0.0030771892052143006
2023-01-28 09:12:16.150982,0.003604399957970095
2023-01-28 09:12:16.155982,0.00512063503265378
2023-01-28 09:12:16.160982,0.00651964759306737
2023-01-28 09:12:16.165982,0.007188121788203711
2023-01-28 09:12:16.170982,0.0065636921789521754
2023-01-28 09:12:16.175982,0.005024473182857017
2023-01-28 09:12:16.180982,0.004411496170555185
2023-01-28 09:12:16.185982,0.0065630674362181975
2023-01-28 09:12:16.190982,0.011774797947371188
2023-01-28 09:12:16.195982,0.019208392128348305
2023-01-28 09:12:16.200982,0.027828160953198
2023-01-28 09:12:16.205982,0.03613293170928952
2023-01-28 09:12:16.210982,0.04200553893882114
2023-01-28 09:12:16.215982,0.044066309928894
2023-01-28 09:12:16.220982,0.042843907449802696
2023-01-28 09:12:16.225982,0.04005154222249982
2023-01-28 09:12:16.230982,0.03739133951208178
2023-01-28 09:12:16.235982,0.0365416221320629
2023-01-28 09:12:16.240982,0.03914514419276795
2023-01-28 09:12:16.245982,0.04555682465434069
2023-01-28 09:12:16.250982,0.05393935606817532
2023-01-28 09:12:16.255982,0.06127933785319318
2023-01-28 09:12:16.260982,0.06491942879856322
2023-01-28 09:12:16.265982,0.06291409581899639
2023-01-28 09:12:16.270982,0.05414991725169619
2023-01-28 09:12:16.275982,0.039330326020717586
2023-01-28 09:12:16.280982,0.02143385454001654
2023-01-28 09:12:16.285982,0.004351337905973163
2023-01-28 09:12:16.290982,-0.008825243460031572
2023-01-28 09:12:16.295982,-0.016179284080862888
2023-01-28 09:12:16.300982,-0.016864064162459152
2023-01-28 09:12:16.305982,-0.011611580848693763
2023-01-28 09:12:16.310982,-0.0027264214151964837
2023-01-28 09:12:16.315982,0.0074044866487383365
2023-01-28 09:12:16.320982,0.017679615603497376
2023-01-28 09:12:16.325982,0.02786298654973504
2023-01-28 09:12:16.330982,0.03735804727909631
2023-01-28 09:12:16.335982,0.04471540451049797
2023-01-28 09:12:16.340982,0.0475192981238409
2023-01-28 09:12:16.345982,0.04223923012614251
2023-01-28 09:12:16.350982,0.025345109946313914
2023-01-28 09:12:16.355982,-0.0038464865647255854
2023-01-28 09:12:16.360982,-0.041014846323479556
2023-01-28 09:12:16.365982,-0.0777230709791183
2023-01-28 09:12:16.370982,-0.10454304816320799
2023-01-28 09:12:16.375982,-0.11426468938589088
2023-01-28 09:12:16.380982,-0.10440005383559889
2023-01-28 09:12:16.385982,-0.0784923657774925
2023-01-28 09:12:16.390982,-0.044809035224517436
2023-01-28 09:12:16.395982,-0.012380878441035695
2023-01-28 09:12:16.400982,0.01277061166900947
2023-01-28 09:12:16.405982,0.02865632437169549
2023-01-28 09:12:16.410982,0.036248577510198166
2023-01-28 09:12:16.415982,0.038176380097865954
2023-01-28 09:12:16.420982,0.037455143135421365
2023-01-28 09:12:16.425982,0.03608485311269759
2023-01-28 09:12:16.430982,0.034588661593585916
2023-01-28 09:12:16.435982,0.03303170204162588
2023-01-28 09:12:16.440982,0.03198169236661794
2023-01-28 09:12:16.445982,0.03211816400289529
2023-01-28 09:12:16.450982,0.03352606140410588
2023-01-28 09:12:16.455982,0.03594060987234105
2023-01-28 09:12:16.460982,0.03920817275033614
2023-01-28 09:12:16.465982,0.04298448562622068
2023-01-28 09:12:16.470982,0.04646147399561338
2023-01-28 09:12:16.475982,0.04897058010101304
2023-01-28 09:12:16.480982,0.050529097681879326
2023-01-28 09:12:16.485982,0.051422715187072664
2023-01-28 09:12:16.490982,0.051758170931060055
2023-01-28 09:12:16.495982,0.05190352723002426
2023-01-28 09:12:16.500982,0.052885487076665336
2023-01-28 09:12:16.505982,0.055822134017944294
2023-01-28 09:12:16.510982,0.061316634377864505
2023-01-28 09:12:16.515982,0.06974160671234128
2023-01-28 09:12:16.520982,0.08151733973169419
2023-01-28 09:12:16.525982,0.09649872779846187
2023-01-28 09:12:16.530982,0.11343015236417253
2023-01-28 09:12:16.535982,0.13044397532939908
2023-01-28 09:12:16.540982,0.1457475820255133
2023-01-28 09:12:16.545982,0.1575857400894165
2023-01-28 09:12:16.550982,0.16428852046670178
2023-01-28 09:12:16.555982,0.16513447463512415
2023-01-28 09:12:16.560982,0.16093108568013303
2023-01-28 09:12:16.565982,0.15330652892589552
2023-01-28 09:12:16.570982,0.14370548993690863
2023-01-28 09:12:16.575982,0.13325671851634968
2023-01-28 09:12:16.580982,0.1228870250863641
2023-01-28 09:12:16.585982,0.11289437860250465
2023-01-28 09:12:16.590982,0.10279846656463511
2023-01-28 09:12:16.595982,0.09217143058776846
2023-01-28 09:12:16.600982,0.08133647821660821
2023-01-28 09:12:16.605982,0.07091959565877912
2023-01-28 09:12:16.610982,0.06122116349845056
2023-01-28 09:12:16.615982,0.05248050019145009
2023-01-28 09:12:16.620982,0.04522039949939477
2023-01-28 09:12:16.625982,0.039739012718200614
2023-01-28 09:12:16.630982,0.03565928396516987
2023-01-28 09:12:16.635982,0.032502811402082395
2023-01-28 09:12:16.640982,0.030305047979286057
2023-01-28 09:12:16.645982,0.029161175712943018
2023-01-28 09:12:16.650982,0.02861553138327705
2023-01-28 09:12:16.655982,0.028079351410269692
2023-01-28 09:12:16.660982,0.027460267829416556
2023-01-28 09:12:16.665982,0.026805203408002826
2023-01-28 09:12:16.670982,0.025716521889576956
2023-01-28 09:12:16.675982,0.02377609536051752
2023-01-28 09:12:16.680982,0.021291593892180712
2023-01-28 09:12:16.685982,0.019064148887991923
2023-01-28 09:12:16.690982,0.017661341073768145
2023-01-28 09:12:16.695982,0.017381310462951598
2023-01-28 09:12:16.700982,0.018536321274992384
2023-01-28 09:12:16.705982,0.021107595413923173
2023-01-28 09:12:16.710982,0.024334747226807365
2023-01-28 09:12:16.715982,0.027261972427368098
2023-01-28 09:12:16.720982,0.02961293705024645
2023-01-28 09:12:16.725982,0.031757555902004214
2023-01-28 09:12:16.730982,0.03412845101385323
2023-01-28 09:12:16.735982,0.037190716713666895
2023-01-28 09:12:16.740982,0.04169330172261301
2023-01-28 09:12:16.745982,0.04827340692281721
2023-01-28 09:12:16.750982,0.05679265204447941
2023-01-28 09:12:16.755982,0.06637593358755106
2023-01-28 09:12:16.760982,0.07583915925478897
2023-01-28 09:12:16.765982,0.08363704383373259
2023-01-28 09:12:16.770982,0.08773439691991589
2023-01-28 09:12:16.775982,0.08630554378032676
2023-01-28 09:12:16.780982,0.07878282649926081
2023-01-28 09:12:16.785982,0.0660874471068382
2023-01-28 09:12:16.790982,0.050117310872952923
2023-01-28 09:12:16.795982,0.033344231545925085
2023-01-28 09:12:16.800982,0.018455420629673078
2023-01-28 09:12:16.805982,0.007524689193814874
2023-01-28 09:12:16.810982,0.0012431684217560743
2023-01-28 09:12:16.815982,-0.0008895000210030884
2023-01-28 09:12:16.820982,0.00025322585955917394
2023-01-28 09:12:16.825982,0.003918608184903786
2023-01-28 09:12:16.830982,0.009664109801939104
2023-01-28 09:12:16.835982,0.017693838104605602
2023-01-28 09:12:16.840982,0.02880790270205419
2023-01-28 09:12:16.845982,0.04322489351034162
2023-01-28 09:12:16.850982,0.058999856097012165
2023-01-28 09:12:16.855982,0.0715686902403831
2023-01-28 09:12:16.860982,0.0748703790131816
2023-01-28 09:12:16.865982,0.06344299018383023
2023-01-28 09:12:16.870982,0.0349889743459618
2023-01-28 09:12:16.875982,-0.0073323650285601
2023-01-28 09:12:16.880982,-0.054568321941006366
2023-01-28 09:12:16.885982,-0.09476780891418451
2023-01-28 09:12:16.890982,-0.11766389250626184
2023-01-28 09:12:16.895982,-0.1184958219528198
2023-01-28 09:12:16.900982,-0.09927330487147598
2023-01-28 09:12:16.905982,-0.06748180091381069
2023-01-28 09:12:16.910982,-0.03288579420122273
2023-01-28 09:12:16.915982,-0.003606081008911076
2023-01-28 09:12:16.920982,0.016552320649211333
2023-01-28 09:12:16.925982,0.028079351410269716
2023-01-28 09:12:16.930982,0.033735330660345196
2023-01-28 09:12:16.935982,0.036469500511884544
2023-01-28 09:12:16.940982,0.038311713831322015
2023-01-28 09:12:16.945982,0.04005154222249974
2023-01-28 09:12:16.950982,0.04151749681529273
2023-01-28 09:12:16.955982,0.04238347336649885
2023-01-28 09:12:16.960982,0.04283783347753897
2023-01-28 09:12:16.965982,0.04341721534728997
2023-01-28 09:12:16.970982,0.044381223987506005
2023-01-28 09:12:16.975982,0.04553278535604469
2023-01-28 09:12:16.980982,0.04654045161559327
2023-01-28 09:12:16.985982,0.04716753959655759
2023-01-28 09:12:16.990982,0.04734093079439655
2023-01-28 09:12:16.995982,0.04738390445709219
2023-01-28 09:12:17.000982,0.04816345348344658
2023-01-28 09:12:17.005982,0.05065342038869845
2023-01-28 09:12:17.010982,0.055223794020919044
2023-01-28 09:12:17.015982,0.06144762039184561
2023-01-28 09:12:17.020982,0.06850545980527482
2023-01-28 09:12:17.025982,0.07563154399394978
2023-01-28 09:12:17.030982,0.08240756172042785
2023-01-28 09:12:17.035982,0.08904616534709928
2023-01-28 09:12:17.040982,0.09641034708724094
2023-01-28 09:12:17.045982,0.10541777312755576
2023-01-28 09:12:17.050982,0.1162339752105959
2023-01-28 09:12:17.055982,0.12803992629051197
2023-01-28 09:12:17.060982,0.13944525023683935
2023-01-28 09:12:17.065982,0.14897923171520228
2023-01-28 09:12:17.070982,0.15541334093261477
2023-01-28 09:12:17.075982,0.15806655585765825
2023-01-28 09:12:17.080982,0.15697634032413232
2023-01-28 09:12:17.085982,0.15265743434429158
2023-01-28 09:12:17.090982,0.14566506980883864
2023-01-28 09:12:17.095982,0.13645410537719715
2023-01-28 09:12:17.100982,0.1255176474423102
2023-01-28 09:12:17.105982,0.1133992299437522
2023-01-28 09:12:17.110982,0.10055650550689034
2023-01-28 09:12:17.115982,0.08741140365600578
2023-01-28 09:12:17.120982,0.07457220963747312
2023-01-28 09:12:17.125982,0.06284197419881822
2023-01-28 09:12:17.130982,0.05291576563960493
2023-01-28 09:12:17.135982,0.04507601261138911
2023-01-28 09:12:17.140982,0.03908855967799757
2023-01-28 09:12:17.145982,0.034257769584655706
2023-01-28 09:12:17.150982,0.029673708486677896
2023-01-28 09:12:17.155982,0.024713676422834285
2023-01-28 09:12:17.160982,0.019522895714583977
2023-01-28 09:12:17.165982,0.015001296997070354
2023-01-28 09:12:17.170982,0.012223108977813955
2023-01-28 09:12:17.175982,0.011755824089050222
2023-01-28 09:12:17.180982,0.013363610919861692
2023-01-28 09:12:17.185982,0.016179284080862933
2023-01-28 09:12:17.190982,0.019144213117893053
2023-01-28 09:12:17.195982,0.0214922428131103
2023-01-28 09:12:17.200982,0.023068290664718445
2023-01-28 09:12:17.205982,0.024280946701764998
2023-01-28 09:12:17.210982,0.025681167291484275
2023-01-28 09:12:17.215982,0.027502378448843946
2023-01-28 09:12:17.220982,0.029582919178290003
2023-01-28 09:12:17.225982,0.031685434281826005
2023-01-28 09:12:17.230982,0.03378028434761321
2023-01-28 09:12:17.235982,0.03598868846893309
2023-01-28 09:12:17.240982,0.03837187142463369
2023-01-28 09:12:17.245982,0.04082083702087398
2023-01-28 09:12:17.250982,0.04295774252736232
2023-01-28 09:12:17.255982,0.04401823133230202
2023-01-28 09:12:17.260982,0.04310641229988865
2023-01-28 09:12:17.265982,0.03995537757873529
2023-01-28 09:12:17.270982,0.03545007793911309
2023-01-28 09:12:17.275982,0.031204622238874376
2023-01-28 09:12:17.280982,0.028665926924373062
2023-01-28 09:12:17.285982,0.028656324371695508
2023-01-28 09:12:17.290982,0.03129879892541368
2023-01-28 09:12:17.295982,0.035844445228576605
2023-01-28 09:12:17.300982,0.040854105084092734
2023-01-28 09:12:17.305982,0.04526833817362778
2023-01-28 09:12:17.310982,0.04930605498278506
2023-01-28 09:12:17.315982,0.05380272865295406
2023-01-28 09:12:17.320982,0.05883881031480073
2023-01-28 09:12:17.325982,0.06361126899719227
2023-01-28 09:12:17.330982,0.06722041948552954
2023-01-28 09:12:17.335982,0.06851553916931148
2023-01-28 09:12:17.340982,0.06555172291046558
2023-01-28 09:12:17.345982,0.056952040642499924
2023-01-28 09:12:17.350982,0.0442273057515372
2023-01-28 09:12:17.355982,0.031204622238874408
2023-01-28 09:12:17.360982,0.02052004874287795
2023-01-28 09:12:17.365982,0.012164513580500982
2023-01-28 09:12:17.370982,0.006091189193539854
2023-01-28 09:12:17.375982,0.004062851425260305
2023-01-28 09:12:17.380982,0.0071697541408933035
2023-01-28 09:12:17.385982,0.013294419273734011
2023-01-28 09:12:17.390982,0.01958007441414813
2023-01-28 09:12:17.395982,0.026612877845764073
2023-01-28 09:12:17.400982,0.03761342397248692
2023-01-28 09:12:17.405982,0.05349020287394521
2023-01-28 09:12:17.410982,0.07054627793756832
2023-01-28 09:12:17.415982,0.08267541974782935
2023-01-28 09:12:17.420982,0.08358860867188392
2023-01-28 09:12:17.425982,0.06740967929363248
2023-01-28 09:12:17.430982,0.03100079849756925
2023-01-28 09:12:17.435982,-0.02168456837534898
2023-01-28 09:12:17.440982,-0.07857421053217631
2023-01-28 09:12:17.445982,-0.12453000247478474
2023-01-28 09:12:17.450982,-0.1480689918742166
2023-01-28 09:12:17.455982,-0.1447961777448653
2023-01-28 09:12:17.460982,-0.11776528686205776
2023-01-28 09:12:17.465982,-0.07642488181591023
2023-01-28 09:12:17.470982,-0.03330954645933003
2023-01-28 09:12:17.475982,0.0013943513622507026
2023-01-28 09:12:17.480982,0.023559283642521436
2023-01-28 09:12:17.485982,0.03430585190653801
2023-01-28 09:12:17.490982,0.03700329680873142
2023-01-28 09:12:17.495982,0.0355078801512718
2023-01-28 09:12:17.500982,0.03340396246117468
2023-01-28 09:12:17.505982,0.032791297882795264
2023-01-28 09:12:17.510982,0.03366859842644736
2023-01-28 09:12:17.515982,0.03517131134867659
2023-01-28 09:12:17.520982,0.03699523421781763
2023-01-28 09:12:17.525982,0.03908991813659655
2023-01-28 09:12:17.530982,0.04083571823223525
2023-01-28 09:12:17.535982,0.04156609624624245
2023-01-28 09:12:17.540982,0.041465713755994754
2023-01-28 09:12:17.545982,0.04115740582346905
2023-01-28 09:12:17.550982,0.040879655332758044
2023-01-28 09:12:17.555982,0.04082083702087401
2023-01-28 09:12:17.560982,0.041720032472241125
2023-01-28 09:12:17.565982,0.044258635491132715
2023-01-28 09:12:17.570982,0.04822291549866162
2023-01-28 09:12:17.575982,0.05303343385457991
2023-01-28 09:12:17.580982,0.05876415392159002
2023-01-28 09:12:17.585982,0.06596724689006797
2023-01-28 09:12:17.590982,0.0748848953661546
2023-01-28 09:12:17.595982,0.08548816293478008
2023-01-28 09:12:17.600982,0.09780505417007047
2023-01-28 09:12:17.605982,0.11137982457876196
2023-01-28 09:12:17.610982,0.12471299400068403
2023-01-28 09:12:17.615982,0.13602137565612785
2023-01-28 09:12:17.620982,0.14442407111311567
2023-01-28 09:12:17.625982,0.14991681277751912
2023-01-28 09:12:17.630982,0.152630191114407
2023-01-28 09:12:17.635982,0.15280167758464808
2023-01-28 09:12:17.640982,0.15109123957747875
2023-01-28 09:12:17.645982,0.1481137722730636
2023-01-28 09:12:17.650982,0.14379470509737668
2023-01-28 09:12:17.655982,0.13775229454040513
2023-01-28 09:12:17.660982,0.13005381433456556
2023-01-28 09:12:17.665982,0.12102007865905758
2023-01-28 09:12:17.670982,0.11060161171952172
2023-01-28 09:12:17.675982,0.09861429780721655
2023-01-28 09:12:17.680982,0.08538250776044728
2023-01-28 09:12:17.685982,0.07156869024038306
2023-01-28 09:12:17.690982,0.057607167956543984
2023-01-28 09:12:17.695982,0.04387398809194559
2023-01-28 09:12:17.700982,0.031132004235708714
2023-01-28 09:12:17.705982,0.020145973190665186
2023-01-28 09:12:17.710982,0.010996047023922989
2023-01-28 09:12:17.715982,0.0032935540657489924
2023-01-28 09:12:17.720982,-0.003127175815205656
2023-01-28 09:12:17.725982,-0.00822186470031726
2023-01-28 09:12:17.730982,-0.012132802348035156
2023-01-28 09:12:17.735982,-0.01495321653783319
2023-01-28 09:12:17.740982,-0.01629575234644051
2023-01-28 09:12:17.745982,-0.01569847390055649
2023-01-28 09:12:17.750982,-0.013358154694740146
2023-01-28 09:12:17.755982,-0.010000864975154357
2023-01-28 09:12:17.760982,-0.0062154218532502635
2023-01-28 09:12:17.765982,-0.0023559730034321356
2023-01-28 09:12:17.770982,0.0012003020334193349
2023-01-28 09:12:17.775982,0.004303256981074842
2023-01-28 09:12:17.780982,0.007370264228731287
2023-01-28 09:12:17.785982,0.010914405807852676
2023-01-28 09:12:17.790982,0.014806024806966666
2023-01-28 09:12:17.795982,0.01839101314544667
2023-01-28 09:12:17.800982,0.02111922826158139
2023-01-28 09:12:17.805982,0.0226221494376659
2023-01-28 09:12:17.810982,0.022472693091456535
2023-01-28 09:12:17.815982,0.020482540130615158
2023-01-28 09:12:17.820982,0.017146312075896737
2023-01-28 09:12:17.825982,0.013342499732971046
2023-01-28 09:12:17.830982,0.009744877704015116
2023-01-28 09:12:17.835982,0.006923675537109317
2023-01-28 09:12:17.840982,0.005735925350689917
2023-01-28 09:12:17.845982,0.007019837852567426
2023-01-28 09:12:17.850982,0.010960827916320698
2023-01-28 09:12:17.855982,0.01711686514317982
2023-01-28 09:12:17.860982,0.0248016050807414
2023-01-28 09:12:17.865982,0.03293554112315168
2023-01-28 09:12:17.870982,0.0397542143219672
2023-01-28 09:12:17.875982,0.04332105442881579
2023-01-28 09:12:17.880982,0.04245128824604216
2023-01-28 09:12:17.885982,0.036974351853132206
2023-01-28 09:12:17.890982,0.027478109167436163
2023-01-28 09:12:17.895982,0.015337864868342826
2023-01-28 09:12:17.900982,0.0027407251228396537
2023-01-28 09:12:17.905982,-0.008053581230342298
2023-01-28 09:12:17.910982,-0.015709933229465647
2023-01-28 09:12:17.915982,-0.019977688789367582
2023-01-28 09:12:17.920982,-0.021153645801119385
2023-01-28 09:12:17.925982,-0.019713243469595913
2023-01-28 09:12:17.930982,-0.01604531508699407
2023-01-28 09:12:17.935982,-0.009856621734797897
2023-01-28 09:12:17.940982,4.132673057731869e-05
2023-01-28 09:12:17.945982,0.014568567276000928
2023-01-28 09:12:17.950982,0.0324620634631927
2023-01-28 09:12:17.955982,0.04928310960531228
2023-01-28 09:12:17.960982,0.05807086701889508
2023-01-28 09:12:17.965982,0.05135059356689452
2023-01-28 09:12:17.970982,0.024243170402037502
2023-01-28 09:12:17.975982,-0.022117298096418294
2023-01-28 09:12:17.980982,-0.07905092048431038
2023-01-28 09:12:17.985982,-0.13258358836174003
2023-01-28 09:12:17.990982,-0.16867908892802724
2023-01-28 09:12:17.995982,-0.17854909598827345
2023-01-28 09:12:18.000982,-0.16163892763350546
2023-01-28 09:12:18.005982,-0.12537142634391774
2023-01-28 09:12:18.010982,-0.08172262836591496
2023-01-28 09:12:18.015982,-0.041998825967311755
2023-01-28 09:12:18.020982,-0.012643017880802679
2023-01-28 09:12:18.025982,0.005625486373901332
2023-01-28 09:12:18.030982,0.015702236662790806
2023-01-28 09:12:18.035982,0.021227797493338498
2023-01-28 09:12:18.040982,0.024590616073565778
2023-01-28 09:12:18.045982,0.026228230446576992
2023-01-28 09:12:18.050982,0.02525236759466611
2023-01-28 09:12:18.055982,0.020963352173566777
2023-01-28 09:12:18.060982,0.014022964189573385
2023-01-28 09:12:18.065982,0.006322662346064935
2023-01-28 09:12:18.070982,-2.01755614474024e-05
2023-01-28 09:12:18.075982,-0.0034858784638345146
2023-01-28 09:12:18.080982,-0.00346372587079675
2023-01-28 09:12:18.085982,-0.0002644459600560314
2023-01-28 09:12:18.090982,0.005145800658826828
2023-01-28 09:12:18.095982,0.011635622009634939
2023-01-28 09:12:18.100982,0.018279007778124638
2023-01-28 09:12:18.105982,0.024521350860595675
2023-01-28 09:12:18.110982,0.03034380963904807
2023-01-28 09:12:18.115982,0.03618101403117169
2023-01-28 09:12:18.120982,0.042280661474144936
2023-01-28 09:12:18.125982,0.04827340692281718
2023-01-28 09:12:18.130982,0.05392289761010955
2023-01-28 09:12:18.135982,0.06014943122863758
2023-01-28 09:12:18.140982,0.06847539364869382
2023-01-28 09:12:18.145982,0.07933378219604485
2023-01-28 09:12:18.150982,0.09169899422366863
2023-01-28 09:12:18.155982,0.10445614904165257
2023-01-28 09:12:18.160982,0.11707148967306565
2023-01-28 09:12:18.165982,0.12854477763175953
2023-01-28 09:12:18.170982,0.1368929580602409
2023-01-28 09:12:18.175982,0.14061312377452845
2023-01-28 09:12:18.180982,0.1400560118564297
2023-01-28 09:12:18.185982,0.13669452071189875
2023-01-28 09:12:18.190982,0.13167375203357506
2023-01-28 09:12:18.195982,0.12565991282463068
2023-01-28 09:12:18.200982,0.11920339492905783
2023-01-28 09:12:18.205982,0.11217316240072248
2023-01-28 09:12:18.210982,0.10330135019173753
2023-01-28 09:12:18.215982,0.09130597114562977
2023-01-28 09:12:18.220982,0.07634897321865625
2023-01-28 09:12:18.225982,0.059860944747924805
2023-01-28 09:12:18.230982,0.04341111900969136
2023-01-28 09:12:18.235982,0.028391879051923707
2023-01-28 09:12:18.240982,0.01613491540002836
2023-01-28 09:12:18.245982,0.007212162017822241
2023-01-28 09:12:18.250982,0.0007429788963664094
2023-01-28 09:12:18.255982,-0.0048321485519408755
2023-01-28 09:12:18.260982,-0.010409385011935076
2023-01-28 09:12:18.265982,-0.016131203621625866
2023-01-28 09:12:18.270982,-0.022092147942815277
2023-01-28 09:12:18.275982,-0.028247635811567272
2023-01-28 09:12:18.280982,-0.03389934991760743
2023-01-28 09:12:18.285982,-0.03812829777598379
2023-01-28 09:12:18.290982,-0.04062894858900892
2023-01-28 09:12:18.295982,-0.04149397462606428
2023-01-28 09:12:18.300982,-0.0404908635053541
2023-01-28 09:12:18.305982,-0.037334959954023285
2023-01-28 09:12:18.310982,-0.032470972868676694
2023-01-28 09:12:18.315982,-0.02682924270629882
2023-01-28 09:12:18.320982,-0.0209582243712663
2023-01-28 09:12:18.325982,-0.015049378387629944
2023-01-28 09:12:18.330982,-0.009556711841623534
2023-01-28 09:12:18.335982,-0.0050244731828570244
2023-01-28 09:12:18.340982,-0.0014682412916784031
2023-01-28 09:12:18.345982,0.0013462703209369948
2023-01-28 09:12:18.350982,0.003160103757835814
2023-01-28 09:12:18.355982,0.0034618377685545786
2023-01-28 09:12:18.360982,0.0023517785604738888
2023-01-28 09:12:18.365982,0.0005529324407688957
2023-01-28 09:12:18.370982,-0.0012135026560395373
2023-01-28 09:12:18.375982,-0.0021876893006264764
2023-01-28 09:12:18.380982,-0.0011976595381828783
2023-01-28 09:12:18.385982,0.002740621566772437
2023-01-28 09:12:18.390982,0.009310082447135434
2023-01-28 09:12:18.395982,0.016852419823408113
2023-01-28 09:12:18.400982,0.023297035817949018
2023-01-28 09:12:18.405982,0.026709040626883482
2023-01-28 09:12:18.410982,0.0254822181737776
2023-01-28 09:12:18.415982,0.019112229347228997
2023-01-28 09:12:18.420982,0.008955562534343698
2023-01-28 09:12:18.425982,-0.002404054161161137
2023-01-28 09:12:18.430982,-0.012672873948086189
2023-01-28 09:12:18.435982,-0.02053062245249741
2023-01-28 09:12:18.440982,-0.02537960890639177
2023-01-28 09:12:18.445982,-0.027310054749250363
2023-01-28 09:12:18.450982,-0.027147944764373655
2023-01-28 09:12:18.455982,-0.02562721632421007
2023-01-28 09:12:18.460982,-0.02231950643220359
2023-01-28 09:12:18.465982,-0.01586675643920888
2023-01-28 09:12:18.470982,-0.005337671209361053
2023-01-28 09:12:18.475982,0.00872671604156489
2023-01-28 09:12:18.480982,0.02381579458428708
2023-01-28 09:12:18.485982,0.035027068108320236
2023-01-28 09:12:18.490982,0.03565719257773325
2023-01-28 09:12:18.495982,0.0200017299503087
2023-01-28 09:12:18.500982,-0.012972712132325731
2023-01-28 09:12:18.505982,-0.057961743324994965
2023-01-28 09:12:18.510982,-0.10466269789927539
2023-01-28 09:12:18.515982,-0.14099776744842518
2023-01-28 09:12:18.520982,-0.15720704234561883
2023-01-28 09:12:18.525982,-0.14982065558433522
2023-01-28 09:12:18.530982,-0.1232378719307846
2023-01-28 09:12:18.535982,-0.08721908181905735
2023-01-28 09:12:18.540982,-0.05200432192166043
2023-01-28 09:12:18.545982,-0.024593472480773912
2023-01-28 09:12:18.550982,-0.007587892248460304
2023-01-28 09:12:18.555982,0.00031252703047349444
2023-01-28 09:12:18.560982,0.0027185374767263065
2023-01-28 09:12:18.565982,0.0030771892052143053
2023-01-28 09:12:18.570982,0.00287498038936972
2023-01-28 09:12:18.575982,0.002067486522719169
2023-01-28 09:12:18.580982,0.0006802578435060222
2023-01-28 09:12:18.585982,-0.0006490945816039849
2023-01-28 09:12:18.590982,-0.0012433914753439883
2023-01-28 09:12:18.595982,-0.0006010135402902061
2023-01-28 09:12:18.600982,0.0017436607464373908
2023-01-28 09:12:18.605982,0.005745689384639166
2023-01-28 09:12:18.610982,0.010386906344949317
2023-01-28 09:12:18.615982,0.014472405426204213
2023-01-28 09:12:18.620982,0.017820740775051788
2023-01-28 09:12:18.625982,0.021083554252982063
2023-01-28 09:12:18.630982,0.024671179305622782
2023-01-28 09:12:18.635982,0.028512081131338993
2023-01-28 09:12:18.640982,0.032461917630779984
2023-01-28 09:12:18.645982,0.03610889241099346
2023-01-28 09:12:18.650982,0.03856242575428532
2023-01-28 09:12:18.655982,0.03947456926107398
2023-01-28 09:12:18.660982,0.04017727488349318
2023-01-28 09:12:18.665982,0.042984485626220675
2023-01-28 09:12:18.670982,0.04945268708431945
2023-01-28 09:12:18.675982,0.05981286615133278
2023-01-28 09:12:18.680982,0.07340431128751977
2023-01-28 09:12:18.685982,0.08856534957885734
2023-01-28 09:12:18.690982,0.10257825571787832
2023-01-28 09:12:18.695982,0.11308670043945304
2023-01-28 09:12:18.700982,0.11963931380594817
2023-01-28 09:12:18.705982,0.12308757007122025
2023-01-28 09:12:18.710982,0.12392209441682514
2023-01-28 09:12:18.715982,0.12219806760549536
2023-01-28 09:12:18.720982,0.1184323474981592
2023-01-28 09:12:18.725982,0.11308670043945307
2023-01-28 09:12:18.730982,0.10549594677531855
2023-01-28 09:12:18.735982,0.09476780891418449
2023-01-28 09:12:18.740982,0.08143368901091357
2023-01-28 09:12:18.745982,0.06668846309185017
2023-01-28 09:12:18.750982,0.05045821181108135
2023-01-28 09:12:18.755982,0.03223836421966545
2023-01-28 09:12:18.760982,0.013720290792691528
2023-01-28 09:12:18.765982,-0.0017549594631417875
2023-01-28 09:12:18.770982,-0.012866088108550371
2023-01-28 09:12:18.775982,-0.021323960274457907
2023-01-28 09:12:18.780982,-0.028532369723370796
2023-01-28 09:12:18.785982,-0.033440392464399296
2023-01-28 09:12:18.790982,-0.0349426285109764
2023-01-28 09:12:18.795982,-0.034450095146894386
2023-01-28 09:12:18.800982,-0.03432286413253553
2023-01-28 09:12:18.805982,-0.03502706810832016
2023-01-28 09:12:18.810982,-0.03552417511253448
2023-01-28 09:12:18.815982,-0.03553191944956765
2023-01-28 09:12:18.820982,-0.03571029728171177
2023-01-28 09:12:18.825982,-0.03613293170928947
2023-01-28 09:12:18.830982,-0.0360723277865166
2023-01-28 09:12:18.835982,-0.0350991897284984
2023-01-28 09:12:18.840982,-0.03329483103404605
2023-01-28 09:12:18.845982,-0.0306516885757446
2023-01-28 09:12:18.850982,-0.027301362218280018
2023-01-28 09:12:18.855982,-0.024136703461408594
2023-01-28 09:12:18.860982,-0.022239491347689332
2023-01-28 09:12:18.865982,-0.02168456837534897
2023-01-28 09:12:18.870982,-0.021502586561816875
2023-01-28 09:12:18.875982,-0.020626783370971572
2023-01-28 09:12:18.880982,-0.01836769424057647
2023-01-28 09:12:18.885982,-0.01440028380602591
2023-01-28 09:12:18.890982,-0.009107358063762597
2023-01-28 09:12:18.895982,-0.003822445869445773
2023-01-28 09:12:18.900982,-0.00011105760625078294
2023-01-28 09:12:18.905982,0.0011779865017160045
2023-01-28 09:12:18.910982,-9.045311077584846e-05
2023-01-28 09:12:18.915982,-0.003822445869445809
2023-01-28 09:12:18.920982,-0.009585661339071115
2023-01-28 09:12:18.925982,-0.01625140570104117
2023-01-28 09:12:18.930982,-0.022250060196883633
2023-01-28 09:12:18.935982,-0.026059946045279492
2023-01-28 09:12:18.940982,-0.026255557707135113
2023-01-28 09:12:18.945982,-0.021660527214407914
2023-01-28 09:12:18.950982,-0.01219745518641651
2023-01-28 09:12:18.955982,0.0004327297210692933
2023-01-28 09:12:18.960982,0.013246269718079882
2023-01-28 09:12:18.965982,0.023102959617972322
2023-01-28 09:12:18.970982,0.02749132003916659
2023-01-28 09:12:18.975982,0.025122364982962598
2023-01-28 09:12:18.980982,0.016597837538326755
2023-01-28 09:12:18.985982,0.004351337905973084
2023-01-28 09:12:18.990982,-0.00863437434959493
2023-01-28 09:12:18.995982,-0.020218094810843367
2023-01-28 09:12:19.000982,-0.029403637405188855
2023-01-28 09:12:19.005982,-0.03594060987234109
2023-01-28 09:12:19.010982,-0.040035738388088875
2023-01-28 09:12:19.015982,-0.04195074364542956
2023-01-28 09:12:19.020982,-0.04123981207340927
2023-01-28 09:12:19.025982,-0.03646950051188457
2023-01-28 09:12:19.030982,-0.026049942418740955
2023-01-28 09:12:19.035982,-0.009399851784109988
2023-01-28 09:12:19.040982,0.012396657140674913
2023-01-28 09:12:19.045982,0.03613293170928951
2023-01-28 09:12:19.050982,0.056087463731221
2023-01-28 09:12:19.055982,0.06481330096721637
2023-01-28 09:12:19.060982,0.0558035174527313
2023-01-28 09:12:19.065982,0.02673308178782457
2023-01-28 09:12:19.070982,-0.018669978095975655
2023-01-28 09:12:19.075982,-0.07089555263519279
2023-01-28 09:12:19.080982,-0.11704438173444649
2023-01-28 09:12:19.085982,-0.14513275027275077
2023-01-28 09:12:19.090982,-0.1488684518646605
2023-01-28 09:12:19.095982,-0.13010740280151356
2023-01-28 09:12:19.100982,-0.09735990610895491
2023-01-28 09:12:19.105982,-0.061639945954084244
2023-01-28 09:12:19.110982,-0.03220808809149276
2023-01-28 09:12:19.115982,-0.013751189224421903
2023-01-28 09:12:19.120982,-0.005635818492439507
2023-01-28 09:12:19.125982,-0.003558000084012718
2023-01-28 09:12:19.130982,-0.0027165166948313222
2023-01-28 09:12:19.135982,-0.0003125270304734992
2023-01-28 09:12:19.140982,0.004018758597115114
2023-01-28 09:12:19.145982,0.009111365303397121
2023-01-28 09:12:19.150982,0.013257946636014187
2023-01-28 09:12:19.155982,0.015121500007808198
2023-01-28 09:12:19.160982,0.014603148832015802
2023-01-28 09:12:19.165982,0.012957851402461515
2023-01-28 09:12:19.170982,0.011868945476820878
2023-01-28 09:12:19.175982,0.0124530000612139
2023-01-28 09:12:19.180982,0.01501445382459842
2023-01-28 09:12:19.185982,0.019136270508170107
2023-01-28 09:12:19.190982,0.023679038428332588
2023-01-28 09:12:19.195982,0.02718985080718987
2023-01-28 09:12:19.200982,0.02889704484094547
2023-01-28 09:12:19.205982,0.0293054189532995
2023-01-28 09:12:19.210982,0.02971729563741466
2023-01-28 09:12:19.215982,0.0313969478011131
2023-01-28 09:12:19.220982,0.035175303072183896
2023-01-28 09:12:19.225982,0.04125356674194328
2023-01-28 09:12:19.230982,0.04898302782563416
2023-01-28 09:12:19.235982,0.05719244480133045
2023-01-28 09:12:19.240982,0.06516609788863283
2023-01-28 09:12:19.245982,0.07320344448089587
2023-01-28 09:12:19.250982,0.08208743217539065
2023-01-28 09:12:19.255982,0.09224355220794668
2023-01-28 09:12:19.260982,0.10344482980016526
2023-01-28 09:12:19.265982,0.11481761932373037
2023-01-28 09:12:19.270982,0.12482957237909072
2023-01-28 09:12:19.275982,0.13169407844543443
2023-01-28 09:12:19.280982,0.13426232822740158
2023-01-28 09:12:19.285982,0.13248741626739496
2023-01-28 09:12:19.290982,0.12698368086678608
2023-01-28 09:12:19.295982,0.11847178637981406
2023-01-28 09:12:19.300982,0.10775530398175251
2023-01-28 09:12:19.305982,0.09575347602367398
2023-01-28 09:12:19.310982,0.08319409344506035
2023-01-28 09:12:19.315982,0.07048686593770978
2023-01-28 09:12:19.320982,0.05804573016336682
2023-01-28 09:12:19.325982,0.046398244798183386
2023-01-28 09:12:19.330982,0.03578516675680202
2023-01-28 09:12:19.335982,0.02598782442510123
2023-01-28 09:12:19.340982,0.016764201321121323
2023-01-28 09:12:19.345982,0.008173784241080199
2023-01-28 09:12:19.350982,0.00035287379826813017
2023-01-28 09:12:19.355982,-0.006635189056396342
2023-01-28 09:12:19.360982,-0.01251596413664209
2023-01-28 09:12:19.365982,-0.01673221588134759
2023-01-28 09:12:19.370982,-0.01890968381067183
2023-01-28 09:12:19.375982,-0.019160311669111193
2023-01-28 09:12:19.380982,-0.01784054312870461
2023-01-28 09:12:19.385982,-0.015385946258902487
2023-01-28 09:12:19.390982,-0.012507186580013414
2023-01-28 09:12:19.395982,-0.010072986595332605
2023-01-28 09:12:19.400982,-0.008460162781479237
2023-01-28 09:12:19.405982,-0.007236202713102121
2023-01-28 09:12:19.410982,-0.005635259938901689
2023-01-28 09:12:19.415982,-0.0031252703629433823
2023-01-28 09:12:19.420982,0.0004404547727691863
2023-01-28 09:12:19.425982,0.004687905311584421
2023-01-28 09:12:19.430982,0.008524989012728782
2023-01-28 09:12:19.435982,0.010553797706961625
2023-01-28 09:12:19.440982,0.010070029251526912
2023-01-28 09:12:19.445982,0.0075487298890947845
2023-01-28 09:12:19.450982,0.0041508042595735815
2023-01-28 09:12:19.455982,0.001081824302673292
2023-01-28 09:12:19.460982,-0.0006537459264564524
2023-01-28 09:12:19.465982,-0.0005529324407688707
2023-01-28 09:12:19.470982,0.0009795885075594398
2023-01-28 09:12:19.475982,0.002884864807128939
2023-01-28 09:12:19.480982,0.0043471375332223795
2023-01-28 09:12:19.485982,0.0051927566528320035
2023-01-28 09:12:19.490982,0.005426923929577227
2023-01-28 09:12:19.495982,0.004928310867398894
2023-01-28 09:12:19.500982,0.0037883826050506618
2023-01-28 09:12:19.505982,0.002452135086059523
2023-01-28 09:12:19.510982,0.0012613385690269847
2023-01-28 09:12:19.515982,0.00024040541029529076
2023-01-28 09:12:19.520982,-0.0005081546847126077
2023-01-28 09:12:19.525982,-0.0006490945816039613
2023-01-28 09:12:19.530982,-3.696379506151478e-05
2023-01-28 09:12:19.535982,0.0011779865017160014
2023-01-28 09:12:19.540982,0.00308113531753861
2023-01-28 09:12:19.545982,0.006154378410428705
2023-01-28 09:12:19.550982,0.010607460262096064
2023-01-28 09:12:19.555982,0.015866756439208915
2023-01-28 09:12:19.560982,0.020850541184155576
2023-01-28 09:12:19.565982,0.02432902716100214
2023-01-28 09:12:19.570982,0.02496524297433864
2023-01-28 09:12:19.575982,0.021732648834586116
2023-01-28 09:12:19.580982,0.014812274080154864
2023-01-28 09:12:19.585982,0.0057937703095376014
2023-01-28 09:12:19.590982,-0.0033037887923837842
2023-01-28 09:12:19.595982,-0.011034607887267971
2023-01-28 09:12:19.600982,-0.01668377150030095
2023-01-28 09:12:19.605982,-0.020170014351606272
2023-01-28 09:12:19.610982,-0.022123633647550392
2023-01-28 09:12:19.615982,-0.023439526557922266
2023-01-28 09:12:19.620982,-0.024128429021744783
2023-01-28 09:12:19.625982,-0.022694271057844096
2023-01-28 09:12:19.630982,-0.01684387165962285
2023-01-28 09:12:19.635982,-0.00478406762704251
2023-01-28 09:12:19.640982,0.013641298244830694
2023-01-28 09:12:19.645982,0.03579636663198469
2023-01-28 09:12:19.650982,0.05549360885877897
2023-01-28 09:12:19.655982,0.06416420638561238
2023-01-28 09:12:19.660982,0.05436409562930788
2023-01-28 09:12:19.665982,0.023631852120161036
2023-01-28 09:12:19.670982,-0.02361341843969523
2023-01-28 09:12:19.675982,-0.07680952548980712
2023-01-28 09:12:19.680982,-0.12234266875415911
2023-01-28 09:12:19.685982,-0.14842629432678225
2023-01-28 09:12:19.690982,-0.1498843958333413
2023-01-28 09:12:19.695982,-0.1299150884151458
2023-01-28 09:12:19.700982,-0.09770131646519974
2023-01-28 09:12:19.705982,-0.0638757199048995
2023-01-28 09:12:19.710982,-0.03661043209172302
2023-01-28 09:12:19.715982,-0.019520919770002313
2023-01-28 09:12:19.720982,-0.011559804681366694
2023-01-28 09:12:19.725982,-0.008919040672481036
2023-01-28 09:12:19.730982,-0.007903214883910882
2023-01-28 09:12:19.735982,-0.0066832704469560935
2023-01-28 09:12:19.740982,-0.005028885650777518
2023-01-28 09:12:19.745982,-0.0032695136032997803
2023-01-28 09:12:19.750982,-0.0017690058537137598
2023-01-28 09:12:19.755982,-0.0006971756811252969
2023-01-28 09:12:19.760982,0.00026497218406539485
2023-01-28 09:12:19.765982,0.001730918884277263
2023-01-28 09:12:19.770982,0.0038121315428420247
2023-01-28 09:12:19.775982,0.005793770309537573
2023-01-28 09:12:19.780982,0.006809939109316692
2023-01-28 09:12:19.785982,0.006539027206599703
2023-01-28 09:12:19.790982,0.00517288451109024
2023-01-28 09:12:19.795982,0.003269513603299759
2023-01-28 09:12:19.800982,0.0019260314363806186
2023-01-28 09:12:19.805982,0.002572337863966779
2023-01-28 09:12:19.810982,0.006117654541010062
2023-01-28 09:12:19.815982,0.0124770402908325
2023-01-28 09:12:19.820982,0.02104536754121796
2023-01-28 09:12:19.825982,0.031204622238874363
2023-01-28 09:12:19.830982,0.042195198761417294
2023-01-28 09:12:19.835982,0.0530574731528759
2023-01-28 09:12:19.840982,0.06314440585549246
2023-01-28 09:12:19.845982,0.07243414968252176
2023-01-28 09:12:19.850982,0.08113794060125885
2023-01-28 09:12:19.855982,0.08935868740081777
2023-01-28 09:12:19.860982,0.09726848987437463
2023-01-28 09:12:19.865982,0.10505716502666468
2023-01-28 09:12:19.870982,0.11230192338501488
2023-01-28 09:12:19.875982,0.11772652715444559
2023-01-28 09:12:19.880982,0.11991919001986648
2023-01-28 09:12:19.885982,0.11811117827892298
2023-01-28 09:12:19.890982,0.11226877475225018
2023-01-28 09:12:19.895982,0.10301371663808818
2023-01-28 09:12:19.900982,0.09173371615363383
2023-01-28 09:12:19.905982,0.08022328466176976
2023-01-28 09:12:19.910982,0.0696944321129528
2023-01-28 09:12:19.915982,0.0602455958724021
2023-01-28 09:12:19.920982,0.051354576446398875
2023-01-28 09:12:19.925982,0.0424796342849731
2023-01-28 09:12:19.930982,0.033086918079191376
2023-01-28 09:12:19.935982,0.02271831035614009
2023-01-28 09:12:19.940982,0.011480470848094742
2023-01-28 09:12:19.945982,0.0001923243253258088
2023-01-28 09:12:19.950982,-0.010166540743290393
2023-01-28 09:12:19.955982,-0.01884778402745717
2023-01-28 09:12:19.960982,-0.02513593012404175
2023-01-28 09:12:19.965982,-0.028367837890982617
2023-01-28 09:12:19.970982,-0.02851595774412753
2023-01-28 09:12:19.975982,-0.026396512985229395
2023-01-28 09:12:19.980982,-0.02304178137297969
2023-01-28 09:12:19.985982,-0.019160311669111193
2023-01-28 09:12:19.990982,-0.015275268225845675
2023-01-28 09:12:19.995982,-0.0118519868701696
2023-01-28 09:12:20.000982,-0.00903137376603321
2023-01-28 09:12:20.005982,-0.006683270446956106
2023-01-28 09:12:20.010982,-0.004974063934626209
2023-01-28 09:12:20.015982,-0.004471540451049812
2023-01-28 09:12:20.020982,-0.0054487772030310825
2023-01-28 09:12:20.025982,-0.007428526878356885
2023-01-28 09:12:20.030982,-0.009535859418511757
2023-01-28 09:12:20.035982,-0.010890364646911585
2023-01-28 09:12:20.040982,-0.010622302708848527
2023-01-28 09:12:20.045982,-0.008173784241080184
2023-01-28 09:12:20.050982,-0.003952281235122153
2023-01-28 09:12:20.055982,0.0006971756811252873
2023-01-28 09:12:20.060982,0.004425819511072905
2023-01-28 09:12:20.065982,0.006563067436218197
2023-01-28 09:12:20.070982,0.007007311702278411
2023-01-28 09:12:20.075982,0.006106297485530296
2023-01-28 09:12:20.080982,0.004776761703630017
2023-01-28 09:12:20.085982,0.004062851425260291
2023-01-28 09:12:20.090982,0.004199869743284926
2023-01-28 09:12:20.095982,0.004447500221431215
2023-01-28 09:12:20.100982,0.003934818817003541
2023-01-28 09:12:20.105982,0.0022598109208046726
2023-01-28 09:12:20.110982,-0.0006437564519090936
2023-01-28 09:12:20.115982,-0.004495581146329622
2023-01-28 09:12:20.120982,-0.008376133009659507
2023-01-28 09:12:20.125982,-0.011106729507446175
2023-01-28 09:12:20.130982,-0.012146813671345577
2023-01-28 09:12:20.135982,-0.01163562200963489
2023-01-28 09:12:20.140982,-0.009561937788122725
2023-01-28 09:12:20.145982,-0.0055774054490029335
2023-01-28 09:12:20.150982,0.0003025940919904713
2023-01-28 09:12:20.155982,0.007476608268916559
2023-01-28 09:12:20.160982,0.015205834159030094
2023-01-28 09:12:20.165982,0.022501945495605382
2023-01-28 09:12:20.170982,0.0276322096166997
2023-01-28 09:12:20.175982,0.028776526451110812
2023-01-28 09:12:20.180982,0.02547289472170463
2023-01-28 09:12:20.185982,0.018751621246337804
2023-01-28 09:12:20.190982,0.009946731291991681
2023-01-28 09:12:20.195982,0.0003125270304735489
2023-01-28 09:12:20.200982,-0.008445974046641585
2023-01-28 09:12:20.205982,-0.014784932136535568
2023-01-28 09:12:20.210982,-0.018756923192181318
2023-01-28 09:12:20.215982,-0.021516283974051417
2023-01-28 09:12:20.220982,-0.023135288961174873
2023-01-28 09:12:20.225982,-0.022357702255248964
2023-01-28 09:12:20.230982,-0.01874315217021056
2023-01-28 09:12:20.235982,-0.01305401325225831
2023-01-28 09:12:20.240982,-0.0046303824310563
2023-01-28 09:12:20.245982,0.009447932243347034
2023-01-28 09:12:20.250982,0.030457381978370803
2023-01-28 09:12:20.255982,0.0539710149168968
2023-01-28 09:12:20.260982,0.07105024630346528
2023-01-28 09:12:20.265982,0.07303516566753379
2023-01-28 09:12:20.270982,0.054958664215159596
2023-01-28 09:12:20.275982,0.01687645912170414
2023-01-28 09:12:20.280982,-0.03492683821758068
2023-01-28 09:12:20.285982,-0.08810858428478237
2023-01-28 09:12:20.290982,-0.1284729365184921
2023-01-28 09:12:20.295982,-0.1463347673416137
2023-01-28 09:12:20.300982,-0.14002583847549524
2023-01-28 09:12:20.305982,-0.11488974094390858
2023-01-28 09:12:20.310982,-0.080182915780162
2023-01-28 09:12:20.315982,-0.04570106789469707
2023-01-28 09:12:20.320982,-0.018369406115337363
2023-01-28 09:12:20.325982,-0.0001923243253258183
2023-01-28 09:12:20.330982,0.010659456894004112
2023-01-28 09:12:20.335982,0.01682837866246699
2023-01-28 09:12:20.340982,0.01993769235894242
2023-01-28 09:12:20.345982,0.020746987313032084
2023-01-28 09:12:20.350982,0.01965503721589018
2023-01-28 09:12:20.355982,0.016900500282645153
2023-01-28 09:12:20.360982,0.01313521994212312
2023-01-28 09:12:20.365982,0.009904703125357602
2023-01-28 09:12:20.370982,0.008878425272012321
2023-01-28 09:12:20.375982,0.010529756546020516
2023-01-28 09:12:20.380982,0.014017425479507812
2023-01-28 09:12:20.385982,0.018126567825674997
2023-01-28 09:12:20.390982,0.021748985401533825
2023-01-28 09:12:20.395982,0.023848216980695697
2023-01-28 09:12:20.400982,0.02397297648133104
2023-01-28 09:12:20.405982,0.02295871637761594
2023-01-28 09:12:20.410982,0.022544479515549422
2023-01-28 09:12:20.415982,0.024232864379882785
2023-01-28 09:12:20.420982,0.028781185407853578
2023-01-28 09:12:20.425982,0.036301217973232214
2023-01-28 09:12:20.430982,0.04603320632016037
2023-01-28 09:12:20.435982,0.05620678514242168
2023-01-28 09:12:20.440982,0.06501024185453791
2023-01-28 09:12:20.445982,0.0719533413648605
2023-01-28 09:12:20.450982,0.07801944543175597
2023-01-28 09:12:20.455982,0.08471886813640586
2023-01-28 09:12:20.460982,0.09335443417519329
2023-01-28 09:12:20.465982,0.10462443530559531
2023-01-28 09:12:20.470982,0.11793757934393274
2023-01-28 09:12:20.475982,0.13106903433799744
2023-01-28 09:12:20.480982,0.14117731696462155
2023-01-28 09:12:20.485982,0.14638285338878623
2023-01-28 09:12:20.490982,0.14626913335543962
2023-01-28 09:12:20.495982,0.14138242602348314
2023-01-28 09:12:20.500982,0.13292297084344595
2023-01-28 09:12:20.505982,0.12258271872997278
2023-01-28 09:12:20.510982,0.11175685802580353
2023-01-28 09:12:20.515982,0.1007058247923851
2023-01-28 09:12:20.520982,0.08882902955946227
2023-01-28 09:12:20.525982,0.07560750097036359
2023-01-28 09:12:20.530982,0.06093855569017848
2023-01-28 09:12:20.535982,0.04500389099121087
2023-01-28 09:12:20.540982,0.028572641164767144
2023-01-28 09:12:20.545982,0.013294419273733973
2023-01-28 09:12:20.550982,0.0009749488635933995
2023-01-28 09:12:20.555982,-0.007572770118713275
2023-01-28 09:12:20.560982,-0.012727801569796771
2023-01-28 09:12:20.565982,-0.015458067879080668
2023-01-28 09:12:20.570982,-0.01698535078860683
2023-01-28 09:12:20.575982,-0.018607378005981407
2023-01-28 09:12:20.580982,-0.021000208739711243
2023-01-28 09:12:20.585982,-0.023655891418456986
2023-01-28 09:12:20.590982,-0.025509307094670926
2023-01-28 09:12:20.595982,-0.0260839872062206
2023-01-28 09:12:20.600982,-0.025701689561820354
2023-01-28 09:12:20.605982,-0.02488195896148682
2023-01-28 09:12:20.610982,-0.024043374557615394
2023-01-28 09:12:20.615982,-0.023463567718863428
2023-01-28 09:12:20.620982,-0.0228472993270978
2023-01-28 09:12:20.625982,-0.021083554252982098
2023-01-28 09:12:20.630982,-0.017100873305924497
2023-01-28 09:12:20.635982,-0.011034607887268011
2023-01-28 09:12:20.640982,-0.004236042876593506
2023-01-28 09:12:20.645982,0.0016587972640990842
2023-01-28 09:12:20.650982,0.005333713168904168
2023-01-28 09:12:20.655982,0.005986094474792406
2023-01-28 09:12:20.660982,0.003768002913737328
2023-01-28 09:12:20.665982,2.4040540665694127e-05
2023-01-28 09:12:20.670982,-0.0035060612117866724
2023-01-28 09:12:20.675982,-0.005841851234435994
2023-01-28 09:12:20.680982,-0.006967975222835257
2023-01-28 09:12:20.685982,-0.0072842836380003695
2023-01-28 09:12:20.690982,-0.00733401318894802
2023-01-28 09:12:20.695982,-0.007692973129451204
2023-01-28 09:12:20.700982,-0.00836721416181932
2023-01-28 09:12:20.705982,-0.008293986320495586
2023-01-28 09:12:20.710982,-0.0059330723591957575
2023-01-28 09:12:20.715982,-0.00040868920041238726
2023-01-28 09:12:20.720982,0.00802345362149703
2023-01-28 09:12:20.725982,0.01810252666473382
2023-01-28 09:12:20.730982,0.027572553419758398
2023-01-28 09:12:20.735982,0.03348847478628153
2023-01-28 09:12:20.740982,0.033469467036397214
2023-01-28 09:12:20.745982,0.02702156826853751
2023-01-28 09:12:20.750982,0.015608408488534186
2023-01-28 09:12:20.755982,0.0017790000420063094
2023-01-28 09:12:20.760982,-0.011535639252177342
2023-01-28 09:12:20.765982,-0.021612446755170822
2023-01-28 09:12:20.770982,-0.026916617266714172
2023-01-28 09:12:20.775982,-0.027742784470319682
2023-01-28 09:12:20.780982,-0.025586510818621643
2023-01-28 09:12:20.785982,-0.021949013695120773
2023-01-28 09:12:20.790982,-0.017816701016487968
2023-01-28 09:12:20.795982,-0.013582905754446869
2023-01-28 09:12:20.800982,-0.008637139893105399
2023-01-28 09:12:20.805982,-0.0012260675430297
2023-01-28 09:12:20.810982,0.010414609753768596
2023-01-28 09:12:20.815982,0.02627631090581411
2023-01-28 09:12:20.820982,0.04356509806942426
2023-01-28 09:12:20.825982,0.05678375810384752
2023-01-28 09:12:20.830982,0.05871149736562896
2023-01-28 09:12:20.835982,0.04279216378927231
2023-01-28 09:12:20.840982,0.006804217244010427
2023-01-28 09:12:20.845982,-0.044426918029785066
2023-01-28 09:12:20.850982,-0.09966618650345174
2023-01-28 09:12:20.855982,-0.14506062865257258
2023-01-28 09:12:20.860982,-0.16898595127669455
2023-01-28 09:12:20.865982,-0.16616821289062494
2023-01-28 09:12:20.870982,-0.13969924257325947
2023-01-28 09:12:20.875982,-0.09955187886953346
2023-01-28 09:12:20.880982,-0.05788829558921598
2023-01-28 09:12:20.885982,-0.024088621139526343
2023-01-28 09:12:20.890982,-0.002365983836706294
2023-01-28 09:12:20.895982,0.007909337989985877
2023-01-28 09:12:20.900982,0.010532054697552909
2023-01-28 09:12:20.905982,0.010097026824951102
2023-01-28 09:12:20.910982,0.009640237842925971
2023-01-28 09:12:20.915982,0.009832581505179407
2023-01-28 09:12:20.920982,0.010138287479721257
2023-01-28 09:12:20.925982,0.01012106798589222
2023-01-28 09:12:20.930982,0.00958529987137184
2023-01-28 09:12:20.935982,0.008582472801208373
2023-01-28 09:12:20.940982,0.00802097012099206
2023-01-28 09:12:20.945982,0.009447932243347057
2023-01-28 09:12:20.950982,0.01340527917177502
2023-01-28 09:12:20.955982,0.018655460327863586
2023-01-28 09:12:20.960982,0.023723617969451473
2023-01-28 09:12:20.965982,0.028343796730041504
2023-01-28 09:12:20.970982,0.03250803248639774
2023-01-28 09:12:20.975982,0.035147272050380686
2023-01-28 09:12:20.980982,0.035270713940791884
2023-01-28 09:12:20.985982,0.0339692831039428
2023-01-28 09:12:20.990982,0.0339056823568988
2023-01-28 09:12:20.995982,0.0369743518531322
2023-01-28 09:12:21.000982,0.0434951384795386
2023-01-28 09:12:21.005982,0.053225755691528265
2023-01-28 09:12:21.010982,0.06566655587516333
2023-01-28 09:12:21.015982,0.0793578252196311
2023-01-28 09:12:21.020982,0.09224522418444889
2023-01-28 09:12:21.025982,0.10315795987844457
2023-01-28 09:12:21.030982,0.11223480962488755
2023-01-28 09:12:21.035982,0.12001037597656251
2023-01-28 09:12:21.040982,0.127003298544898
2023-01-28 09:12:21.045982,0.1340260207653045
2023-01-28 09:12:21.050982,0.1416414892070671
2023-01-28 09:12:21.055982,0.14895519614219654
2023-01-28 09:12:21.060982,0.15371042067751448
2023-01-28 09:12:21.065982,0.1537873446941375
2023-01-28 09:12:21.070982,0.14814816702404265
2023-01-28 09:12:21.075982,0.1367185562849044
2023-01-28 09:12:21.080982,0.12048998333570504
2023-01-28 09:12:21.085982,0.10181169211864467
2023-01-28 09:12:21.090982,0.08349421293575557
2023-01-28 09:12:21.095982,0.06714522838592515
2023-01-28 09:12:21.100982,0.05278278240821716
2023-01-28 09:12:21.105982,0.03990729898214343
2023-01-28 09:12:21.110982,0.028189833948689586
2023-01-28 09:12:21.115982,0.017285149544477404
2023-01-28 09:12:21.120982,0.007015618143853473
2023-01-28 09:12:21.125982,-0.0020674865227192237
2023-01-28 09:12:21.130982,-0.009094323036536104
2023-01-28 09:12:21.135982,-0.013991594314575095
2023-01-28 09:12:21.140982,-0.01752251109672011
2023-01-28 09:12:21.145982,-0.020218094810843426
2023-01-28 09:12:21.150982,-0.022003905698823746
2023-01-28 09:12:21.155982,-0.02286255359649652
2023-01-28 09:12:21.160982,-0.02305292900187343
2023-01-28 09:12:21.165982,-0.022622149437665905
2023-01-28 09:12:21.170982,-0.021479415660253624
2023-01-28 09:12:21.175982,-0.020001729950308723
2023-01-28 09:12:21.180982,-0.018772822945380886
2023-01-28 09:12:21.185982,-0.0176217164844274
2023-01-28 09:12:21.190982,-0.015656574074053783
2023-01-28 09:12:21.195982,-0.012356838211417089
2023-01-28 09:12:21.200982,-0.008005690049999124
2023-01-28 09:12:21.205982,-0.0031252703629434117
2023-01-28 09:12:21.210982,0.001712722278378538
2023-01-28 09:12:21.215982,0.00555336475372305
2023-01-28 09:12:21.220982,0.007484812014582675
2023-01-28 09:12:21.225982,0.007644891738891535
2023-01-28 09:12:21.230982,0.007143774256586875
2023-01-28 09:12:21.235982,0.006875594612210885
2023-01-28 09:12:21.240982,0.006978495392579501
2023-01-28 09:12:21.245982,0.0073083243332803345
2023-01-28 09:12:21.250982,0.007559240238632604
2023-01-28 09:12:21.255982,0.006923675537109235
2023-01-28 09:12:21.260982,0.0046564135070493035
2023-01-28 09:12:21.265982,0.0013462703209369616
2023-01-28 09:12:21.270982,-0.000985398782053404
2023-01-28 09:12:21.275982,-0.00024040541029532865
2023-01-28 09:12:21.280982,0.004684715589160044
2023-01-28 09:12:21.285982,0.013727148994803371
2023-01-28 09:12:21.290982,0.025344102032326957
2023-01-28 09:12:21.295982,0.03618101403117169
2023-01-28 09:12:21.300982,0.04216779300628201
2023-01-28 09:12:21.305982,0.040724676102399805
2023-01-28 09:12:21.310982,0.03187184495484096
2023-01-28 09:12:21.315982,0.01759767532348632
2023-01-28 09:12:21.320982,0.001008174038030449
2023-01-28 09:12:21.325982,-0.014183918945491304
2023-01-28 09:12:21.330982,-0.02483064039564227
2023-01-28 09:12:21.335982,-0.029858350753784065
2023-01-28 09:12:21.340982,-0.030276448618397005
2023-01-28 09:12:21.345982,-0.027598541229963268
2023-01-28 09:12:21.350982,-0.02270032274919877
2023-01-28 09:12:21.355982,-0.015842717140912982
2023-01-28 09:12:21.360982,-0.006634301794779598
2023-01-28 09:12:21.365982,0.006130337715148878
2023-01-28 09:12:21.370982,0.023265263717382318
2023-01-28 09:12:21.375982,0.04293640702962868
2023-01-28 09:12:21.380982,0.05989533837150681
2023-01-28 09:12:21.385982,0.06721735000610352
2023-01-28 09:12:21.390982,0.058900627405401675
2023-01-28 09:12:21.395982,0.03214220330119129
2023-01-28 09:12:21.400982,-0.010505262278039943
2023-01-28 09:12:21.405982,-0.06017347425222389
2023-01-28 09:12:21.410982,-0.10413675357788127
2023-01-28 09:12:21.415982,-0.13114115595817555
2023-01-28 09:12:21.420982,-0.13583131559234837
2023-01-28 09:12:21.425982,-0.11981805413961408
2023-01-28 09:12:21.430982,-0.09026050011893907
2023-01-28 09:12:21.435982,-0.05714436620473856
2023-01-28 09:12:21.440982,-0.029352658333643204
2023-01-28 09:12:21.445982,-0.011010567657649493
2023-01-28 09:12:21.450982,-0.0009402634538324056
2023-01-28 09:12:21.455982,0.004591743461787691
2023-01-28 09:12:21.460982,0.008997137908294862
2023-01-28 09:12:21.465982,0.014352202415466286
2023-01-28 09:12:21.470982,0.02114624211424757
2023-01-28 09:12:21.475982,0.028055310249328565
2023-01-28 09:12:21.480982,0.032912194671723786
2023-01-28 09:12:21.485982,0.0347145423293113
2023-01-28 09:12:21.490982,0.03427004006437722
2023-01-28 09:12:21.495982,0.03281533718109128
2023-01-28 09:12:21.500982,0.030980102769310132
2023-01-28 09:12:21.505982,0.0292813777923583
2023-01-28 09:12:21.510982,0.028345052255350917
2023-01-28 09:12:21.515982,0.028031270951032604
2023-01-28 09:12:21.520982,0.02740564552750816
2023-01-28 09:12:21.525982,0.026228230446576996
2023-01-28 09:12:21.530982,0.02558068406447353
2023-01-28 09:12:21.535982,0.02656479738652697
2023-01-28 09:12:21.540982,0.029449143101087
2023-01-28 09:12:21.545982,0.034594338387250935
2023-01-28 09:12:21.550982,0.04292847302689556
2023-01-28 09:12:21.555982,0.054644148796796674
2023-01-28 09:12:21.560982,0.06844658387306024
2023-01-28 09:12:21.565982,0.08284370601177213
2023-01-28 09:12:21.570982,0.09712333147585671
2023-01-28 09:12:21.575982,0.11039416491985315
2023-01-28 09:12:21.580982,0.12106642257036962
2023-01-28 09:12:21.585982,0.1284005343914031
2023-01-28 09:12:21.590982,0.13340546251266602
2023-01-28 09:12:21.595982,0.13707916438579548
2023-01-28 09:12:21.600982,0.1389191076871779
2023-01-28 09:12:21.605982,0.13830523192882527
2023-01-28 09:12:21.610982,0.1359800746677362
2023-01-28 09:12:21.615982,0.13270378112792963
2023-01-28 09:12:21.620982,0.12784383235900804
2023-01-28 09:12:21.625982,0.12109220027923581
2023-01-28 09:12:21.630982,0.11419565753728847
2023-01-28 09:12:21.635982,0.10871132463216779
2023-01-28 09:12:21.640982,0.1031935779071623
2023-01-28 09:12:21.645982,0.0952967032790184
2023-01-28 09:12:21.650982,0.08581322703858545
2023-01-28 09:12:21.655982,0.07738649845123285
2023-01-28 09:12:21.660982,0.06946453020738674
2023-01-28 09:12:21.665982,0.058322351425886126
2023-01-28 09:12:21.670982,0.0430837304923742
2023-01-28 09:12:21.675982,0.028175514191388987
2023-01-28 09:12:21.680982,0.017764118371845217
2023-01-28 09:12:21.685982,0.010553797706961621
2023-01-28 09:12:21.690982,0.0026696497649882074
2023-01-28 09:12:21.695982,-0.006442864891141615
2023-01-28 09:12:21.700982,-0.014009687874618123
2023-01-28 09:12:21.705982,-0.01846313476562499
2023-01-28 09:12:21.710982,-0.02069054179364815
2023-01-28 09:12:21.715982,-0.021035473793744992
2023-01-28 09:12:21.720982,-0.018137119473389175
2023-01-28 09:12:21.725982,-0.011515418998896975
2023-01-28 09:12:21.730982,-0.0031363755226884154
2023-01-28 09:12:21.735982,0.004543662071227966
2023-01-28 09:12:21.740982,0.010572340432801502
2023-01-28 09:12:21.745982,0.014857053756713779
2023-01-28 09:12:21.750982,0.017116835519044596
2023-01-28 09:12:21.755982,0.017573636025190315
2023-01-28 09:12:21.760982,0.017585174707413463
2023-01-28 09:12:21.765982,0.018415054306387894
2023-01-28 09:12:21.770982,0.01991100315707813
2023-01-28 09:12:21.775982,0.02113163471221915
2023-01-28 09:12:21.780982,0.021639224720933325
2023-01-28 09:12:21.785982,0.021444162353873187
2023-01-28 09:12:21.790982,0.02035432894317043
2023-01-28 09:12:21.795982,0.018342932686209575
2023-01-28 09:12:21.800982,0.016219607540694913
2023-01-28 09:12:21.805982,0.015097459778189635
2023-01-28 09:12:21.810982,0.01534825855559407
2023-01-28 09:12:21.815982,0.016660094261169392
2023-01-28 09:12:21.820982,0.01879792425663168
2023-01-28 09:12:21.825982,0.021588405594229573
2023-01-28 09:12:21.830982,0.024378606149876452
2023-01-28 09:12:21.835982,0.02630035206675517
2023-01-28 09:12:21.840982,0.02711008769822768
2023-01-28 09:12:21.845982,0.027261972427368088
2023-01-28 09:12:21.850982,0.027282594403247713
2023-01-28 09:12:21.855982,0.027646621689200374
2023-01-28 09:12:21.860982,0.029082872277693458
2023-01-28 09:12:21.865982,0.032166242599487256
2023-01-28 09:12:21.870982,0.03637211069420185
2023-01-28 09:12:21.875982,0.040027499198913456
2023-01-28 09:12:21.880982,0.04137308463133727
2023-01-28 09:12:21.885982,0.03942648693919178
2023-01-28 09:12:21.890982,0.034085082411105375
2023-01-28 09:12:21.895982,0.026180148124694796
2023-01-28 09:12:21.900982,0.0175710211231154
2023-01-28 09:12:21.905982,0.010433594696223706
2023-01-28 09:12:21.910982,0.005924348182191612
2023-01-28 09:12:21.915982,0.0036782026290892987
2023-01-28 09:12:21.920982,0.0026154753115864176
2023-01-28 09:12:21.925982,0.0018751621246337036
2023-01-28 09:12:21.930982,0.0011306002339196747
2023-01-28 09:12:21.935982,0.0008895000210030872
2023-01-28 09:12:21.940982,0.0029411717459036143
2023-01-28 09:12:21.945982,0.009904703125357623
2023-01-28 09:12:21.950982,0.023503911534515944
2023-01-28 09:12:21.955982,0.042840242385864175
2023-01-28 09:12:21.960982,0.06383333048029849
2023-01-28 09:12:21.965982,0.07974247634410844
2023-01-28 09:12:21.970982,0.08268286957725357
2023-01-28 09:12:21.975982,0.06659229844808567
2023-01-28 09:12:21.980982,0.030888658039776706
2023-01-28 09:12:21.985982,-0.017717879265546712
2023-01-28 09:12:21.990982,-0.0670191008511981
2023-01-28 09:12:21.995982,-0.10373493283987037
2023-01-28 09:12:22.000982,-0.1182766300837164
2023-01-28 09:12:22.005982,-0.10818243026733393
2023-01-28 09:12:22.010982,-0.07901171671108902
2023-01-28 09:12:22.015982,-0.04178246110677714
2023-01-28 09:12:22.020982,-0.007883084140966806
2023-01-28 09:12:22.025982,0.015458067879080691
2023-01-28 09:12:22.030982,0.026662186122479004
2023-01-28 09:12:22.035982,0.028536122292280083
2023-01-28 09:12:22.040982,0.025929192073846356
2023-01-28 09:12:22.045982,0.023295283317565932
2023-01-28 09:12:22.050982,0.022814267704316406
2023-01-28 09:12:22.055982,0.024112662300467404
2023-01-28 09:12:22.060982,0.025730306244005227
2023-01-28 09:12:22.065982,0.026757121086120578
2023-01-28 09:12:22.070982,0.027225182195875417
2023-01-28 09:12:22.075982,0.027694702148437514
2023-01-28 09:12:22.080982,0.029004159524394738
2023-01-28 09:12:22.085982,0.03199796006083481
2023-01-28 09:12:22.090982,0.03684298654840044
2023-01-28 09:12:22.095982,0.042647920548915794
2023-01-28 09:12:22.100982,0.04803871122455687
2023-01-28 09:12:22.105982,0.05195160955190651
2023-01-28 09:12:22.110982,0.05377371689063476
2023-01-28 09:12:22.115982,0.053297877311706494
2023-01-28 09:12:22.120982,0.05111998844179014
2023-01-28 09:12:22.125982,0.04882633686065672
2023-01-28 09:12:22.130982,0.04825907486493175
2023-01-28 09:12:22.135982,0.05060533806681629
2023-01-28 09:12:22.140982,0.056295460669789424
2023-01-28 09:12:22.145982,0.06529410928487768
2023-01-28 09:12:22.150982,0.07701666319802844
2023-01-28 09:12:22.155982,0.09029626846313467
2023-01-28 09:12:22.160982,0.10397423960253414
2023-01-28 09:12:22.165982,0.11738996207714078
2023-01-28 09:12:22.170982,0.1299775370840345
2023-01-28 09:12:22.175982,0.14070928096771237
2023-01-28 09:12:22.180982,0.14840799532085033
2023-01-28 09:12:22.185982,0.1524170339107513
2023-01-28 09:12:22.190982,0.15263247743356717
2023-01-28 09:12:22.195982,0.1492196321487426
2023-01-28 09:12:22.200982,0.14275685385270498
2023-01-28 09:12:22.205982,0.13433854281902308
2023-01-28 09:12:22.210982,0.12495189694086764
2023-01-28 09:12:22.215982,0.11484166234731669
2023-01-28 09:12:22.220982,0.10384133786103347
2023-01-28 09:12:22.225982,0.09209930896759029
2023-01-28 09:12:22.230982,0.0801162723318838
2023-01-28 09:12:22.235982,0.0683953389525413
2023-01-28 09:12:22.240982,0.05753006584966711
2023-01-28 09:12:22.245982,0.0483214855194091
2023-01-28 09:12:22.250982,0.04119644340571223
2023-01-28 09:12:22.255982,0.035604041069745976
2023-01-28 09:12:22.260982,0.030420159484658645
2023-01-28 09:12:22.265982,0.024833878502249725
2023-01-28 09:12:22.270982,0.01858186222852512
2023-01-28 09:12:22.275982,0.011755824089050172
2023-01-28 09:12:22.280982,0.00497454857969586
2023-01-28 09:12:22.285982,-0.0005288919201119538
2023-01-28 09:12:22.290982,-0.0036789361620778276
2023-01-28 09:12:22.295982,-0.004447500221431227
2023-01-28 09:12:22.300982,-0.0036606221189509408
2023-01-28 09:12:22.305982,-0.002163648605346623
2023-01-28 09:12:22.310982,-0.0005562248014558027
2023-01-28 09:12:22.315982,0.0006731351604684998
2023-01-28 09:12:22.320982,0.0014756420435914576
2023-01-28 09:12:22.325982,0.0025963783264160096
2023-01-28 09:12:22.330982,0.004997790016456455
2023-01-28 09:12:22.335982,0.008919040672481013
2023-01-28 09:12:22.340982,0.01382989069125635
2023-01-28 09:12:22.345982,0.019016068428754775
2023-01-28 09:12:22.350982,0.023676940584319295
2023-01-28 09:12:22.355982,0.026757121086120612
2023-01-28 09:12:22.360982,0.02748313399457216
2023-01-28 09:12:22.365982,0.0261561088263988
2023-01-28 09:12:22.370982,0.02393925860009813
2023-01-28 09:12:22.375982,0.021876892074942457
2023-01-28 09:12:22.380982,0.020471092703022737
2023-01-28 09:12:22.385982,0.019929608330130463
2023-01-28 09:12:22.390982,0.020142836003946334
2023-01-28 09:12:22.395982,0.020434459671378108
2023-01-28 09:12:22.400982,0.019938054210392873
2023-01-28 09:12:22.405982,0.018366973847150782
2023-01-28 09:12:22.410982,0.01613563080110953
2023-01-28 09:12:22.415982,0.01387139223515983
2023-01-28 09:12:22.420982,0.012201080247150824
2023-01-28 09:12:22.425982,0.011779865249991393
2023-01-28 09:12:22.430982,0.01291480137496103
2023-01-28 09:12:22.435982,0.015145540237426702
2023-01-28 09:12:22.440982,0.017621170252788185
2023-01-28 09:12:22.445982,0.019857486709952275
2023-01-28 09:12:22.450982,0.021832633964484354
2023-01-28 09:12:22.455982,0.023631852120160998
2023-01-28 09:12:22.460982,0.02553324522518119
2023-01-28 09:12:22.465982,0.028223594650626103
2023-01-28 09:12:22.470982,0.03223988328025546
2023-01-28 09:12:22.475982,0.03709455579519269
2023-01-28 09:12:22.480982,0.04129120204214566
2023-01-28 09:12:22.485982,0.04310468956828108
2023-01-28 09:12:22.490982,0.04110432110107199
2023-01-28 09:12:22.495982,0.034450095146894406
2023-01-28 09:12:22.500982,0.023578908995262403
2023-01-28 09:12:22.505982,0.010673999786376905
2023-01-28 09:12:22.510982,-0.0011529838615696448
2023-01-28 09:12:22.515982,-0.009399851784110007
2023-01-28 09:12:22.520982,-0.012923764378494051
2023-01-28 09:12:22.525982,-0.011779865249991429
2023-01-28 09:12:22.530982,-0.007050509778734756
2023-01-28 09:12:22.535982,-0.0005288919201119953
2023-01-28 09:12:22.540982,0.006432205645667066
2023-01-28 09:12:22.545982,0.014111797325313017
2023-01-28 09:12:22.550982,0.024092119012871185
2023-01-28 09:12:22.555982,0.03755132481455805
2023-01-28 09:12:22.560982,0.05373724713574407
2023-01-28 09:12:22.565982,0.06930887699127192
2023-01-28 09:12:22.570982,0.07839274635950692
2023-01-28 09:12:22.575982,0.07399678230285636
2023-01-28 09:12:22.580982,0.05134743047986027
2023-01-28 09:12:22.585982,0.011443297378718822
2023-01-28 09:12:22.590982,-0.0380584402372212
2023-01-28 09:12:22.595982,-0.0853679627180099
2023-01-28 09:12:22.600982,-0.11874566002430159
2023-01-28 09:12:22.605982,-0.130540132522583
2023-01-28 09:12:22.610982,-0.1199653857764846
2023-01-28 09:12:22.615982,-0.09320517629384986
2023-01-28 09:12:22.620982,-0.06014250874021888
2023-01-28 09:12:22.625982,-0.029666027054190563
2023-01-28 09:12:22.630982,-0.006746331670360165
2023-01-28 09:12:22.635982,0.007717013359069796
